CollectionTime,9/20/2024 12:44:33 PM
ExposureUsed,3
CalibratedSpectrum
-962.7078968117929,661
-959.9714848408522,665
-957.2358232597828,716
-954.5009119013725,701
-951.7667505983302,737
-949.0333391832855,727
-946.3006774887896,710
-943.5687653473143,697
-940.837602591253,729
-938.1071890529199,721
-935.3775245645503,730
-932.6486089583007,702
-929.9204420662485,705
-927.1930237203925,691
-924.4663537526524,703
-921.7404319948689,773
-919.0152582788041,748
-916.2908324361409,759
-913.5671542984834,724
-910.8442236973568,663
-908.1220404642074,663
-905.4006044304027,696
-902.679915427231,707
-899.959973285902,703
-897.2407778375464,661
-894.5223289132158,664
-891.8046263438832,665
-889.0876699604426,693
-886.3714595937089,663
-883.6559950744183,662
-880.9412762332282,717
-878.2273029007168,686
-875.5140749073835,638
-872.8015920836489,650
-870.0898542598545,639
-867.3788612662631,697
-864.6686129330585,668
-861.9591090903457,657
-859.2503495681506,663
-856.5423341964203,681
-853.8350628050229,639
-851.1285352237478,670
-848.4227512823054,679
-845.7177108103272,688
-843.0134136373656,710
-840.3098595928943,633
-837.6070485063082,646
-834.9049802069229,639
-832.2036545239757,644
-829.5030712866244,652
-826.8032303239481,673
-824.1041314649472,669
-821.4057745385428,656
-818.7081593735775,680
-816.0112857988148,669
-813.3151536429393,695
-810.6197627345566,701
-807.9251129021936,668
-805.2312039742981,652
-802.5380357792392,706
-799.8456081453069,696
-797.1539209007124,707
-794.462973873588,710
-791.772766891987,713
-789.083299783884,706
-786.3945723771743,644
-783.7065844996748,642
-781.0193359791231,672
-778.3328266431781,699
-775.6470563194197,687
-772.9620248353489,680
-770.2777320183878,695
-767.5941776958798,723
-764.9113616950891,697
-762.2292838432011,700
-759.5479439673222,680
-756.8673418944801,687
-754.1874774516235,724
-751.5083504656222,726
-748.8299607632671,724
-746.15230817127,734
-743.475392516264,716
-740.7992136248035,705
-738.1237713233636,702
-735.4490654383407,702
-732.7750957960521,675
-730.1018622227365,707
-727.4293645445534,735
-724.7576025875837,756
-722.0865761778291,781
-719.4162851412126,720
-716.7467293035781,755
-714.0779084906909,777
-711.409822528237,791
-708.7424712418238,722
-706.0758544569796,734
-703.4099719991541,745
-700.7448236937178,783
-698.0804093659622,785
-695.4167288411002,767
-692.7537819442656,747
-690.0915685005134,765
-687.4300883348199,785
-684.7693412720819,740
-682.1093271371178,784
-679.4500457546669,773
-676.7914969493897,746
-674.1336805458676,778
-671.4765963686034,796
-668.8202442420206,810
-666.1646239904642,801
-663.5097354382001,828
-660.8555784094151,819
-658.2021527282176,833
-655.5494582186366,782
-652.8974947046223,792
-650.2462620100463,815
-647.5957599587009,794
-644.9459883742998,827
-642.2969470804776,810
-639.6486359007902,801
-637.0010546587141,811
-634.3542031776476,852
-631.7080812809096,838
-629.0626887917401,814
-626.4180255333008,802
-623.7740913286734,845
-621.1308860008619,777
-618.4884093727904,841
-615.8466612673046,844
-613.2056415071715,800
-610.5653499150785,815
-607.9257863136347,855
-605.28695052537,873
-602.6488423727357,860
-600.0114616781036,829
-597.3748082637674,803
-594.7388819519412,888
-592.1036825647604,868
-589.4692099242818,836
-586.8354638524829,848
-584.2024441712624,827
-581.5701507024403,879
-578.9385832677575,874
-576.3077416888759,836
-573.6776257873787,877
-571.0482353847704,814
-568.4195703024757,822
-565.7916303618415,809
-563.164415384135,886
-560.5379251905453,818
-557.9121596021815,825
-555.2871184400748,815
-552.6628015251767,812
-550.0392086783606,862
-547.4163397204204,882
-544.794194472071,898
-542.1727727539491,904
-539.5520743866118,898
-536.9320991905377,921
-534.3128469861261,902
-531.6943175936979,973
-529.0765108334947,923
-526.4594265256793,1023
-523.8430644903358,1165
-521.2274245474689,1397
-518.612506517005,1358
-515.9983102187913,1425
-513.3848354725959,1414
-510.77208209810846,1523
-508.16004991493924,1605
-505.5487387426199,1789
-502.9381484006032,1911
-500.3282787082628,1912
-497.71912948489364,1830
-495.1107005497117,1681
-492.5029917218539,1552
-489.8960028203786,1415
-487.28973366426493,1214
-484.68418407241325,1168
-482.07935386364494,1131
-479.47524285670266,1067
-476.87185087025,1025
-474.2691777228715,1030
-471.66722323307334,1073
-469.0659872192821,1107
-466.4654694998459,1037
-463.86566989303384,1064
-461.26658821703614,1038
-458.66822428996414,1045
-456.07057792985,1095
-453.4736489546475,1071
-450.877437182231,988
-448.28194243039627,1023
-445.68716451686,1005
-443.09310325926003,1012
-440.49975847515555,1025
-437.9071299820263,1011
-435.31521759727354,1012
-432.72402113821954,1066
-430.13354042210767,1023
-427.5437752661022,1051
-424.95472548728867,1020
-422.36639090267386,1070
-419.7787713291855,1071
-417.1918665836721,1078
-414.60567648290385,1119
-412.0202008435715,1106
-409.4354394822874,1123
-406.8513922155845,1114
-404.26805885991723,1159
-401.685439231661,1154
-399.103533147112,1062
-396.522340422488,1086
-393.9418608739278,1080
-391.3620943174908,1034
-388.7830405691583,1003
-386.2046994448317,968
-383.6270707603344,956
-381.05015433141045,946
-378.473949973725,932
-375.8984575028645,852
-373.32367673433623,769
-370.74960748356875,777
-368.1762495659117,731
-365.60360279663576,675
-363.03166699093265,616
-360.4604419639154,569
-357.8899275306178,538
-355.32012350599507,533
-352.7510297049233,525
-350.1826459421999,551
-347.61497203254316,525
-345.04800779059235,523
-342.4817530309082,525
-339.91620756797226,560
-337.35137121618743,543
-334.7872437898774,495
-332.22382510328725,481
-329.66111497058273,465
-327.09911320585127,457
-324.53781962310075,474
-321.9772340362607,489
-319.4173562591816,488
-316.8581861056348,526
-314.2997233893127,549
-311.7419679238294,539
-309.1849195227194,519
-306.62857799943856,540
-304.0729431673641,545
-301.51801483979375,597
-298.963792829947,555
-296.41027695096386,525
-293.85746701590574,564
-291.3053628377552,593
-288.7539642294155,581
-286.2032710037115,606
-283.65328297338897,606
-281.1039999511146,623
-278.5554217494762,586
-276.007548180983,595
-273.4603790580651,600
-270.9139141930734,594
-268.3681533982807,637
-265.8230964858798,609
-263.27874326798565,652
-260.7350935566336,664
-258.1921471637804,712
-255.6499039013039,826
-253.10836358100266,762
-250.56752601459698,699
-248.02739101372765,735
-245.48795838995704,730
-242.94922795476816,706
-240.41119951956557,744
-237.8738728956746,748
-235.33724789434166,822
-232.80132432673452,807
-230.2661020039418,741
-227.73158073697357,842
-225.19776033676033,872
-222.66464061415422,907
-220.1322213799284,882
-217.60050244477725,808
-215.06948361931552,832
-212.53916471408013,911
-210.00954553952818,916
-207.48062590603843,883
-204.9524056239104,847
-202.4248845033651,878
-199.8980623545441,919
-197.37193898751036,1037
-194.84651421224817,936
-192.32178783866232,829
-189.79775967657952,940
-187.27442953574644,952
-184.7517972258321,898
-182.2298625564256,821
-179.7086253370378,899
-177.18808537710026,1045
-174.66824248596583,1191
-172.14909647290835,1150
-169.6306471471229,984
-167.11289431772548,996
-164.59583779375328,982
-162.07947738416453,1180
-159.5638128978386,1367
-157.04884414357605,1308
-154.53457093009854,1380
-152.02099306604828,1151
-149.50811035998936,1082
-146.99592262040665,1123
-144.48442965570587,1397
-141.97363127421409,1432
-139.46352728417958,1452
-136.95411749377126,1376
-134.44540171107985,1270
-131.93737974411636,1138
-129.43005140081357,1420
-126.92341648902493,1700
-124.41747481652521,2203
-121.91222619101006,2421
-119.40767042009657,2741
-116.90380731132257,2913
-114.40063667214702,3602
-111.8981583099503,3953
-109.3963720320337,4733
-106.89527764561933,5704
-104.39487495785067,7143
-101.89516377579241,9972
-99.39614390642998,15321
-96.89781515667039,18542
-94.40017733334128,17971
-91.90323024319173,15743
-89.40697369289148,11589
-86.91140748903172,6940
-84.41653143812482,6945
-81.92234534660395,8689
-79.42884902082358,10661
-76.93604226705907,12386
-74.4439248915071,12623
-71.95249670028534,11134
-69.46175749943245,8333
-66.97170709490854,6646
-64.48234529259423,6491
-61.99367189829195,7772
-59.50568671772464,8191
-57.01838955653636,8794
-54.53178022029283,11153
-52.045858514480074,12206
-49.560624244506016,13045
-47.07607721569923,14096
-44.59221723330904,17161
-42.10904410250669,18919
-39.62655762838392,18852
-37.14475761595372,19979
-34.66364387015028,25612
-32.18321619582866,24556
-29.70347439776515,25202
-27.224418280657005,28673
-24.74604764912317,29464
-22.26836230770266,39267
-19.7913620608565,65036
-17.315046712966478,65036
-14.83941606833514,65036
-12.36446993118659,65036
-9.89020810566592,65036
-7.416630395839093,65036
-4.94373660569363,65036
-2.471526539137585,65036
-6.821210263296962E-13,65036
2.47084320796705,65036
4.941003281093458,65036
7.410480415786196,65036
9.879274808531363,65036
12.347386655893956,65036
14.814816154518212,65036
17.28156350112681,65036
19.74762889252179,65036
22.21301252558385,25969
24.67771459727237,6859
27.141735304626195,6535
29.605074844762612,5780
32.06773341487792,4307
34.52971121224755,4235
36.99100843422559,3623
39.45162527824516,3900
41.91156194181792,4952
44.370818622535126,3788
46.82939551806646,2954
49.287292826160524,3686
51.74451074464503,3846
54.201049471426245,3184
56.65690920448981,2461
59.112090141899785,1969
61.56659248179983,2179
64.02041642241159,2263
66.4735621620365,2305
68.92602989905402,2509
71.37781983192338,2424
73.82893215918205,1997
76.27936707944684,1680
78.72912479141326,1922
81.17820549385567,1856
83.62660938562783,1395
86.07433666566146,1469
88.5213875329681,1378
90.96776218663751,1542
93.41346082583925,1685
95.85848364982041,1958
98.30283085790859,1675
100.7465026495089,1441
103.18949922410604,1433
105.63182078126385,1229
108.07346752062438,1403
110.51443964190923,1408
112.95473734491827,1409
115.39436082953114,1162
117.83331029570547,1145
120.27158594347827,1396
122.7091879729652,1366
125.1461165843615,1409
127.58237197794062,1216
130.01795435405518,1142
132.4528639131364,1219
134.88710085569494,1373
137.32066538231982,1274
139.75355769367923,1306
142.1857779905207,1048
144.61732647366978,945
147.04820334403132,1001
149.47840880258934,1153
151.90794305040674,1388
154.33680628862487,1385
156.76499871846443,1474
159.19252054122433,1493
161.61937195828352,1590
164.04555317109896,1834
166.47106438120693,1947
168.89590579022217,2208
171.320077599839,2516
173.7435800118302,2651
176.16641322804742,2759
178.58857745042144,2874
181.01007288096173,2936
183.43089972175687,2948
185.85105817497413,2921
188.27054844285988,2870
190.6893707277394,2887
193.10752523201643,2922
195.5250121581745,3188
197.9418317087751,3032
200.3579840864594,3080
202.7734694939469,3221
205.18828813403627,3320
207.6024402096051,3363
210.01592592360964,3287
212.42874547908548,3166
214.84089907914665,3254
217.2523869269868,3199
219.66320922587727,3210
222.0733661791695,3053
224.48285799029293,3073
226.8916848627572,3181
229.29984700014882,3369
231.7073446061355,3079
234.11417788446204,3198
236.520347038953,3433
238.92585227351185,3523
241.33069379212054,3509
243.73487179884035,3613
246.1383864978112,3580
248.541238093252,3698
250.9434267894609,3815
253.34495279081432,3636
255.74581630176783,3738
258.1460175268563,3826
260.54555667069314,3816
262.9444339379703,3736
265.3426495334594,3695
267.7402036620107,3651
270.1370965285529,3417
272.53332833809407,3238
274.9288992957214,3065
277.32380960660055,3014
279.718059475976,2931
282.1116491091717,2950
284.5045787115897,2893
286.89684848871195,2854
289.2884586460981,2853
291.67940938938807,2926
294.0697009242996,3024
296.4593334566299,2895
298.84830719225477,2869
301.23662233712923,2889
303.6242790972866,2813
306.01127767884,2789
308.39761828798066,2679
310.78330113097934,2575
313.16832641418534,2518
315.5526943440269,2581
317.9364051270112,2542
320.3194589697242,2511
322.70185607883093,2574
325.0835966610754,2415
327.4646809232805,2493
329.8451090723478,2451
332.2248813152577,2450
334.6039978590701,2381
336.9824589109231,2443
339.36026467803447,2352
341.7374153677,2363
344.113911187295,2265
346.48975234427337,2337
348.8649390461686,2371
351.2394715005918,2360
353.61334991523415,2388
355.9865744978655,2372
358.35914545633375,2366
360.73106299856715,2316
363.10232733257146,2310
365.47293866643247,2290
367.84289720831396,2256
370.2122031664593,2183
372.5808567491905,2306
374.9488581649083,2271
377.31620762209275,2215
379.6829053293021,2193
382.0489514951745,2198
384.4143463284262,2300
386.7790900378528,2215
389.14318283232853,2222
391.50662492080653,2174
393.86941651231916,2163
396.23155781597745,2133
398.5930490409713,2138
400.9538903965696,2125
403.3140820921202,2078
405.6736243370498,2140
408.03251734086336,2183
410.3907613131465,2148
412.74835646356166,2135
415.10530300185144,2104
417.4616011378372,2140
419.81725108141893,2179
422.1722530425758,2163
424.5266072313656,2115
426.880313857925,2114
429.2333731324701,2030
431.58578526529516,2109
433.9375504667738,2205
436.2886689473588,2134
438.63914091758113,2131
440.9889665880513,2070
443.33814616945835,2018
445.68667987257015,1997
448.03456790823395,2080
450.3818104873759,2008
452.72840782100013,2042
455.07436012019105,2038
457.41966759611057,2083
459.7643304600007,2047
462.10834892318155,2088
464.4517231970525,2061
466.79445349309174,2086
469.1365400228566,2122
471.4779829979826,2044
473.81878263018564,2047
476.15893913125876,2146
478.4984527130747,2092
480.8373235875855,2229
483.17555196682144,2248
485.5131380628919,2212
487.8500820879857,2442
490.1863842543697,2461
492.52204477439034,2658
494.8570638604725,2813
497.1914417251204,3212
499.52517858091653,3517
501.85827464052306,3899
504.19073011668036,3953
506.5225452222086,3960
508.85372017000566,3907
511.18425517304956,3838
513.514150444396,4154
515.8434061971808,5207
518.1720226446176,6100
520.4999999999999,6360
522.8273384766991,6154
525.1540382881666,5614
527.480099647932,4896
529.8055227696037,4154
532.1303078668694,3043
534.454455153496,2536
536.777964843328,2359
539.1008371502907,2193
541.4230722883866,2203
543.744670471698,2121
546.0656319143858,2202
548.3859568306899,2079
550.7056454349294,2064
553.0246979415016,2036
555.3431145648834,2068
557.6608955196306,1977
559.978041020377,2079
562.2945512818363,2087
564.6104265188006,2116
566.9256669461412,2090
569.2402727788082,2012
571.5542442318302,2048
573.8675815203156,2030
576.1802848594508,2020
578.4923544645015,2024
580.8037905508126,2100
583.114593333807,2062
585.4247630289875,2053
587.7342998519354,2099
590.0432040183106,2117
592.3514757438526,2110
594.6591152443794,2107
596.9661227357875,2086
599.2724984340531,2091
601.578242555231,2025
603.8833553154542,2036
606.1878369309362,2068
608.4916876179676,2066
610.7949075929192,2111
613.0974970722403,2041
615.3994562724587,2098
617.7007854101818,2048
620.0014847020951,2045
622.3015543649641,2095
624.6009946156324,2078
626.8998056710224,2152
629.1979877481361,2021
631.4955410640538,2101
633.7924658359349,2071
636.0887622810175,2134
638.3844306166192,2123
640.6794710601358,2091
642.9738838290426,2141
645.2676691408932,2168
647.5608272133207,2186
649.853358264037,2128
652.1452625108324,2190
654.4365401715764,2192
656.7271914642178,2132
659.0172166067838,2161
661.3066158173809,2182
663.5953893141935,2197
665.8835373154867,2172
668.1710600396028,2176
670.4579577049639,2168
672.7442305300709,2122
675.0298787335033,2176
677.3149025339197,2243
679.599302150058,2172
681.8830778007342,2175
684.1662297048437,2128
686.4487580813608,2185
688.7306631493387,2129
691.0119451279091,2133
693.2926042362834,2153
695.5726406937516,2106
697.8520547196814,2152
700.1308465335215,2126
702.4090163547982,2043
704.6865644031171,2087
706.9634908981619,2117
709.2397960596965,2137
711.5154801075631,2066
713.7905432616823,2067
716.0649857420548,2205
718.3388077687592,2091
720.612009561953,2148
722.8845913418733,2114
725.1565533288352,2119
727.427895743234,2080
729.6986188055427,2078
731.9687227363137,2090
734.238207756178,2147
736.5070740858458,2073
738.7753219461066,2108
741.0429515578281,2060
743.3099631419569,2099
745.5763569195191,2027
747.8421331116193,2092
750.1072919394409,2121
752.3718336242467,2085
754.6357583873777,2073
756.8990664502545,2096
759.1617580343765,2106
761.423833361321,2127
763.6852926527457,2023
765.9461361303862,2078
768.206364016058,2209
770.4659765316536,2124
772.7249738991469,2214
774.9833563405886,2158
777.2411240781092,2178
779.4982773339183,2198
781.7548163303044,2136
784.010741289634,2216
786.2660524343538,2159
788.5207499869881,2136
790.7748341701416,2145
793.0283052064964,2131
795.2811633188143,2159
797.5334087299362,2221
799.7850416627813,2114
802.0360623403484,2167
804.2864709857143,2187
806.5362678220353,2217
808.7854530725468,2175
811.0340269605625,2135
813.2819897094754,2122
815.5293415427581,2135
817.77608268396,2152
820.0222133567116,2128
822.2677337847211,2080
824.5126441917765,2103
826.7569448017433,2148
829.0006358385675,2156
831.2437175262731,2151
833.4861900889629,2100
835.7280537508192,2167
837.9693087361026,2161
840.2099552691533,2175
842.4499935743896,2149
844.689423876309,2163
846.9282463994886,2074
849.1664613685833,2197
851.4040690083276,2230
853.6410695435349,2225
855.877463199097,2215
858.1132501999847,2207
860.3484307712487,2179
862.5830051380175,2212
864.8169735254988,2250
867.0503361589791,2217
869.2830932638243,2184
871.5152450654786,2221
873.7467917894654,2160
875.9777336613873,2235
878.2080709069252,2233
880.4378037518389,2217
882.666932421968,2271
884.8954571432301,2257
887.1233781416219,2179
889.3506956432192,2221
891.5774098741766,2307
893.803521060728,2252
896.0290294291852,2347
898.2539352059397,2274
900.4782386174619,2196
902.7019398903011,2201
904.925039251085,2292
907.147536926521,2348
909.3694331433943,2266
911.59072812857,2257
913.8114221089921,2260
916.0315153116827,2201
918.2510079637437,2234
920.4699002923547,2356
922.6881925247761,2287
924.905884888345,2257
927.1229776104793,2307
929.3394709186747,2214
931.555365040506,2265
933.7706602036275,2279
935.9853566357709,2242
938.1994545647489,2302
940.4129542184515,2344
942.6258558248488,2290
944.8381596119883,2272
947.0498658079974,2298
949.2609746410825,2243
951.4714863395287,2216
953.6814011316998,2229
955.8907192460387,2242
958.0994409110671,2253
960.3075663553858,2267
962.5150958076741,2215
964.7220294966913,2225
966.928367651274,2192
969.1341105003388,2133
971.3392582728806,2195
973.5438111979742,2176
975.747769504772,2256
977.9511334225061,2163
980.153903180487,2132
982.3560790081052,2128
984.5576611348289,2146
986.7586497902058,2069
988.9590452038618,2089
991.158847605503,2055
993.3580572249133,2048
995.5566742919558,1992
997.7546990365728,1951
999.952131688785,1999
1002.1489724786926,1912
1004.3452216364743,1924
1006.5408793923874,1906
1008.7359459767691,1886
1010.9304216200343,1876
1013.1243065526781,1796
1015.3176010052733,1825
1017.510305208472,1824
1019.7024193930064,1838
1021.8939437896848,1889
1024.0848786293977,1853
1026.2752241431122,1858
1028.4649805618747,1863
1030.6541481168115,1775
1032.842727039127,1791
1035.0307175601051,1731
1037.2181199111074,1729
1039.4049343235752,1877
1041.591161029029,1820
1043.7768002590683,1765
1045.9618522453698,1896
1048.1463172196918,1792
1050.3301954138697,1857
1052.513487059818,1812
1054.69619238953,1842
1056.8783116350783,1840
1059.0598450286152,1796
1061.2407928023704,1761
1063.4211551886528,1851
1065.6009324198508,1811
1067.780124728432,1772
1069.9587323469414,1837
1072.1367555080046,1757
1074.314194444325,1726
1076.4910493886855,1769
1078.667320573947,1730
1080.843008233051,1732
1083.0181125990161,1701
1085.1926339049414,1763
1087.3665723840027,1727
1089.5399282694575,1730
1091.7127017946405,1680
1093.8848931929647,1676
1096.0565026979243,1685
1098.2275305430899,1755
1100.3979769621128,1701
1102.567842188722,1679
1104.737126456726,1746
1106.9058300000124,1691
1109.0739530525475,1699
1111.2414958483764,1693
1113.4084586216231,1737
1115.5748416064907,1690
1117.7406450372605,1656
1119.9058691482942,1714
1122.0705141740304,1751
1124.2345803489884,1707
1126.3980679077658,1700
1128.5609770850388,1689
1130.7233081155623,1679
1132.8850612341707,1676
1135.0462366757774,1686
1137.2068346753745,1717
1139.3668554680326,1682
1141.526299288901,1681
1143.68516637321,1676
1145.8434569562655,1713
1148.001171273455,1714
1150.158309560244,1645
1152.3148720521767,1635
1154.470858984876,1575
1156.626270594044,1605
1158.7811071154629,1649
1160.9353687849912,1617
1163.089055838569,1695
1165.242168512213,1635
1167.3947070420209,1645
1169.5466716641677,1620
1171.6980626149075,1671
1173.8488801305748,1688
1175.9991244475814,1647
1178.1487958024186,1612
1180.2978944316555,1590
1182.4464205719428,1590
1184.5943744600072,1605
1186.7417563326567,1575
1188.8885664267755,1621
1191.0348049793297,1635
1193.1804722273619,1641
1195.325568407995,1647
1197.4700937584303,1633
1199.614048515948,1621
1201.7574329179074,1617
1203.900247201746,1667
1206.042491604982,1637
1208.1841663652099,1688
1210.3252717201053,1666
1212.465807907422,1721
1214.6057751649923,1680
1216.7451737307279,1608
1218.8840038426192,1604
1221.0222657387353,1684
1223.1599596572241,1710
1225.2970858363137,1704
1227.4336445143094,1701
1229.5696359295966,1719
1231.705060320639,1709
1233.8399179259786,1737
1235.9742089842384,1712
1238.107933734118,1720
1240.2410924143974,1733
1242.373685263935,1720
1244.5057125216676,1788
1246.6371744266116,1679
1248.7680712178621,1702
1250.898403134593,1736
1253.028170416058,1724
1255.1573733015875,1754
1257.2860120305932,1714
1259.4140868425648,1819
1261.54159797707,1711
1263.6685456737569,1756
1265.7949301723515,1672
1267.9207517126597,1813
1270.046010534565,1755
1272.1707068780306,1810
1274.2948409830983,1769
1276.4184130898889,1847
1278.541423438603,1793
1280.6638722695184,1802
1282.785759822993,1768
1284.9070863394636,1832
1287.0278520594447,1790
1289.1480572235314,1800
1291.2677020723963,1857
1293.3867868467923,1893
1295.5053117875495,1865
1297.623277135579,1873
1299.740683131868,1828
1301.8575300174857,1902
1303.973818033578,1969
1306.0895474213703,1957
1308.2047184221678,1912
1310.3193312773528,1917
1312.4333862283888,1883
1314.5468835168163,1866
1316.659823384255,1928
1318.7722060724045,1899
1320.8840318230418,1927
1322.9953008780249,1947
1325.1060134792888,1966
1327.2161698688478,1938
1329.3257702887959,1890
1331.4348149813054,1895
1333.5433041886276,1897
1335.6512381530933,1921
1337.7586171171101,1945
1339.8654413231675,1894
1341.9717110138317,1873
1344.0774264317488,1918
1346.1825878196432,1840
1348.2871954203192,1902
1350.3912494766587,1910
1352.4947502316231,1961
1354.5976979282532,1898
1356.7000928096686,1851
1358.8019351190665,1891
1360.9032250997243,1869
1363.0039629949988,1894
1365.1041490483235,1880
1367.2037835032133,1887
1369.3028666032606,1876
1371.401398592137,1950
1373.4993797135926,1921
1375.5968102114575,1905
1377.6936903296396,1946
1379.7900203121262,1990
1381.8858004029835,1959
1383.9810308463561,1912
1386.075711886469,1918
1388.1698437676241,1837
1390.2634267342032,2008
1392.356461030667,2000
1394.4489469015557,1978
1396.5408845914872,1969
1398.6322743451592,1999
1400.7231164073469,2032
1402.813411022907,1945
1404.903158436773,2097
1406.9923588939578,2033
1409.0810126395531,2053
1411.1691199187303,2073
1413.2566809767386,2027
1415.343696058907,1989
1417.4301654106425,2052
1419.5160892774315,2117
1421.6014679048399,2180
1423.6863015385125,2118
1425.7705904241707,2194
1427.8543348076178,2191
1429.9375349347342,2195
1432.0201910514802,2211
1434.102303403894,2164
1436.1838722380944,2195
1438.2648978002767,2304
1440.3453803367174,2319
1442.4253200937692,2352
1444.5047173178677,2437
1446.5835722555234,2444
1448.6618851533285,2383
1450.739656257952,2490
1452.8168858161434,2582
1454.8935740747306,2578
1456.96972128062,2624
1459.045327680797,2577
1461.120393522327,2683
1463.1949190523528,2726
1465.2689045180973,2840
1467.3423501668608,2908
1469.415256246024,2881
1471.4876230030463,2939
1473.559450685465,3024
1475.6307395408976,3091
1477.7014898170391,3081
1479.771701761665,3256
1481.8413756226287,3216
1483.9105116478618,3320
1485.9791100853772,3291
1488.0471711832643,3275
1490.1146951896926,3427
1492.1816823529098,3557
1494.2481329212433,3461
1496.3140471430984,3557
1498.3794252669609,3581
1500.4442675413939,3701
1502.5085742150404,3647
1504.572345536622,3742
1506.6355817549388,3689
1508.6982831188702,3801
1510.7604498773744,3733
1512.8220822794883,3764
1514.8831805743293,3849
1516.9437450110909,3943
1519.003775839048,3817
1521.0632733075522,3946
1523.1222376660367,3871
1525.1806691640113,4083
1527.2385680510652,3992
1529.2959345768668,4007
1531.3527689911643,4137
1533.4090715437833,4176
1535.4648424846291,4211
1537.5200820636855,4371
1539.5747905310159,4348
1541.6289681367616,4412
1543.6826151311434,4424
1545.7357317644614,4479
1547.7883182870937,4563
1549.8403749494987,4640
1551.8919020022113,4721
1553.9428996958477,4756
1555.9933682811015,4920
1558.0433080087469,4934
1560.0927191296346,5000
1562.1416018946961,5158
1564.1899565549415,5224
1566.2377833614592,5109
1568.2850825654164,4974
1570.3318544180606,4832
1572.3780991707158,4713
1574.423817074788,4483
1576.4690083817595,4365
1578.5136733431923,4182
1580.5578122107272,3922
1582.601425236085,3784
1584.6445126710646,3545
1586.6870747675434,3399
1588.7291117774776,3200
1590.7706239529034,3265
1592.8116115459347,2982
1594.8520748087658,2892
1596.8920139936686,2750
1598.9314293529933,2638
1600.9703211391711,2597
1603.008689604711,2485
1605.0465350022005,2393
1607.0838575843068,2385
1609.1206576037753,2374
1611.1569353134305,2259
1613.1926909661765,2243
1615.2279248149953,2198
1617.2626371129481,2101
1619.2968281131757,2019
1621.3304980688963,2063
1623.3636472334088,2067
1625.39627586009,2086
1627.428384202396,2017
1629.459972513861,1950
1631.4910410480993,1885
1633.5215900588028,1904
1635.551619799744,1883
1637.5811305247717,1948
1639.6101224878166,1828
1641.6385959428862,1795
1643.6665511440683,1851
1645.693988345528,1845
1647.7209078015112,1824
1649.7473097663405,1816
1651.7731944944203,1797
1653.7985622402307,1794
1655.823413258333,1808
1657.847747803366,1771
1659.8715661300494,1795
1661.8948684931793,1734
1663.9176551476316,1749
1665.9399263483624,1823
1667.9616823504057,1789
1669.982923408873,1745
1672.0036497789574,1799
1674.0238617159293,1731
1676.043559475138,1761
1678.0627433120121,1802
1680.081413482059,1793
1682.0995702408654,1743
1684.117213844096,1819
1686.134344547495,1744
1688.1509626068864,1725
1690.1670682781705,1813
1692.182661817329,1813
1694.1977434804217,1796
1696.2123135235875,1812
1698.226372203043,1723
1700.2399197750851,1773
1702.2529564960905,1767
1704.2654826225112,1738
1706.277498410882,1734
1708.2890041178139,1735
1710.2999999999988,1731
1712.3104863142066,1726
1714.3204633172854,1709
1716.329931266163,1724
1718.3388904178469,1708
1720.3473410294214,1696
1722.3552833580516,1617
1724.3627176609807,1729
1726.3696441955308,1626
1728.3760632191033,1688
1730.3819749891782,1729
1732.3873797633146,1729
1734.3922777991502,1677
1736.3966693544012,1659
1738.4005546868639,1638
1740.4039340544127,1648
1742.406807715001,1637
1744.4091759266616,1659
1746.4110389475054,1654
1748.4123970357223,1605
1750.413250449582,1589
1752.4135994474318,1585
1754.4134442876993,1601
1756.4127852288902,1659
1758.4116225295893,1606
1760.4099564484595,1621
1762.407787244244,1618
1764.405115175764,1657
1766.4019405019203,1584
1768.3982634816916,1571
1770.3940843741357,1532
1772.3894034383907,1508
1774.3842209336717,1515
1776.378537119274,1586
1778.372352254571,1650
1780.3656665990156,1581
1782.3584804121397,1551
1784.3507939535534,1609
1786.3426074829463,1584
1788.3339212600863,1624
1790.3247355448211,1564
1792.3150505970766,1546
1794.3048666768573,1514
1796.2941840442477,1569
1798.2830029594106,1538
1800.2713236825884,1594
1802.2591464741004,1555
1804.2464715943465,1505
1806.2332993038058,1556
1808.2196298630352,1499
1810.2054635326708,1531
1812.190800573428,1545
1814.175641246101,1539
1816.1599858115628,1537
1818.1438345307652,1568
1820.127187664738,1557
1822.1100454745924,1551
1824.092408221516,1516
1826.0742761667766,1569
1828.055649571721,1505
1830.0365286977735,1502
1832.0169138064398,1520
1833.9968051593014,1523
1835.9762030180214,1531
1837.9551076443408,1496
1839.9335193000788,1565
1841.9114382471344,1523
1843.888864747485,1494
1845.8657990631878,1526
1847.842241456378,1526
1849.8181921892697,1430
1851.7936515241558,1539
1853.7686197234098,1515
1855.7430970494815,1535
1857.7170837649014,1487
1859.6905801322787,1543
1861.6635864143004,1467
1863.6361028737338,1531
1865.608129773424,1490
1867.5796673762961,1543
1869.5507159453537,1604
1871.521275743678,1598
1873.4913470344313,1536
1875.4609300808534,1552
1877.4300251462632,1510
1879.3986324940588,1500
1881.366752387717,1552
1883.3343850907936,1514
1885.3015308669228,1575
1887.268189979819,1517
1889.2343626932739,1634
1891.2000492711595,1578
1893.1652499774254,1559
1895.1299650761011,1523
1897.0941948312952,1563
1899.0579395071945,1601
1901.0211993680641,1561
1902.98397467825,1567
1904.9462657021745,1573
1906.9080727043415,1563
1908.869395949332,1559
1910.8302357018065,1483
1912.790592226504,1645
1914.7504657882428,1556
1916.7098566519212,1551
1918.6687650825133,1567
1920.6271913450764,1569
1922.5851357047422,1531
1924.5425984267245,1490
1926.499579776314,1521
1928.4560800188833,1597
1930.4120994198802,1552
1932.367638244833,1511
1934.32269675935,1603
1936.2772752291175,1622
1938.231373919899,1581
1940.1849930975404,1553
1942.1381330279637,1495
1944.0907939771696,1569
1946.0429762112412,1531
1947.9946799963363,1526
1949.9459055986945,1555
1951.896653284633,1541
1953.8469233205478,1540
1955.7967159729142,1521
1957.7460315082863,1495
1959.6948701932974,1515
1961.6432322946594,1467
1963.5911180791632,1489
1965.5385278136787,1474
1967.4854617651545,1538
1969.4319202006182,1556
1971.377903387176,1500
1973.3234115920136,1525
1975.268445082395,1553
1977.2130041256642,1550
1979.1570889892423,1495
1981.1006999406304,1502
1983.04383724741,1484
1984.986501177238,1518
1986.928691997853,1458
1988.8704099770712,1502
1990.811655382789,1421
1992.7524284829801,1501
1994.692729545698,1511
1996.6325588390755,1443
1998.5719166313224,1464
2000.5108031907307,1463
2002.4492187856677,1456
2004.387163684583,1478
2006.3246381560011,1483
2008.2616424685298,1531
2010.1981768908527,1521
2012.1342416917332,1468
2014.069837140014,1464
2016.0049635046162,1410
2017.9396210545406,1398
2019.8738100588666,1458
2021.8075307867502,1432
2023.740783507431,1468
2025.6735684902228,1498
2027.6058860045214,1433
2029.5377363198004,1419
2031.4691197056118,1428
2033.4000364315875,1463
2035.3304867674374,1408
2037.260470982952,1452
2039.189989347998,1465
2041.1190421325232,1454
2043.047629606554,1482
2044.9757520401945,1449
2046.9034097036288,1404
2048.8306028671195,1428
2050.7573318010086,1437
2052.683596775716,1442
2054.609398061742,1427
2056.5347359296647,1380
2058.4596106501403,1362
2060.384022493906,1422
2062.3079717317764,1427
2064.231458634646,1419
2066.1544834734873,1430
2068.077046519352,1411
2069.99914804337,1405
2071.9207883167524,1474
2073.8419676107865,1419
2075.7626861968406,1428
2077.6829443463607,1409
2079.6027423308715,1366
2081.522080421977,1410
2083.440958891362,1423
2085.359378010786,1391
2087.2773380520907,1434
2089.194839287196,1490
2091.111881988101,1421
2093.0284664268825,1428
2094.9445928756973,1490
2096.86026160678,1418
2098.775472892446,1418
2100.690227005088,1433
2102.604524217178,1413
2104.5183648012676,1433
2106.431749029985,1410
2108.34467717604,1440
2110.2571495122206,1476
2112.169166311393,1463
2114.080727846503,1437
2115.9918343905747,1416
2117.902486216711,1363
2119.8126835980956,1440
2121.722426807987,1403
2123.6317161197285,1432
2125.5405518067364,1431
2127.448934142509,1414
2129.356863400624,1461
2131.264339854737,1460
2133.1713637785815,1476
2135.077935445972,1539
2136.9840551308002,1469
2138.889723107037,1479
2140.7949396487334,1474
2142.699705030018,1419
2144.6040195250994,1459
2146.507883408264,1534
2148.4112969538774,1445
2150.3142604363848,1463
2152.2167741303097,1496
2154.1188383102535,1463
2156.0204532508997,1477
2157.9216192270064,1471
2159.822336513414,1445
2161.7226053850413,1511
2163.622426116884,1493
2165.5217989840185,1460
2167.4207242616,1495
2169.319202224862,1493
2171.2172331491165,1478
2173.1148173097563,1478
2175.0119549822507,1463
2176.90864644215,1463
2178.8048919650823,1457
2180.7006918267534,1548
2182.596046302952,1504
2184.4909556695407,1490
2186.3854202024645,1481
2188.279440177746,1521
2190.173015871487,1500
2192.066147559868,1506
2193.958835519149,1515
2195.851080025667,1495
2197.7428813558417,1506
2199.6342397861667,1544
2201.5251555932186,1511
2203.415629053651,1556
2205.3056604441986,1525
2207.19525004167,1511
2209.084398122958,1496
2210.9731049650327,1494
2212.861370844941,1520
2214.749196039812,1487
2216.636580826851,1527
2218.523525483344,1530
2220.410030286655,1521
2222.296095514226,1483
2224.1817214435805,1525
2226.066908352319,1610
2227.951656518121,1485
2229.835966218746,1484
2231.71983773203,1543
2233.6032713358913,1575
2235.486267308324,1447
2237.3688259274036,1522
2239.2509474712824,1490
2241.132632218193,1465
2243.013880446447,1523
2244.8946924344323,1482
2246.7750684606203,1470
2248.6550088035574,1505
2250.534513741871,1513
2252.413583554265,1586
2254.292218519526,1520
2256.170418916517,1520
2258.0481850241786,1522
2259.925517121534,1562
2261.8024154876825,1501
2263.678880401803,1407
2265.5549121431536,1538
2267.430510991071,1516
2269.305677224971,1553
2271.180411124348,1519
2273.0547129687766,1483
2274.9285830379076,1475
2276.8020216114737,1491
2278.6750289692845,1461
2280.5476053912294,1531
2282.4197511572766,1493
2284.2914665474727,1576
2286.162751841943,1586
2288.0336073208937,1602
2289.904033264608,1592
2291.774029953448,1541
2293.6435976678554,1506
2295.5127366883517,1563
2297.381447295534,1479
2299.2497297700825,1486
2301.1175843927526,1409
2302.9850114443825,1474
2304.852011205885,1363
2306.7185839582553,1315
2308.5847299825664,1350
2310.4504495599676,1341
2312.3157429716925,1323
2314.1806104990483,1356
2316.0450524234247,1341
2317.9090690262888,1320
2319.772660589186,1333
2321.635827393742,1363
2323.498569721661,1324
2325.3608878547248,1336
2327.2227820747967,1289
2329.0842526638157,1330
2330.945299903803,1328
2332.805924076857,1315
2334.6661254651535,1354
2336.525904350951,1320
2338.3852610165827,1371
2340.244195744464,1324
2342.102708817088,1353
2343.9608005170253,1384
2345.8184711269287,1317
2347.675720929526,1319
2349.532550207628,1333
2351.38895924412,1403
2353.24494832197,1379
2355.100517724223,1365
2356.955667734004,1320
2358.810398634514,1385
2360.664710709037,1302
2362.5186042409337,1415
2364.3720795136437,1401
2366.225136810686,1367
2368.0777764156583,1385
2369.929998612237,1448
2371.7818036841777,1353
2373.633191915315,1364
2375.484163589562,1338
2377.3347189909114,1376
2379.184858403434,1353
2381.03458211128,1373
2382.8838903986775,1388
2384.732783549936,1377
2386.5812618494406,1374
2388.4293255816588,1383
2390.2769750311327,1406
2392.1242104824883,1367
2393.971032220427,1408
2395.8174405297295,1399
2397.6634356952563,1397
2399.509018001947,1402
2401.3541877348193,1375
2403.1989451789705,1350
2405.043290619576,1465
2406.8872243418905,1405
2408.730746631247,1356
2410.5738577730594,1373
2412.4165580528183,1388
2414.258847756095,1359
2416.100727168537,1438
2417.9421965758734,1381
2419.783256263912,1404
2421.623906518538,1432
2423.4641476257157,1380
2425.303979871491,1383
2427.143403541984,1431
2428.9824189233977,1379
2430.821026302012,1388
2432.6592259641866,1374
2434.497018196361,1414
2436.33440328505,1425
2438.171381516851,1409
2440.00795317844,1431
2441.844118556569,1430
2443.6798779380724,1452
2445.5152316098606,1425
2447.3501798589255,1409
2449.1847229723357,1473
2451.0188612372403,1429
2452.8525949408663,1476
2454.6859243705203,1422
2456.518849813587,1408
2458.3513715575314,1408
2460.183489889895,1434
2462.015205098301,1450
2463.8465174704493,1402
2465.67742729412,1432
2467.5079348571717,1360
2469.338040447542,1448
2471.1677443532476,1460
2472.9970468623833,1471
2474.825948263123,1409
2476.6544488437207,1416
2478.482548892508,1422
2480.310248697896,1457
2482.137548548374,1449
2483.9644487325118,1455
2485.790949538956,1448
2487.617051256433,1492
2489.44275417375,1407
2491.26805857979,1404
2493.0929647635157,1467
2494.917473013971,1448
2496.741583620276,1453
2498.5652968716304,1502
2500.3886130573137,1466
2502.2115324666834,1521
2504.0340553891765,1462
2505.856182114308,1510
2507.6779129316733,1456
2509.499248130945,1510
2511.3201880018764,1524
2513.140732834298,1524
2514.9608829181198,1466
2516.780638543331,1551
2518.6,1593
2520.418967578273,1572
2522.237541568376,1571
2524.0557222606144,1547
2525.8735099453706,1588
2527.6909049131086,1588
2529.507907454368,1576
2531.32451785977,1486
2533.140736420014,1530
2534.9565634258774,1557
2536.771999168218,1574
2538.5870439379714,1612
2540.4016980261526,1632
2542.2159617238544,1601
2544.02983532225,1584
2545.8433191125914,1579
2547.656413386209,1658
2549.4691184345115,1692
2551.2814345489874,1697
2553.093362021204,1686
2554.904901142808,1694
2556.716052205523,1736
2558.526815501153,1720
2560.3371913215824,1764
2562.147179958771,1791
2563.956781704761,1810
2565.7659968516705,1831
2567.5748256916986,1847
2569.3832685171224,1752
2571.1913256202984,1804
2572.9989972936614,1832
2574.806283829725,1837
2576.613185521084,1819
2578.4197026604074,1831
2580.2258355404483,1886
2582.031584454035,1901
2583.836949694077,1859
2585.6419315535613,1905
2587.4465303255533,1873
2589.2507463032002,1905
2591.0545797797245,1920
2592.8580310484303,1928
2594.6611004026995,1929
2596.463788135992,1948
2598.266094541849,1946
2600.0680199138874,1948
2601.869564545807,1939
2603.670728731383,1999
2605.4715127644704,1969
2607.2719169390048,1928
2609.071941548998,1945
2610.8715868885433,1990
2612.670853251811,1943
2614.469740933052,1937
2616.268250226594,1941
2618.0663814268455,1903
2619.864134828292,1945
2621.6615107255006,1919
2623.458509413115,1889
2625.2551311858597,1958
2627.0513763385347,1940
2628.8472451660223,1875
2630.6427379632833,1892
2632.4378550253564,1868
2634.232596647359,1853
2636.026963124488,1804
2637.8209547520187,1800
2639.6145718253065,1794
2641.407814639785,1847
2643.200683490966,1737
2644.9931786744414,1759
2646.7853004858807,1771
2648.577049221034,1682
2650.3684251757277,1718
2652.1594286458712,1704
2653.9500599274484,1737
2655.740319316525,1668
2657.5302071092437,1591
2659.3197236018286,1602
2661.10886909058,1620
2662.8976438718782,1604
2664.686048242183,1612
2666.4740824980327,1593
2668.2617469360443,1594
2670.0490418529134,1581
2671.8359675454153,1538
2673.622524310403,1561
2675.408712444811,1549
2677.1945322456495,1515
2678.979984010009,1480
2680.76506803506,1548
2682.5497846180497,1481
2684.334134056306,1465
2686.1181166472343,1414
2687.9017326883213,1483
2689.6849824771293,1559
2691.4678663113013,1446
2693.2503844885596,1482
2695.032537306705,1448
2696.8143250636167,1440
2698.5957480572542,1432
2700.3768065856534,1451
2702.1575009469316,1414
2703.937831439283,1472
2705.717798360982,1415
2707.4974020103837,1428
2709.276642685917,1399
2711.055520686095,1382
2712.834036309506,1420
2714.612189854819,1376
2716.389981620782,1383
2718.1674119062204,1328
2719.944481010041,1371
2721.721189231226,1421
2723.4975368688415,1446
2725.273524222027,1387
2727.0491515900053,1375
2728.824419272075,1396
2730.5993275676146,1460
2732.3738767760838,1363
2734.148067197016,1454
2735.921899130031,1330
2737.6953728748194,1420
2739.468488731156,1317
2741.2412469988926,1306
2743.0136479779617,1352
2744.785691968372,1292
2746.5573792702116,1335
2748.3287101836504,1333
2750.099685008934,1332
2751.870304046388,1347
2753.640567596418,1340
2755.4104759595057,1307
2757.1800294362156,1378
2758.949228327187,1331
2760.7180729331412,1338
2762.486563554877,1327
2764.254700493272,1362
2766.022484049284,1326
2767.789914523947,1331
2769.5569922183786,1370
2771.3237174337705,1342
2773.090090471394,1353
2774.8561116326036,1358
2776.6217812188274,1326
2778.3870995315756,1309
2780.1520668724356,1340
2781.9166835430747,1296
2783.6809498452394,1306
2785.444866080754,1324
2787.2084325515225,1354
2788.971649559527,1326
2790.73451740683,1309
2792.4970363955713,1275
2794.2592068279705,1350
2796.0210290063264,1363
2797.7825032330147,1306
2799.543629810493,1316
2801.304409041296,1298
2803.0648412280366,1298
2804.8249266734088,1362
2806.5846656801846,1295
2808.344058551212,1350
2810.1031055894246,1404
2811.8618070978273,1266
2813.6201633795085,1343
2815.378174737636,1316
2817.1358414754536,1334
2818.893163896285,1296
2820.6501423035334,1310
2822.4067770006814,1349
2824.1630682912883,1306
2825.9190164789957,1303
2827.6746218675207,1294
2829.429884760661,1321
2831.184805462294,1321
2832.9393842763743,1316
2834.693621506936,1302
2836.4475174580916,1306
2838.201072434034,1363
2839.954286739034,1251
2841.707160677441,1298
2843.459694553685,1289
2845.2118886722724,1314
2846.96374333779,1319
2848.7152588549034,1258
2850.4664355283567,1264
2852.217273662973,1271
2853.9677735636546,1306
2855.7179355353833,1300
2857.4677598832186,1343
2859.217246912299,1298
2860.9663969278427,1308
2862.715210235146,1316
2864.4636871395846,1274
2866.211827946614,1287
2867.9596329617652,1293
2869.7071024906536,1283
2871.4542368389684,1299
2873.20103631248,1242
2874.947501217038,1252
2876.6936318585695,1279
2878.4394285430812,1300
2880.1848915766604,1336
2881.9300212654707,1281
2883.6748179157553,1303
2885.4192818338374,1237
2887.1634133261173,1269
2888.907212699077,1276
2890.6506802592744,1278
2892.393816313348,1314
2894.1366211680142,1367
2895.8790951300693,1335
2897.621238506388,1301
2899.363051603925,1293
2901.1045347297118,1314
2902.8456881908596,1343
2904.58651229456,1294
2906.327007348081,1272
2908.067173658772,1276
2909.8070115340597,1295
2911.5465212814497,1270
2913.285703208527,1292
2915.0245576229563,1283
2916.7630848324807,1265
2918.5012851449196,1303
2920.2391588681758,1257
2921.976706310227,1261
2923.7139277791334,1315
2925.4508235830313,1281
2927.187394030137,1257
2928.923639428745,1309
2930.6595600872306,1291
2932.395156314046,1286
2934.1304284177218,1228
2935.8653767068713,1309
2937.6000014901815,1299
2939.3343030764227,1258
2941.068281774442,1286
2942.8019378931644,1314
2944.5352717415976,1293
2946.2682836288236,1254
2948.0009738640065,1233
2949.7333427563885,1277
2951.465390615289,1315
2953.1971177501086,1295
2954.9285244703265,1282
2956.6596110855,1302
2958.3903779052657,1266
2960.1208252393385,1314
2961.8509533975125,1289
2963.5807626896617,1260
2965.3102534257378,1273
2967.0394259157715,1346
2968.768280469873,1285
2970.496817398232,1289
2972.2250370111146,1306
2973.952939618869,1369
2975.6805255319196,1322
2977.4077950607707,1321
2979.134748516006,1238
2980.861386208289,1305
2982.587708448359,1291
2984.313715547037,1272
2986.039407815222,1302
2987.764785563891,1341
2989.489849104102,1303
2991.2145987469908,1245
2992.9390348037705,1319
2994.6631575857346,1280
2996.3869674042576,1303
2998.1104645707887,1292
2999.83364939686,1338
3001.5565221940783,1322
3003.2790832741334,1341
3005.0013329487924,1332
3006.7232715298996,1272
3008.4448993293804,1240
3010.166216659239,1251
3011.887223831558,1247
3013.607921158498,1257
3015.3283089522993,1322
3017.0483875252826,1311
3018.7681571898443,1307
3020.4876182584626,1276
3022.2067710436927,1309
3023.9256158581707,1311
3025.644153014609,1234
3027.362382825801,1299
3029.0803056046193,1315
3030.797921664012,1282
3032.5152313170106,1219
3034.2322348767225,1256
3035.9489326563353,1241
3037.665324969115,1304
3039.3814121284063,1276
3041.097194447633,1248
3042.812672240299,1266
3044.5278458199855,1265
3046.2427155003525,1281
3047.9572815951406,1290
3049.671544418167,1289
3051.38550428333,1328
3053.0991615046073,1265
3054.812516396051,1277
3056.5255692717974,1296
3058.2383204460575,1298
3059.9507702331257,1265
3061.662918947372,1273
3063.3747669032446,1289
3065.0863144152736,1264
3066.7975617980674,1299
3068.508509366309,1272
3070.219157434767,1295
3071.9295063182844,1251
3073.639556331785,1354
3075.3493077902704,1277
3077.058761008821,1298
3078.7679163025964,1282
3080.476773986837,1284
3082.1853343768594,1315
3083.89359778806,1308
3085.6015645359153,1336
3087.3092349359786,1279
3089.016609303884,1333
3090.7236879553434,1308
3092.4304712061476,1363
3094.136959372166,1292
3095.843152769349,1287
3097.5490517137237,1237
3099.2546565213966,1271
3100.959967508554,1270
3102.66498499146,1342
3104.3697092864577,1268
3106.0741407099695,1280
3107.778279578498,1247
3109.482126208622,1285
3111.1856809170004,1325
3112.8889440203716,1293
3114.5919158355528,1277
3116.294596679439,1345
3117.996986869006,1300
3119.6990867213062,1308
3121.4008965534726,1269
3123.102416682717,1326
3124.803647426329,1288
3126.5045891016784,1335
3128.205242026213,1324
3129.90560651746,1355
3131.605682893025,1302
3133.3054714705922,1284
3135.0049725679282,1297
3136.7041865028714,1298
3138.4031135933465,1324
3140.101754157353,1290
3141.800108512971,1256
3143.498176978357,1276
3145.1959598717494,1264
3146.8934575114636,1264
3148.5906702158954,1286
3150.2875983035183,1289
3151.9842420928853,1293
3153.680601902627,1262
3155.376678051456,1234
3157.07247085816,1296
3158.767980641609,1237
3160.463207720748,1288
3162.158152414606,1251
3163.8528150422862,1299
3165.5471959229726,1253
3167.2412953759303,1300
3168.9351137204976,1264
3170.628651276098,1312
3172.3219083622307,1301
3174.014885298474,1276
3175.707582404485,1303
3177.4000000000005,1331
3179.092138404835,1342
3180.7839979388846,1248
3182.47557892212,1318
3184.166881674594,1259
3185.8579065164386,1315
3187.5486537678626,1304
3189.2391237491547,1262
3190.9293167806827,1270
3192.6192331828934,1281
3194.3088732763117,1300
3195.998237381542,1257
3197.687325819268,1222
3199.376138910251,1285
3201.064676975334,1319
3202.7529403354347,1216
3204.4409293115523,1227
3206.1286442247647,1245
3207.816085396229,1196
3209.5032531471825,1233
3211.190147798936,1225
3212.8767696728846,1237
3214.5631190905015,1280
3216.2491963733373,1306
3217.9350018430214,1234
3219.6205358212637,1233
3221.305798629851,1206
3222.990790590651,1204
3224.6755120256103,1218
3226.359963256751,1204
3228.0441446061795,1206
3229.7280563960758,1266
3231.411698948703,1254
3233.0950725863995,1248
3234.778177631587,1274
3236.461014406761,1240
3238.1435832345005,1303
3239.8258844374595,1272
3241.507918338374,1232
3243.1896852600576,1280
3244.8711855254023,1243
3246.552419457381,1254
3248.233387379042,1240
3249.914089613516,1275
3251.59452648401,1293
3253.274698313813,1232
3254.95460542629,1249
3256.6342481448855,1206
3258.313626793125,1193
3259.9927416946084,1196
3261.6715931730196,1229
3263.3501815521176,1226
3265.0285071557437,1285
3266.706570307815,1255
3268.3843713323286,1237
3270.0619105533615,1238
3271.739188295068,1262
3273.4162048816834,1244
3275.0929606375184,1247
3276.769455886966,1257
3278.445690954498,1260
3280.1216661646613,1268
3281.797381842087,1207
3283.4728383114807,1270
3285.1480358976296,1277
3286.8229749253996,1278
3288.4976557197333,1215
3290.172078605655,1245
3291.846243908266,1243
3293.5201519527463,1250
3295.193803064357,1216
3296.8671975684374,1223
3298.5403357904024,1176
3300.21321805575,1200
3301.8858446900567,1295
3303.558216018975,1274
3305.23033236824,1208
3306.9021940636603,1218
3308.57380143113,1184
3310.2451547966184,1248
3311.916254486174,1209
3313.5871008259246,1216
3315.2576941420766,1203
3316.9280347609147,1244
3318.5981230088046,1191
3320.2679592121895,1202
3321.9375436975924,1175
3323.606876791612,1215
3325.27595882093,1200
3326.944790112305,1248
3328.6133709925753,1232
3330.2817017886573,1195
3331.949782827547,1214
3333.617614436319,1204
3335.2851969421245,1181
3336.952530672199,1234
3338.619615953853,1284
3340.286453114475,1248
3341.9530424815357,1223
3343.619384382583,1183
3345.2854791452437,1187
3346.951327097224,1224
3348.6169285663073,1198
3350.2822838803577,1249
3351.947393367319,1181
3353.61225735521,1258
3355.2768761721345,1215
3356.9412501462693,1238
3358.605379605873,1259
3360.2692648792827,1252
3361.9329062949146,1207
3363.596304181263,1253
