CollectionTime,9/20/2024 12:47:37 PM
ExposureUsed,3
CalibratedSpectrum
-962.7078968117929,921
-959.9714848408522,932
-957.2358232597828,977
-954.5009119013725,970
-951.7667505983302,966
-949.0333391832855,1054
-946.3006774887896,1065
-943.5687653473143,1017
-940.837602591253,1013
-938.1071890529199,1071
-935.3775245645503,1024
-932.6486089583007,1035
-929.9204420662485,1060
-927.1930237203925,1067
-924.4663537526524,1023
-921.7404319948689,1009
-919.0152582788041,1020
-916.2908324361409,1055
-913.5671542984834,1035
-910.8442236973568,1053
-908.1220404642074,1064
-905.4006044304027,1069
-902.679915427231,1045
-899.959973285902,1024
-897.2407778375464,1027
-894.5223289132158,1039
-891.8046263438832,987
-889.0876699604426,1016
-886.3714595937089,980
-883.6559950744183,949
-880.9412762332282,1003
-878.2273029007168,977
-875.5140749073835,959
-872.8015920836489,989
-870.0898542598545,983
-867.3788612662631,983
-864.6686129330585,979
-861.9591090903457,999
-859.2503495681506,962
-856.5423341964203,1033
-853.8350628050229,1010
-851.1285352237478,1017
-848.4227512823054,996
-845.7177108103272,995
-843.0134136373656,975
-840.3098595928943,1008
-837.6070485063082,1004
-834.9049802069229,1014
-832.2036545239757,997
-829.5030712866244,999
-826.8032303239481,970
-824.1041314649472,972
-821.4057745385428,997
-818.7081593735775,984
-816.0112857988148,983
-813.3151536429393,984
-810.6197627345566,1045
-807.9251129021936,984
-805.2312039742981,972
-802.5380357792392,1031
-799.8456081453069,1045
-797.1539209007124,1015
-794.462973873588,1050
-791.772766891987,931
-789.083299783884,1030
-786.3945723771743,1017
-783.7065844996748,1020
-781.0193359791231,998
-778.3328266431781,1046
-775.6470563194197,1041
-772.9620248353489,997
-770.2777320183878,1057
-767.5941776958798,1039
-764.9113616950891,1044
-762.2292838432011,1042
-759.5479439673222,1027
-756.8673418944801,1046
-754.1874774516235,1054
-751.5083504656222,1013
-748.8299607632671,1013
-746.15230817127,1067
-743.475392516264,1065
-740.7992136248035,1046
-738.1237713233636,1075
-735.4490654383407,1084
-732.7750957960521,1055
-730.1018622227365,1089
-727.4293645445534,1069
-724.7576025875837,1040
-722.0865761778291,1042
-719.4162851412126,1040
-716.7467293035781,1057
-714.0779084906909,1081
-711.409822528237,1086
-708.7424712418238,1134
-706.0758544569796,1124
-703.4099719991541,1140
-700.7448236937178,1104
-698.0804093659622,1130
-695.4167288411002,1124
-692.7537819442656,1115
-690.0915685005134,1092
-687.4300883348199,1089
-684.7693412720819,1088
-682.1093271371178,1136
-679.4500457546669,1118
-676.7914969493897,1068
-674.1336805458676,1164
-671.4765963686034,1200
-668.8202442420206,1086
-666.1646239904642,1185
-663.5097354382001,1168
-660.8555784094151,1163
-658.2021527282176,1129
-655.5494582186366,1177
-652.8974947046223,1195
-650.2462620100463,1173
-647.5957599587009,1178
-644.9459883742998,1208
-642.2969470804776,1202
-639.6486359007902,1233
-637.0010546587141,1180
-634.3542031776476,1218
-631.7080812809096,1227
-629.0626887917401,1210
-626.4180255333008,1215
-623.7740913286734,1220
-621.1308860008619,1195
-618.4884093727904,1192
-615.8466612673046,1194
-613.2056415071715,1206
-610.5653499150785,1177
-607.9257863136347,1211
-605.28695052537,1195
-602.6488423727357,1177
-600.0114616781036,1206
-597.3748082637674,1176
-594.7388819519412,1254
-592.1036825647604,1233
-589.4692099242818,1226
-586.8354638524829,1198
-584.2024441712624,1199
-581.5701507024403,1255
-578.9385832677575,1276
-576.3077416888759,1223
-573.6776257873787,1232
-571.0482353847704,1211
-568.4195703024757,1215
-565.7916303618415,1237
-563.164415384135,1228
-560.5379251905453,1249
-557.9121596021815,1243
-555.2871184400748,1223
-552.6628015251767,1265
-550.0392086783606,1255
-547.4163397204204,1292
-544.794194472071,1275
-542.1727727539491,1305
-539.5520743866118,1288
-536.9320991905377,1234
-534.3128469861261,1259
-531.6943175936979,1330
-529.0765108334947,1326
-526.4594265256793,1385
-523.8430644903358,1535
-521.2274245474689,1665
-518.612506517005,1715
-515.9983102187913,1745
-513.3848354725959,1830
-510.77208209810846,1833
-508.16004991493924,1860
-505.5487387426199,2033
-502.9381484006032,2139
-500.3282787082628,2225
-497.71912948489364,2074
-495.1107005497117,1902
-492.5029917218539,1802
-489.8960028203786,1720
-487.28973366426493,1594
-484.68418407241325,1485
-482.07935386364494,1428
-479.47524285670266,1430
-476.87185087025,1453
-474.2691777228715,1381
-471.66722323307334,1458
-469.0659872192821,1429
-466.4654694998459,1456
-463.86566989303384,1485
-461.26658821703614,1404
-458.66822428996414,1435
-456.07057792985,1518
-453.4736489546475,1422
-450.877437182231,1497
-448.28194243039627,1480
-445.68716451686,1387
-443.09310325926003,1409
-440.49975847515555,1384
-437.9071299820263,1421
-435.31521759727354,1433
-432.72402113821954,1452
-430.13354042210767,1479
-427.5437752661022,1404
-424.95472548728867,1456
-422.36639090267386,1433
-419.7787713291855,1436
-417.1918665836721,1493
-414.60567648290385,1522
-412.0202008435715,1517
-409.4354394822874,1530
-406.8513922155845,1523
-404.26805885991723,1565
-401.685439231661,1547
-399.103533147112,1572
-396.522340422488,1523
-393.9418608739278,1505
-391.3620943174908,1447
-388.7830405691583,1442
-386.2046994448317,1379
-383.6270707603344,1290
-381.05015433141045,1244
-378.473949973725,1156
-375.8984575028645,1072
-373.32367673433623,986
-370.74960748356875,974
-368.1762495659117,854
-365.60360279663576,768
-363.03166699093265,687
-360.4604419639154,600
-357.8899275306178,546
-355.32012350599507,539
-352.7510297049233,539
-350.1826459421999,539
-347.61497203254316,502
-345.04800779059235,469
-342.4817530309082,448
-339.91620756797226,490
-337.35137121618743,502
-334.7872437898774,486
-332.22382510328725,500
-329.66111497058273,532
-327.09911320585127,498
-324.53781962310075,500
-321.9772340362607,453
-319.4173562591816,456
-316.8581861056348,454
-314.2997233893127,452
-311.7419679238294,466
-309.1849195227194,503
-306.62857799943856,526
-304.0729431673641,540
-301.51801483979375,545
-298.963792829947,528
-296.41027695096386,488
-293.85746701590574,486
-291.3053628377552,470
-288.7539642294155,486
-286.2032710037115,504
-283.65328297338897,523
-281.1039999511146,538
-278.5554217494762,543
-276.007548180983,561
-273.4603790580651,561
-270.9139141930734,568
-268.3681533982807,554
-265.8230964858798,550
-263.27874326798565,550
-260.7350935566336,577
-258.1921471637804,580
-255.6499039013039,644
-253.10836358100266,700
-250.56752601459698,621
-248.02739101372765,683
-245.48795838995704,665
-242.94922795476816,692
-240.41119951956557,663
-237.8738728956746,711
-235.33724789434166,702
-232.80132432673452,680
-230.2661020039418,626
-227.73158073697357,695
-225.19776033676033,758
-222.66464061415422,728
-220.1322213799284,732
-217.60050244477725,707
-215.06948361931552,702
-212.53916471408013,770
-210.00954553952818,729
-207.48062590603843,727
-204.9524056239104,721
-202.4248845033651,766
-199.8980623545441,790
-197.37193898751036,860
-194.84651421224817,800
-192.32178783866232,710
-189.79775967657952,833
-187.27442953574644,833
-184.7517972258321,770
-182.2298625564256,760
-179.7086253370378,727
-177.18808537710026,766
-174.66824248596583,863
-172.14909647290835,819
-169.6306471471229,766
-167.11289431772548,777
-164.59583779375328,775
-162.07947738416453,900
-159.5638128978386,1105
-157.04884414357605,1153
-154.53457093009854,1170
-152.02099306604828,973
-149.50811035998936,886
-146.99592262040665,967
-144.48442965570587,1256
-141.97363127421409,1414
-139.46352728417958,1461
-136.95411749377126,1225
-134.44540171107985,1019
-131.93737974411636,965
-129.43005140081357,1135
-126.92341648902493,1493
-124.41747481652521,1899
-121.91222619101006,2038
-119.40767042009657,1987
-116.90380731132257,1770
-114.40063667214702,2326
-111.8981583099503,2986
-109.3963720320337,3762
-106.89527764561933,5198
-104.39487495785067,7568
-101.89516377579241,11841
-99.39614390642998,16588
-96.89781515667039,20315
-94.40017733334128,22410
-91.90323024319173,23549
-89.40697369289148,20057
-86.91140748903172,12884
-84.41653143812482,10063
-81.92234534660395,9447
-79.42884902082358,10047
-76.93604226705907,11817
-74.4439248915071,11405
-71.95249670028534,9547
-69.46175749943245,8386
-66.97170709490854,7812
-64.48234529259423,7288
-61.99367189829195,6717
-59.50568671772464,5803
-57.01838955653636,5805
-54.53178022029283,7314
-52.045858514480074,8303
-49.560624244506016,9246
-47.07607721569923,8549
-44.59221723330904,9006
-42.10904410250669,10209
-39.62655762838392,11912
-37.14475761595372,14518
-34.66364387015028,16565
-32.18321619582866,17233
-29.70347439776515,18705
-27.224418280657005,20144
-24.74604764912317,20658
-22.26836230770266,27459
-19.7913620608565,53761
-17.315046712966478,65037
-14.83941606833514,65037
-12.36446993118659,65037
-9.89020810566592,65037
-7.416630395839093,65037
-4.94373660569363,65037
-2.471526539137585,65037
-6.821210263296962E-13,65037
2.47084320796705,65037
4.941003281093458,65037
7.410480415786196,65037
9.879274808531363,65037
12.347386655893956,65037
14.814816154518212,65037
17.28156350112681,65037
19.74762889252179,65037
22.21301252558385,23903
24.67771459727237,6245
27.141735304626195,4889
29.605074844762612,4233
32.06773341487792,3274
34.52971121224755,3364
36.99100843422559,2889
39.45162527824516,2506
41.91156194181792,2723
44.370818622535126,2552
46.82939551806646,2235
49.287292826160524,3387
51.74451074464503,3734
54.201049471426245,2487
56.65690920448981,1921
59.112090141899785,1694
61.56659248179983,1608
64.02041642241159,1900
66.4735621620365,1962
68.92602989905402,2315
71.37781983192338,2357
73.82893215918205,2221
76.27936707944684,1904
78.72912479141326,1799
81.17820549385567,1505
83.62660938562783,1160
86.07433666566146,1135
88.5213875329681,1150
90.96776218663751,1281
93.41346082583925,1471
95.85848364982041,1688
98.30283085790859,1494
100.7465026495089,1189
103.18949922410604,1202
105.63182078126385,976
108.07346752062438,961
110.51443964190923,981
112.95473734491827,1141
115.39436082953114,1154
117.83331029570547,1019
120.27158594347827,1096
122.7091879729652,1084
125.1461165843615,1048
127.58237197794062,1010
130.01795435405518,1109
132.4528639131364,975
134.88710085569494,1010
137.32066538231982,1087
139.75355769367923,1139
142.1857779905207,1077
144.61732647366978,1022
147.04820334403132,998
149.47840880258934,1009
151.90794305040674,1112
154.33680628862487,1210
156.76499871846443,1337
159.19252054122433,1521
161.61937195828352,1746
164.04555317109896,1893
166.47106438120693,2097
168.89590579022217,2300
171.320077599839,2397
173.7435800118302,2668
176.16641322804742,2826
178.58857745042144,3017
181.01007288096173,3027
183.43089972175687,3105
185.85105817497413,3081
188.27054844285988,3250
190.6893707277394,3268
193.10752523201643,3292
195.5250121581745,3395
197.9418317087751,3484
200.3579840864594,3463
202.7734694939469,3471
205.18828813403627,3608
207.6024402096051,3696
210.01592592360964,3622
212.42874547908548,3634
214.84089907914665,3619
217.2523869269868,3557
219.66320922587727,3476
222.0733661791695,3565
224.48285799029293,3601
226.8916848627572,3670
229.29984700014882,3694
231.7073446061355,3720
234.11417788446204,3746
236.520347038953,3807
238.92585227351185,4030
241.33069379212054,3994
243.73487179884035,4144
246.1383864978112,4112
248.541238093252,4148
250.9434267894609,4097
253.34495279081432,4157
255.74581630176783,4124
258.1460175268563,4178
260.54555667069314,4143
262.9444339379703,4071
265.3426495334594,4086
267.7402036620107,3981
270.1370965285529,3849
272.53332833809407,3723
274.9288992957214,3604
277.32380960660055,3396
279.718059475976,3486
282.1116491091717,3532
284.5045787115897,3407
286.89684848871195,3349
289.2884586460981,3469
291.67940938938807,3379
294.0697009242996,3411
296.4593334566299,3409
298.84830719225477,3418
301.23662233712923,3372
303.6242790972866,3317
306.01127767884,3351
308.39761828798066,3239
310.78330113097934,3187
313.16832641418534,3219
315.5526943440269,3288
317.9364051270112,3183
320.3194589697242,3131
322.70185607883093,3052
325.0835966610754,3138
327.4646809232805,3091
329.8451090723478,3078
332.2248813152577,2923
334.6039978590701,2996
336.9824589109231,3002
339.36026467803447,3012
341.7374153677,2897
344.113911187295,2942
346.48975234427337,2955
348.8649390461686,3000
351.2394715005918,3104
353.61334991523415,3070
355.9865744978655,2911
358.35914545633375,2972
360.73106299856715,2976
363.10232733257146,2957
365.47293866643247,2916
367.84289720831396,2886
370.2122031664593,2877
372.5808567491905,2851
374.9488581649083,2919
377.31620762209275,2837
379.6829053293021,2820
382.0489514951745,2898
384.4143463284262,2802
386.7790900378528,2798
389.14318283232853,2833
391.50662492080653,2791
393.86941651231916,2842
396.23155781597745,2871
398.5930490409713,2869
400.9538903965696,2882
403.3140820921202,2873
405.6736243370498,2797
408.03251734086336,2723
410.3907613131465,2826
412.74835646356166,2767
415.10530300185144,2825
417.4616011378372,2900
419.81725108141893,2814
422.1722530425758,2848
424.5266072313656,2878
426.880313857925,2787
429.2333731324701,2771
431.58578526529516,2748
433.9375504667738,2744
436.2886689473588,2827
438.63914091758113,2822
440.9889665880513,2784
443.33814616945835,2822
445.68667987257015,2843
448.03456790823395,2792
450.3818104873759,2735
452.72840782100013,2718
455.07436012019105,2712
457.41966759611057,2771
459.7643304600007,2745
462.10834892318155,2784
464.4517231970525,2736
466.79445349309174,2842
469.1365400228566,2722
471.4779829979826,2737
473.81878263018564,2753
476.15893913125876,2701
478.4984527130747,2766
480.8373235875855,2867
483.17555196682144,2903
485.5131380628919,2985
487.8500820879857,3042
490.1863842543697,3114
492.52204477439034,3246
494.8570638604725,3384
497.1914417251204,3666
499.52517858091653,3946
501.85827464052306,4259
504.19073011668036,4283
506.5225452222086,4336
508.85372017000566,4316
511.18425517304956,4313
513.514150444396,4624
515.8434061971808,5482
518.1720226446176,6320
520.4999999999999,6612
522.8273384766991,6402
525.1540382881666,6006
527.480099647932,5650
529.8055227696037,4630
532.1303078668694,3671
534.454455153496,3177
536.777964843328,3093
539.1008371502907,2847
541.4230722883866,2858
543.744670471698,2787
546.0656319143858,2898
548.3859568306899,2841
550.7056454349294,2801
553.0246979415016,2708
555.3431145648834,2852
557.6608955196306,2760
559.978041020377,2775
562.2945512818363,2696
564.6104265188006,2757
566.9256669461412,2840
569.2402727788082,2780
571.5542442318302,2794
573.8675815203156,2816
576.1802848594508,2820
578.4923544645015,2890
580.8037905508126,2852
583.114593333807,2922
585.4247630289875,2918
587.7342998519354,2897
590.0432040183106,2805
592.3514757438526,2930
594.6591152443794,2884
596.9661227357875,2752
599.2724984340531,2873
601.578242555231,2844
603.8833553154542,2767
606.1878369309362,2716
608.4916876179676,2869
610.7949075929192,2773
613.0974970722403,2810
615.3994562724587,2840
617.7007854101818,2767
620.0014847020951,2902
622.3015543649641,2813
624.6009946156324,2786
626.8998056710224,2932
629.1979877481361,2880
631.4955410640538,2876
633.7924658359349,2863
636.0887622810175,2981
638.3844306166192,2911
640.6794710601358,2928
642.9738838290426,2940
645.2676691408932,2957
647.5608272133207,3017
649.853358264037,2933
652.1452625108324,3029
654.4365401715764,2978
656.7271914642178,3015
659.0172166067838,2854
661.3066158173809,2986
663.5953893141935,2961
665.8835373154867,3003
668.1710600396028,2917
670.4579577049639,2946
672.7442305300709,2983
675.0298787335033,3051
677.3149025339197,2947
679.599302150058,2967
681.8830778007342,2924
684.1662297048437,2938
686.4487580813608,3002
688.7306631493387,3008
691.0119451279091,2923
693.2926042362834,2936
695.5726406937516,2982
697.8520547196814,3033
700.1308465335215,2961
702.4090163547982,2960
704.6865644031171,2975
706.9634908981619,2990
709.2397960596965,2914
711.5154801075631,2933
713.7905432616823,2955
716.0649857420548,2907
718.3388077687592,2934
720.612009561953,2937
722.8845913418733,2940
725.1565533288352,2919
727.427895743234,2945
729.6986188055427,2921
731.9687227363137,2967
734.238207756178,2954
736.5070740858458,2978
738.7753219461066,2980
741.0429515578281,2956
743.3099631419569,2953
745.5763569195191,2977
747.8421331116193,2946
750.1072919394409,2950
752.3718336242467,2933
754.6357583873777,2960
756.8990664502545,3000
759.1617580343765,2935
761.423833361321,2935
763.6852926527457,2987
765.9461361303862,3051
768.206364016058,2984
770.4659765316536,2939
772.7249738991469,2995
774.9833563405886,3027
777.2411240781092,2989
779.4982773339183,2951
781.7548163303044,2952
784.010741289634,2865
786.2660524343538,3053
788.5207499869881,3095
790.7748341701416,2971
793.0283052064964,2934
795.2811633188143,3012
797.5334087299362,3007
799.7850416627813,2995
802.0360623403484,3060
804.2864709857143,2979
806.5362678220353,2982
808.7854530725468,2949
811.0340269605625,2937
813.2819897094754,2974
815.5293415427581,2962
817.77608268396,3016
820.0222133567116,3085
822.2677337847211,2996
824.5126441917765,3017
826.7569448017433,2943
829.0006358385675,3082
831.2437175262731,3083
833.4861900889629,3004
835.7280537508192,3092
837.9693087361026,2994
840.2099552691533,3018
842.4499935743896,2974
844.689423876309,3037
846.9282463994886,3087
849.1664613685833,3001
851.4040690083276,3061
853.6410695435349,3039
855.877463199097,3130
858.1132501999847,3242
860.3484307712487,3043
862.5830051380175,2990
864.8169735254988,3129
867.0503361589791,3064
869.2830932638243,3089
871.5152450654786,3090
873.7467917894654,3073
875.9777336613873,3116
878.2080709069252,3155
880.4378037518389,3093
882.666932421968,3023
884.8954571432301,3043
887.1233781416219,3170
889.3506956432192,3196
891.5774098741766,3161
893.803521060728,3121
896.0290294291852,3094
898.2539352059397,3141
900.4782386174619,3157
902.7019398903011,3145
904.925039251085,3182
907.147536926521,3161
909.3694331433943,3150
911.59072812857,3111
913.8114221089921,3148
916.0315153116827,3167
918.2510079637437,3127
920.4699002923547,3102
922.6881925247761,3145
924.905884888345,3114
927.1229776104793,3060
929.3394709186747,3127
931.555365040506,3198
933.7706602036275,3125
935.9853566357709,3118
938.1994545647489,3104
940.4129542184515,3087
942.6258558248488,3099
944.8381596119883,3155
947.0498658079974,3181
949.2609746410825,3124
951.4714863395287,3238
953.6814011316998,3108
955.8907192460387,3088
958.0994409110671,3201
960.3075663553858,3289
962.5150958076741,3119
964.7220294966913,3134
966.928367651274,3085
969.1341105003388,3107
971.3392582728806,3024
973.5438111979742,3024
975.747769504772,3075
977.9511334225061,3052
980.153903180487,3122
982.3560790081052,3053
984.5576611348289,3134
986.7586497902058,3015
988.9590452038618,2987
991.158847605503,2945
993.3580572249133,2978
995.5566742919558,2846
997.7546990365728,2791
999.952131688785,2921
1002.1489724786926,2842
1004.3452216364743,2827
1006.5408793923874,2849
1008.7359459767691,2794
1010.9304216200343,2765
1013.1243065526781,2767
1015.3176010052733,2845
1017.510305208472,2791
1019.7024193930064,2780
1021.8939437896848,2756
1024.0848786293977,2768
1026.2752241431122,2792
1028.4649805618747,2822
1030.6541481168115,2812
1032.842727039127,2820
1035.0307175601051,2781
1037.2181199111074,2837
1039.4049343235752,2806
1041.591161029029,2800
1043.7768002590683,2765
1045.9618522453698,2740
1048.1463172196918,2781
1050.3301954138697,2794
1052.513487059818,2766
1054.69619238953,2807
1056.8783116350783,2892
1059.0598450286152,2817
1061.2407928023704,2743
1063.4211551886528,2795
1065.6009324198508,2818
1067.780124728432,2800
1069.9587323469414,2780
1072.1367555080046,2788
1074.314194444325,2702
1076.4910493886855,2801
1078.667320573947,2703
1080.843008233051,2698
1083.0181125990161,2688
1085.1926339049414,2832
1087.3665723840027,2844
1089.5399282694575,2766
1091.7127017946405,2783
1093.8848931929647,2806
1096.0565026979243,2761
1098.2275305430899,2641
1100.3979769621128,2655
1102.567842188722,2609
1104.737126456726,2750
1106.9058300000124,2733
1109.0739530525475,2640
1111.2414958483764,2668
1113.4084586216231,2641
1115.5748416064907,2741
1117.7406450372605,2656
1119.9058691482942,2644
1122.0705141740304,2659
1124.2345803489884,2636
1126.3980679077658,2711
1128.5609770850388,2768
1130.7233081155623,2699
1132.8850612341707,2696
1135.0462366757774,2666
1137.2068346753745,2660
1139.3668554680326,2766
1141.526299288901,2730
1143.68516637321,2731
1145.8434569562655,2762
1148.001171273455,2713
1150.158309560244,2736
1152.3148720521767,2713
1154.470858984876,2772
1156.626270594044,2774
1158.7811071154629,2675
1160.9353687849912,2671
1163.089055838569,2673
1165.242168512213,2701
1167.3947070420209,2650
1169.5466716641677,2584
1171.6980626149075,2742
1173.8488801305748,2731
1175.9991244475814,2767
1178.1487958024186,2690
1180.2978944316555,2676
1182.4464205719428,2653
1184.5943744600072,2706
1186.7417563326567,2719
1188.8885664267755,2668
1191.0348049793297,2630
1193.1804722273619,2646
1195.325568407995,2746
1197.4700937584303,2688
1199.614048515948,2644
1201.7574329179074,2769
1203.900247201746,2689
1206.042491604982,2683
1208.1841663652099,2772
1210.3252717201053,2757
1212.465807907422,2686
1214.6057751649923,2819
1216.7451737307279,2788
1218.8840038426192,2842
1221.0222657387353,2691
1223.1599596572241,2777
1225.2970858363137,2862
1227.4336445143094,2800
1229.5696359295966,2761
1231.705060320639,2796
1233.8399179259786,2849
1235.9742089842384,2769
1238.107933734118,2866
1240.2410924143974,2806
1242.373685263935,2772
1244.5057125216676,2814
1246.6371744266116,2798
1248.7680712178621,2846
1250.898403134593,2850
1253.028170416058,2756
1255.1573733015875,2813
1257.2860120305932,2817
1259.4140868425648,2817
1261.54159797707,2853
1263.6685456737569,2783
1265.7949301723515,2803
1267.9207517126597,2775
1270.046010534565,2855
1272.1707068780306,2849
1274.2948409830983,2853
1276.4184130898889,2869
1278.541423438603,2909
1280.6638722695184,2866
1282.785759822993,2857
1284.9070863394636,2958
1287.0278520594447,2953
1289.1480572235314,2904
1291.2677020723963,2899
1293.3867868467923,2862
1295.5053117875495,2925
1297.623277135579,2999
1299.740683131868,2945
1301.8575300174857,2998
1303.973818033578,3112
1306.0895474213703,3046
1308.2047184221678,3102
1310.3193312773528,3040
1312.4333862283888,3020
1314.5468835168163,3184
1316.659823384255,3166
1318.7722060724045,3093
1320.8840318230418,3035
1322.9953008780249,3024
1325.1060134792888,3146
1327.2161698688478,3045
1329.3257702887959,3090
1331.4348149813054,3039
1333.5433041886276,3018
1335.6512381530933,3002
1337.7586171171101,3091
1339.8654413231675,3150
1341.9717110138317,3039
1344.0774264317488,3131
1346.1825878196432,3026
1348.2871954203192,3039
1350.3912494766587,3095
1352.4947502316231,2985
1354.5976979282532,3009
1356.7000928096686,3009
1358.8019351190665,3032
1360.9032250997243,2946
1363.0039629949988,2998
1365.1041490483235,3017
1367.2037835032133,3012
1369.3028666032606,3109
1371.401398592137,3042
1373.4993797135926,3105
1375.5968102114575,3017
1377.6936903296396,3063
1379.7900203121262,3078
1381.8858004029835,3058
1383.9810308463561,3088
1386.075711886469,3071
1388.1698437676241,3046
1390.2634267342032,3101
1392.356461030667,3075
1394.4489469015557,3082
1396.5408845914872,3149
1398.6322743451592,3111
1400.7231164073469,3183
1402.813411022907,3177
1404.903158436773,3142
1406.9923588939578,3216
1409.0810126395531,3186
1411.1691199187303,3176
1413.2566809767386,3224
1415.343696058907,3198
1417.4301654106425,3284
1419.5160892774315,3226
1421.6014679048399,3158
1423.6863015385125,3237
1425.7705904241707,3303
1427.8543348076178,3270
1429.9375349347342,3328
1432.0201910514802,3337
1434.102303403894,3327
1436.1838722380944,3316
1438.2648978002767,3537
1440.3453803367174,3464
1442.4253200937692,3546
1444.5047173178677,3496
1446.5835722555234,3558
1448.6618851533285,3592
1450.739656257952,3581
1452.8168858161434,3603
1454.8935740747306,3716
1456.96972128062,3780
1459.045327680797,3842
1461.120393522327,3781
1463.1949190523528,3934
1465.2689045180973,3883
1467.3423501668608,3986
1469.415256246024,4106
1471.4876230030463,4179
1473.559450685465,4081
1475.6307395408976,4160
1477.7014898170391,4231
1479.771701761665,4350
1481.8413756226287,4410
1483.9105116478618,4427
1485.9791100853772,4389
1488.0471711832643,4558
1490.1146951896926,4606
1492.1816823529098,4657
1494.2481329212433,4588
1496.3140471430984,4746
1498.3794252669609,4750
1500.4442675413939,4819
1502.5085742150404,4753
1504.572345536622,4789
1506.6355817549388,4953
1508.6982831188702,5065
1510.7604498773744,5081
1512.8220822794883,5000
1514.8831805743293,5141
1516.9437450110909,5075
1519.003775839048,5167
1521.0632733075522,5191
1523.1222376660367,5330
1525.1806691640113,5182
1527.2385680510652,5375
1529.2959345768668,5316
1531.3527689911643,5510
1533.4090715437833,5591
1535.4648424846291,5660
1537.5200820636855,5670
1539.5747905310159,5591
1541.6289681367616,5695
1543.6826151311434,5895
1545.7357317644614,5923
1547.7883182870937,5933
1549.8403749494987,6004
1551.8919020022113,6140
1553.9428996958477,6297
1555.9933682811015,6316
1558.0433080087469,6482
1560.0927191296346,6450
1562.1416018946961,6498
1564.1899565549415,6442
1566.2377833614592,6551
1568.2850825654164,6364
1570.3318544180606,6301
1572.3780991707158,6126
1574.423817074788,5983
1576.4690083817595,5855
1578.5136733431923,5657
1580.5578122107272,5305
1582.601425236085,5112
1584.6445126710646,4855
1586.6870747675434,4727
1588.7291117774776,4593
1590.7706239529034,4386
1592.8116115459347,4347
1594.8520748087658,4226
1596.8920139936686,4060
1598.9314293529933,3931
1600.9703211391711,3926
1603.008689604711,3899
1605.0465350022005,3805
1607.0838575843068,3681
1609.1206576037753,3573
1611.1569353134305,3492
1613.1926909661765,3552
1615.2279248149953,3457
1617.2626371129481,3431
1619.2968281131757,3424
1621.3304980688963,3172
1623.3636472334088,3233
1625.39627586009,3272
1627.428384202396,3308
1629.459972513861,3297
1631.4910410480993,3178
1633.5215900588028,3170
1635.551619799744,3170
1637.5811305247717,3115
1639.6101224878166,3187
1641.6385959428862,3113
1643.6665511440683,3084
1645.693988345528,3092
1647.7209078015112,3149
1649.7473097663405,3095
1651.7731944944203,3067
1653.7985622402307,3114
1655.823413258333,3047
1657.847747803366,3050
1659.8715661300494,3006
1661.8948684931793,2945
1663.9176551476316,3012
1665.9399263483624,3035
1667.9616823504057,3044
1669.982923408873,2999
1672.0036497789574,3075
1674.0238617159293,2995
1676.043559475138,2995
1678.0627433120121,3034
1680.081413482059,3042
1682.0995702408654,3082
1684.117213844096,3017
1686.134344547495,3049
1688.1509626068864,3021
1690.1670682781705,2981
1692.182661817329,2998
1694.1977434804217,2959
1696.2123135235875,3026
1698.226372203043,2987
1700.2399197750851,3032
1702.2529564960905,3069
1704.2654826225112,3005
1706.277498410882,3016
1708.2890041178139,3011
1710.2999999999988,3066
1712.3104863142066,3015
1714.3204633172854,3032
1716.329931266163,2990
1718.3388904178469,3014
1720.3473410294214,2945
1722.3552833580516,2934
1724.3627176609807,2980
1726.3696441955308,2990
1728.3760632191033,2831
1730.3819749891782,2999
1732.3873797633146,2978
1734.3922777991502,2961
1736.3966693544012,3029
1738.4005546868639,2912
1740.4039340544127,2949
1742.406807715001,2918
1744.4091759266616,2985
1746.4110389475054,2832
1748.4123970357223,2862
1750.413250449582,2899
1752.4135994474318,2898
1754.4134442876993,2944
1756.4127852288902,2992
1758.4116225295893,2915
1760.4099564484595,2815
1762.407787244244,2882
1764.405115175764,2862
1766.4019405019203,2847
1768.3982634816916,2894
1770.3940843741357,2918
1772.3894034383907,2857
1774.3842209336717,2777
1776.378537119274,2802
1778.372352254571,2805
1780.3656665990156,2879
1782.3584804121397,2852
1784.3507939535534,2864
1786.3426074829463,2832
1788.3339212600863,2842
1790.3247355448211,2793
1792.3150505970766,2829
1794.3048666768573,2829
1796.2941840442477,2728
1798.2830029594106,2892
1800.2713236825884,2824
1802.2591464741004,2888
1804.2464715943465,2855
1806.2332993038058,2794
1808.2196298630352,2793
1810.2054635326708,2755
1812.190800573428,2817
1814.175641246101,2766
1816.1599858115628,2837
1818.1438345307652,2877
1820.127187664738,2802
1822.1100454745924,2875
1824.092408221516,2849
1826.0742761667766,2856
1828.055649571721,2845
1830.0365286977735,2799
1832.0169138064398,2805
1833.9968051593014,2820
1835.9762030180214,2829
1837.9551076443408,2869
1839.9335193000788,2818
1841.9114382471344,2745
1843.888864747485,2727
1845.8657990631878,2803
1847.842241456378,2793
1849.8181921892697,2712
1851.7936515241558,2790
1853.7686197234098,2718
1855.7430970494815,2703
1857.7170837649014,2765
1859.6905801322787,2740
1861.6635864143004,2778
1863.6361028737338,2815
1865.608129773424,2820
1867.5796673762961,2894
1869.5507159453537,2791
1871.521275743678,2833
1873.4913470344313,2849
1875.4609300808534,2804
1877.4300251462632,2839
1879.3986324940588,2901
1881.366752387717,2850
1883.3343850907936,2879
1885.3015308669228,2830
1887.268189979819,2814
1889.2343626932739,2863
1891.2000492711595,2861
1893.1652499774254,2882
1895.1299650761011,2922
1897.0941948312952,2899
1899.0579395071945,2865
1901.0211993680641,2799
1902.98397467825,2929
1904.9462657021745,2842
1906.9080727043415,2874
1908.869395949332,2753
1910.8302357018065,2914
1912.790592226504,2862
1914.7504657882428,2832
1916.7098566519212,2942
1918.6687650825133,2917
1920.6271913450764,2763
1922.5851357047422,2820
1924.5425984267245,2843
1926.499579776314,2854
1928.4560800188833,2853
1930.4120994198802,2807
1932.367638244833,2812
1934.32269675935,2816
1936.2772752291175,2925
1938.231373919899,2928
1940.1849930975404,2873
1942.1381330279637,2811
1944.0907939771696,2880
1946.0429762112412,2818
1947.9946799963363,2836
1949.9459055986945,2820
1951.896653284633,2819
1953.8469233205478,2849
1955.7967159729142,2795
1957.7460315082863,2787
1959.6948701932974,2886
1961.6432322946594,2803
1963.5911180791632,2801
1965.5385278136787,2874
1967.4854617651545,2835
1969.4319202006182,2935
1971.377903387176,2724
1973.3234115920136,2849
1975.268445082395,2867
1977.2130041256642,2796
1979.1570889892423,2793
1981.1006999406304,2828
1983.04383724741,2822
1984.986501177238,2789
1986.928691997853,2871
1988.8704099770712,2756
1990.811655382789,2865
1992.7524284829801,2781
1994.692729545698,2789
1996.6325588390755,2793
1998.5719166313224,2718
2000.5108031907307,2858
2002.4492187856677,2975
2004.387163684583,2821
2006.3246381560011,2826
2008.2616424685298,2812
2010.1981768908527,2815
2012.1342416917332,2810
2014.069837140014,2771
2016.0049635046162,2792
2017.9396210545406,2768
2019.8738100588666,2697
2021.8075307867502,2748
2023.740783507431,2733
2025.6735684902228,2792
2027.6058860045214,2738
2029.5377363198004,2787
2031.4691197056118,2764
2033.4000364315875,2755
2035.3304867674374,2755
2037.260470982952,2809
2039.189989347998,2795
2041.1190421325232,2814
2043.047629606554,2806
2044.9757520401945,2718
2046.9034097036288,2761
2048.8306028671195,2847
2050.7573318010086,2761
2052.683596775716,2756
2054.609398061742,2776
2056.5347359296647,2848
2058.4596106501403,2790
2060.384022493906,2779
2062.3079717317764,2784
2064.231458634646,2782
2066.1544834734873,2821
2068.077046519352,2773
2069.99914804337,2834
2071.9207883167524,2665
2073.8419676107865,2768
2075.7626861968406,2755
2077.6829443463607,2841
2079.6027423308715,2797
2081.522080421977,2739
2083.440958891362,2809
2085.359378010786,2778
2087.2773380520907,2868
2089.194839287196,2748
2091.111881988101,2765
2093.0284664268825,2735
2094.9445928756973,2846
2096.86026160678,2828
2098.775472892446,2738
2100.690227005088,2754
2102.604524217178,2781
2104.5183648012676,2800
2106.431749029985,2846
2108.34467717604,2741
2110.2571495122206,2761
2112.169166311393,2798
2114.080727846503,2724
2115.9918343905747,2729
2117.902486216711,2760
2119.8126835980956,2806
2121.722426807987,2816
2123.6317161197285,2821
2125.5405518067364,2805
2127.448934142509,2768
2129.356863400624,2856
2131.264339854737,2869
2133.1713637785815,2842
2135.077935445972,2827
2136.9840551308002,2844
2138.889723107037,2864
2140.7949396487334,2947
2142.699705030018,2858
2144.6040195250994,2798
2146.507883408264,2858
2148.4112969538774,2785
2150.3142604363848,2800
2152.2167741303097,2817
2154.1188383102535,2764
2156.0204532508997,2865
2157.9216192270064,2853
2159.822336513414,2822
2161.7226053850413,2813
2163.622426116884,2846
2165.5217989840185,2846
2167.4207242616,2887
2169.319202224862,2858
2171.2172331491165,2872
2173.1148173097563,2854
2175.0119549822507,2894
2176.90864644215,2850
2178.8048919650823,2883
2180.7006918267534,2816
2182.596046302952,2887
2184.4909556695407,2815
2186.3854202024645,2848
2188.279440177746,2770
2190.173015871487,2742
2192.066147559868,2842
2193.958835519149,2845
2195.851080025667,2802
2197.7428813558417,2900
2199.6342397861667,2805
2201.5251555932186,2866
2203.415629053651,2829
2205.3056604441986,2830
2207.19525004167,2894
2209.084398122958,2894
2210.9731049650327,2910
2212.861370844941,2985
2214.749196039812,2809
2216.636580826851,2938
2218.523525483344,2860
2220.410030286655,2867
2222.296095514226,2933
2224.1817214435805,2891
2226.066908352319,2913
2227.951656518121,2950
2229.835966218746,2948
2231.71983773203,2934
2233.6032713358913,2828
2235.486267308324,2945
2237.3688259274036,2894
2239.2509474712824,2834
2241.132632218193,2906
2243.013880446447,2902
2244.8946924344323,2885
2246.7750684606203,2866
2248.6550088035574,2899
2250.534513741871,2850
2252.413583554265,2881
2254.292218519526,2912
2256.170418916517,2893
2258.0481850241786,2863
2259.925517121534,2837
2261.8024154876825,2893
2263.678880401803,2904
2265.5549121431536,2948
2267.430510991071,2971
2269.305677224971,2906
2271.180411124348,2920
2273.0547129687766,2899
2274.9285830379076,2832
2276.8020216114737,2975
2278.6750289692845,2920
2280.5476053912294,2888
2282.4197511572766,2929
2284.2914665474727,3013
2286.162751841943,2984
2288.0336073208937,2908
2289.904033264608,2899
2291.774029953448,2897
2293.6435976678554,2951
2295.5127366883517,2984
2297.381447295534,2868
2299.2497297700825,2835
2301.1175843927526,2794
2302.9850114443825,2799
2304.852011205885,2759
2306.7185839582553,2724
2308.5847299825664,2734
2310.4504495599676,2767
2312.3157429716925,2842
2314.1806104990483,2726
2316.0450524234247,2705
2317.9090690262888,2868
2319.772660589186,2800
2321.635827393742,2784
2323.498569721661,2752
2325.3608878547248,2731
2327.2227820747967,2734
2329.0842526638157,2792
2330.945299903803,2733
2332.805924076857,2803
2334.6661254651535,2741
2336.525904350951,2814
2338.3852610165827,2795
2340.244195744464,2737
2342.102708817088,2802
2343.9608005170253,2708
2345.8184711269287,2707
2347.675720929526,2681
2349.532550207628,2712
2351.38895924412,2797
2353.24494832197,2729
2355.100517724223,2770
2356.955667734004,2739
2358.810398634514,2747
2360.664710709037,2737
2362.5186042409337,2789
2364.3720795136437,2745
2366.225136810686,2854
2368.0777764156583,2795
2369.929998612237,2725
2371.7818036841777,2777
2373.633191915315,2804
2375.484163589562,2779
2377.3347189909114,2762
2379.184858403434,2793
2381.03458211128,2768
2382.8838903986775,2884
2384.732783549936,2853
2386.5812618494406,2700
2388.4293255816588,2776
2390.2769750311327,2823
2392.1242104824883,2832
2393.971032220427,2821
2395.8174405297295,2858
2397.6634356952563,2887
2399.509018001947,2738
2401.3541877348193,2783
2403.1989451789705,2809
2405.043290619576,2820
2406.8872243418905,2818
2408.730746631247,2851
2410.5738577730594,2835
2412.4165580528183,2719
2414.258847756095,2746
2416.100727168537,2774
2417.9421965758734,2744
2419.783256263912,2823
2421.623906518538,2813
2423.4641476257157,2763
2425.303979871491,2699
2427.143403541984,2742
2428.9824189233977,2807
2430.821026302012,2840
2432.6592259641866,2808
2434.497018196361,2782
2436.33440328505,2658
2438.171381516851,2850
2440.00795317844,2735
2441.844118556569,2827
2443.6798779380724,2809
2445.5152316098606,2782
2447.3501798589255,2865
2449.1847229723357,2899
2451.0188612372403,2768
2452.8525949408663,2745
2454.6859243705203,2784
2456.518849813587,2894
2458.3513715575314,2847
2460.183489889895,2874
2462.015205098301,2840
2463.8465174704493,2827
2465.67742729412,2908
2467.5079348571717,2769
2469.338040447542,2802
2471.1677443532476,2841
2472.9970468623833,2864
2474.825948263123,2844
2476.6544488437207,2904
2478.482548892508,2893
2480.310248697896,2855
2482.137548548374,2868
2483.9644487325118,2853
2485.790949538956,2783
2487.617051256433,2855
2489.44275417375,2850
2491.26805857979,2834
2493.0929647635157,2821
2494.917473013971,2871
2496.741583620276,2892
2498.5652968716304,2952
2500.3886130573137,2897
2502.2115324666834,2992
2504.0340553891765,2802
2505.856182114308,2920
2507.6779129316733,2929
2509.499248130945,2910
2511.3201880018764,2903
2513.140732834298,2959
2514.9608829181198,2922
2516.780638543331,2925
2518.6,2873
2520.418967578273,2891
2522.237541568376,2929
2524.0557222606144,2942
2525.8735099453706,2942
2527.6909049131086,2839
2529.507907454368,2931
2531.32451785977,2927
2533.140736420014,2933
2534.9565634258774,2920
2536.771999168218,3002
2538.5870439379714,2978
2540.4016980261526,3026
2542.2159617238544,3025
2544.02983532225,3080
2545.8433191125914,3127
2547.656413386209,3022
2549.4691184345115,3040
2551.2814345489874,3040
2553.093362021204,3057
2554.904901142808,3073
2556.716052205523,3117
2558.526815501153,3105
2560.3371913215824,3054
2562.147179958771,3143
2563.956781704761,3127
2565.7659968516705,3124
2567.5748256916986,3225
2569.3832685171224,3295
2571.1913256202984,3233
2572.9989972936614,3200
2574.806283829725,3254
2576.613185521084,3243
2578.4197026604074,3237
2580.2258355404483,3277
2582.031584454035,3225
2583.836949694077,3280
2585.6419315535613,3310
2587.4465303255533,3345
2589.2507463032002,3305
2591.0545797797245,3335
2592.8580310484303,3311
2594.6611004026995,3340
2596.463788135992,3392
2598.266094541849,3230
2600.0680199138874,3332
2601.869564545807,3369
2603.670728731383,3448
2605.4715127644704,3317
2607.2719169390048,3327
2609.071941548998,3437
2610.8715868885433,3361
2612.670853251811,3387
2614.469740933052,3368
2616.268250226594,3316
2618.0663814268455,3378
2619.864134828292,3214
2621.6615107255006,3341
2623.458509413115,3201
2625.2551311858597,3262
2627.0513763385347,3161
2628.8472451660223,3348
2630.6427379632833,3296
2632.4378550253564,3238
2634.232596647359,3222
2636.026963124488,3196
2637.8209547520187,3198
2639.6145718253065,3177
2641.407814639785,3160
2643.200683490966,3180
2644.9931786744414,3151
2646.7853004858807,3007
2648.577049221034,3051
2650.3684251757277,3068
2652.1594286458712,3109
2653.9500599274484,3070
2655.740319316525,3028
2657.5302071092437,3036
2659.3197236018286,3017
2661.10886909058,3014
2662.8976438718782,3027
2664.686048242183,3007
2666.4740824980327,2941
2668.2617469360443,3001
2670.0490418529134,3001
2671.8359675454153,2927
2673.622524310403,2893
2675.408712444811,2988
2677.1945322456495,2954
2678.979984010009,2874
2680.76506803506,2928
2682.5497846180497,2933
2684.334134056306,2878
2686.1181166472343,2929
2687.9017326883213,2939
2689.6849824771293,2881
2691.4678663113013,2854
2693.2503844885596,2815
2695.032537306705,2834
2696.8143250636167,2849
2698.5957480572542,2872
2700.3768065856534,2886
2702.1575009469316,2815
2703.937831439283,2845
2705.717798360982,2772
2707.4974020103837,2722
2709.276642685917,2796
2711.055520686095,2727
2712.834036309506,2801
2714.612189854819,2800
2716.389981620782,2752
2718.1674119062204,2747
2719.944481010041,2775
2721.721189231226,2826
2723.4975368688415,2737
2725.273524222027,2843
2727.0491515900053,2732
2728.824419272075,2759
2730.5993275676146,2732
2732.3738767760838,2718
2734.148067197016,2706
2735.921899130031,2678
2737.6953728748194,2734
2739.468488731156,2726
2741.2412469988926,2668
2743.0136479779617,2679
2744.785691968372,2799
2746.5573792702116,2738
2748.3287101836504,2732
2750.099685008934,2801
2751.870304046388,2798
2753.640567596418,2747
2755.4104759595057,2693
2757.1800294362156,2799
2758.949228327187,2712
2760.7180729331412,2703
2762.486563554877,2794
2764.254700493272,2670
2766.022484049284,2724
2767.789914523947,2755
2769.5569922183786,2754
2771.3237174337705,2710
2773.090090471394,2687
2774.8561116326036,2700
2776.6217812188274,2748
2778.3870995315756,2750
2780.1520668724356,2641
2781.9166835430747,2723
2783.6809498452394,2685
2785.444866080754,2694
2787.2084325515225,2700
2788.971649559527,2684
2790.73451740683,2741
2792.4970363955713,2676
2794.2592068279705,2762
2796.0210290063264,2659
2797.7825032330147,2701
2799.543629810493,2630
2801.304409041296,2711
2803.0648412280366,2692
2804.8249266734088,2690
2806.5846656801846,2730
2808.344058551212,2637
2810.1031055894246,2648
2811.8618070978273,2702
2813.6201633795085,2706
2815.378174737636,2729
2817.1358414754536,2705
2818.893163896285,2732
2820.6501423035334,2734
2822.4067770006814,2724
2824.1630682912883,2584
2825.9190164789957,2786
2827.6746218675207,2689
2829.429884760661,2672
2831.184805462294,2654
2832.9393842763743,2759
2834.693621506936,2791
2836.4475174580916,2735
2838.201072434034,2770
2839.954286739034,2713
2841.707160677441,2657
2843.459694553685,2727
2845.2118886722724,2762
2846.96374333779,2793
2848.7152588549034,2751
2850.4664355283567,2700
2852.217273662973,2690
2853.9677735636546,2623
2855.7179355353833,2669
2857.4677598832186,2756
2859.217246912299,2806
2860.9663969278427,2670
2862.715210235146,2673
2864.4636871395846,2829
2866.211827946614,2707
2867.9596329617652,2716
2869.7071024906536,2687
2871.4542368389684,2718
2873.20103631248,2740
2874.947501217038,2643
2876.6936318585695,2652
2878.4394285430812,2660
2880.1848915766604,2756
2881.9300212654707,2712
2883.6748179157553,2712
2885.4192818338374,2720
2887.1634133261173,2697
2888.907212699077,2689
2890.6506802592744,2734
2892.393816313348,2731
2894.1366211680142,2750
2895.8790951300693,2725
2897.621238506388,2687
2899.363051603925,2712
2901.1045347297118,2783
2902.8456881908596,2713
2904.58651229456,2757
2906.327007348081,2719
2908.067173658772,2696
2909.8070115340597,2701
2911.5465212814497,2706
2913.285703208527,2707
2915.0245576229563,2701
2916.7630848324807,2662
2918.5012851449196,2715
2920.2391588681758,2715
2921.976706310227,2594
2923.7139277791334,2660
2925.4508235830313,2721
2927.187394030137,2628
2928.923639428745,2683
2930.6595600872306,2683
2932.395156314046,2727
2934.1304284177218,2726
2935.8653767068713,2667
2937.6000014901815,2744
2939.3343030764227,2755
2941.068281774442,2722
2942.8019378931644,2778
2944.5352717415976,2739
2946.2682836288236,2586
2948.0009738640065,2708
2949.7333427563885,2752
2951.465390615289,2698
2953.1971177501086,2831
2954.9285244703265,2778
2956.6596110855,2714
2958.3903779052657,2662
2960.1208252393385,2718
2961.8509533975125,2746
2963.5807626896617,2661
2965.3102534257378,2696
2967.0394259157715,2677
2968.768280469873,2765
2970.496817398232,2637
2972.2250370111146,2732
2973.952939618869,2638
2975.6805255319196,2740
2977.4077950607707,2741
2979.134748516006,2666
2980.861386208289,2714
2982.587708448359,2705
2984.313715547037,2668
2986.039407815222,2696
2987.764785563891,2674
2989.489849104102,2735
2991.2145987469908,2731
2992.9390348037705,2638
2994.6631575857346,2710
2996.3869674042576,2743
2998.1104645707887,2700
2999.83364939686,2716
3001.5565221940783,2639
3003.2790832741334,2614
3005.0013329487924,2640
3006.7232715298996,2668
3008.4448993293804,2674
3010.166216659239,2759
3011.887223831558,2640
3013.607921158498,2664
3015.3283089522993,2644
3017.0483875252826,2704
3018.7681571898443,2674
3020.4876182584626,2698
3022.2067710436927,2677
3023.9256158581707,2642
3025.644153014609,2702
3027.362382825801,2641
3029.0803056046193,2716
3030.797921664012,2640
3032.5152313170106,2614
3034.2322348767225,2651
3035.9489326563353,2674
3037.665324969115,2705
3039.3814121284063,2714
3041.097194447633,2697
3042.812672240299,2642
3044.5278458199855,2773
3046.2427155003525,2753
3047.9572815951406,2624
3049.671544418167,2694
3051.38550428333,2700
3053.0991615046073,2723
3054.812516396051,2635
3056.5255692717974,2795
3058.2383204460575,2717
3059.9507702331257,2648
3061.662918947372,2660
3063.3747669032446,2648
3065.0863144152736,2725
3066.7975617980674,2754
3068.508509366309,2672
3070.219157434767,2780
3071.9295063182844,2717
3073.639556331785,2577
3075.3493077902704,2685
3077.058761008821,2651
3078.7679163025964,2682
3080.476773986837,2794
3082.1853343768594,2756
3083.89359778806,2714
3085.6015645359153,2713
3087.3092349359786,2750
3089.016609303884,2644
3090.7236879553434,2719
3092.4304712061476,2627
3094.136959372166,2797
3095.843152769349,2720
3097.5490517137237,2666
3099.2546565213966,2739
3100.959967508554,2785
3102.66498499146,2738
3104.3697092864577,2722
3106.0741407099695,2734
3107.778279578498,2724
3109.482126208622,2799
3111.1856809170004,2723
3112.8889440203716,2725
3114.5919158355528,2732
3116.294596679439,2840
3117.996986869006,2722
3119.6990867213062,2756
3121.4008965534726,2748
3123.102416682717,2742
3124.803647426329,2713
3126.5045891016784,2720
3128.205242026213,2747
3129.90560651746,2741
3131.605682893025,2766
3133.3054714705922,2701
3135.0049725679282,2749
3136.7041865028714,2723
3138.4031135933465,2676
3140.101754157353,2732
3141.800108512971,2735
3143.498176978357,2629
3145.1959598717494,2768
3146.8934575114636,2685
3148.5906702158954,2689
3150.2875983035183,2754
3151.9842420928853,2649
3153.680601902627,2695
3155.376678051456,2744
3157.07247085816,2697
3158.767980641609,2683
3160.463207720748,2670
3162.158152414606,2671
3163.8528150422862,2683
3165.5471959229726,2787
3167.2412953759303,2729
3168.9351137204976,2683
3170.628651276098,2701
3172.3219083622307,2797
3174.014885298474,2760
3175.707582404485,2750
3177.4000000000005,2656
3179.092138404835,2776
3180.7839979388846,2710
3182.47557892212,2767
3184.166881674594,2656
3185.8579065164386,2666
3187.5486537678626,2697
3189.2391237491547,2781
3190.9293167806827,2817
3192.6192331828934,2732
3194.3088732763117,2778
3195.998237381542,2685
3197.687325819268,2667
3199.376138910251,2690
3201.064676975334,2702
3202.7529403354347,2802
3204.4409293115523,2693
3206.1286442247647,2771
3207.816085396229,2625
3209.5032531471825,2628
3211.190147798936,2681
3212.8767696728846,2676
3214.5631190905015,2629
3216.2491963733373,2721
3217.9350018430214,2613
3219.6205358212637,2568
3221.305798629851,2659
3222.990790590651,2663
3224.6755120256103,2563
3226.359963256751,2697
3228.0441446061795,2638
3229.7280563960758,2581
3231.411698948703,2677
3233.0950725863995,2682
3234.778177631587,2677
3236.461014406761,2649
3238.1435832345005,2628
3239.8258844374595,2731
3241.507918338374,2690
3243.1896852600576,2760
3244.8711855254023,2766
3246.552419457381,2664
3248.233387379042,2686
3249.914089613516,2737
3251.59452648401,2736
3253.274698313813,2697
3254.95460542629,2715
3256.6342481448855,2710
3258.313626793125,2666
3259.9927416946084,2606
3261.6715931730196,2656
3263.3501815521176,2588
3265.0285071557437,2646
3266.706570307815,2694
3268.3843713323286,2684
3270.0619105533615,2662
3271.739188295068,2810
3273.4162048816834,2760
3275.0929606375184,2696
3276.769455886966,2767
3278.445690954498,2746
3280.1216661646613,2739
3281.797381842087,2712
3283.4728383114807,2699
3285.1480358976296,2710
3286.8229749253996,2687
3288.4976557197333,2642
3290.172078605655,2676
3291.846243908266,2677
3293.5201519527463,2618
3295.193803064357,2628
3296.8671975684374,2654
3298.5403357904024,2709
3300.21321805575,2713
3301.8858446900567,2693
3303.558216018975,2606
3305.23033236824,2624
3306.9021940636603,2732
3308.57380143113,2673
3310.2451547966184,2707
3311.916254486174,2765
3313.5871008259246,2682
3315.2576941420766,2629
3316.9280347609147,2654
3318.5981230088046,2670
3320.2679592121895,2673
3321.9375436975924,2688
3323.606876791612,2682
3325.27595882093,2714
3326.944790112305,2649
3328.6133709925753,2623
3330.2817017886573,2704
3331.949782827547,2676
3333.617614436319,2722
3335.2851969421245,2690
3336.952530672199,2764
3338.619615953853,2699
3340.286453114475,2758
3341.9530424815357,2729
3343.619384382583,2731
3345.2854791452437,2678
3346.951327097224,2671
3348.6169285663073,2723
3350.2822838803577,2747
3351.947393367319,2674
3353.61225735521,2622
3355.2768761721345,2678
3356.9412501462693,2761
3358.605379605873,2705
3360.2692648792827,2702
3361.9329062949146,2666
3363.596304181263,2626
