CollectionTime,9/20/2024 12:43:34 PM
ExposureUsed,3
CalibratedSpectrum
-962.7078968117929,626
-959.9714848408522,638
-957.2358232597828,661
-954.5009119013725,649
-951.7667505983302,699
-949.0333391832855,682
-946.3006774887896,669
-943.5687653473143,703
-940.837602591253,676
-938.1071890529199,681
-935.3775245645503,683
-932.6486089583007,721
-929.9204420662485,688
-927.1930237203925,693
-924.4663537526524,695
-921.7404319948689,741
-919.0152582788041,676
-916.2908324361409,733
-913.5671542984834,691
-910.8442236973568,703
-908.1220404642074,658
-905.4006044304027,666
-902.679915427231,672
-899.959973285902,666
-897.2407778375464,662
-894.5223289132158,637
-891.8046263438832,644
-889.0876699604426,672
-886.3714595937089,673
-883.6559950744183,650
-880.9412762332282,670
-878.2273029007168,617
-875.5140749073835,640
-872.8015920836489,624
-870.0898542598545,639
-867.3788612662631,629
-864.6686129330585,664
-861.9591090903457,620
-859.2503495681506,628
-856.5423341964203,614
-853.8350628050229,630
-851.1285352237478,640
-848.4227512823054,645
-845.7177108103272,685
-843.0134136373656,637
-840.3098595928943,646
-837.6070485063082,627
-834.9049802069229,623
-832.2036545239757,667
-829.5030712866244,641
-826.8032303239481,634
-824.1041314649472,652
-821.4057745385428,633
-818.7081593735775,618
-816.0112857988148,649
-813.3151536429393,663
-810.6197627345566,648
-807.9251129021936,649
-805.2312039742981,645
-802.5380357792392,643
-799.8456081453069,644
-797.1539209007124,693
-794.462973873588,655
-791.772766891987,666
-789.083299783884,667
-786.3945723771743,683
-783.7065844996748,654
-781.0193359791231,642
-778.3328266431781,653
-775.6470563194197,600
-772.9620248353489,685
-770.2777320183878,646
-767.5941776958798,678
-764.9113616950891,657
-762.2292838432011,648
-759.5479439673222,646
-756.8673418944801,644
-754.1874774516235,649
-751.5083504656222,635
-748.8299607632671,659
-746.15230817127,651
-743.475392516264,670
-740.7992136248035,663
-738.1237713233636,649
-735.4490654383407,640
-732.7750957960521,700
-730.1018622227365,678
-727.4293645445534,688
-724.7576025875837,736
-722.0865761778291,701
-719.4162851412126,709
-716.7467293035781,722
-714.0779084906909,708
-711.409822528237,716
-708.7424712418238,690
-706.0758544569796,712
-703.4099719991541,738
-700.7448236937178,700
-698.0804093659622,749
-695.4167288411002,698
-692.7537819442656,742
-690.0915685005134,693
-687.4300883348199,764
-684.7693412720819,721
-682.1093271371178,714
-679.4500457546669,717
-676.7914969493897,705
-674.1336805458676,733
-671.4765963686034,768
-668.8202442420206,770
-666.1646239904642,742
-663.5097354382001,767
-660.8555784094151,782
-658.2021527282176,744
-655.5494582186366,762
-652.8974947046223,783
-650.2462620100463,795
-647.5957599587009,749
-644.9459883742998,771
-642.2969470804776,767
-639.6486359007902,742
-637.0010546587141,782
-634.3542031776476,774
-631.7080812809096,780
-629.0626887917401,742
-626.4180255333008,773
-623.7740913286734,756
-621.1308860008619,804
-618.4884093727904,804
-615.8466612673046,785
-613.2056415071715,742
-610.5653499150785,805
-607.9257863136347,823
-605.28695052537,804
-602.6488423727357,795
-600.0114616781036,824
-597.3748082637674,830
-594.7388819519412,813
-592.1036825647604,790
-589.4692099242818,778
-586.8354638524829,789
-584.2024441712624,817
-581.5701507024403,840
-578.9385832677575,806
-576.3077416888759,852
-573.6776257873787,842
-571.0482353847704,801
-568.4195703024757,793
-565.7916303618415,790
-563.164415384135,874
-560.5379251905453,820
-557.9121596021815,828
-555.2871184400748,829
-552.6628015251767,815
-550.0392086783606,788
-547.4163397204204,842
-544.794194472071,880
-542.1727727539491,849
-539.5520743866118,878
-536.9320991905377,857
-534.3128469861261,918
-531.6943175936979,951
-529.0765108334947,952
-526.4594265256793,998
-523.8430644903358,1195
-521.2274245474689,1413
-518.612506517005,1360
-515.9983102187913,1407
-513.3848354725959,1513
-510.77208209810846,1535
-508.16004991493924,1651
-505.5487387426199,1824
-502.9381484006032,1925
-500.3282787082628,1949
-497.71912948489364,1896
-495.1107005497117,1780
-492.5029917218539,1682
-489.8960028203786,1440
-487.28973366426493,1293
-484.68418407241325,1179
-482.07935386364494,1147
-479.47524285670266,1083
-476.87185087025,1031
-474.2691777228715,1028
-471.66722323307334,1041
-469.0659872192821,1068
-466.4654694998459,1024
-463.86566989303384,1084
-461.26658821703614,979
-458.66822428996414,1007
-456.07057792985,1054
-453.4736489546475,970
-450.877437182231,943
-448.28194243039627,1002
-445.68716451686,992
-443.09310325926003,928
-440.49975847515555,993
-437.9071299820263,971
-435.31521759727354,1053
-432.72402113821954,1002
-430.13354042210767,962
-427.5437752661022,962
-424.95472548728867,1012
-422.36639090267386,1039
-419.7787713291855,1091
-417.1918665836721,1008
-414.60567648290385,1111
-412.0202008435715,1100
-409.4354394822874,1059
-406.8513922155845,1068
-404.26805885991723,1081
-401.685439231661,1102
-399.103533147112,1092
-396.522340422488,1074
-393.9418608739278,1052
-391.3620943174908,1032
-388.7830405691583,997
-386.2046994448317,986
-383.6270707603344,989
-381.05015433141045,900
-378.473949973725,854
-375.8984575028645,781
-373.32367673433623,757
-370.74960748356875,775
-368.1762495659117,705
-365.60360279663576,690
-363.03166699093265,656
-360.4604419639154,574
-357.8899275306178,545
-355.32012350599507,554
-352.7510297049233,548
-350.1826459421999,559
-347.61497203254316,538
-345.04800779059235,508
-342.4817530309082,503
-339.91620756797226,492
-337.35137121618743,537
-334.7872437898774,519
-332.22382510328725,500
-329.66111497058273,521
-327.09911320585127,534
-324.53781962310075,546
-321.9772340362607,484
-319.4173562591816,484
-316.8581861056348,503
-314.2997233893127,524
-311.7419679238294,540
-309.1849195227194,557
-306.62857799943856,581
-304.0729431673641,567
-301.51801483979375,579
-298.963792829947,528
-296.41027695096386,490
-293.85746701590574,594
-291.3053628377552,591
-288.7539642294155,585
-286.2032710037115,588
-283.65328297338897,606
-281.1039999511146,605
-278.5554217494762,605
-276.007548180983,689
-273.4603790580651,636
-270.9139141930734,600
-268.3681533982807,608
-265.8230964858798,622
-263.27874326798565,635
-260.7350935566336,621
-258.1921471637804,649
-255.6499039013039,741
-253.10836358100266,727
-250.56752601459698,707
-248.02739101372765,737
-245.48795838995704,791
-242.94922795476816,770
-240.41119951956557,771
-237.8738728956746,767
-235.33724789434166,800
-232.80132432673452,762
-230.2661020039418,735
-227.73158073697357,862
-225.19776033676033,937
-222.66464061415422,857
-220.1322213799284,760
-217.60050244477725,791
-215.06948361931552,799
-212.53916471408013,856
-210.00954553952818,815
-207.48062590603843,756
-204.9524056239104,755
-202.4248845033651,806
-199.8980623545441,832
-197.37193898751036,949
-194.84651421224817,998
-192.32178783866232,916
-189.79775967657952,1007
-187.27442953574644,1041
-184.7517972258321,960
-182.2298625564256,872
-179.7086253370378,808
-177.18808537710026,877
-174.66824248596583,993
-172.14909647290835,1003
-169.6306471471229,996
-167.11289431772548,881
-164.59583779375328,880
-162.07947738416453,1032
-159.5638128978386,1340
-157.04884414357605,1304
-154.53457093009854,1268
-152.02099306604828,1081
-149.50811035998936,1094
-146.99592262040665,1120
-144.48442965570587,1305
-141.97363127421409,1496
-139.46352728417958,1620
-136.95411749377126,1465
-134.44540171107985,1275
-131.93737974411636,1184
-129.43005140081357,1360
-126.92341648902493,1552
-124.41747481652521,1989
-121.91222619101006,2449
-119.40767042009657,2649
-116.90380731132257,3028
-114.40063667214702,3831
-111.8981583099503,4555
-109.3963720320337,5781
-106.89527764561933,6609
-104.39487495785067,7652
-101.89516377579241,10021
-99.39614390642998,15075
-96.89781515667039,19798
-94.40017733334128,20241
-91.90323024319173,19224
-89.40697369289148,14666
-86.91140748903172,8507
-84.41653143812482,7694
-81.92234534660395,9306
-79.42884902082358,11548
-76.93604226705907,12928
-74.4439248915071,12654
-71.95249670028534,11739
-69.46175749943245,9225
-66.97170709490854,8020
-64.48234529259423,7738
-61.99367189829195,8594
-59.50568671772464,7875
-57.01838955653636,7642
-54.53178022029283,10005
-52.045858514480074,12988
-49.560624244506016,14737
-47.07607721569923,12395
-44.59221723330904,13485
-42.10904410250669,15572
-39.62655762838392,16255
-37.14475761595372,18400
-34.66364387015028,23261
-32.18321619582866,26226
-29.70347439776515,30826
-27.224418280657005,32888
-24.74604764912317,32152
-22.26836230770266,40474
-19.7913620608565,65036
-17.315046712966478,65036
-14.83941606833514,65036
-12.36446993118659,65036
-9.89020810566592,65036
-7.416630395839093,65036
-4.94373660569363,65036
-2.471526539137585,65036
-6.821210263296962E-13,65036
2.47084320796705,65036
4.941003281093458,65036
7.410480415786196,65036
9.879274808531363,65036
12.347386655893956,65036
14.814816154518212,65036
17.28156350112681,65036
19.74762889252179,65036
22.21301252558385,65036
24.67771459727237,21949
27.141735304626195,7123
29.605074844762612,5309
32.06773341487792,4405
34.52971121224755,3842
36.99100843422559,3831
39.45162527824516,3947
41.91156194181792,4451
44.370818622535126,3451
46.82939551806646,2839
49.287292826160524,3487
51.74451074464503,3756
54.201049471426245,3030
56.65690920448981,2487
59.112090141899785,2187
61.56659248179983,2177
64.02041642241159,2443
66.4735621620365,2375
68.92602989905402,2614
71.37781983192338,2633
73.82893215918205,2229
76.27936707944684,1634
78.72912479141326,1554
81.17820549385567,1543
83.62660938562783,1491
86.07433666566146,1504
88.5213875329681,1521
90.96776218663751,1473
93.41346082583925,1647
95.85848364982041,1950
98.30283085790859,1887
100.7465026495089,1507
103.18949922410604,1570
105.63182078126385,1306
108.07346752062438,1239
110.51443964190923,1232
112.95473734491827,1296
115.39436082953114,1301
117.83331029570547,1398
120.27158594347827,1496
122.7091879729652,1414
125.1461165843615,1499
127.58237197794062,1228
130.01795435405518,1169
132.4528639131364,1171
134.88710085569494,1251
137.32066538231982,1430
139.75355769367923,1434
142.1857779905207,1222
144.61732647366978,1023
147.04820334403132,1111
149.47840880258934,1203
151.90794305040674,1263
154.33680628862487,1270
156.76499871846443,1476
159.19252054122433,1623
161.61937195828352,1726
164.04555317109896,1804
166.47106438120693,2000
168.89590579022217,2303
171.320077599839,2415
173.7435800118302,2495
176.16641322804742,2648
178.58857745042144,2776
181.01007288096173,2852
183.43089972175687,2856
185.85105817497413,2837
188.27054844285988,2816
190.6893707277394,2744
193.10752523201643,2793
195.5250121581745,3033
197.9418317087751,3041
200.3579840864594,3047
202.7734694939469,3081
205.18828813403627,3211
207.6024402096051,3264
210.01592592360964,3200
212.42874547908548,3244
214.84089907914665,3192
217.2523869269868,3098
219.66320922587727,3049
222.0733661791695,3066
224.48285799029293,2931
226.8916848627572,3028
229.29984700014882,3310
231.7073446061355,3157
234.11417788446204,3180
236.520347038953,3224
238.92585227351185,3380
241.33069379212054,3409
243.73487179884035,3435
246.1383864978112,3417
248.541238093252,3407
250.9434267894609,3584
253.34495279081432,3483
255.74581630176783,3490
258.1460175268563,3583
260.54555667069314,3650
262.9444339379703,3661
265.3426495334594,3523
267.7402036620107,3491
270.1370965285529,3363
272.53332833809407,3211
274.9288992957214,3069
277.32380960660055,3023
279.718059475976,2939
282.1116491091717,2913
284.5045787115897,2958
286.89684848871195,2979
289.2884586460981,2833
291.67940938938807,2858
294.0697009242996,2930
296.4593334566299,2873
298.84830719225477,2915
301.23662233712923,2901
303.6242790972866,2812
306.01127767884,2665
308.39761828798066,2832
310.78330113097934,2677
313.16832641418534,2598
315.5526943440269,2622
317.9364051270112,2512
320.3194589697242,2615
322.70185607883093,2564
325.0835966610754,2458
327.4646809232805,2392
329.8451090723478,2414
332.2248813152577,2392
334.6039978590701,2480
336.9824589109231,2436
339.36026467803447,2391
341.7374153677,2342
344.113911187295,2301
346.48975234427337,2312
348.8649390461686,2365
351.2394715005918,2433
353.61334991523415,2359
355.9865744978655,2336
358.35914545633375,2343
360.73106299856715,2344
363.10232733257146,2358
365.47293866643247,2343
367.84289720831396,2328
370.2122031664593,2273
372.5808567491905,2246
374.9488581649083,2257
377.31620762209275,2253
379.6829053293021,2209
382.0489514951745,2210
384.4143463284262,2215
386.7790900378528,2139
389.14318283232853,2216
391.50662492080653,2159
393.86941651231916,2117
396.23155781597745,2185
398.5930490409713,2208
400.9538903965696,2109
403.3140820921202,2145
405.6736243370498,2187
408.03251734086336,2146
410.3907613131465,2165
412.74835646356166,2113
415.10530300185144,2086
417.4616011378372,2169
419.81725108141893,2141
422.1722530425758,2135
424.5266072313656,2204
426.880313857925,2130
429.2333731324701,2115
431.58578526529516,2101
433.9375504667738,2162
436.2886689473588,2114
438.63914091758113,2145
440.9889665880513,2113
443.33814616945835,2134
445.68667987257015,2072
448.03456790823395,2052
450.3818104873759,2009
452.72840782100013,2011
455.07436012019105,2034
457.41966759611057,2086
459.7643304600007,2037
462.10834892318155,2082
464.4517231970525,2084
466.79445349309174,2147
469.1365400228566,2120
471.4779829979826,2160
473.81878263018564,2060
476.15893913125876,2139
478.4984527130747,2123
480.8373235875855,2237
483.17555196682144,2298
485.5131380628919,2318
487.8500820879857,2426
490.1863842543697,2528
492.52204477439034,2720
494.8570638604725,3041
497.1914417251204,3407
499.52517858091653,3719
501.85827464052306,3964
504.19073011668036,4077
506.5225452222086,4077
508.85372017000566,4085
511.18425517304956,4057
513.514150444396,4185
515.8434061971808,5371
518.1720226446176,6284
520.4999999999999,6617
522.8273384766991,6202
525.1540382881666,5906
527.480099647932,5248
529.8055227696037,4176
532.1303078668694,3212
534.454455153496,2663
536.777964843328,2339
539.1008371502907,2201
541.4230722883866,2229
543.744670471698,2194
546.0656319143858,2207
548.3859568306899,2137
550.7056454349294,2135
553.0246979415016,2115
555.3431145648834,2039
557.6608955196306,2017
559.978041020377,2060
562.2945512818363,2147
564.6104265188006,2080
566.9256669461412,2079
569.2402727788082,2101
571.5542442318302,2095
573.8675815203156,2048
576.1802848594508,2127
578.4923544645015,2082
580.8037905508126,2148
583.114593333807,2154
585.4247630289875,2186
587.7342998519354,2177
590.0432040183106,2161
592.3514757438526,2122
594.6591152443794,2175
596.9661227357875,2198
599.2724984340531,2122
601.578242555231,2124
603.8833553154542,2110
606.1878369309362,2166
608.4916876179676,2114
610.7949075929192,2120
613.0974970722403,2057
615.3994562724587,2032
617.7007854101818,2162
620.0014847020951,2149
622.3015543649641,2146
624.6009946156324,2145
626.8998056710224,2108
629.1979877481361,2116
631.4955410640538,2184
633.7924658359349,2155
636.0887622810175,2115
638.3844306166192,2093
640.6794710601358,2153
642.9738838290426,2215
645.2676691408932,2227
647.5608272133207,2146
649.853358264037,2242
652.1452625108324,2245
654.4365401715764,2224
656.7271914642178,2151
659.0172166067838,2212
661.3066158173809,2156
663.5953893141935,2174
665.8835373154867,2206
668.1710600396028,2208
670.4579577049639,2173
672.7442305300709,2172
675.0298787335033,2227
677.3149025339197,2179
679.599302150058,2226
681.8830778007342,2151
684.1662297048437,2178
686.4487580813608,2155
688.7306631493387,2164
691.0119451279091,2043
693.2926042362834,2083
695.5726406937516,2090
697.8520547196814,2124
700.1308465335215,2124
702.4090163547982,2098
704.6865644031171,2038
706.9634908981619,2129
709.2397960596965,2079
711.5154801075631,2076
713.7905432616823,2233
716.0649857420548,2197
718.3388077687592,2112
720.612009561953,2158
722.8845913418733,2119
725.1565533288352,2120
727.427895743234,2083
729.6986188055427,2157
731.9687227363137,2109
734.238207756178,2086
736.5070740858458,2109
738.7753219461066,2041
741.0429515578281,2129
743.3099631419569,2146
745.5763569195191,2151
747.8421331116193,2040
750.1072919394409,2152
752.3718336242467,2130
754.6357583873777,2075
756.8990664502545,2068
759.1617580343765,2123
761.423833361321,2166
763.6852926527457,2128
765.9461361303862,2138
768.206364016058,2152
770.4659765316536,2137
772.7249738991469,2208
774.9833563405886,2216
777.2411240781092,2128
779.4982773339183,2169
781.7548163303044,2120
784.010741289634,2167
786.2660524343538,2175
788.5207499869881,2191
790.7748341701416,2215
793.0283052064964,2211
795.2811633188143,2093
797.5334087299362,2094
799.7850416627813,2132
802.0360623403484,2153
804.2864709857143,2253
806.5362678220353,2164
808.7854530725468,2224
811.0340269605625,2161
813.2819897094754,2197
815.5293415427581,2225
817.77608268396,2224
820.0222133567116,2120
822.2677337847211,2123
824.5126441917765,2105
826.7569448017433,2139
829.0006358385675,2178
831.2437175262731,2210
833.4861900889629,2138
835.7280537508192,2135
837.9693087361026,2144
840.2099552691533,2116
842.4499935743896,2148
844.689423876309,2215
846.9282463994886,2169
849.1664613685833,2155
851.4040690083276,2141
853.6410695435349,2148
855.877463199097,2201
858.1132501999847,2176
860.3484307712487,2222
862.5830051380175,2197
864.8169735254988,2260
867.0503361589791,2216
869.2830932638243,2240
871.5152450654786,2190
873.7467917894654,2204
875.9777336613873,2216
878.2080709069252,2182
880.4378037518389,2221
882.666932421968,2130
884.8954571432301,2216
887.1233781416219,2202
889.3506956432192,2328
891.5774098741766,2245
893.803521060728,2295
896.0290294291852,2277
898.2539352059397,2255
900.4782386174619,2235
902.7019398903011,2292
904.925039251085,2272
907.147536926521,2308
909.3694331433943,2213
911.59072812857,2202
913.8114221089921,2266
916.0315153116827,2214
918.2510079637437,2173
920.4699002923547,2243
922.6881925247761,2220
924.905884888345,2280
927.1229776104793,2252
929.3394709186747,2229
931.555365040506,2203
933.7706602036275,2150
935.9853566357709,2213
938.1994545647489,2166
940.4129542184515,2338
942.6258558248488,2243
944.8381596119883,2261
947.0498658079974,2226
949.2609746410825,2295
951.4714863395287,2307
953.6814011316998,2191
955.8907192460387,2237
958.0994409110671,2274
960.3075663553858,2292
962.5150958076741,2271
964.7220294966913,2201
966.928367651274,2090
969.1341105003388,2192
971.3392582728806,2085
973.5438111979742,2172
975.747769504772,2203
977.9511334225061,2116
980.153903180487,2119
982.3560790081052,2136
984.5576611348289,2116
986.7586497902058,2126
988.9590452038618,2131
991.158847605503,2054
993.3580572249133,2057
995.5566742919558,1962
997.7546990365728,1937
999.952131688785,1884
1002.1489724786926,1892
1004.3452216364743,1849
1006.5408793923874,1843
1008.7359459767691,1841
1010.9304216200343,1835
1013.1243065526781,1833
1015.3176010052733,1842
1017.510305208472,1781
1019.7024193930064,1818
1021.8939437896848,1874
1024.0848786293977,1832
1026.2752241431122,1826
1028.4649805618747,1803
1030.6541481168115,1837
1032.842727039127,1857
1035.0307175601051,1851
1037.2181199111074,1806
1039.4049343235752,1726
1041.591161029029,1733
1043.7768002590683,1782
1045.9618522453698,1836
1048.1463172196918,1767
1050.3301954138697,1780
1052.513487059818,1806
1054.69619238953,1801
1056.8783116350783,1649
1059.0598450286152,1758
1061.2407928023704,1762
1063.4211551886528,1761
1065.6009324198508,1724
1067.780124728432,1714
1069.9587323469414,1709
1072.1367555080046,1799
1074.314194444325,1744
1076.4910493886855,1727
1078.667320573947,1717
1080.843008233051,1710
1083.0181125990161,1708
1085.1926339049414,1689
1087.3665723840027,1661
1089.5399282694575,1728
1091.7127017946405,1591
1093.8848931929647,1687
1096.0565026979243,1612
1098.2275305430899,1662
1100.3979769621128,1645
1102.567842188722,1643
1104.737126456726,1602
1106.9058300000124,1655
1109.0739530525475,1671
1111.2414958483764,1658
1113.4084586216231,1692
1115.5748416064907,1584
1117.7406450372605,1676
1119.9058691482942,1725
1122.0705141740304,1663
1124.2345803489884,1616
1126.3980679077658,1613
1128.5609770850388,1614
1130.7233081155623,1655
1132.8850612341707,1563
1135.0462366757774,1691
1137.2068346753745,1645
1139.3668554680326,1651
1141.526299288901,1588
1143.68516637321,1632
1145.8434569562655,1637
1148.001171273455,1586
1150.158309560244,1626
1152.3148720521767,1636
1154.470858984876,1582
1156.626270594044,1601
1158.7811071154629,1545
1160.9353687849912,1604
1163.089055838569,1530
1165.242168512213,1642
1167.3947070420209,1656
1169.5466716641677,1689
1171.6980626149075,1587
1173.8488801305748,1570
1175.9991244475814,1667
1178.1487958024186,1621
1180.2978944316555,1599
1182.4464205719428,1632
1184.5943744600072,1677
1186.7417563326567,1613
1188.8885664267755,1620
1191.0348049793297,1649
1193.1804722273619,1613
1195.325568407995,1633
1197.4700937584303,1585
1199.614048515948,1553
1201.7574329179074,1548
1203.900247201746,1577
1206.042491604982,1580
1208.1841663652099,1631
1210.3252717201053,1598
1212.465807907422,1655
1214.6057751649923,1600
1216.7451737307279,1649
1218.8840038426192,1596
1221.0222657387353,1652
1223.1599596572241,1630
1225.2970858363137,1649
1227.4336445143094,1719
1229.5696359295966,1645
1231.705060320639,1676
1233.8399179259786,1586
1235.9742089842384,1608
1238.107933734118,1660
1240.2410924143974,1698
1242.373685263935,1619
1244.5057125216676,1710
1246.6371744266116,1698
1248.7680712178621,1629
1250.898403134593,1714
1253.028170416058,1727
1255.1573733015875,1698
1257.2860120305932,1671
1259.4140868425648,1650
1261.54159797707,1715
1263.6685456737569,1705
1265.7949301723515,1691
1267.9207517126597,1688
1270.046010534565,1710
1272.1707068780306,1746
1274.2948409830983,1679
1276.4184130898889,1668
1278.541423438603,1735
1280.6638722695184,1722
1282.785759822993,1721
1284.9070863394636,1709
1287.0278520594447,1766
1289.1480572235314,1740
1291.2677020723963,1736
1293.3867868467923,1798
1295.5053117875495,1804
1297.623277135579,1790
1299.740683131868,1748
1301.8575300174857,1830
1303.973818033578,1806
1306.0895474213703,1869
1308.2047184221678,1855
1310.3193312773528,1795
1312.4333862283888,1857
1314.5468835168163,1873
1316.659823384255,1840
1318.7722060724045,1733
1320.8840318230418,1851
1322.9953008780249,1815
1325.1060134792888,1855
1327.2161698688478,1820
1329.3257702887959,1844
1331.4348149813054,1870
1333.5433041886276,1823
1335.6512381530933,1880
1337.7586171171101,1898
1339.8654413231675,1822
1341.9717110138317,1776
1344.0774264317488,1776
1346.1825878196432,1858
1348.2871954203192,1743
1350.3912494766587,1835
1352.4947502316231,1872
1354.5976979282532,1833
1356.7000928096686,1869
1358.8019351190665,1764
1360.9032250997243,1813
1363.0039629949988,1800
1365.1041490483235,1842
1367.2037835032133,1795
1369.3028666032606,1882
1371.401398592137,1854
1373.4993797135926,1873
1375.5968102114575,1861
1377.6936903296396,1845
1379.7900203121262,1803
1381.8858004029835,1772
1383.9810308463561,1772
1386.075711886469,1862
1388.1698437676241,1885
1390.2634267342032,1825
1392.356461030667,1824
1394.4489469015557,1922
1396.5408845914872,1901
1398.6322743451592,1860
1400.7231164073469,1882
1402.813411022907,1903
1404.903158436773,1876
1406.9923588939578,1844
1409.0810126395531,1938
1411.1691199187303,2005
1413.2566809767386,1946
1415.343696058907,1975
1417.4301654106425,2007
1419.5160892774315,2003
1421.6014679048399,1982
1423.6863015385125,2039
1425.7705904241707,2026
1427.8543348076178,2055
1429.9375349347342,2041
1432.0201910514802,2065
1434.102303403894,2074
1436.1838722380944,2118
1438.2648978002767,2050
1440.3453803367174,2142
1442.4253200937692,2160
1444.5047173178677,2251
1446.5835722555234,2231
1448.6618851533285,2273
1450.739656257952,2301
1452.8168858161434,2328
1454.8935740747306,2328
1456.96972128062,2421
1459.045327680797,2393
1461.120393522327,2457
1463.1949190523528,2528
1465.2689045180973,2533
1467.3423501668608,2588
1469.415256246024,2611
1471.4876230030463,2734
1473.559450685465,2707
1475.6307395408976,2750
1477.7014898170391,2747
1479.771701761665,2880
1481.8413756226287,2828
1483.9105116478618,2923
1485.9791100853772,2966
1488.0471711832643,2923
1490.1146951896926,3062
1492.1816823529098,3057
1494.2481329212433,3129
1496.3140471430984,3190
1498.3794252669609,3264
1500.4442675413939,3130
1502.5085742150404,3217
1504.572345536622,3234
1506.6355817549388,3268
1508.6982831188702,3280
1510.7604498773744,3257
1512.8220822794883,3306
1514.8831805743293,3306
1516.9437450110909,3353
1519.003775839048,3433
1521.0632733075522,3359
1523.1222376660367,3503
1525.1806691640113,3470
1527.2385680510652,3511
1529.2959345768668,3566
1531.3527689911643,3592
1533.4090715437833,3659
1535.4648424846291,3565
1537.5200820636855,3572
1539.5747905310159,3821
1541.6289681367616,3693
1543.6826151311434,3836
1545.7357317644614,3825
1547.7883182870937,3919
1549.8403749494987,4109
1551.8919020022113,4122
1553.9428996958477,4184
1555.9933682811015,4264
1558.0433080087469,4248
1560.0927191296346,4241
1562.1416018946961,4302
1564.1899565549415,4520
1566.2377833614592,4368
1568.2850825654164,4394
1570.3318544180606,4286
1572.3780991707158,4152
1574.423817074788,3957
1576.4690083817595,3805
1578.5136733431923,3618
1580.5578122107272,3460
1582.601425236085,3343
1584.6445126710646,3197
1586.6870747675434,3033
1588.7291117774776,2882
1590.7706239529034,2839
1592.8116115459347,2708
1594.8520748087658,2683
1596.8920139936686,2568
1598.9314293529933,2446
1600.9703211391711,2364
1603.008689604711,2337
1605.0465350022005,2271
1607.0838575843068,2185
1609.1206576037753,2130
1611.1569353134305,2102
1613.1926909661765,2083
1615.2279248149953,2112
1617.2626371129481,2018
1619.2968281131757,1931
1621.3304980688963,1967
1623.3636472334088,1973
1625.39627586009,1940
1627.428384202396,1964
1629.459972513861,1850
1631.4910410480993,1856
1633.5215900588028,1821
1635.551619799744,1775
1637.5811305247717,1820
1639.6101224878166,1763
1641.6385959428862,1768
1643.6665511440683,1765
1645.693988345528,1806
1647.7209078015112,1784
1649.7473097663405,1776
1651.7731944944203,1792
1653.7985622402307,1720
1655.823413258333,1760
1657.847747803366,1751
1659.8715661300494,1742
1661.8948684931793,1671
1663.9176551476316,1700
1665.9399263483624,1666
1667.9616823504057,1758
1669.982923408873,1738
1672.0036497789574,1708
1674.0238617159293,1679
1676.043559475138,1781
1678.0627433120121,1662
1680.081413482059,1693
1682.0995702408654,1760
1684.117213844096,1733
1686.134344547495,1717
1688.1509626068864,1705
1690.1670682781705,1711
1692.182661817329,1710
1694.1977434804217,1704
1696.2123135235875,1713
1698.226372203043,1687
1700.2399197750851,1707
1702.2529564960905,1642
1704.2654826225112,1699
1706.277498410882,1682
1708.2890041178139,1740
1710.2999999999988,1689
1712.3104863142066,1707
1714.3204633172854,1723
1716.329931266163,1641
1718.3388904178469,1592
1720.3473410294214,1666
1722.3552833580516,1635
1724.3627176609807,1613
1726.3696441955308,1623
1728.3760632191033,1630
1730.3819749891782,1632
1732.3873797633146,1641
1734.3922777991502,1641
1736.3966693544012,1580
1738.4005546868639,1585
1740.4039340544127,1633
1742.406807715001,1631
1744.4091759266616,1579
1746.4110389475054,1593
1748.4123970357223,1630
1750.413250449582,1571
1752.4135994474318,1579
1754.4134442876993,1585
1756.4127852288902,1556
1758.4116225295893,1582
1760.4099564484595,1613
1762.407787244244,1620
1764.405115175764,1568
1766.4019405019203,1569
1768.3982634816916,1517
1770.3940843741357,1556
1772.3894034383907,1555
1774.3842209336717,1560
1776.378537119274,1565
1778.372352254571,1568
1780.3656665990156,1542
1782.3584804121397,1559
1784.3507939535534,1519
1786.3426074829463,1577
1788.3339212600863,1517
1790.3247355448211,1516
1792.3150505970766,1498
1794.3048666768573,1482
1796.2941840442477,1511
1798.2830029594106,1477
1800.2713236825884,1546
1802.2591464741004,1538
1804.2464715943465,1477
1806.2332993038058,1555
1808.2196298630352,1450
1810.2054635326708,1522
1812.190800573428,1565
1814.175641246101,1510
1816.1599858115628,1526
1818.1438345307652,1508
1820.127187664738,1547
1822.1100454745924,1549
1824.092408221516,1537
1826.0742761667766,1439
1828.055649571721,1495
1830.0365286977735,1536
1832.0169138064398,1479
1833.9968051593014,1483
1835.9762030180214,1528
1837.9551076443408,1502
1839.9335193000788,1519
1841.9114382471344,1516
1843.888864747485,1475
1845.8657990631878,1474
1847.842241456378,1449
1849.8181921892697,1526
1851.7936515241558,1479
1853.7686197234098,1515
1855.7430970494815,1453
1857.7170837649014,1438
1859.6905801322787,1474
1861.6635864143004,1549
1863.6361028737338,1532
1865.608129773424,1495
1867.5796673762961,1491
1869.5507159453537,1503
1871.521275743678,1466
1873.4913470344313,1522
1875.4609300808534,1535
1877.4300251462632,1548
1879.3986324940588,1541
1881.366752387717,1491
1883.3343850907936,1528
1885.3015308669228,1549
1887.268189979819,1534
1889.2343626932739,1513
1891.2000492711595,1553
1893.1652499774254,1571
1895.1299650761011,1573
1897.0941948312952,1564
1899.0579395071945,1527
1901.0211993680641,1578
1902.98397467825,1555
1904.9462657021745,1565
1906.9080727043415,1565
1908.869395949332,1543
1910.8302357018065,1570
1912.790592226504,1608
1914.7504657882428,1556
1916.7098566519212,1530
1918.6687650825133,1543
1920.6271913450764,1537
1922.5851357047422,1506
1924.5425984267245,1489
1926.499579776314,1571
1928.4560800188833,1528
1930.4120994198802,1509
1932.367638244833,1550
1934.32269675935,1606
1936.2772752291175,1568
1938.231373919899,1555
1940.1849930975404,1542
1942.1381330279637,1522
1944.0907939771696,1517
1946.0429762112412,1531
1947.9946799963363,1591
1949.9459055986945,1490
1951.896653284633,1539
1953.8469233205478,1491
1955.7967159729142,1489
1957.7460315082863,1496
1959.6948701932974,1538
1961.6432322946594,1513
1963.5911180791632,1543
1965.5385278136787,1472
1967.4854617651545,1544
1969.4319202006182,1543
1971.377903387176,1546
1973.3234115920136,1545
1975.268445082395,1538
1977.2130041256642,1469
1979.1570889892423,1498
1981.1006999406304,1423
1983.04383724741,1523
1984.986501177238,1505
1986.928691997853,1490
1988.8704099770712,1431
1990.811655382789,1420
1992.7524284829801,1504
1994.692729545698,1452
1996.6325588390755,1481
1998.5719166313224,1482
2000.5108031907307,1444
2002.4492187856677,1481
2004.387163684583,1504
2006.3246381560011,1463
2008.2616424685298,1458
2010.1981768908527,1457
2012.1342416917332,1442
2014.069837140014,1454
2016.0049635046162,1473
2017.9396210545406,1417
2019.8738100588666,1483
2021.8075307867502,1413
2023.740783507431,1453
2025.6735684902228,1438
2027.6058860045214,1515
2029.5377363198004,1397
2031.4691197056118,1375
2033.4000364315875,1424
2035.3304867674374,1460
2037.260470982952,1424
2039.189989347998,1389
2041.1190421325232,1474
2043.047629606554,1443
2044.9757520401945,1424
2046.9034097036288,1463
2048.8306028671195,1470
2050.7573318010086,1453
2052.683596775716,1474
2054.609398061742,1454
2056.5347359296647,1458
2058.4596106501403,1434
2060.384022493906,1493
2062.3079717317764,1393
2064.231458634646,1431
2066.1544834734873,1460
2068.077046519352,1500
2069.99914804337,1523
2071.9207883167524,1438
2073.8419676107865,1458
2075.7626861968406,1445
2077.6829443463607,1424
2079.6027423308715,1420
2081.522080421977,1452
2083.440958891362,1442
2085.359378010786,1413
2087.2773380520907,1481
2089.194839287196,1368
2091.111881988101,1432
2093.0284664268825,1414
2094.9445928756973,1456
2096.86026160678,1458
2098.775472892446,1449
2100.690227005088,1467
2102.604524217178,1504
2104.5183648012676,1526
2106.431749029985,1479
2108.34467717604,1469
2110.2571495122206,1502
2112.169166311393,1400
2114.080727846503,1439
2115.9918343905747,1498
2117.902486216711,1497
2119.8126835980956,1449
2121.722426807987,1532
2123.6317161197285,1481
2125.5405518067364,1465
2127.448934142509,1453
2129.356863400624,1508
2131.264339854737,1516
2133.1713637785815,1486
2135.077935445972,1540
2136.9840551308002,1560
2138.889723107037,1543
2140.7949396487334,1487
2142.699705030018,1525
2144.6040195250994,1495
2146.507883408264,1538
2148.4112969538774,1488
2150.3142604363848,1477
2152.2167741303097,1484
2154.1188383102535,1434
2156.0204532508997,1498
2157.9216192270064,1532
2159.822336513414,1491
2161.7226053850413,1543
2163.622426116884,1547
2165.5217989840185,1498
2167.4207242616,1492
2169.319202224862,1561
2171.2172331491165,1475
2173.1148173097563,1522
2175.0119549822507,1514
2176.90864644215,1549
2178.8048919650823,1529
2180.7006918267534,1490
2182.596046302952,1570
2184.4909556695407,1609
2186.3854202024645,1558
2188.279440177746,1589
2190.173015871487,1621
2192.066147559868,1538
2193.958835519149,1569
2195.851080025667,1564
2197.7428813558417,1512
2199.6342397861667,1562
2201.5251555932186,1627
2203.415629053651,1595
2205.3056604441986,1576
2207.19525004167,1588
2209.084398122958,1566
2210.9731049650327,1586
2212.861370844941,1560
2214.749196039812,1599
2216.636580826851,1613
2218.523525483344,1554
2220.410030286655,1593
2222.296095514226,1603
2224.1817214435805,1621
2226.066908352319,1616
2227.951656518121,1600
2229.835966218746,1561
2231.71983773203,1548
2233.6032713358913,1583
2235.486267308324,1609
2237.3688259274036,1585
2239.2509474712824,1543
2241.132632218193,1663
2243.013880446447,1573
2244.8946924344323,1585
2246.7750684606203,1605
2248.6550088035574,1589
2250.534513741871,1526
2252.413583554265,1543
2254.292218519526,1550
2256.170418916517,1503
2258.0481850241786,1534
2259.925517121534,1539
2261.8024154876825,1539
2263.678880401803,1543
2265.5549121431536,1561
2267.430510991071,1586
2269.305677224971,1587
2271.180411124348,1495
2273.0547129687766,1505
2274.9285830379076,1508
2276.8020216114737,1569
2278.6750289692845,1547
2280.5476053912294,1602
2282.4197511572766,1582
2284.2914665474727,1585
2286.162751841943,1610
2288.0336073208937,1564
2289.904033264608,1595
2291.774029953448,1634
2293.6435976678554,1582
2295.5127366883517,1555
2297.381447295534,1555
2299.2497297700825,1537
2301.1175843927526,1466
2302.9850114443825,1457
2304.852011205885,1428
2306.7185839582553,1384
2308.5847299825664,1426
2310.4504495599676,1355
2312.3157429716925,1323
2314.1806104990483,1348
2316.0450524234247,1348
2317.9090690262888,1399
2319.772660589186,1384
2321.635827393742,1369
2323.498569721661,1318
2325.3608878547248,1356
2327.2227820747967,1361
2329.0842526638157,1307
2330.945299903803,1324
2332.805924076857,1317
2334.6661254651535,1315
2336.525904350951,1302
2338.3852610165827,1362
2340.244195744464,1385
2342.102708817088,1271
2343.9608005170253,1313
2345.8184711269287,1352
2347.675720929526,1369
2349.532550207628,1361
2351.38895924412,1330
2353.24494832197,1348
2355.100517724223,1361
2356.955667734004,1337
2358.810398634514,1327
2360.664710709037,1344
2362.5186042409337,1315
2364.3720795136437,1376
2366.225136810686,1410
2368.0777764156583,1356
2369.929998612237,1366
2371.7818036841777,1333
2373.633191915315,1406
2375.484163589562,1362
2377.3347189909114,1342
2379.184858403434,1353
2381.03458211128,1309
2382.8838903986775,1345
2384.732783549936,1382
2386.5812618494406,1389
2388.4293255816588,1377
2390.2769750311327,1369
2392.1242104824883,1342
2393.971032220427,1321
2395.8174405297295,1367
2397.6634356952563,1364
2399.509018001947,1444
2401.3541877348193,1370
2403.1989451789705,1402
2405.043290619576,1470
2406.8872243418905,1421
2408.730746631247,1437
2410.5738577730594,1355
2412.4165580528183,1386
2414.258847756095,1402
2416.100727168537,1379
2417.9421965758734,1374
2419.783256263912,1434
2421.623906518538,1364
2423.4641476257157,1407
2425.303979871491,1387
2427.143403541984,1407
2428.9824189233977,1380
2430.821026302012,1381
2432.6592259641866,1414
2434.497018196361,1449
2436.33440328505,1377
2438.171381516851,1354
2440.00795317844,1377
2441.844118556569,1422
2443.6798779380724,1370
2445.5152316098606,1390
2447.3501798589255,1407
2449.1847229723357,1391
2451.0188612372403,1409
2452.8525949408663,1400
2454.6859243705203,1377
2456.518849813587,1422
2458.3513715575314,1437
2460.183489889895,1400
2462.015205098301,1392
2463.8465174704493,1421
2465.67742729412,1387
2467.5079348571717,1453
2469.338040447542,1417
2471.1677443532476,1457
2472.9970468623833,1439
2474.825948263123,1461
2476.6544488437207,1425
2478.482548892508,1433
2480.310248697896,1412
2482.137548548374,1456
2483.9644487325118,1435
2485.790949538956,1394
2487.617051256433,1448
2489.44275417375,1440
2491.26805857979,1479
2493.0929647635157,1408
2494.917473013971,1441
2496.741583620276,1475
2498.5652968716304,1505
2500.3886130573137,1467
2502.2115324666834,1457
2504.0340553891765,1457
2505.856182114308,1487
2507.6779129316733,1463
2509.499248130945,1473
2511.3201880018764,1430
2513.140732834298,1493
2514.9608829181198,1478
2516.780638543331,1468
2518.6,1485
2520.418967578273,1507
2522.237541568376,1519
2524.0557222606144,1536
2525.8735099453706,1563
2527.6909049131086,1514
2529.507907454368,1517
2531.32451785977,1520
2533.140736420014,1473
2534.9565634258774,1544
2536.771999168218,1537
2538.5870439379714,1539
2540.4016980261526,1569
2542.2159617238544,1560
2544.02983532225,1609
2545.8433191125914,1640
2547.656413386209,1604
2549.4691184345115,1614
2551.2814345489874,1609
2553.093362021204,1662
2554.904901142808,1610
2556.716052205523,1710
2558.526815501153,1697
2560.3371913215824,1630
2562.147179958771,1739
2563.956781704761,1701
2565.7659968516705,1710
2567.5748256916986,1728
2569.3832685171224,1774
2571.1913256202984,1743
2572.9989972936614,1749
2574.806283829725,1803
2576.613185521084,1687
2578.4197026604074,1819
2580.2258355404483,1776
2582.031584454035,1736
2583.836949694077,1801
2585.6419315535613,1798
2587.4465303255533,1803
2589.2507463032002,1783
2591.0545797797245,1853
2592.8580310484303,1887
2594.6611004026995,1871
2596.463788135992,1837
2598.266094541849,1828
2600.0680199138874,1804
2601.869564545807,1842
2603.670728731383,1870
2605.4715127644704,1809
2607.2719169390048,1846
2609.071941548998,1896
2610.8715868885433,1967
2612.670853251811,1928
2614.469740933052,1897
2616.268250226594,1847
2618.0663814268455,1834
2619.864134828292,1824
2621.6615107255006,1904
2623.458509413115,1800
2625.2551311858597,1781
2627.0513763385347,1796
2628.8472451660223,1799
2630.6427379632833,1713
2632.4378550253564,1717
2634.232596647359,1718
2636.026963124488,1705
2637.8209547520187,1699
2639.6145718253065,1714
2641.407814639785,1686
2643.200683490966,1665
2644.9931786744414,1653
2646.7853004858807,1703
2648.577049221034,1685
2650.3684251757277,1637
2652.1594286458712,1648
2653.9500599274484,1577
2655.740319316525,1588
2657.5302071092437,1600
2659.3197236018286,1650
2661.10886909058,1589
2662.8976438718782,1568
2664.686048242183,1571
2666.4740824980327,1556
2668.2617469360443,1489
2670.0490418529134,1510
2671.8359675454153,1549
2673.622524310403,1495
2675.408712444811,1502
2677.1945322456495,1445
2678.979984010009,1474
2680.76506803506,1486
2682.5497846180497,1498
2684.334134056306,1433
2686.1181166472343,1458
2687.9017326883213,1495
2689.6849824771293,1412
2691.4678663113013,1438
2693.2503844885596,1477
2695.032537306705,1455
2696.8143250636167,1452
2698.5957480572542,1389
2700.3768065856534,1434
2702.1575009469316,1427
2703.937831439283,1358
2705.717798360982,1380
2707.4974020103837,1401
2709.276642685917,1431
2711.055520686095,1407
2712.834036309506,1384
2714.612189854819,1353
2716.389981620782,1416
2718.1674119062204,1442
2719.944481010041,1382
2721.721189231226,1368
2723.4975368688415,1344
2725.273524222027,1440
2727.0491515900053,1417
2728.824419272075,1365
2730.5993275676146,1382
2732.3738767760838,1341
2734.148067197016,1331
2735.921899130031,1384
2737.6953728748194,1378
2739.468488731156,1354
2741.2412469988926,1319
2743.0136479779617,1372
2744.785691968372,1321
2746.5573792702116,1327
2748.3287101836504,1314
2750.099685008934,1337
2751.870304046388,1350
2753.640567596418,1396
2755.4104759595057,1332
2757.1800294362156,1339
2758.949228327187,1309
2760.7180729331412,1398
2762.486563554877,1336
2764.254700493272,1361
2766.022484049284,1389
2767.789914523947,1352
2769.5569922183786,1306
2771.3237174337705,1376
2773.090090471394,1341
2774.8561116326036,1353
2776.6217812188274,1374
2778.3870995315756,1289
2780.1520668724356,1333
2781.9166835430747,1325
2783.6809498452394,1349
2785.444866080754,1308
2787.2084325515225,1359
2788.971649559527,1383
2790.73451740683,1337
2792.4970363955713,1334
2794.2592068279705,1330
2796.0210290063264,1304
2797.7825032330147,1302
2799.543629810493,1332
2801.304409041296,1318
2803.0648412280366,1293
2804.8249266734088,1316
2806.5846656801846,1330
2808.344058551212,1349
2810.1031055894246,1361
2811.8618070978273,1377
2813.6201633795085,1312
2815.378174737636,1370
2817.1358414754536,1311
2818.893163896285,1267
2820.6501423035334,1276
2822.4067770006814,1311
2824.1630682912883,1334
2825.9190164789957,1281
2827.6746218675207,1324
2829.429884760661,1376
2831.184805462294,1319
2832.9393842763743,1351
2834.693621506936,1306
2836.4475174580916,1258
2838.201072434034,1270
2839.954286739034,1336
2841.707160677441,1281
2843.459694553685,1332
2845.2118886722724,1248
2846.96374333779,1319
2848.7152588549034,1273
2850.4664355283567,1336
2852.217273662973,1362
2853.9677735636546,1356
2855.7179355353833,1315
2857.4677598832186,1344
2859.217246912299,1336
2860.9663969278427,1283
2862.715210235146,1261
2864.4636871395846,1354
2866.211827946614,1363
2867.9596329617652,1267
2869.7071024906536,1309
2871.4542368389684,1294
2873.20103631248,1319
2874.947501217038,1270
2876.6936318585695,1278
2878.4394285430812,1278
2880.1848915766604,1334
2881.9300212654707,1351
2883.6748179157553,1314
2885.4192818338374,1288
2887.1634133261173,1247
2888.907212699077,1266
2890.6506802592744,1322
2892.393816313348,1314
2894.1366211680142,1313
2895.8790951300693,1357
2897.621238506388,1380
2899.363051603925,1330
2901.1045347297118,1364
2902.8456881908596,1367
2904.58651229456,1321
2906.327007348081,1280
2908.067173658772,1296
2909.8070115340597,1359
2911.5465212814497,1314
2913.285703208527,1247
2915.0245576229563,1354
2916.7630848324807,1294
2918.5012851449196,1273
2920.2391588681758,1315
2921.976706310227,1302
2923.7139277791334,1311
2925.4508235830313,1276
2927.187394030137,1323
2928.923639428745,1299
2930.6595600872306,1283
2932.395156314046,1357
2934.1304284177218,1343
2935.8653767068713,1362
2937.6000014901815,1363
2939.3343030764227,1321
2941.068281774442,1341
2942.8019378931644,1304
2944.5352717415976,1312
2946.2682836288236,1320
2948.0009738640065,1331
2949.7333427563885,1332
2951.465390615289,1339
2953.1971177501086,1370
2954.9285244703265,1317
2956.6596110855,1341
2958.3903779052657,1292
2960.1208252393385,1325
2961.8509533975125,1324
2963.5807626896617,1332
2965.3102534257378,1311
2967.0394259157715,1345
2968.768280469873,1291
2970.496817398232,1349
2972.2250370111146,1354
2973.952939618869,1293
2975.6805255319196,1286
2977.4077950607707,1298
2979.134748516006,1326
2980.861386208289,1315
2982.587708448359,1305
2984.313715547037,1318
2986.039407815222,1314
2987.764785563891,1339
2989.489849104102,1360
2991.2145987469908,1305
2992.9390348037705,1340
2994.6631575857346,1341
2996.3869674042576,1328
2998.1104645707887,1283
2999.83364939686,1286
3001.5565221940783,1283
3003.2790832741334,1290
3005.0013329487924,1268
3006.7232715298996,1268
3008.4448993293804,1271
3010.166216659239,1269
3011.887223831558,1286
3013.607921158498,1298
3015.3283089522993,1356
3017.0483875252826,1278
3018.7681571898443,1326
3020.4876182584626,1331
3022.2067710436927,1292
3023.9256158581707,1309
3025.644153014609,1277
3027.362382825801,1323
3029.0803056046193,1282
3030.797921664012,1315
3032.5152313170106,1264
3034.2322348767225,1300
3035.9489326563353,1290
3037.665324969115,1344
3039.3814121284063,1260
3041.097194447633,1255
3042.812672240299,1363
3044.5278458199855,1316
3046.2427155003525,1286
3047.9572815951406,1277
3049.671544418167,1288
3051.38550428333,1321
3053.0991615046073,1319
3054.812516396051,1281
3056.5255692717974,1305
3058.2383204460575,1275
3059.9507702331257,1249
3061.662918947372,1315
3063.3747669032446,1314
3065.0863144152736,1285
3066.7975617980674,1328
3068.508509366309,1267
3070.219157434767,1291
3071.9295063182844,1299
3073.639556331785,1323
3075.3493077902704,1266
3077.058761008821,1253
3078.7679163025964,1283
3080.476773986837,1323
3082.1853343768594,1327
3083.89359778806,1286
3085.6015645359153,1248
3087.3092349359786,1312
3089.016609303884,1353
3090.7236879553434,1318
3092.4304712061476,1266
3094.136959372166,1300
3095.843152769349,1317
3097.5490517137237,1336
3099.2546565213966,1333
3100.959967508554,1298
3102.66498499146,1360
3104.3697092864577,1288
3106.0741407099695,1322
3107.778279578498,1311
3109.482126208622,1312
3111.1856809170004,1290
3112.8889440203716,1320
3114.5919158355528,1318
3116.294596679439,1316
3117.996986869006,1317
3119.6990867213062,1307
3121.4008965534726,1340
3123.102416682717,1329
3124.803647426329,1309
3126.5045891016784,1318
3128.205242026213,1365
3129.90560651746,1310
3131.605682893025,1336
3133.3054714705922,1286
3135.0049725679282,1280
3136.7041865028714,1273
3138.4031135933465,1316
3140.101754157353,1257
3141.800108512971,1268
3143.498176978357,1328
3145.1959598717494,1287
3146.8934575114636,1320
3148.5906702158954,1279
3150.2875983035183,1308
3151.9842420928853,1264
3153.680601902627,1291
3155.376678051456,1237
3157.07247085816,1282
3158.767980641609,1357
3160.463207720748,1266
3162.158152414606,1286
3163.8528150422862,1319
3165.5471959229726,1266
3167.2412953759303,1288
3168.9351137204976,1291
3170.628651276098,1292
3172.3219083622307,1307
3174.014885298474,1293
3175.707582404485,1357
3177.4000000000005,1319
3179.092138404835,1262
3180.7839979388846,1339
3182.47557892212,1284
3184.166881674594,1277
3185.8579065164386,1312
3187.5486537678626,1300
3189.2391237491547,1264
3190.9293167806827,1294
3192.6192331828934,1256
3194.3088732763117,1294
3195.998237381542,1324
3197.687325819268,1236
3199.376138910251,1309
3201.064676975334,1284
3202.7529403354347,1256
3204.4409293115523,1280
3206.1286442247647,1269
3207.816085396229,1317
3209.5032531471825,1268
3211.190147798936,1301
3212.8767696728846,1269
3214.5631190905015,1236
3216.2491963733373,1268
3217.9350018430214,1300
3219.6205358212637,1243
3221.305798629851,1226
3222.990790590651,1271
3224.6755120256103,1258
3226.359963256751,1270
3228.0441446061795,1223
3229.7280563960758,1230
3231.411698948703,1242
3233.0950725863995,1280
3234.778177631587,1273
3236.461014406761,1280
3238.1435832345005,1280
3239.8258844374595,1261
3241.507918338374,1264
3243.1896852600576,1296
3244.8711855254023,1238
3246.552419457381,1270
3248.233387379042,1324
3249.914089613516,1283
3251.59452648401,1331
3253.274698313813,1288
3254.95460542629,1244
3256.6342481448855,1269
3258.313626793125,1246
3259.9927416946084,1283
3261.6715931730196,1245
3263.3501815521176,1256
3265.0285071557437,1286
3266.706570307815,1239
3268.3843713323286,1243
3270.0619105533615,1261
3271.739188295068,1231
3273.4162048816834,1260
3275.0929606375184,1281
3276.769455886966,1272
3278.445690954498,1275
3280.1216661646613,1265
3281.797381842087,1267
3283.4728383114807,1289
3285.1480358976296,1237
3286.8229749253996,1217
3288.4976557197333,1224
3290.172078605655,1229
3291.846243908266,1281
3293.5201519527463,1318
3295.193803064357,1212
3296.8671975684374,1201
3298.5403357904024,1185
3300.21321805575,1184
3301.8858446900567,1277
3303.558216018975,1251
3305.23033236824,1271
3306.9021940636603,1217
3308.57380143113,1302
3310.2451547966184,1224
3311.916254486174,1295
3313.5871008259246,1251
3315.2576941420766,1262
3316.9280347609147,1248
3318.5981230088046,1235
3320.2679592121895,1213
3321.9375436975924,1180
3323.606876791612,1228
3325.27595882093,1236
3326.944790112305,1299
3328.6133709925753,1247
3330.2817017886573,1220
3331.949782827547,1264
3333.617614436319,1241
3335.2851969421245,1268
3336.952530672199,1266
3338.619615953853,1245
3340.286453114475,1281
3341.9530424815357,1250
3343.619384382583,1234
3345.2854791452437,1253
3346.951327097224,1298
3348.6169285663073,1226
3350.2822838803577,1332
3351.947393367319,1255
3353.61225735521,1302
3355.2768761721345,1264
3356.9412501462693,1265
3358.605379605873,1237
3360.2692648792827,1278
3361.9329062949146,1258
3363.596304181263,1201
