CollectionTime,9/26/2024 8:18:59 AM
ExposureUsed,3
CalibratedSpectrum
-962.7078968117929,676
-959.9714848408522,660
-957.2358232597828,650
-954.5009119013725,746
-951.7667505983302,791
-949.0333391832855,616
-946.3006774887896,679
-943.5687653473143,644
-940.837602591253,760
-938.1071890529199,690
-935.3775245645503,657
-932.6486089583007,666
-929.9204420662485,714
-927.1930237203925,743
-924.4663537526524,764
-921.7404319948689,713
-919.0152582788041,779
-916.2908324361409,872
-913.5671542984834,797
-910.8442236973568,744
-908.1220404642074,773
-905.4006044304027,767
-902.679915427231,742
-899.959973285902,744
-897.2407778375464,788
-894.5223289132158,718
-891.8046263438832,688
-889.0876699604426,665
-886.3714595937089,679
-883.6559950744183,719
-880.9412762332282,775
-878.2273029007168,721
-875.5140749073835,678
-872.8015920836489,625
-870.0898542598545,637
-867.3788612662631,625
-864.6686129330585,616
-861.9591090903457,628
-859.2503495681506,569
-856.5423341964203,593
-853.8350628050229,648
-851.1285352237478,592
-848.4227512823054,602
-845.7177108103272,683
-843.0134136373656,863
-840.3098595928943,838
-837.6070485063082,782
-834.9049802069229,689
-832.2036545239757,654
-829.5030712866244,674
-826.8032303239481,723
-824.1041314649472,697
-821.4057745385428,630
-818.7081593735775,606
-816.0112857988148,675
-813.3151536429393,670
-810.6197627345566,689
-807.9251129021936,732
-805.2312039742981,686
-802.5380357792392,660
-799.8456081453069,671
-797.1539209007124,675
-794.462973873588,695
-791.772766891987,695
-789.083299783884,707
-786.3945723771743,737
-783.7065844996748,727
-781.0193359791231,710
-778.3328266431781,660
-775.6470563194197,662
-772.9620248353489,718
-770.2777320183878,681
-767.5941776958798,627
-764.9113616950891,613
-762.2292838432011,608
-759.5479439673222,641
-756.8673418944801,660
-754.1874774516235,715
-751.5083504656222,669
-748.8299607632671,723
-746.15230817127,865
-743.475392516264,874
-740.7992136248035,706
-738.1237713233636,684
-735.4490654383407,735
-732.7750957960521,725
-730.1018622227365,719
-727.4293645445534,702
-724.7576025875837,795
-722.0865761778291,785
-719.4162851412126,765
-716.7467293035781,870
-714.0779084906909,907
-711.409822528237,693
-708.7424712418238,756
-706.0758544569796,766
-703.4099719991541,753
-700.7448236937178,712
-698.0804093659622,769
-695.4167288411002,748
-692.7537819442656,766
-690.0915685005134,753
-687.4300883348199,754
-684.7693412720819,713
-682.1093271371178,706
-679.4500457546669,702
-676.7914969493897,738
-674.1336805458676,766
-671.4765963686034,723
-668.8202442420206,717
-666.1646239904642,699
-663.5097354382001,722
-660.8555784094151,715
-658.2021527282176,672
-655.5494582186366,735
-652.8974947046223,743
-650.2462620100463,783
-647.5957599587009,826
-644.9459883742998,857
-642.2969470804776,826
-639.6486359007902,821
-637.0010546587141,753
-634.3542031776476,702
-631.7080812809096,689
-629.0626887917401,904
-626.4180255333008,1047
-623.7740913286734,924
-621.1308860008619,815
-618.4884093727904,805
-615.8466612673046,795
-613.2056415071715,827
-610.5653499150785,859
-607.9257863136347,866
-605.28695052537,776
-602.6488423727357,828
-600.0114616781036,993
-597.3748082637674,1244
-594.7388819519412,1240
-592.1036825647604,1026
-589.4692099242818,1127
-586.8354638524829,1168
-584.2024441712624,1081
-581.5701507024403,998
-578.9385832677575,932
-576.3077416888759,943
-573.6776257873787,1092
-571.0482353847704,1026
-568.4195703024757,952
-565.7916303618415,856
-563.164415384135,765
-560.5379251905453,856
-557.9121596021815,981
-555.2871184400748,1034
-552.6628015251767,996
-550.0392086783606,1026
-547.4163397204204,1012
-544.794194472071,1035
-542.1727727539491,1062
-539.5520743866118,1047
-536.9320991905377,993
-534.3128469861261,1107
-531.6943175936979,1127
-529.0765108334947,1229
-526.4594265256793,1409
-523.8430644903358,1587
-521.2274245474689,1727
-518.612506517005,1867
-515.9983102187913,1992
-513.3848354725959,2246
-510.77208209810846,2307
-508.16004991493924,2562
-505.5487387426199,2728
-502.9381484006032,2428
-500.3282787082628,2037
-497.71912948489364,1908
-495.1107005497117,1601
-492.5029917218539,1387
-489.8960028203786,1273
-487.28973366426493,1120
-484.68418407241325,1079
-482.07935386364494,1165
-479.47524285670266,1107
-476.87185087025,1118
-474.2691777228715,1190
-471.66722323307334,1098
-469.0659872192821,1087
-466.4654694998459,1088
-463.86566989303384,1019
-461.26658821703614,1077
-458.66822428996414,1118
-456.07057792985,1127
-453.4736489546475,1217
-450.877437182231,1051
-448.28194243039627,1040
-445.68716451686,1010
-443.09310325926003,1129
-440.49975847515555,1096
-437.9071299820263,1178
-435.31521759727354,1166
-432.72402113821954,1433
-430.13354042210767,1157
-427.5437752661022,1046
-424.95472548728867,1166
-422.36639090267386,1217
-419.7787713291855,1437
-417.1918665836721,1415
-414.60567648290385,1325
-412.0202008435715,1237
-409.4354394822874,1383
-406.8513922155845,1445
-404.26805885991723,1353
-401.685439231661,1180
-399.103533147112,1151
-396.522340422488,1265
-393.9418608739278,1176
-391.3620943174908,1321
-388.7830405691583,1288
-386.2046994448317,1139
-383.6270707603344,1232
-381.05015433141045,1303
-378.473949973725,1075
-375.8984575028645,1025
-373.32367673433623,1016
-370.74960748356875,938
-368.1762495659117,842
-365.60360279663576,934
-363.03166699093265,1025
-360.4604419639154,981
-357.8899275306178,791
-355.32012350599507,818
-352.7510297049233,770
-350.1826459421999,791
-347.61497203254316,775
-345.04800779059235,843
-342.4817530309082,1077
-339.91620756797226,1190
-337.35137121618743,1131
-334.7872437898774,1082
-332.22382510328725,1407
-329.66111497058273,1263
-327.09911320585127,891
-324.53781962310075,834
-321.9772340362607,915
-319.4173562591816,896
-316.8581861056348,905
-314.2997233893127,847
-311.7419679238294,895
-309.1849195227194,886
-306.62857799943856,977
-304.0729431673641,993
-301.51801483979375,1126
-298.963792829947,1047
-296.41027695096386,1045
-293.85746701590574,1304
-291.3053628377552,1413
-288.7539642294155,1398
-286.2032710037115,1460
-283.65328297338897,1780
-281.1039999511146,2117
-278.5554217494762,2471
-276.007548180983,1788
-273.4603790580651,1252
-270.9139141930734,1283
-268.3681533982807,1519
-265.8230964858798,1723
-263.27874326798565,1379
-260.7350935566336,1303
-258.1921471637804,1722
-255.6499039013039,2130
-253.10836358100266,1527
-250.56752601459698,1631
-248.02739101372765,1839
-245.48795838995704,1820
-242.94922795476816,1486
-240.41119951956557,1232
-237.8738728956746,1525
-235.33724789434166,1718
-232.80132432673452,1587
-230.2661020039418,1589
-227.73158073697357,1644
-225.19776033676033,2025
-222.66464061415422,1989
-220.1322213799284,1588
-217.60050244477725,1518
-215.06948361931552,2070
-212.53916471408013,2950
-210.00954553952818,3170
-207.48062590603843,2041
-204.9524056239104,1579
-202.4248845033651,1971
-199.8980623545441,2566
-197.37193898751036,2553
-194.84651421224817,1842
-192.32178783866232,1692
-189.79775967657952,2241
-187.27442953574644,2785
-184.7517972258321,3187
-182.2298625564256,2451
-179.7086253370378,2211
-177.18808537710026,2790
-174.66824248596583,3395
-172.14909647290835,3673
-169.6306471471229,2693
-167.11289431772548,2112
-164.59583779375328,2258
-162.07947738416453,3230
-159.5638128978386,3854
-157.04884414357605,3606
-154.53457093009854,3152
-152.02099306604828,2685
-149.50811035998936,2540
-146.99592262040665,3191
-144.48442965570587,4375
-141.97363127421409,5753
-139.46352728417958,5432
-136.95411749377126,4304
-134.44540171107985,3602
-131.93737974411636,2672
-129.43005140081357,3698
-126.92341648902493,6438
-124.41747481652521,9836
-121.91222619101006,10579
-119.40767042009657,9321
-116.90380731132257,7339
-114.40063667214702,4819
-111.8981583099503,3900
-109.3963720320337,6049
-106.89527764561933,10397
-104.39487495785067,18428
-101.89516377579241,21629
-99.39614390642998,20324
-96.89781515667039,16781
-94.40017733334128,13634
-91.90323024319173,9866
-89.40697369289148,8763
-86.91140748903172,10624
-84.41653143812482,18474
-81.92234534660395,32710
-79.42884902082358,43219
-76.93604226705907,47318
-74.4439248915071,55201
-71.95249670028534,65026
-69.46175749943245,65026
-66.97170709490854,65026
-64.48234529259423,65026
-61.99367189829195,65026
-59.50568671772464,65026
-57.01838955653636,65026
-54.53178022029283,65026
-52.045858514480074,65026
-49.560624244506016,65026
-47.07607721569923,65026
-44.59221723330904,51944
-42.10904410250669,29923
-39.62655762838392,28605
-37.14475761595372,34542
-34.66364387015028,36360
-32.18321619582866,48135
-29.70347439776515,61731
-27.224418280657005,65026
-24.74604764912317,65026
-22.26836230770266,65026
-19.7913620608565,65026
-17.315046712966478,65026
-14.83941606833514,65026
-12.36446993118659,65026
-9.89020810566592,65026
-7.416630395839093,65026
-4.94373660569363,65026
-2.471526539137585,65026
-6.821210263296962E-13,65026
2.47084320796705,65026
4.941003281093458,65026
7.410480415786196,65026
9.879274808531363,65026
12.347386655893956,65026
14.814816154518212,65026
17.28156350112681,65026
19.74762889252179,65026
22.21301252558385,30556
24.67771459727237,11324
27.141735304626195,12294
29.605074844762612,12399
32.06773341487792,10415
34.52971121224755,10110
36.99100843422559,12273
39.45162527824516,12523
41.91156194181792,11399
44.370818622535126,8961
46.82939551806646,9185
49.287292826160524,9727
51.74451074464503,9626
54.201049471426245,8110
56.65690920448981,6622
59.112090141899785,6603
61.56659248179983,5788
64.02041642241159,4638
66.4735621620365,5663
68.92602989905402,6566
71.37781983192338,6995
73.82893215918205,6897
76.27936707944684,5997
78.72912479141326,6229
81.17820549385567,7688
83.62660938562783,6924
86.07433666566146,6611
88.5213875329681,4423
90.96776218663751,3774
93.41346082583925,3680
95.85848364982041,4132
98.30283085790859,6143
100.7465026495089,6545
103.18949922410604,5562
105.63182078126385,4871
108.07346752062438,4520
110.51443964190923,3207
112.95473734491827,3203
115.39436082953114,4000
117.83331029570547,4283
120.27158594347827,3604
122.7091879729652,3243
125.1461165843615,3291
127.58237197794062,3803
130.01795435405518,3466
132.4528639131364,3496
134.88710085569494,4082
137.32066538231982,3787
139.75355769367923,2837
142.1857779905207,2790
144.61732647366978,3287
147.04820334403132,3190
149.47840880258934,2418
151.90794305040674,2549
154.33680628862487,2723
156.76499871846443,2527
159.19252054122433,2679
161.61937195828352,2969
164.04555317109896,3321
166.47106438120693,3265
168.89590579022217,2989
171.320077599839,3285
173.7435800118302,3780
176.16641322804742,3950
178.58857745042144,3539
181.01007288096173,3710
183.43089972175687,3895
185.85105817497413,3332
188.27054844285988,2973
190.6893707277394,3062
193.10752523201643,3557
195.5250121581745,3565
197.9418317087751,3065
200.3579840864594,3339
202.7734694939469,3587
205.18828813403627,3482
207.6024402096051,3248
210.01592592360964,3423
212.42874547908548,3170
214.84089907914665,3281
217.2523869269868,3494
219.66320922587727,3131
222.0733661791695,2866
224.48285799029293,3222
226.8916848627572,3373
229.29984700014882,3085
231.7073446061355,3242
234.11417788446204,3145
236.520347038953,3261
238.92585227351185,3181
241.33069379212054,3084
243.73487179884035,3113
246.1383864978112,3325
248.541238093252,3509
250.9434267894609,3355
253.34495279081432,3246
255.74581630176783,2997
258.1460175268563,3043
260.54555667069314,3274
262.9444339379703,3538
265.3426495334594,3625
267.7402036620107,3384
270.1370965285529,3241
272.53332833809407,3116
274.9288992957214,3253
277.32380960660055,3373
279.718059475976,3092
282.1116491091717,2896
284.5045787115897,2762
286.89684848871195,2809
289.2884586460981,2833
291.67940938938807,3103
294.0697009242996,2999
296.4593334566299,3136
298.84830719225477,3251
301.23662233712923,3150
303.6242790972866,2925
306.01127767884,2884
308.39761828798066,2988
310.78330113097934,2741
313.16832641418534,2543
315.5526943440269,2714
317.9364051270112,2794
320.3194589697242,2862
322.70185607883093,2702
325.0835966610754,2612
327.4646809232805,2590
329.8451090723478,2595
332.2248813152577,2608
334.6039978590701,2588
336.9824589109231,2471
339.36026467803447,2335
341.7374153677,2422
344.113911187295,2399
346.48975234427337,2361
348.8649390461686,2492
351.2394715005918,2393
353.61334991523415,2335
355.9865744978655,2273
358.35914545633375,2318
360.73106299856715,2370
363.10232733257146,2462
365.47293866643247,2436
367.84289720831396,2357
370.2122031664593,2291
372.5808567491905,2347
374.9488581649083,2215
377.31620762209275,2095
379.6829053293021,2246
382.0489514951745,2306
384.4143463284262,2303
386.7790900378528,2261
389.14318283232853,2292
391.50662492080653,2523
393.86941651231916,2706
396.23155781597745,2760
398.5930490409713,2621
400.9538903965696,2455
403.3140820921202,2352
405.6736243370498,2383
408.03251734086336,2291
410.3907613131465,2161
412.74835646356166,2280
415.10530300185144,2125
417.4616011378372,2355
419.81725108141893,2283
422.1722530425758,2194
424.5266072313656,2257
426.880313857925,2225
429.2333731324701,2079
431.58578526529516,2066
433.9375504667738,2127
436.2886689473588,2002
438.63914091758113,2029
440.9889665880513,2039
443.33814616945835,2043
445.68667987257015,2042
448.03456790823395,2094
450.3818104873759,2036
452.72840782100013,1969
455.07436012019105,2030
457.41966759611057,2027
459.7643304600007,1963
462.10834892318155,2012
464.4517231970525,2133
466.79445349309174,2128
469.1365400228566,2093
471.4779829979826,2091
473.81878263018564,2036
476.15893913125876,2121
478.4984527130747,2475
480.8373235875855,2417
483.17555196682144,2339
485.5131380628919,2360
487.8500820879857,2370
490.1863842543697,2511
492.52204477439034,2815
494.8570638604725,3239
497.1914417251204,3701
499.52517858091653,4395
501.85827464052306,5141
504.19073011668036,5492
506.5225452222086,5755
508.85372017000566,5870
511.18425517304956,6144
513.514150444396,7763
515.8434061971808,9174
518.1720226446176,9603
520.4999999999999,9150
522.8273384766991,8252
525.1540382881666,7224
527.480099647932,5909
529.8055227696037,4165
532.1303078668694,2984
534.454455153496,2702
536.777964843328,2524
539.1008371502907,2507
541.4230722883866,2426
543.744670471698,2308
546.0656319143858,2283
548.3859568306899,2358
550.7056454349294,2491
553.0246979415016,2571
555.3431145648834,2413
557.6608955196306,2167
559.978041020377,2319
562.2945512818363,2339
564.6104265188006,2213
566.9256669461412,2195
569.2402727788082,2314
571.5542442318302,2389
573.8675815203156,2161
576.1802848594508,2236
578.4923544645015,2116
580.8037905508126,2079
583.114593333807,2034
585.4247630289875,2188
587.7342998519354,2256
590.0432040183106,2244
592.3514757438526,2026
594.6591152443794,2102
596.9661227357875,2270
599.2724984340531,2205
601.578242555231,2073
603.8833553154542,1965
606.1878369309362,2087
608.4916876179676,2050
610.7949075929192,2145
613.0974970722403,2160
615.3994562724587,2087
617.7007854101818,2068
620.0014847020951,1968
622.3015543649641,2069
624.6009946156324,2087
626.8998056710224,2071
629.1979877481361,2122
631.4955410640538,2011
633.7924658359349,2026
636.0887622810175,2018
638.3844306166192,1988
640.6794710601358,2086
642.9738838290426,2185
645.2676691408932,2028
647.5608272133207,2067
649.853358264037,2096
652.1452625108324,2078
654.4365401715764,2018
656.7271914642178,2205
659.0172166067838,2213
661.3066158173809,2085
663.5953893141935,2091
665.8835373154867,2152
668.1710600396028,2160
670.4579577049639,2237
672.7442305300709,2096
675.0298787335033,2114
677.3149025339197,2086
679.599302150058,2088
681.8830778007342,2102
684.1662297048437,2178
686.4487580813608,2106
688.7306631493387,2095
691.0119451279091,2193
693.2926042362834,2038
695.5726406937516,2091
697.8520547196814,2129
700.1308465335215,2114
702.4090163547982,2026
704.6865644031171,1975
706.9634908981619,2027
709.2397960596965,2015
711.5154801075631,1969
713.7905432616823,2039
716.0649857420548,2015
718.3388077687592,2054
720.612009561953,1991
722.8845913418733,1911
725.1565533288352,1900
727.427895743234,1998
729.6986188055427,2045
731.9687227363137,2079
734.238207756178,1990
736.5070740858458,2083
738.7753219461066,2163
741.0429515578281,2146
743.3099631419569,2047
745.5763569195191,1978
747.8421331116193,2082
750.1072919394409,2097
752.3718336242467,2189
754.6357583873777,2017
756.8990664502545,2016
759.1617580343765,2032
761.423833361321,2033
763.6852926527457,2123
765.9461361303862,2018
768.206364016058,2174
770.4659765316536,2274
772.7249738991469,2210
774.9833563405886,2120
777.2411240781092,2044
779.4982773339183,2013
781.7548163303044,2149
784.010741289634,2156
786.2660524343538,2222
788.5207499869881,2252
790.7748341701416,2218
793.0283052064964,2203
795.2811633188143,2105
797.5334087299362,2126
799.7850416627813,2095
802.0360623403484,2155
804.2864709857143,2305
806.5362678220353,2239
808.7854530725468,2097
811.0340269605625,2145
813.2819897094754,2258
815.5293415427581,2299
817.77608268396,2068
820.0222133567116,2075
822.2677337847211,2411
824.5126441917765,2408
826.7569448017433,2151
829.0006358385675,1955
831.2437175262731,2106
833.4861900889629,2152
835.7280537508192,2073
837.9693087361026,2091
840.2099552691533,1947
842.4499935743896,2074
844.689423876309,2070
846.9282463994886,2063
849.1664613685833,2016
851.4040690083276,2043
853.6410695435349,1988
855.877463199097,2083
858.1132501999847,2073
860.3484307712487,2169
862.5830051380175,2045
864.8169735254988,2027
867.0503361589791,1995
869.2830932638243,2088
871.5152450654786,2044
873.7467917894654,2095
875.9777336613873,2158
878.2080709069252,2054
880.4378037518389,2059
882.666932421968,2189
884.8954571432301,2289
887.1233781416219,2355
889.3506956432192,2122
891.5774098741766,2054
893.803521060728,2087
896.0290294291852,2059
898.2539352059397,2154
900.4782386174619,2206
902.7019398903011,2238
904.925039251085,2206
907.147536926521,2087
909.3694331433943,2132
911.59072812857,2166
913.8114221089921,2121
916.0315153116827,2144
918.2510079637437,2116
920.4699002923547,2057
922.6881925247761,2140
924.905884888345,2149
927.1229776104793,2074
929.3394709186747,2091
931.555365040506,2155
933.7706602036275,2114
935.9853566357709,2198
938.1994545647489,2343
940.4129542184515,2261
942.6258558248488,2207
944.8381596119883,2291
947.0498658079974,2374
949.2609746410825,2299
951.4714863395287,2235
953.6814011316998,2262
955.8907192460387,2207
958.0994409110671,2254
960.3075663553858,2292
962.5150958076741,2362
964.7220294966913,2287
966.928367651274,2284
969.1341105003388,2213
971.3392582728806,2154
973.5438111979742,2105
975.747769504772,2152
977.9511334225061,2004
980.153903180487,2156
982.3560790081052,2069
984.5576611348289,2076
986.7586497902058,2032
988.9590452038618,2113
991.158847605503,2117
993.3580572249133,2089
995.5566742919558,1950
997.7546990365728,1856
999.952131688785,1825
1002.1489724786926,1701
1004.3452216364743,1689
1006.5408793923874,1693
1008.7359459767691,1735
1010.9304216200343,1646
1013.1243065526781,1688
1015.3176010052733,1733
1017.510305208472,1743
1019.7024193930064,1888
1021.8939437896848,1921
1024.0848786293977,1691
1026.2752241431122,1619
1028.4649805618747,1582
1030.6541481168115,1654
1032.842727039127,1553
1035.0307175601051,1571
1037.2181199111074,1613
1039.4049343235752,1607
1041.591161029029,1670
1043.7768002590683,1517
1045.9618522453698,1566
1048.1463172196918,1640
1050.3301954138697,1627
1052.513487059818,1616
1054.69619238953,1567
1056.8783116350783,1513
1059.0598450286152,1623
1061.2407928023704,1573
1063.4211551886528,1565
1065.6009324198508,1555
1067.780124728432,1550
1069.9587323469414,1520
1072.1367555080046,1545
1074.314194444325,1592
1076.4910493886855,1555
1078.667320573947,1580
1080.843008233051,1447
1083.0181125990161,1463
1085.1926339049414,1502
1087.3665723840027,1531
1089.5399282694575,1509
1091.7127017946405,1530
1093.8848931929647,1531
1096.0565026979243,1587
1098.2275305430899,1471
1100.3979769621128,1517
1102.567842188722,1538
1104.737126456726,1498
1106.9058300000124,1505
1109.0739530525475,1467
1111.2414958483764,1507
1113.4084586216231,1452
1115.5748416064907,1531
1117.7406450372605,1548
1119.9058691482942,1491
1122.0705141740304,1536
1124.2345803489884,1468
1126.3980679077658,1503
1128.5609770850388,1584
1130.7233081155623,1440
1132.8850612341707,1435
1135.0462366757774,1405
1137.2068346753745,1457
1139.3668554680326,1479
1141.526299288901,1503
1143.68516637321,1550
1145.8434569562655,1455
1148.001171273455,1476
1150.158309560244,1470
1152.3148720521767,1455
1154.470858984876,1485
1156.626270594044,1485
1158.7811071154629,1495
1160.9353687849912,1433
1163.089055838569,1451
1165.242168512213,1511
1167.3947070420209,1474
1169.5466716641677,1479
1171.6980626149075,1551
1173.8488801305748,1569
1175.9991244475814,1519
1178.1487958024186,1482
1180.2978944316555,1502
1182.4464205719428,1461
1184.5943744600072,1390
1186.7417563326567,1461
1188.8885664267755,1436
1191.0348049793297,1420
1193.1804722273619,1419
1195.325568407995,1487
1197.4700937584303,1418
1199.614048515948,1375
1201.7574329179074,1463
1203.900247201746,1489
1206.042491604982,1425
1208.1841663652099,1454
1210.3252717201053,1438
1212.465807907422,1538
1214.6057751649923,1447
1216.7451737307279,1502
1218.8840038426192,1505
1221.0222657387353,1503
1223.1599596572241,1477
1225.2970858363137,1409
1227.4336445143094,1400
1229.5696359295966,1466
1231.705060320639,1475
1233.8399179259786,1492
1235.9742089842384,1538
1238.107933734118,1528
1240.2410924143974,1463
1242.373685263935,1457
1244.5057125216676,1528
1246.6371744266116,1566
1248.7680712178621,1570
1250.898403134593,1479
1253.028170416058,1497
1255.1573733015875,1496
1257.2860120305932,1507
1259.4140868425648,1556
1261.54159797707,1499
1263.6685456737569,1604
1265.7949301723515,1599
1267.9207517126597,1535
1270.046010534565,1499
1272.1707068780306,1509
1274.2948409830983,1514
1276.4184130898889,1562
1278.541423438603,1510
1280.6638722695184,1467
1282.785759822993,1492
1284.9070863394636,1552
1287.0278520594447,1573
1289.1480572235314,1511
1291.2677020723963,1550
1293.3867868467923,1627
1295.5053117875495,1640
1297.623277135579,1549
1299.740683131868,1536
1301.8575300174857,1545
1303.973818033578,1650
1306.0895474213703,1666
1308.2047184221678,1593
1310.3193312773528,1640
1312.4333862283888,1593
1314.5468835168163,1647
1316.659823384255,1588
1318.7722060724045,1515
1320.8840318230418,1536
1322.9953008780249,1532
1325.1060134792888,1600
1327.2161698688478,1630
1329.3257702887959,1572
1331.4348149813054,1589
1333.5433041886276,1579
1335.6512381530933,1527
1337.7586171171101,1559
1339.8654413231675,1560
1341.9717110138317,1542
1344.0774264317488,1486
1346.1825878196432,1517
1348.2871954203192,1533
1350.3912494766587,1556
1352.4947502316231,1559
1354.5976979282532,1551
1356.7000928096686,1473
1358.8019351190665,1516
1360.9032250997243,1499
1363.0039629949988,1570
1365.1041490483235,1536
1367.2037835032133,1490
1369.3028666032606,1561
1371.401398592137,1576
1373.4993797135926,1507
1375.5968102114575,1569
1377.6936903296396,1517
1379.7900203121262,1473
1381.8858004029835,1531
1383.9810308463561,1479
1386.075711886469,1596
1388.1698437676241,1529
1390.2634267342032,1599
1392.356461030667,1649
1394.4489469015557,1534
1396.5408845914872,1477
1398.6322743451592,1441
1400.7231164073469,1519
1402.813411022907,1524
1404.903158436773,1593
1406.9923588939578,1589
1409.0810126395531,1614
1411.1691199187303,1594
1413.2566809767386,1500
1415.343696058907,1547
1417.4301654106425,1541
1419.5160892774315,1510
1421.6014679048399,1519
1423.6863015385125,1548
1425.7705904241707,1485
1427.8543348076178,1426
1429.9375349347342,1414
1432.0201910514802,1484
1434.102303403894,1473
1436.1838722380944,1487
1438.2648978002767,1545
1440.3453803367174,1601
1442.4253200937692,1605
1444.5047173178677,1522
1446.5835722555234,1527
1448.6618851533285,1592
1450.739656257952,1600
1452.8168858161434,1590
1454.8935740747306,1585
1456.96972128062,1485
1459.045327680797,1570
1461.120393522327,1582
1463.1949190523528,1543
1465.2689045180973,1552
1467.3423501668608,1569
1469.415256246024,1515
1471.4876230030463,1609
1473.559450685465,1605
1475.6307395408976,1578
1477.7014898170391,1598
1479.771701761665,1639
1481.8413756226287,1643
1483.9105116478618,1545
1485.9791100853772,1534
1488.0471711832643,1625
1490.1146951896926,1563
1492.1816823529098,1610
1494.2481329212433,1664
1496.3140471430984,1626
1498.3794252669609,1606
1500.4442675413939,1615
1502.5085742150404,1610
1504.572345536622,1684
1506.6355817549388,1576
1508.6982831188702,1588
1510.7604498773744,1549
1512.8220822794883,1619
1514.8831805743293,1619
1516.9437450110909,1596
1519.003775839048,1594
1521.0632733075522,1637
1523.1222376660367,1645
1525.1806691640113,1569
1527.2385680510652,1581
1529.2959345768668,1668
1531.3527689911643,1719
1533.4090715437833,1657
1535.4648424846291,1642
1537.5200820636855,1688
1539.5747905310159,1629
1541.6289681367616,1720
1543.6826151311434,1691
1545.7357317644614,1731
1547.7883182870937,1617
1549.8403749494987,1682
1551.8919020022113,1721
1553.9428996958477,1735
1555.9933682811015,1803
1558.0433080087469,1860
1560.0927191296346,1833
1562.1416018946961,1836
1564.1899565549415,1794
1566.2377833614592,1807
1568.2850825654164,1867
1570.3318544180606,1813
1572.3780991707158,1791
1574.423817074788,1782
1576.4690083817595,1802
1578.5136733431923,1700
1580.5578122107272,1740
1582.601425236085,1805
1584.6445126710646,1699
1586.6870747675434,1669
1588.7291117774776,1639
1590.7706239529034,1616
1592.8116115459347,1678
1594.8520748087658,1571
1596.8920139936686,1547
1598.9314293529933,1550
1600.9703211391711,1566
1603.008689604711,1584
1605.0465350022005,1531
1607.0838575843068,1530
1609.1206576037753,1554
1611.1569353134305,1489
1613.1926909661765,1519
1615.2279248149953,1574
1617.2626371129481,1543
1619.2968281131757,1494
1621.3304980688963,1528
1623.3636472334088,1556
1625.39627586009,1497
1627.428384202396,1408
1629.459972513861,1509
1631.4910410480993,1560
1633.5215900588028,1527
1635.551619799744,1454
1637.5811305247717,1545
1639.6101224878166,1415
1641.6385959428862,1520
1643.6665511440683,1460
1645.693988345528,1459
1647.7209078015112,1523
1649.7473097663405,1524
1651.7731944944203,1462
1653.7985622402307,1512
1655.823413258333,1438
1657.847747803366,1440
1659.8715661300494,1437
1661.8948684931793,1462
1663.9176551476316,1533
1665.9399263483624,1439
1667.9616823504057,1398
1669.982923408873,1383
1672.0036497789574,1485
1674.0238617159293,1405
1676.043559475138,1391
1678.0627433120121,1437
1680.081413482059,1366
1682.0995702408654,1416
1684.117213844096,1414
1686.134344547495,1422
1688.1509626068864,1467
1690.1670682781705,1460
1692.182661817329,1421
1694.1977434804217,1530
1696.2123135235875,1570
1698.226372203043,1545
1700.2399197750851,1548
1702.2529564960905,1549
1704.2654826225112,1486
1706.277498410882,1422
1708.2890041178139,1386
1710.2999999999988,1412
1712.3104863142066,1455
1714.3204633172854,1441
1716.329931266163,1478
1718.3388904178469,1454
1720.3473410294214,1526
1722.3552833580516,1519
1724.3627176609807,1418
1726.3696441955308,1419
1728.3760632191033,1462
1730.3819749891782,1447
1732.3873797633146,1390
1734.3922777991502,1453
1736.3966693544012,1478
1738.4005546868639,1448
1740.4039340544127,1425
1742.406807715001,1461
1744.4091759266616,1449
1746.4110389475054,1376
1748.4123970357223,1411
1750.413250449582,1404
1752.4135994474318,1417
1754.4134442876993,1415
1756.4127852288902,1457
1758.4116225295893,1429
1760.4099564484595,1490
1762.407787244244,1488
1764.405115175764,1385
1766.4019405019203,1404
1768.3982634816916,1420
1770.3940843741357,1437
1772.3894034383907,1444
1774.3842209336717,1415
1776.378537119274,1487
1778.372352254571,1402
1780.3656665990156,1380
1782.3584804121397,1411
1784.3507939535534,1452
1786.3426074829463,1426
1788.3339212600863,1408
1790.3247355448211,1439
1792.3150505970766,1438
1794.3048666768573,1452
1796.2941840442477,1406
1798.2830029594106,1451
1800.2713236825884,1474
1802.2591464741004,1398
1804.2464715943465,1450
1806.2332993038058,1433
1808.2196298630352,1483
1810.2054635326708,1453
1812.190800573428,1393
1814.175641246101,1453
1816.1599858115628,1466
1818.1438345307652,1475
1820.127187664738,1529
1822.1100454745924,1430
1824.092408221516,1469
1826.0742761667766,1441
1828.055649571721,1430
1830.0365286977735,1409
1832.0169138064398,1420
1833.9968051593014,1446
1835.9762030180214,1480
1837.9551076443408,1480
1839.9335193000788,1498
1841.9114382471344,1455
1843.888864747485,1430
1845.8657990631878,1413
1847.842241456378,1399
1849.8181921892697,1425
1851.7936515241558,1426
1853.7686197234098,1396
1855.7430970494815,1378
1857.7170837649014,1418
1859.6905801322787,1399
1861.6635864143004,1408
1863.6361028737338,1493
1865.608129773424,1454
1867.5796673762961,1522
1869.5507159453537,1394
1871.521275743678,1505
1873.4913470344313,1456
1875.4609300808534,1460
1877.4300251462632,1429
1879.3986324940588,1492
1881.366752387717,1463
1883.3343850907936,1494
1885.3015308669228,1504
1887.268189979819,1452
1889.2343626932739,1481
1891.2000492711595,1474
1893.1652499774254,1411
1895.1299650761011,1388
1897.0941948312952,1415
1899.0579395071945,1486
1901.0211993680641,1465
1902.98397467825,1439
1904.9462657021745,1466
1906.9080727043415,1441
1908.869395949332,1436
1910.8302357018065,1480
1912.790592226504,1484
1914.7504657882428,1413
1916.7098566519212,1434
1918.6687650825133,1424
1920.6271913450764,1391
1922.5851357047422,1407
1924.5425984267245,1477
1926.499579776314,1495
1928.4560800188833,1482
1930.4120994198802,1495
1932.367638244833,1471
1934.32269675935,1519
1936.2772752291175,1443
1938.231373919899,1512
1940.1849930975404,1547
1942.1381330279637,1470
1944.0907939771696,1412
1946.0429762112412,1439
1947.9946799963363,1454
1949.9459055986945,1471
1951.896653284633,1446
1953.8469233205478,1429
1955.7967159729142,1385
1957.7460315082863,1388
1959.6948701932974,1444
1961.6432322946594,1441
1963.5911180791632,1427
1965.5385278136787,1409
1967.4854617651545,1527
1969.4319202006182,1443
1971.377903387176,1473
1973.3234115920136,1457
1975.268445082395,1437
1977.2130041256642,1412
1979.1570889892423,1431
1981.1006999406304,1436
1983.04383724741,1497
1984.986501177238,1452
1986.928691997853,1510
1988.8704099770712,1453
1990.811655382789,1478
1992.7524284829801,1480
1994.692729545698,1428
1996.6325588390755,1418
1998.5719166313224,1405
2000.5108031907307,1397
2002.4492187856677,1379
2004.387163684583,1396
2006.3246381560011,1454
2008.2616424685298,1426
2010.1981768908527,1444
2012.1342416917332,1428
2014.069837140014,1384
2016.0049635046162,1440
2017.9396210545406,1423
2019.8738100588666,1407
2021.8075307867502,1415
2023.740783507431,1390
2025.6735684902228,1426
2027.6058860045214,1477
2029.5377363198004,1474
2031.4691197056118,1412
2033.4000364315875,1469
2035.3304867674374,1431
2037.260470982952,1482
2039.189989347998,1436
2041.1190421325232,1481
2043.047629606554,1391
2044.9757520401945,1446
2046.9034097036288,1383
2048.8306028671195,1380
2050.7573318010086,1395
2052.683596775716,1387
2054.609398061742,1437
2056.5347359296647,1470
2058.4596106501403,1393
2060.384022493906,1427
2062.3079717317764,1374
2064.231458634646,1373
2066.1544834734873,1442
2068.077046519352,1336
2069.99914804337,1402
2071.9207883167524,1382
2073.8419676107865,1345
2075.7626861968406,1313
2077.6829443463607,1393
2079.6027423308715,1363
2081.522080421977,1376
2083.440958891362,1379
2085.359378010786,1431
2087.2773380520907,1395
2089.194839287196,1375
2091.111881988101,1388
2093.0284664268825,1384
2094.9445928756973,1408
2096.86026160678,1443
2098.775472892446,1392
2100.690227005088,1348
2102.604524217178,1435
2104.5183648012676,1408
2106.431749029985,1466
2108.34467717604,1432
2110.2571495122206,1412
2112.169166311393,1468
2114.080727846503,1441
2115.9918343905747,1419
2117.902486216711,1410
2119.8126835980956,1423
2121.722426807987,1450
2123.6317161197285,1455
2125.5405518067364,1370
2127.448934142509,1461
2129.356863400624,1445
2131.264339854737,1469
2133.1713637785815,1466
2135.077935445972,1480
2136.9840551308002,1428
2138.889723107037,1408
2140.7949396487334,1395
2142.699705030018,1439
2144.6040195250994,1480
2146.507883408264,1373
2148.4112969538774,1454
2150.3142604363848,1437
2152.2167741303097,1473
2154.1188383102535,1476
2156.0204532508997,1432
2157.9216192270064,1393
2159.822336513414,1396
2161.7226053850413,1378
2163.622426116884,1469
2165.5217989840185,1420
2167.4207242616,1456
2169.319202224862,1408
2171.2172331491165,1461
2173.1148173097563,1476
2175.0119549822507,1373
2176.90864644215,1450
2178.8048919650823,1430
2180.7006918267534,1431
2182.596046302952,1420
2184.4909556695407,1366
2186.3854202024645,1445
2188.279440177746,1457
2190.173015871487,1444
2192.066147559868,1451
2193.958835519149,1473
2195.851080025667,1490
2197.7428813558417,1476
2199.6342397861667,1410
2201.5251555932186,1431
2203.415629053651,1416
2205.3056604441986,1454
2207.19525004167,1421
2209.084398122958,1405
2210.9731049650327,1421
2212.861370844941,1489
2214.749196039812,1517
2216.636580826851,1511
2218.523525483344,1484
2220.410030286655,1520
2222.296095514226,1441
2224.1817214435805,1465
2226.066908352319,1408
2227.951656518121,1445
2229.835966218746,1437
2231.71983773203,1438
2233.6032713358913,1445
2235.486267308324,1452
2237.3688259274036,1486
2239.2509474712824,1451
2241.132632218193,1533
2243.013880446447,1478
2244.8946924344323,1417
2246.7750684606203,1516
2248.6550088035574,1407
2250.534513741871,1478
2252.413583554265,1416
2254.292218519526,1442
2256.170418916517,1451
2258.0481850241786,1459
2259.925517121534,1435
2261.8024154876825,1437
2263.678880401803,1397
2265.5549121431536,1486
2267.430510991071,1401
2269.305677224971,1430
2271.180411124348,1417
2273.0547129687766,1370
2274.9285830379076,1433
2276.8020216114737,1428
2278.6750289692845,1466
2280.5476053912294,1445
2282.4197511572766,1526
2284.2914665474727,1478
2286.162751841943,1437
2288.0336073208937,1421
2289.904033264608,1462
2291.774029953448,1432
2293.6435976678554,1411
2295.5127366883517,1408
2297.381447295534,1357
2299.2497297700825,1358
2301.1175843927526,1306
2302.9850114443825,1401
2304.852011205885,1358
2306.7185839582553,1324
2308.5847299825664,1293
2310.4504495599676,1314
2312.3157429716925,1224
2314.1806104990483,1258
2316.0450524234247,1241
2317.9090690262888,1262
2319.772660589186,1243
2321.635827393742,1217
2323.498569721661,1205
2325.3608878547248,1264
2327.2227820747967,1249
2329.0842526638157,1263
2330.945299903803,1247
2332.805924076857,1233
2334.6661254651535,1225
2336.525904350951,1262
2338.3852610165827,1258
2340.244195744464,1252
2342.102708817088,1173
2343.9608005170253,1245
2345.8184711269287,1213
2347.675720929526,1230
2349.532550207628,1247
2351.38895924412,1268
2353.24494832197,1241
2355.100517724223,1327
2356.955667734004,1309
2358.810398634514,1285
2360.664710709037,1279
2362.5186042409337,1303
2364.3720795136437,1300
2366.225136810686,1277
2368.0777764156583,1264
2369.929998612237,1247
2371.7818036841777,1253
2373.633191915315,1205
2375.484163589562,1237
2377.3347189909114,1273
2379.184858403434,1242
2381.03458211128,1208
2382.8838903986775,1225
2384.732783549936,1258
2386.5812618494406,1200
2388.4293255816588,1202
2390.2769750311327,1245
2392.1242104824883,1239
2393.971032220427,1224
2395.8174405297295,1234
2397.6634356952563,1271
2399.509018001947,1256
2401.3541877348193,1240
2403.1989451789705,1239
2405.043290619576,1266
2406.8872243418905,1258
2408.730746631247,1246
2410.5738577730594,1218
2412.4165580528183,1250
2414.258847756095,1227
2416.100727168537,1203
2417.9421965758734,1227
2419.783256263912,1186
2421.623906518538,1326
2423.4641476257157,1283
2425.303979871491,1205
2427.143403541984,1235
2428.9824189233977,1238
2430.821026302012,1212
2432.6592259641866,1252
2434.497018196361,1286
2436.33440328505,1188
2438.171381516851,1292
2440.00795317844,1214
2441.844118556569,1271
2443.6798779380724,1242
2445.5152316098606,1309
2447.3501798589255,1288
2449.1847229723357,1299
2451.0188612372403,1251
2452.8525949408663,1241
2454.6859243705203,1294
2456.518849813587,1256
2458.3513715575314,1258
2460.183489889895,1269
2462.015205098301,1304
2463.8465174704493,1275
2465.67742729412,1281
2467.5079348571717,1242
2469.338040447542,1227
2471.1677443532476,1267
2472.9970468623833,1215
2474.825948263123,1228
2476.6544488437207,1258
2478.482548892508,1238
2480.310248697896,1254
2482.137548548374,1296
2483.9644487325118,1283
2485.790949538956,1245
2487.617051256433,1220
2489.44275417375,1247
2491.26805857979,1214
2493.0929647635157,1275
2494.917473013971,1274
2496.741583620276,1236
2498.5652968716304,1325
2500.3886130573137,1259
2502.2115324666834,1274
2504.0340553891765,1253
2505.856182114308,1272
2507.6779129316733,1257
2509.499248130945,1283
2511.3201880018764,1301
2513.140732834298,1254
2514.9608829181198,1265
2516.780638543331,1277
2518.6,1224
2520.418967578273,1245
2522.237541568376,1280
2524.0557222606144,1268
2525.8735099453706,1290
2527.6909049131086,1234
2529.507907454368,1326
2531.32451785977,1252
2533.140736420014,1240
2534.9565634258774,1254
2536.771999168218,1251
2538.5870439379714,1287
2540.4016980261526,1343
2542.2159617238544,1298
2544.02983532225,1253
2545.8433191125914,1299
2547.656413386209,1262
2549.4691184345115,1278
2551.2814345489874,1319
2553.093362021204,1302
2554.904901142808,1271
2556.716052205523,1301
2558.526815501153,1265
2560.3371913215824,1237
2562.147179958771,1274
2563.956781704761,1213
2565.7659968516705,1287
2567.5748256916986,1256
2569.3832685171224,1286
2571.1913256202984,1359
2572.9989972936614,1384
2574.806283829725,1325
2576.613185521084,1297
2578.4197026604074,1289
2580.2258355404483,1325
2582.031584454035,1292
2583.836949694077,1307
2585.6419315535613,1370
2587.4465303255533,1291
2589.2507463032002,1284
2591.0545797797245,1260
2592.8580310484303,1273
2594.6611004026995,1258
2596.463788135992,1278
2598.266094541849,1252
2600.0680199138874,1337
2601.869564545807,1274
2603.670728731383,1286
2605.4715127644704,1311
2607.2719169390048,1262
2609.071941548998,1279
2610.8715868885433,1357
2612.670853251811,1309
2614.469740933052,1361
2616.268250226594,1266
2618.0663814268455,1280
2619.864134828292,1271
2621.6615107255006,1348
2623.458509413115,1324
2625.2551311858597,1336
2627.0513763385347,1242
2628.8472451660223,1318
2630.6427379632833,1264
2632.4378550253564,1238
2634.232596647359,1340
2636.026963124488,1336
2637.8209547520187,1252
2639.6145718253065,1333
2641.407814639785,1292
2643.200683490966,1272
2644.9931786744414,1281
2646.7853004858807,1267
2648.577049221034,1277
2650.3684251757277,1320
2652.1594286458712,1288
2653.9500599274484,1291
2655.740319316525,1306
2657.5302071092437,1278
2659.3197236018286,1252
2661.10886909058,1224
2662.8976438718782,1268
2664.686048242183,1293
2666.4740824980327,1254
2668.2617469360443,1285
2670.0490418529134,1245
2671.8359675454153,1203
2673.622524310403,1295
2675.408712444811,1267
2677.1945322456495,1242
2678.979984010009,1274
2680.76506803506,1309
2682.5497846180497,1252
2684.334134056306,1287
2686.1181166472343,1230
2687.9017326883213,1254
2689.6849824771293,1241
2691.4678663113013,1325
2693.2503844885596,1325
2695.032537306705,1271
2696.8143250636167,1319
2698.5957480572542,1276
2700.3768065856534,1227
2702.1575009469316,1242
2703.937831439283,1271
2705.717798360982,1234
2707.4974020103837,1224
2709.276642685917,1213
2711.055520686095,1230
2712.834036309506,1269
2714.612189854819,1280
2716.389981620782,1257
2718.1674119062204,1196
2719.944481010041,1267
2721.721189231226,1316
2723.4975368688415,1278
2725.273524222027,1280
2727.0491515900053,1221
2728.824419272075,1239
2730.5993275676146,1241
2732.3738767760838,1224
2734.148067197016,1264
2735.921899130031,1231
2737.6953728748194,1241
2739.468488731156,1215
2741.2412469988926,1260
2743.0136479779617,1261
2744.785691968372,1246
2746.5573792702116,1269
2748.3287101836504,1234
2750.099685008934,1190
2751.870304046388,1197
2753.640567596418,1233
2755.4104759595057,1197
2757.1800294362156,1247
2758.949228327187,1202
2760.7180729331412,1254
2762.486563554877,1199
2764.254700493272,1274
2766.022484049284,1247
2767.789914523947,1167
2769.5569922183786,1261
2771.3237174337705,1230
2773.090090471394,1230
2774.8561116326036,1216
2776.6217812188274,1233
2778.3870995315756,1248
2780.1520668724356,1263
2781.9166835430747,1174
2783.6809498452394,1250
2785.444866080754,1222
2787.2084325515225,1240
2788.971649559527,1248
2790.73451740683,1229
2792.4970363955713,1235
2794.2592068279705,1248
2796.0210290063264,1246
2797.7825032330147,1262
2799.543629810493,1213
2801.304409041296,1194
2803.0648412280366,1245
2804.8249266734088,1243
2806.5846656801846,1264
2808.344058551212,1220
2810.1031055894246,1227
2811.8618070978273,1258
2813.6201633795085,1273
2815.378174737636,1251
2817.1358414754536,1276
2818.893163896285,1244
2820.6501423035334,1262
2822.4067770006814,1273
2824.1630682912883,1266
2825.9190164789957,1264
2827.6746218675207,1225
2829.429884760661,1275
2831.184805462294,1272
2832.9393842763743,1263
2834.693621506936,1218
2836.4475174580916,1244
2838.201072434034,1257
2839.954286739034,1223
2841.707160677441,1255
2843.459694553685,1227
2845.2118886722724,1306
2846.96374333779,1221
2848.7152588549034,1229
2850.4664355283567,1285
2852.217273662973,1197
2853.9677735636546,1248
2855.7179355353833,1205
2857.4677598832186,1260
2859.217246912299,1225
2860.9663969278427,1192
2862.715210235146,1221
2864.4636871395846,1239
2866.211827946614,1177
2867.9596329617652,1227
2869.7071024906536,1240
2871.4542368389684,1213
2873.20103631248,1215
2874.947501217038,1220
2876.6936318585695,1225
2878.4394285430812,1199
2880.1848915766604,1210
2881.9300212654707,1308
2883.6748179157553,1293
2885.4192818338374,1205
2887.1634133261173,1242
2888.907212699077,1251
2890.6506802592744,1276
2892.393816313348,1240
2894.1366211680142,1240
2895.8790951300693,1181
2897.621238506388,1227
2899.363051603925,1194
2901.1045347297118,1253
2902.8456881908596,1204
2904.58651229456,1264
2906.327007348081,1218
2908.067173658772,1228
2909.8070115340597,1239
2911.5465212814497,1251
2913.285703208527,1225
2915.0245576229563,1281
2916.7630848324807,1221
2918.5012851449196,1239
2920.2391588681758,1190
2921.976706310227,1274
2923.7139277791334,1257
2925.4508235830313,1227
2927.187394030137,1262
2928.923639428745,1264
2930.6595600872306,1278
2932.395156314046,1278
2934.1304284177218,1272
2935.8653767068713,1253
2937.6000014901815,1223
2939.3343030764227,1277
2941.068281774442,1244
2942.8019378931644,1254
2944.5352717415976,1271
2946.2682836288236,1176
2948.0009738640065,1298
2949.7333427563885,1241
2951.465390615289,1237
2953.1971177501086,1246
2954.9285244703265,1233
2956.6596110855,1242
2958.3903779052657,1267
2960.1208252393385,1201
2961.8509533975125,1242
2963.5807626896617,1209
2965.3102534257378,1254
2967.0394259157715,1216
2968.768280469873,1271
2970.496817398232,1293
2972.2250370111146,1247
2973.952939618869,1302
2975.6805255319196,1262
2977.4077950607707,1242
2979.134748516006,1254
2980.861386208289,1290
2982.587708448359,1213
2984.313715547037,1193
2986.039407815222,1205
2987.764785563891,1265
2989.489849104102,1278
2991.2145987469908,1227
2992.9390348037705,1283
2994.6631575857346,1258
2996.3869674042576,1295
2998.1104645707887,1245
2999.83364939686,1185
3001.5565221940783,1232
3003.2790832741334,1226
3005.0013329487924,1224
3006.7232715298996,1203
3008.4448993293804,1211
3010.166216659239,1259
3011.887223831558,1262
3013.607921158498,1262
3015.3283089522993,1224
3017.0483875252826,1220
3018.7681571898443,1267
3020.4876182584626,1261
3022.2067710436927,1258
3023.9256158581707,1212
3025.644153014609,1204
3027.362382825801,1258
3029.0803056046193,1187
3030.797921664012,1215
3032.5152313170106,1187
3034.2322348767225,1227
3035.9489326563353,1232
3037.665324969115,1203
3039.3814121284063,1225
3041.097194447633,1199
3042.812672240299,1199
3044.5278458199855,1222
3046.2427155003525,1202
3047.9572815951406,1254
3049.671544418167,1245
3051.38550428333,1194
3053.0991615046073,1155
3054.812516396051,1188
3056.5255692717974,1240
3058.2383204460575,1241
3059.9507702331257,1263
3061.662918947372,1271
3063.3747669032446,1185
3065.0863144152736,1222
3066.7975617980674,1229
3068.508509366309,1143
3070.219157434767,1221
3071.9295063182844,1236
3073.639556331785,1234
3075.3493077902704,1196
3077.058761008821,1206
3078.7679163025964,1205
3080.476773986837,1193
3082.1853343768594,1179
3083.89359778806,1217
3085.6015645359153,1184
3087.3092349359786,1189
3089.016609303884,1233
3090.7236879553434,1219
3092.4304712061476,1190
3094.136959372166,1209
3095.843152769349,1268
3097.5490517137237,1265
3099.2546565213966,1226
3100.959967508554,1197
3102.66498499146,1230
3104.3697092864577,1207
3106.0741407099695,1201
3107.778279578498,1197
3109.482126208622,1219
3111.1856809170004,1248
3112.8889440203716,1204
3114.5919158355528,1225
3116.294596679439,1247
3117.996986869006,1202
3119.6990867213062,1145
3121.4008965534726,1189
3123.102416682717,1219
3124.803647426329,1190
3126.5045891016784,1243
3128.205242026213,1213
3129.90560651746,1202
3131.605682893025,1198
3133.3054714705922,1170
3135.0049725679282,1219
3136.7041865028714,1192
3138.4031135933465,1275
3140.101754157353,1278
3141.800108512971,1237
3143.498176978357,1250
3145.1959598717494,1195
3146.8934575114636,1230
3148.5906702158954,1186
3150.2875983035183,1188
3151.9842420928853,1189
3153.680601902627,1261
3155.376678051456,1231
3157.07247085816,1234
3158.767980641609,1187
3160.463207720748,1172
3162.158152414606,1250
3163.8528150422862,1238
3165.5471959229726,1182
3167.2412953759303,1174
3168.9351137204976,1159
3170.628651276098,1190
3172.3219083622307,1220
3174.014885298474,1232
3175.707582404485,1188
3177.4000000000005,1211
3179.092138404835,1213
3180.7839979388846,1218
3182.47557892212,1207
3184.166881674594,1207
3185.8579065164386,1191
3187.5486537678626,1222
3189.2391237491547,1182
3190.9293167806827,1191
3192.6192331828934,1217
3194.3088732763117,1175
3195.998237381542,1193
3197.687325819268,1232
3199.376138910251,1209
3201.064676975334,1174
3202.7529403354347,1162
3204.4409293115523,1199
3206.1286442247647,1209
3207.816085396229,1175
3209.5032531471825,1180
3211.190147798936,1165
3212.8767696728846,1168
3214.5631190905015,1182
3216.2491963733373,1188
3217.9350018430214,1184
3219.6205358212637,1170
3221.305798629851,1154
3222.990790590651,1174
3224.6755120256103,1152
3226.359963256751,1229
3228.0441446061795,1195
3229.7280563960758,1136
3231.411698948703,1186
3233.0950725863995,1221
3234.778177631587,1186
3236.461014406761,1205
3238.1435832345005,1208
3239.8258844374595,1176
3241.507918338374,1225
3243.1896852600576,1230
3244.8711855254023,1218
3246.552419457381,1173
3248.233387379042,1180
3249.914089613516,1167
3251.59452648401,1171
3253.274698313813,1228
3254.95460542629,1161
3256.6342481448855,1167
3258.313626793125,1191
3259.9927416946084,1144
3261.6715931730196,1150
3263.3501815521176,1224
3265.0285071557437,1157
3266.706570307815,1221
3268.3843713323286,1192
3270.0619105533615,1216
3271.739188295068,1190
3273.4162048816834,1260
3275.0929606375184,1234
3276.769455886966,1240
3278.445690954498,1199
3280.1216661646613,1212
3281.797381842087,1199
3283.4728383114807,1150
3285.1480358976296,1226
3286.8229749253996,1143
3288.4976557197333,1179
3290.172078605655,1220
3291.846243908266,1166
3293.5201519527463,1146
3295.193803064357,1168
3296.8671975684374,1169
3298.5403357904024,1163
3300.21321805575,1217
3301.8858446900567,1197
3303.558216018975,1187
3305.23033236824,1236
3306.9021940636603,1223
3308.57380143113,1183
3310.2451547966184,1225
3311.916254486174,1189
3313.5871008259246,1251
3315.2576941420766,1227
3316.9280347609147,1215
3318.5981230088046,1182
3320.2679592121895,1140
3321.9375436975924,1182
3323.606876791612,1224
3325.27595882093,1232
3326.944790112305,1190
3328.6133709925753,1207
3330.2817017886573,1145
3331.949782827547,1152
3333.617614436319,1222
3335.2851969421245,1185
3336.952530672199,1230
3338.619615953853,1191
3340.286453114475,1193
3341.9530424815357,1166
3343.619384382583,1214
3345.2854791452437,1164
3346.951327097224,1154
3348.6169285663073,1176
3350.2822838803577,1159
3351.947393367319,1220
3353.61225735521,1210
3355.2768761721345,1203
3356.9412501462693,1189
3358.605379605873,1129
3360.2692648792827,1148
3361.9329062949146,1168
3363.596304181263,1171
