CollectionTime,9/26/2024 8:22:06 AM
ExposureUsed,3
CalibratedSpectrum
-962.7078968117929,533
-959.9714848408522,537
-957.2358232597828,578
-954.5009119013725,585
-951.7667505983302,584
-949.0333391832855,543
-946.3006774887896,540
-943.5687653473143,552
-940.837602591253,583
-938.1071890529199,540
-935.3775245645503,577
-932.6486089583007,568
-929.9204420662485,558
-927.1930237203925,597
-924.4663537526524,560
-921.7404319948689,540
-919.0152582788041,586
-916.2908324361409,716
-913.5671542984834,613
-910.8442236973568,576
-908.1220404642074,556
-905.4006044304027,582
-902.679915427231,538
-899.959973285902,549
-897.2407778375464,556
-894.5223289132158,562
-891.8046263438832,558
-889.0876699604426,566
-886.3714595937089,552
-883.6559950744183,570
-880.9412762332282,563
-878.2273029007168,555
-875.5140749073835,525
-872.8015920836489,535
-870.0898542598545,553
-867.3788612662631,547
-864.6686129330585,521
-861.9591090903457,545
-859.2503495681506,523
-856.5423341964203,552
-853.8350628050229,557
-851.1285352237478,553
-848.4227512823054,617
-845.7177108103272,560
-843.0134136373656,567
-840.3098595928943,560
-837.6070485063082,592
-834.9049802069229,564
-832.2036545239757,586
-829.5030712866244,605
-826.8032303239481,555
-824.1041314649472,525
-821.4057745385428,523
-818.7081593735775,525
-816.0112857988148,535
-813.3151536429393,561
-810.6197627345566,557
-807.9251129021936,586
-805.2312039742981,601
-802.5380357792392,564
-799.8456081453069,546
-797.1539209007124,543
-794.462973873588,532
-791.772766891987,623
-789.083299783884,571
-786.3945723771743,632
-783.7065844996748,579
-781.0193359791231,602
-778.3328266431781,624
-775.6470563194197,585
-772.9620248353489,590
-770.2777320183878,593
-767.5941776958798,551
-764.9113616950891,522
-762.2292838432011,547
-759.5479439673222,557
-756.8673418944801,597
-754.1874774516235,589
-751.5083504656222,563
-748.8299607632671,595
-746.15230817127,609
-743.475392516264,603
-740.7992136248035,581
-738.1237713233636,566
-735.4490654383407,565
-732.7750957960521,579
-730.1018622227365,583
-727.4293645445534,601
-724.7576025875837,583
-722.0865761778291,584
-719.4162851412126,591
-716.7467293035781,686
-714.0779084906909,738
-711.409822528237,630
-708.7424712418238,611
-706.0758544569796,636
-703.4099719991541,637
-700.7448236937178,629
-698.0804093659622,679
-695.4167288411002,629
-692.7537819442656,613
-690.0915685005134,637
-687.4300883348199,624
-684.7693412720819,652
-682.1093271371178,656
-679.4500457546669,627
-676.7914969493897,630
-674.1336805458676,598
-671.4765963686034,580
-668.8202442420206,605
-666.1646239904642,605
-663.5097354382001,588
-660.8555784094151,622
-658.2021527282176,600
-655.5494582186366,594
-652.8974947046223,639
-650.2462620100463,627
-647.5957599587009,623
-644.9459883742998,677
-642.2969470804776,644
-639.6486359007902,639
-637.0010546587141,618
-634.3542031776476,580
-631.7080812809096,614
-629.0626887917401,681
-626.4180255333008,716
-623.7740913286734,676
-621.1308860008619,632
-618.4884093727904,626
-615.8466612673046,634
-613.2056415071715,645
-610.5653499150785,653
-607.9257863136347,639
-605.28695052537,647
-602.6488423727357,704
-600.0114616781036,783
-597.3748082637674,767
-594.7388819519412,741
-592.1036825647604,740
-589.4692099242818,761
-586.8354638524829,802
-584.2024441712624,752
-581.5701507024403,718
-578.9385832677575,716
-576.3077416888759,737
-573.6776257873787,741
-571.0482353847704,724
-568.4195703024757,731
-565.7916303618415,745
-563.164415384135,646
-560.5379251905453,642
-557.9121596021815,709
-555.2871184400748,713
-552.6628015251767,705
-550.0392086783606,718
-547.4163397204204,708
-544.794194472071,733
-542.1727727539491,733
-539.5520743866118,786
-536.9320991905377,835
-534.3128469861261,833
-531.6943175936979,847
-529.0765108334947,898
-526.4594265256793,1020
-523.8430644903358,1227
-521.2274245474689,1274
-518.612506517005,1343
-515.9983102187913,1486
-513.3848354725959,1697
-510.77208209810846,1693
-508.16004991493924,1795
-505.5487387426199,1638
-502.9381484006032,1488
-500.3282787082628,1324
-497.71912948489364,1220
-495.1107005497117,1015
-492.5029917218539,973
-489.8960028203786,932
-487.28973366426493,845
-484.68418407241325,841
-482.07935386364494,864
-479.47524285670266,865
-476.87185087025,862
-474.2691777228715,871
-471.66722323307334,885
-469.0659872192821,806
-466.4654694998459,911
-463.86566989303384,825
-461.26658821703614,871
-458.66822428996414,865
-456.07057792985,862
-453.4736489546475,903
-450.877437182231,879
-448.28194243039627,798
-445.68716451686,764
-443.09310325926003,809
-440.49975847515555,791
-437.9071299820263,864
-435.31521759727354,933
-432.72402113821954,999
-430.13354042210767,890
-427.5437752661022,817
-424.95472548728867,899
-422.36639090267386,937
-419.7787713291855,908
-417.1918665836721,981
-414.60567648290385,1034
-412.0202008435715,993
-409.4354394822874,930
-406.8513922155845,1018
-404.26805885991723,1025
-401.685439231661,914
-399.103533147112,874
-396.522340422488,920
-393.9418608739278,835
-391.3620943174908,870
-388.7830405691583,936
-386.2046994448317,893
-383.6270707603344,914
-381.05015433141045,850
-378.473949973725,740
-375.8984575028645,736
-373.32367673433623,716
-370.74960748356875,649
-368.1762495659117,650
-365.60360279663576,767
-363.03166699093265,750
-360.4604419639154,683
-357.8899275306178,587
-355.32012350599507,610
-352.7510297049233,568
-350.1826459421999,527
-347.61497203254316,592
-345.04800779059235,588
-342.4817530309082,629
-339.91620756797226,595
-337.35137121618743,724
-334.7872437898774,721
-332.22382510328725,815
-329.66111497058273,806
-327.09911320585127,633
-324.53781962310075,566
-321.9772340362607,560
-319.4173562591816,614
-316.8581861056348,624
-314.2997233893127,653
-311.7419679238294,741
-309.1849195227194,766
-306.62857799943856,621
-304.0729431673641,784
-301.51801483979375,947
-298.963792829947,831
-296.41027695096386,763
-293.85746701590574,802
-291.3053628377552,862
-288.7539642294155,786
-286.2032710037115,903
-283.65328297338897,935
-281.1039999511146,1224
-278.5554217494762,1389
-276.007548180983,1198
-273.4603790580651,821
-270.9139141930734,898
-268.3681533982807,973
-265.8230964858798,1048
-263.27874326798565,858
-260.7350935566336,780
-258.1921471637804,933
-255.6499039013039,1141
-253.10836358100266,895
-250.56752601459698,916
-248.02739101372765,1035
-245.48795838995704,1190
-242.94922795476816,1093
-240.41119951956557,954
-237.8738728956746,939
-235.33724789434166,1074
-232.80132432673452,1158
-230.2661020039418,952
-227.73158073697357,925
-225.19776033676033,1146
-222.66464061415422,1168
-220.1322213799284,1056
-217.60050244477725,1013
-215.06948361931552,1187
-212.53916471408013,1505
-210.00954553952818,1606
-207.48062590603843,1124
-204.9524056239104,900
-202.4248845033651,1086
-199.8980623545441,1446
-197.37193898751036,1402
-194.84651421224817,1165
-192.32178783866232,1148
-189.79775967657952,1339
-187.27442953574644,1455
-184.7517972258321,1436
-182.2298625564256,1387
-179.7086253370378,1290
-177.18808537710026,1536
-174.66824248596583,1724
-172.14909647290835,2009
-169.6306471471229,1631
-167.11289431772548,1266
-164.59583779375328,1326
-162.07947738416453,1745
-159.5638128978386,1987
-157.04884414357605,1901
-154.53457093009854,1754
-152.02099306604828,1630
-149.50811035998936,1323
-146.99592262040665,1501
-144.48442965570587,2087
-141.97363127421409,2680
-139.46352728417958,2363
-136.95411749377126,2163
-134.44540171107985,2027
-131.93737974411636,1575
-129.43005140081357,1957
-126.92341648902493,3036
-124.41747481652521,4459
-121.91222619101006,4657
-119.40767042009657,4040
-116.90380731132257,3308
-114.40063667214702,2520
-111.8981583099503,2243
-109.3963720320337,3012
-106.89527764561933,4602
-104.39487495785067,7061
-101.89516377579241,8759
-99.39614390642998,8762
-96.89781515667039,9435
-94.40017733334128,8891
-91.90323024319173,8838
-89.40697369289148,10304
-86.91140748903172,14169
-84.41653143812482,17539
-81.92234534660395,17383
-79.42884902082358,14286
-76.93604226705907,12224
-74.4439248915071,18111
-71.95249670028534,31045
-69.46175749943245,45573
-66.97170709490854,54162
-64.48234529259423,50068
-61.99367189829195,36925
-59.50568671772464,26259
-57.01838955653636,23934
-54.53178022029283,20566
-52.045858514480074,18837
-49.560624244506016,16837
-47.07607721569923,16112
-44.59221723330904,15379
-42.10904410250669,16920
-39.62655762838392,17622
-37.14475761595372,23294
-34.66364387015028,26311
-32.18321619582866,33882
-29.70347439776515,43869
-27.224418280657005,50789
-24.74604764912317,65025
-22.26836230770266,65025
-19.7913620608565,65025
-17.315046712966478,65025
-14.83941606833514,65025
-12.36446993118659,65025
-9.89020810566592,65025
-7.416630395839093,65025
-4.94373660569363,65025
-2.471526539137585,65025
-6.821210263296962E-13,65025
2.47084320796705,65025
4.941003281093458,65025
7.410480415786196,65025
9.879274808531363,65025
12.347386655893956,65025
14.814816154518212,65025
17.28156350112681,65025
19.74762889252179,65025
22.21301252558385,24800
24.67771459727237,6966
27.141735304626195,7106
29.605074844762612,7477
32.06773341487792,6611
34.52971121224755,5426
36.99100843422559,6032
39.45162527824516,6280
41.91156194181792,5500
44.370818622535126,4426
46.82939551806646,4228
49.287292826160524,3777
51.74451074464503,4727
54.201049471426245,4394
56.65690920448981,4301
59.112090141899785,3665
61.56659248179983,3222
64.02041642241159,3207
66.4735621620365,3820
68.92602989905402,4879
71.37781983192338,4516
73.82893215918205,3836
76.27936707944684,2893
78.72912479141326,2811
81.17820549385567,3332
83.62660938562783,3467
86.07433666566146,3443
88.5213875329681,2434
90.96776218663751,2249
93.41346082583925,2133
95.85848364982041,2068
98.30283085790859,2863
100.7465026495089,3027
103.18949922410604,2440
105.63182078126385,1895
108.07346752062438,2158
110.51443964190923,1788
112.95473734491827,1859
115.39436082953114,2242
117.83331029570547,2501
120.27158594347827,2233
122.7091879729652,1900
125.1461165843615,2119
127.58237197794062,2629
130.01795435405518,1946
132.4528639131364,1912
134.88710085569494,2562
137.32066538231982,2162
139.75355769367923,1726
142.1857779905207,1886
144.61732647366978,2023
147.04820334403132,1732
149.47840880258934,1623
151.90794305040674,1665
154.33680628862487,1699
156.76499871846443,1703
159.19252054122433,1716
161.61937195828352,1854
164.04555317109896,1983
166.47106438120693,1986
168.89590579022217,2162
171.320077599839,2398
173.7435800118302,2538
176.16641322804742,2565
178.58857745042144,2358
181.01007288096173,2223
183.43089972175687,2514
185.85105817497413,2227
188.27054844285988,2310
190.6893707277394,2435
193.10752523201643,2450
195.5250121581745,2236
197.9418317087751,2206
200.3579840864594,2275
202.7734694939469,2487
205.18828813403627,2430
207.6024402096051,2376
210.01592592360964,2438
212.42874547908548,2274
214.84089907914665,2343
217.2523869269868,2434
219.66320922587727,2311
222.0733661791695,2260
224.48285799029293,2393
226.8916848627572,2364
229.29984700014882,2368
231.7073446061355,2404
234.11417788446204,2380
236.520347038953,2471
238.92585227351185,2509
241.33069379212054,2526
243.73487179884035,2458
246.1383864978112,2423
248.541238093252,2536
250.9434267894609,2524
253.34495279081432,2557
255.74581630176783,2458
258.1460175268563,2482
260.54555667069314,2644
262.9444339379703,2633
265.3426495334594,2652
267.7402036620107,2444
270.1370965285529,2456
272.53332833809407,2256
274.9288992957214,2276
277.32380960660055,2281
279.718059475976,2271
282.1116491091717,2126
284.5045787115897,2159
286.89684848871195,2168
289.2884586460981,2157
291.67940938938807,2174
294.0697009242996,2275
296.4593334566299,2452
298.84830719225477,2551
301.23662233712923,2292
303.6242790972866,2274
306.01127767884,2222
308.39761828798066,2065
310.78330113097934,1983
313.16832641418534,1947
315.5526943440269,2029
317.9364051270112,2013
320.3194589697242,1996
322.70185607883093,1984
325.0835966610754,2004
327.4646809232805,1940
329.8451090723478,1916
332.2248813152577,1965
334.6039978590701,2084
336.9824589109231,1988
339.36026467803447,1916
341.7374153677,1902
344.113911187295,1957
346.48975234427337,2004
348.8649390461686,1913
351.2394715005918,1824
353.61334991523415,1881
355.9865744978655,1824
358.35914545633375,1786
360.73106299856715,1841
363.10232733257146,1878
365.47293866643247,1864
367.84289720831396,1812
370.2122031664593,1772
372.5808567491905,1817
374.9488581649083,1718
377.31620762209275,1739
379.6829053293021,1772
382.0489514951745,1769
384.4143463284262,1856
386.7790900378528,1761
389.14318283232853,1755
391.50662492080653,1856
393.86941651231916,1783
396.23155781597745,1782
398.5930490409713,1747
400.9538903965696,1730
403.3140820921202,1771
405.6736243370498,1702
408.03251734086336,1764
410.3907613131465,1705
412.74835646356166,1747
415.10530300185144,1587
417.4616011378372,1668
419.81725108141893,1651
422.1722530425758,1636
424.5266072313656,1730
426.880313857925,1669
429.2333731324701,1676
431.58578526529516,1580
433.9375504667738,1641
436.2886689473588,1662
438.63914091758113,1674
440.9889665880513,1618
443.33814616945835,1596
445.68667987257015,1654
448.03456790823395,1643
450.3818104873759,1699
452.72840782100013,1634
455.07436012019105,1620
457.41966759611057,1590
459.7643304600007,1578
462.10834892318155,1565
464.4517231970525,1668
466.79445349309174,1641
469.1365400228566,1577
471.4779829979826,1644
473.81878263018564,1592
476.15893913125876,1669
478.4984527130747,1767
480.8373235875855,1773
483.17555196682144,1745
485.5131380628919,1790
487.8500820879857,1817
490.1863842543697,1776
492.52204477439034,1878
494.8570638604725,2071
497.1914417251204,2371
499.52517858091653,2712
501.85827464052306,3071
504.19073011668036,3493
506.5225452222086,3598
508.85372017000566,3674
511.18425517304956,4170
513.514150444396,5525
515.8434061971808,6808
518.1720226446176,7360
520.4999999999999,6964
522.8273384766991,6354
525.1540382881666,5509
527.480099647932,4445
529.8055227696037,3140
532.1303078668694,2273
534.454455153496,2086
536.777964843328,1867
539.1008371502907,1782
541.4230722883866,1799
543.744670471698,1786
546.0656319143858,1819
548.3859568306899,1797
550.7056454349294,1842
553.0246979415016,1836
555.3431145648834,1693
557.6608955196306,1734
559.978041020377,1701
562.2945512818363,1749
564.6104265188006,1658
566.9256669461412,1708
569.2402727788082,1745
571.5542442318302,1763
573.8675815203156,1749
576.1802848594508,1770
578.4923544645015,1725
580.8037905508126,1658
583.114593333807,1674
585.4247630289875,1637
587.7342998519354,1641
590.0432040183106,1676
592.3514757438526,1619
594.6591152443794,1562
596.9661227357875,1723
599.2724984340531,1654
601.578242555231,1661
603.8833553154542,1637
606.1878369309362,1627
608.4916876179676,1657
610.7949075929192,1654
613.0974970722403,1630
615.3994562724587,1618
617.7007854101818,1662
620.0014847020951,1691
622.3015543649641,1671
624.6009946156324,1619
626.8998056710224,1635
629.1979877481361,1706
631.4955410640538,1622
633.7924658359349,1635
636.0887622810175,1596
638.3844306166192,1648
640.6794710601358,1615
642.9738838290426,1720
645.2676691408932,1761
647.5608272133207,1690
649.853358264037,1753
652.1452625108324,1776
654.4365401715764,1787
656.7271914642178,1792
659.0172166067838,1811
661.3066158173809,1678
663.5953893141935,1669
665.8835373154867,1657
668.1710600396028,1768
670.4579577049639,1730
672.7442305300709,1709
675.0298787335033,1712
677.3149025339197,1750
679.599302150058,1720
681.8830778007342,1762
684.1662297048437,1757
686.4487580813608,1706
688.7306631493387,1692
691.0119451279091,1708
693.2926042362834,1733
695.5726406937516,1714
697.8520547196814,1703
700.1308465335215,1661
702.4090163547982,1609
704.6865644031171,1666
706.9634908981619,1697
709.2397960596965,1672
711.5154801075631,1675
713.7905432616823,1623
716.0649857420548,1748
718.3388077687592,1665
720.612009561953,1716
722.8845913418733,1701
725.1565533288352,1644
727.427895743234,1613
729.6986188055427,1664
731.9687227363137,1698
734.238207756178,1722
736.5070740858458,1675
738.7753219461066,1644
741.0429515578281,1635
743.3099631419569,1666
745.5763569195191,1658
747.8421331116193,1648
750.1072919394409,1699
752.3718336242467,1673
754.6357583873777,1720
756.8990664502545,1766
759.1617580343765,1668
761.423833361321,1645
763.6852926527457,1657
765.9461361303862,1620
768.206364016058,1627
770.4659765316536,1728
772.7249738991469,1739
774.9833563405886,1741
777.2411240781092,1670
779.4982773339183,1662
781.7548163303044,1689
784.010741289634,1694
786.2660524343538,1748
788.5207499869881,1943
790.7748341701416,1759
793.0283052064964,1729
795.2811633188143,1731
797.5334087299362,1730
799.7850416627813,1730
802.0360623403484,1698
804.2864709857143,1723
806.5362678220353,1713
808.7854530725468,1738
811.0340269605625,1786
813.2819897094754,1747
815.5293415427581,1705
817.77608268396,1790
820.0222133567116,1697
822.2677337847211,1756
824.5126441917765,1876
826.7569448017433,1671
829.0006358385675,1659
831.2437175262731,1625
833.4861900889629,1672
835.7280537508192,1608
837.9693087361026,1677
840.2099552691533,1648
842.4499935743896,1682
844.689423876309,1664
846.9282463994886,1709
849.1664613685833,1687
851.4040690083276,1627
853.6410695435349,1657
855.877463199097,1687
858.1132501999847,1713
860.3484307712487,1740
862.5830051380175,1665
864.8169735254988,1675
867.0503361589791,1661
869.2830932638243,1689
871.5152450654786,1702
873.7467917894654,1701
875.9777336613873,1674
878.2080709069252,1603
880.4378037518389,1650
882.666932421968,1723
884.8954571432301,1696
887.1233781416219,1705
889.3506956432192,1661
891.5774098741766,1672
893.803521060728,1671
896.0290294291852,1691
898.2539352059397,1679
900.4782386174619,1739
902.7019398903011,1735
904.925039251085,1741
907.147536926521,1666
909.3694331433943,1683
911.59072812857,1726
913.8114221089921,1611
916.0315153116827,1649
918.2510079637437,1630
920.4699002923547,1687
922.6881925247761,1713
924.905884888345,1733
927.1229776104793,1659
929.3394709186747,1655
931.555365040506,1645
933.7706602036275,1671
935.9853566357709,1746
938.1994545647489,1805
940.4129542184515,1794
942.6258558248488,1755
944.8381596119883,1824
947.0498658079974,1793
949.2609746410825,1752
951.4714863395287,1765
953.6814011316998,1766
955.8907192460387,1775
958.0994409110671,1810
960.3075663553858,1794
962.5150958076741,1820
964.7220294966913,1859
966.928367651274,1769
969.1341105003388,1735
971.3392582728806,1712
973.5438111979742,1665
975.747769504772,1710
977.9511334225061,1738
980.153903180487,1691
982.3560790081052,1744
984.5576611348289,1674
986.7586497902058,1706
988.9590452038618,1693
991.158847605503,1635
993.3580572249133,1595
995.5566742919558,1565
997.7546990365728,1605
999.952131688785,1515
1002.1489724786926,1498
1004.3452216364743,1494
1006.5408793923874,1465
1008.7359459767691,1408
1010.9304216200343,1473
1013.1243065526781,1507
1015.3176010052733,1488
1017.510305208472,1427
1019.7024193930064,1499
1021.8939437896848,1464
1024.0848786293977,1398
1026.2752241431122,1368
1028.4649805618747,1429
1030.6541481168115,1451
1032.842727039127,1390
1035.0307175601051,1343
1037.2181199111074,1418
1039.4049343235752,1347
1041.591161029029,1330
1043.7768002590683,1375
1045.9618522453698,1342
1048.1463172196918,1399
1050.3301954138697,1371
1052.513487059818,1388
1054.69619238953,1303
1056.8783116350783,1363
1059.0598450286152,1430
1061.2407928023704,1389
1063.4211551886528,1346
1065.6009324198508,1332
1067.780124728432,1300
1069.9587323469414,1277
1072.1367555080046,1320
1074.314194444325,1308
1076.4910493886855,1347
1078.667320573947,1304
1080.843008233051,1308
1083.0181125990161,1297
1085.1926339049414,1309
1087.3665723840027,1313
1089.5399282694575,1279
1091.7127017946405,1291
1093.8848931929647,1287
1096.0565026979243,1294
1098.2275305430899,1230
1100.3979769621128,1321
1102.567842188722,1261
1104.737126456726,1267
1106.9058300000124,1323
1109.0739530525475,1251
1111.2414958483764,1264
1113.4084586216231,1254
1115.5748416064907,1328
1117.7406450372605,1343
1119.9058691482942,1297
1122.0705141740304,1236
1124.2345803489884,1268
1126.3980679077658,1269
1128.5609770850388,1239
1130.7233081155623,1271
1132.8850612341707,1350
1135.0462366757774,1235
1137.2068346753745,1243
1139.3668554680326,1288
1141.526299288901,1298
1143.68516637321,1287
1145.8434569562655,1248
1148.001171273455,1252
1150.158309560244,1309
1152.3148720521767,1236
1154.470858984876,1300
1156.626270594044,1299
1158.7811071154629,1279
1160.9353687849912,1213
1163.089055838569,1307
1165.242168512213,1310
1167.3947070420209,1250
1169.5466716641677,1292
1171.6980626149075,1324
1173.8488801305748,1304
1175.9991244475814,1310
1178.1487958024186,1270
1180.2978944316555,1310
1182.4464205719428,1284
1184.5943744600072,1195
1186.7417563326567,1253
1188.8885664267755,1263
1191.0348049793297,1178
1193.1804722273619,1227
1195.325568407995,1290
1197.4700937584303,1299
1199.614048515948,1252
1201.7574329179074,1244
1203.900247201746,1256
1206.042491604982,1259
1208.1841663652099,1237
1210.3252717201053,1263
1212.465807907422,1314
1214.6057751649923,1256
1216.7451737307279,1314
1218.8840038426192,1322
1221.0222657387353,1308
1223.1599596572241,1294
1225.2970858363137,1274
1227.4336445143094,1326
1229.5696359295966,1263
1231.705060320639,1314
1233.8399179259786,1335
1235.9742089842384,1351
1238.107933734118,1353
1240.2410924143974,1346
1242.373685263935,1404
1244.5057125216676,1336
1246.6371744266116,1283
1248.7680712178621,1386
1250.898403134593,1324
1253.028170416058,1290
1255.1573733015875,1389
1257.2860120305932,1317
1259.4140868425648,1292
1261.54159797707,1356
1263.6685456737569,1313
1265.7949301723515,1389
1267.9207517126597,1323
1270.046010534565,1316
1272.1707068780306,1390
1274.2948409830983,1375
1276.4184130898889,1373
1278.541423438603,1365
1280.6638722695184,1339
1282.785759822993,1352
1284.9070863394636,1409
1287.0278520594447,1405
1289.1480572235314,1376
1291.2677020723963,1391
1293.3867868467923,1481
1295.5053117875495,1450
1297.623277135579,1470
1299.740683131868,1466
1301.8575300174857,1504
1303.973818033578,1473
1306.0895474213703,1510
1308.2047184221678,1589
1310.3193312773528,1534
1312.4333862283888,1464
1314.5468835168163,1504
1316.659823384255,1511
1318.7722060724045,1532
1320.8840318230418,1503
1322.9953008780249,1561
1325.1060134792888,1554
1327.2161698688478,1563
1329.3257702887959,1539
1331.4348149813054,1570
1333.5433041886276,1476
1335.6512381530933,1507
1337.7586171171101,1499
1339.8654413231675,1531
1341.9717110138317,1482
1344.0774264317488,1556
1346.1825878196432,1505
1348.2871954203192,1500
1350.3912494766587,1479
1352.4947502316231,1491
1354.5976979282532,1461
1356.7000928096686,1415
1358.8019351190665,1415
1360.9032250997243,1460
1363.0039629949988,1413
1365.1041490483235,1393
1367.2037835032133,1386
1369.3028666032606,1439
1371.401398592137,1438
1373.4993797135926,1439
1375.5968102114575,1397
1377.6936903296396,1469
1379.7900203121262,1445
1381.8858004029835,1462
1383.9810308463561,1438
1386.075711886469,1361
1388.1698437676241,1384
1390.2634267342032,1339
1392.356461030667,1405
1394.4489469015557,1455
1396.5408845914872,1401
1398.6322743451592,1366
1400.7231164073469,1349
1402.813411022907,1463
1404.903158436773,1372
1406.9923588939578,1424
1409.0810126395531,1446
1411.1691199187303,1427
1413.2566809767386,1383
1415.343696058907,1365
1417.4301654106425,1413
1419.5160892774315,1456
1421.6014679048399,1364
1423.6863015385125,1455
1425.7705904241707,1384
1427.8543348076178,1382
1429.9375349347342,1403
1432.0201910514802,1376
1434.102303403894,1441
1436.1838722380944,1433
1438.2648978002767,1438
1440.3453803367174,1459
1442.4253200937692,1426
1444.5047173178677,1455
1446.5835722555234,1457
1448.6618851533285,1525
1450.739656257952,1493
1452.8168858161434,1450
1454.8935740747306,1491
1456.96972128062,1558
1459.045327680797,1535
1461.120393522327,1561
1463.1949190523528,1569
1465.2689045180973,1555
1467.3423501668608,1491
1469.415256246024,1479
1471.4876230030463,1535
1473.559450685465,1588
1475.6307395408976,1647
1477.7014898170391,1637
1479.771701761665,1601
1481.8413756226287,1575
1483.9105116478618,1638
1485.9791100853772,1642
1488.0471711832643,1689
1490.1146951896926,1715
1492.1816823529098,1660
1494.2481329212433,1651
1496.3140471430984,1694
1498.3794252669609,1699
1500.4442675413939,1724
1502.5085742150404,1756
1504.572345536622,1763
1506.6355817549388,1719
1508.6982831188702,1741
1510.7604498773744,1767
1512.8220822794883,1712
1514.8831805743293,1735
1516.9437450110909,1816
1519.003775839048,1761
1521.0632733075522,1846
1523.1222376660367,1824
1525.1806691640113,1822
1527.2385680510652,1798
1529.2959345768668,1834
1531.3527689911643,1917
1533.4090715437833,1955
1535.4648424846291,1919
1537.5200820636855,1879
1539.5747905310159,1988
1541.6289681367616,1891
1543.6826151311434,1944
1545.7357317644614,2051
1547.7883182870937,2002
1549.8403749494987,2072
1551.8919020022113,2067
1553.9428996958477,2109
1555.9933682811015,2115
1558.0433080087469,2234
1560.0927191296346,2185
1562.1416018946961,2249
1564.1899565549415,2247
1566.2377833614592,2299
1568.2850825654164,2281
1570.3318544180606,2251
1572.3780991707158,2184
1574.423817074788,2158
1576.4690083817595,2160
1578.5136733431923,2200
1580.5578122107272,2021
1582.601425236085,2031
1584.6445126710646,1914
1586.6870747675434,1902
1588.7291117774776,1871
1590.7706239529034,1847
1592.8116115459347,1741
1594.8520748087658,1721
1596.8920139936686,1704
1598.9314293529933,1679
1600.9703211391711,1646
1603.008689604711,1632
1605.0465350022005,1718
1607.0838575843068,1553
1609.1206576037753,1475
1611.1569353134305,1572
1613.1926909661765,1474
1615.2279248149953,1494
1617.2626371129481,1466
1619.2968281131757,1421
1621.3304980688963,1443
1623.3636472334088,1407
1625.39627586009,1433
1627.428384202396,1374
1629.459972513861,1371
1631.4910410480993,1425
1633.5215900588028,1340
1635.551619799744,1304
1637.5811305247717,1414
1639.6101224878166,1417
1641.6385959428862,1358
1643.6665511440683,1274
1645.693988345528,1297
1647.7209078015112,1312
1649.7473097663405,1301
1651.7731944944203,1310
1653.7985622402307,1362
1655.823413258333,1313
1657.847747803366,1263
1659.8715661300494,1258
1661.8948684931793,1317
1663.9176551476316,1233
1665.9399263483624,1231
1667.9616823504057,1245
1669.982923408873,1291
1672.0036497789574,1306
1674.0238617159293,1270
1676.043559475138,1308
1678.0627433120121,1327
1680.081413482059,1270
1682.0995702408654,1294
1684.117213844096,1287
1686.134344547495,1345
1688.1509626068864,1290
1690.1670682781705,1234
1692.182661817329,1219
1694.1977434804217,1254
1696.2123135235875,1261
1698.226372203043,1328
1700.2399197750851,1273
1702.2529564960905,1283
1704.2654826225112,1260
1706.277498410882,1238
1708.2890041178139,1167
1710.2999999999988,1264
1712.3104863142066,1223
1714.3204633172854,1276
1716.329931266163,1161
1718.3388904178469,1239
1720.3473410294214,1245
1722.3552833580516,1292
1724.3627176609807,1282
1726.3696441955308,1270
1728.3760632191033,1194
1730.3819749891782,1276
1732.3873797633146,1272
1734.3922777991502,1318
1736.3966693544012,1198
1738.4005546868639,1206
1740.4039340544127,1244
1742.406807715001,1233
1744.4091759266616,1227
1746.4110389475054,1196
1748.4123970357223,1242
1750.413250449582,1261
1752.4135994474318,1216
1754.4134442876993,1211
1756.4127852288902,1214
1758.4116225295893,1217
1760.4099564484595,1245
1762.407787244244,1245
1764.405115175764,1218
1766.4019405019203,1205
1768.3982634816916,1182
1770.3940843741357,1170
1772.3894034383907,1240
1774.3842209336717,1158
1776.378537119274,1181
1778.372352254571,1190
1780.3656665990156,1196
1782.3584804121397,1206
1784.3507939535534,1213
1786.3426074829463,1214
1788.3339212600863,1203
1790.3247355448211,1195
1792.3150505970766,1216
1794.3048666768573,1213
1796.2941840442477,1227
1798.2830029594106,1143
1800.2713236825884,1240
1802.2591464741004,1190
1804.2464715943465,1187
1806.2332993038058,1170
1808.2196298630352,1168
1810.2054635326708,1159
1812.190800573428,1195
1814.175641246101,1224
1816.1599858115628,1133
1818.1438345307652,1213
1820.127187664738,1136
1822.1100454745924,1223
1824.092408221516,1231
1826.0742761667766,1206
1828.055649571721,1190
1830.0365286977735,1202
1832.0169138064398,1152
1833.9968051593014,1213
1835.9762030180214,1273
1837.9551076443408,1226
1839.9335193000788,1197
1841.9114382471344,1186
1843.888864747485,1213
1845.8657990631878,1169
1847.842241456378,1166
1849.8181921892697,1170
1851.7936515241558,1211
1853.7686197234098,1141
1855.7430970494815,1190
1857.7170837649014,1240
1859.6905801322787,1189
1861.6635864143004,1216
1863.6361028737338,1209
1865.608129773424,1203
1867.5796673762961,1204
1869.5507159453537,1234
1871.521275743678,1201
1873.4913470344313,1219
1875.4609300808534,1244
1877.4300251462632,1214
1879.3986324940588,1230
1881.366752387717,1196
1883.3343850907936,1267
1885.3015308669228,1197
1887.268189979819,1203
1889.2343626932739,1236
1891.2000492711595,1184
1893.1652499774254,1201
1895.1299650761011,1210
1897.0941948312952,1175
1899.0579395071945,1183
1901.0211993680641,1199
1902.98397467825,1170
1904.9462657021745,1265
1906.9080727043415,1313
1908.869395949332,1273
1910.8302357018065,1217
1912.790592226504,1220
1914.7504657882428,1237
1916.7098566519212,1219
1918.6687650825133,1246
1920.6271913450764,1245
1922.5851357047422,1219
1924.5425984267245,1184
1926.499579776314,1250
1928.4560800188833,1212
1930.4120994198802,1202
1932.367638244833,1209
1934.32269675935,1200
1936.2772752291175,1179
1938.231373919899,1223
1940.1849930975404,1224
1942.1381330279637,1258
1944.0907939771696,1207
1946.0429762112412,1211
1947.9946799963363,1193
1949.9459055986945,1214
1951.896653284633,1195
1953.8469233205478,1177
1955.7967159729142,1212
1957.7460315082863,1180
1959.6948701932974,1173
1961.6432322946594,1217
1963.5911180791632,1186
1965.5385278136787,1219
1967.4854617651545,1154
1969.4319202006182,1231
1971.377903387176,1237
1973.3234115920136,1177
1975.268445082395,1182
1977.2130041256642,1229
1979.1570889892423,1222
1981.1006999406304,1153
1983.04383724741,1131
1984.986501177238,1201
1986.928691997853,1200
1988.8704099770712,1209
1990.811655382789,1138
1992.7524284829801,1164
1994.692729545698,1111
1996.6325588390755,1180
1998.5719166313224,1169
2000.5108031907307,1202
2002.4492187856677,1188
2004.387163684583,1242
2006.3246381560011,1237
2008.2616424685298,1162
2010.1981768908527,1144
2012.1342416917332,1247
2014.069837140014,1167
2016.0049635046162,1189
2017.9396210545406,1128
2019.8738100588666,1124
2021.8075307867502,1106
2023.740783507431,1179
2025.6735684902228,1164
2027.6058860045214,1149
2029.5377363198004,1192
2031.4691197056118,1229
2033.4000364315875,1177
2035.3304867674374,1189
2037.260470982952,1165
2039.189989347998,1177
2041.1190421325232,1151
2043.047629606554,1156
2044.9757520401945,1183
2046.9034097036288,1226
2048.8306028671195,1169
2050.7573318010086,1226
2052.683596775716,1164
2054.609398061742,1158
2056.5347359296647,1163
2058.4596106501403,1227
2060.384022493906,1170
2062.3079717317764,1129
2064.231458634646,1177
2066.1544834734873,1154
2068.077046519352,1099
2069.99914804337,1187
2071.9207883167524,1172
2073.8419676107865,1155
2075.7626861968406,1184
2077.6829443463607,1147
2079.6027423308715,1159
2081.522080421977,1162
2083.440958891362,1252
2085.359378010786,1231
2087.2773380520907,1222
2089.194839287196,1191
2091.111881988101,1199
2093.0284664268825,1140
2094.9445928756973,1228
2096.86026160678,1159
2098.775472892446,1204
2100.690227005088,1144
2102.604524217178,1211
2104.5183648012676,1133
2106.431749029985,1139
2108.34467717604,1155
2110.2571495122206,1182
2112.169166311393,1132
2114.080727846503,1144
2115.9918343905747,1173
2117.902486216711,1170
2119.8126835980956,1141
2121.722426807987,1151
2123.6317161197285,1168
2125.5405518067364,1187
2127.448934142509,1145
2129.356863400624,1195
2131.264339854737,1174
2133.1713637785815,1139
2135.077935445972,1152
2136.9840551308002,1161
2138.889723107037,1233
2140.7949396487334,1212
2142.699705030018,1172
2144.6040195250994,1184
2146.507883408264,1170
2148.4112969538774,1190
2150.3142604363848,1174
2152.2167741303097,1174
2154.1188383102535,1166
2156.0204532508997,1221
2157.9216192270064,1194
2159.822336513414,1163
2161.7226053850413,1193
2163.622426116884,1180
2165.5217989840185,1151
2167.4207242616,1153
2169.319202224862,1236
2171.2172331491165,1179
2173.1148173097563,1193
2175.0119549822507,1242
2176.90864644215,1175
2178.8048919650823,1225
2180.7006918267534,1159
2182.596046302952,1215
2184.4909556695407,1213
2186.3854202024645,1218
2188.279440177746,1206
2190.173015871487,1247
2192.066147559868,1172
2193.958835519149,1199
2195.851080025667,1150
2197.7428813558417,1250
2199.6342397861667,1177
2201.5251555932186,1159
2203.415629053651,1187
2205.3056604441986,1215
2207.19525004167,1212
2209.084398122958,1193
2210.9731049650327,1218
2212.861370844941,1222
2214.749196039812,1207
2216.636580826851,1186
2218.523525483344,1245
2220.410030286655,1190
2222.296095514226,1238
2224.1817214435805,1284
2226.066908352319,1202
2227.951656518121,1162
2229.835966218746,1210
2231.71983773203,1231
2233.6032713358913,1199
2235.486267308324,1252
2237.3688259274036,1180
2239.2509474712824,1221
2241.132632218193,1220
2243.013880446447,1228
2244.8946924344323,1273
2246.7750684606203,1233
2248.6550088035574,1216
2250.534513741871,1183
2252.413583554265,1221
2254.292218519526,1221
2256.170418916517,1214
2258.0481850241786,1183
2259.925517121534,1200
2261.8024154876825,1219
2263.678880401803,1177
2265.5549121431536,1254
2267.430510991071,1195
2269.305677224971,1252
2271.180411124348,1228
2273.0547129687766,1164
2274.9285830379076,1159
2276.8020216114737,1187
2278.6750289692845,1250
2280.5476053912294,1243
2282.4197511572766,1191
2284.2914665474727,1210
2286.162751841943,1219
2288.0336073208937,1203
2289.904033264608,1215
2291.774029953448,1184
2293.6435976678554,1173
2295.5127366883517,1210
2297.381447295534,1191
2299.2497297700825,1190
2301.1175843927526,1160
2302.9850114443825,1098
2304.852011205885,1135
2306.7185839582553,1125
2308.5847299825664,1111
2310.4504495599676,1112
2312.3157429716925,1073
2314.1806104990483,1105
2316.0450524234247,1072
2317.9090690262888,1117
2319.772660589186,1101
2321.635827393742,1092
2323.498569721661,1095
2325.3608878547248,1080
2327.2227820747967,1130
2329.0842526638157,1105
2330.945299903803,1111
2332.805924076857,1076
2334.6661254651535,1084
2336.525904350951,1037
2338.3852610165827,1044
2340.244195744464,1061
2342.102708817088,1074
2343.9608005170253,1093
2345.8184711269287,1073
2347.675720929526,1078
2349.532550207628,1116
2351.38895924412,1085
2353.24494832197,1151
2355.100517724223,1100
2356.955667734004,1101
2358.810398634514,1150
2360.664710709037,1100
2362.5186042409337,1120
2364.3720795136437,1080
2366.225136810686,1123
2368.0777764156583,1096
2369.929998612237,1091
2371.7818036841777,1170
2373.633191915315,1133
2375.484163589562,1041
2377.3347189909114,1073
2379.184858403434,1114
2381.03458211128,1085
2382.8838903986775,1125
2384.732783549936,1125
2386.5812618494406,1114
2388.4293255816588,1096
2390.2769750311327,1067
2392.1242104824883,1073
2393.971032220427,1119
2395.8174405297295,1055
2397.6634356952563,1093
2399.509018001947,1135
2401.3541877348193,1109
2403.1989451789705,1074
2405.043290619576,1104
2406.8872243418905,1133
2408.730746631247,1068
2410.5738577730594,1082
2412.4165580528183,1098
2414.258847756095,1107
2416.100727168537,1048
2417.9421965758734,1084
2419.783256263912,1106
2421.623906518538,1102
2423.4641476257157,1100
2425.303979871491,1106
2427.143403541984,1096
2428.9824189233977,1083
2430.821026302012,1094
2432.6592259641866,1099
2434.497018196361,1111
2436.33440328505,1074
2438.171381516851,1101
2440.00795317844,1055
2441.844118556569,1099
2443.6798779380724,1092
2445.5152316098606,1097
2447.3501798589255,1144
2449.1847229723357,1123
2451.0188612372403,1081
2452.8525949408663,1100
2454.6859243705203,1115
2456.518849813587,1112
2458.3513715575314,1113
2460.183489889895,1092
2462.015205098301,1135
2463.8465174704493,1144
2465.67742729412,1077
2467.5079348571717,1062
2469.338040447542,1138
2471.1677443532476,1137
2472.9970468623833,1102
2474.825948263123,1120
2476.6544488437207,1175
2478.482548892508,1104
2480.310248697896,1134
2482.137548548374,1121
2483.9644487325118,1118
2485.790949538956,1138
2487.617051256433,1156
2489.44275417375,1108
2491.26805857979,1141
2493.0929647635157,1101
2494.917473013971,1130
2496.741583620276,1114
2498.5652968716304,1140
2500.3886130573137,1161
2502.2115324666834,1153
2504.0340553891765,1158
2505.856182114308,1078
2507.6779129316733,1175
2509.499248130945,1125
2511.3201880018764,1120
2513.140732834298,1164
2514.9608829181198,1133
2516.780638543331,1127
2518.6,1135
2520.418967578273,1154
2522.237541568376,1155
2524.0557222606144,1140
2525.8735099453706,1156
2527.6909049131086,1182
2529.507907454368,1190
2531.32451785977,1122
2533.140736420014,1160
2534.9565634258774,1202
2536.771999168218,1203
2538.5870439379714,1161
2540.4016980261526,1173
2542.2159617238544,1187
2544.02983532225,1175
2545.8433191125914,1178
2547.656413386209,1133
2549.4691184345115,1199
2551.2814345489874,1253
2553.093362021204,1186
2554.904901142808,1214
2556.716052205523,1209
2558.526815501153,1245
2560.3371913215824,1268
2562.147179958771,1263
2563.956781704761,1206
2565.7659968516705,1218
2567.5748256916986,1248
2569.3832685171224,1291
2571.1913256202984,1214
2572.9989972936614,1316
2574.806283829725,1248
2576.613185521084,1228
2578.4197026604074,1321
2580.2258355404483,1307
2582.031584454035,1280
2583.836949694077,1288
2585.6419315535613,1331
2587.4465303255533,1289
2589.2507463032002,1258
2591.0545797797245,1229
2592.8580310484303,1255
2594.6611004026995,1275
2596.463788135992,1348
2598.266094541849,1288
2600.0680199138874,1327
2601.869564545807,1271
2603.670728731383,1281
2605.4715127644704,1258
2607.2719169390048,1283
2609.071941548998,1348
2610.8715868885433,1356
2612.670853251811,1323
2614.469740933052,1338
2616.268250226594,1330
2618.0663814268455,1312
2619.864134828292,1286
2621.6615107255006,1284
2623.458509413115,1269
2625.2551311858597,1229
2627.0513763385347,1209
2628.8472451660223,1278
2630.6427379632833,1285
2632.4378550253564,1280
2634.232596647359,1305
2636.026963124488,1274
2637.8209547520187,1242
2639.6145718253065,1189
2641.407814639785,1232
2643.200683490966,1248
2644.9931786744414,1256
2646.7853004858807,1329
2648.577049221034,1237
2650.3684251757277,1225
2652.1594286458712,1147
2653.9500599274484,1206
2655.740319316525,1176
2657.5302071092437,1188
2659.3197236018286,1193
2661.10886909058,1175
2662.8976438718782,1185
2664.686048242183,1189
2666.4740824980327,1185
2668.2617469360443,1162
2670.0490418529134,1180
2671.8359675454153,1132
2673.622524310403,1183
2675.408712444811,1195
2677.1945322456495,1163
2678.979984010009,1184
2680.76506803506,1217
2682.5497846180497,1166
2684.334134056306,1190
2686.1181166472343,1164
2687.9017326883213,1202
2689.6849824771293,1175
2691.4678663113013,1124
2693.2503844885596,1204
2695.032537306705,1179
2696.8143250636167,1185
2698.5957480572542,1190
2700.3768065856534,1148
2702.1575009469316,1146
2703.937831439283,1103
2705.717798360982,1142
2707.4974020103837,1130
2709.276642685917,1136
2711.055520686095,1095
2712.834036309506,1138
2714.612189854819,1125
2716.389981620782,1091
2718.1674119062204,1143
2719.944481010041,1124
2721.721189231226,1126
2723.4975368688415,1133
2725.273524222027,1115
2727.0491515900053,1114
2728.824419272075,1136
2730.5993275676146,1098
2732.3738767760838,1069
2734.148067197016,1086
2735.921899130031,1105
2737.6953728748194,1050
2739.468488731156,1073
2741.2412469988926,1047
2743.0136479779617,1102
2744.785691968372,1083
2746.5573792702116,1086
2748.3287101836504,1070
2750.099685008934,1067
2751.870304046388,1089
2753.640567596418,1114
2755.4104759595057,1059
2757.1800294362156,1068
2758.949228327187,1058
2760.7180729331412,1052
2762.486563554877,1098
2764.254700493272,1134
2766.022484049284,1091
2767.789914523947,1077
2769.5569922183786,1104
2771.3237174337705,1057
2773.090090471394,1056
2774.8561116326036,1051
2776.6217812188274,1064
2778.3870995315756,1048
2780.1520668724356,1093
2781.9166835430747,1051
2783.6809498452394,1078
2785.444866080754,1076
2787.2084325515225,1090
2788.971649559527,1085
2790.73451740683,1047
2792.4970363955713,1102
2794.2592068279705,1086
2796.0210290063264,1088
2797.7825032330147,1063
2799.543629810493,1093
2801.304409041296,1118
2803.0648412280366,1066
2804.8249266734088,1063
2806.5846656801846,1077
2808.344058551212,1085
2810.1031055894246,1052
2811.8618070978273,1077
2813.6201633795085,1109
2815.378174737636,1105
2817.1358414754536,1071
2818.893163896285,1075
2820.6501423035334,1069
2822.4067770006814,1093
2824.1630682912883,1089
2825.9190164789957,1069
2827.6746218675207,1043
2829.429884760661,1090
2831.184805462294,1070
2832.9393842763743,1070
2834.693621506936,1109
2836.4475174580916,1064
2838.201072434034,1084
2839.954286739034,1113
2841.707160677441,1071
2843.459694553685,1109
2845.2118886722724,1048
2846.96374333779,1084
2848.7152588549034,1023
2850.4664355283567,1053
2852.217273662973,1097
2853.9677735636546,1083
2855.7179355353833,1067
2857.4677598832186,1021
2859.217246912299,1049
2860.9663969278427,1097
2862.715210235146,1065
2864.4636871395846,1070
2866.211827946614,1092
2867.9596329617652,1086
2869.7071024906536,1085
2871.4542368389684,1146
2873.20103631248,1107
2874.947501217038,1105
2876.6936318585695,1095
2878.4394285430812,1132
2880.1848915766604,1136
2881.9300212654707,1084
2883.6748179157553,1080
2885.4192818338374,1087
2887.1634133261173,1070
2888.907212699077,1126
2890.6506802592744,1071
2892.393816313348,1084
2894.1366211680142,1063
2895.8790951300693,1049
2897.621238506388,1030
2899.363051603925,1097
2901.1045347297118,1075
2902.8456881908596,1059
2904.58651229456,1079
2906.327007348081,1074
2908.067173658772,1038
2909.8070115340597,1056
2911.5465212814497,1086
2913.285703208527,1103
2915.0245576229563,1030
2916.7630848324807,1099
2918.5012851449196,1102
2920.2391588681758,1099
2921.976706310227,1032
2923.7139277791334,1073
2925.4508235830313,1122
2927.187394030137,1083
2928.923639428745,1064
2930.6595600872306,1027
2932.395156314046,1043
2934.1304284177218,1128
2935.8653767068713,1069
2937.6000014901815,1099
2939.3343030764227,1119
2941.068281774442,1068
2942.8019378931644,1103
2944.5352717415976,1105
2946.2682836288236,1054
2948.0009738640065,1106
2949.7333427563885,1048
2951.465390615289,1117
2953.1971177501086,1082
2954.9285244703265,1074
2956.6596110855,1113
2958.3903779052657,1129
2960.1208252393385,1079
2961.8509533975125,1077
2963.5807626896617,1081
2965.3102534257378,1057
2967.0394259157715,1103
2968.768280469873,1076
2970.496817398232,1081
2972.2250370111146,1067
2973.952939618869,1047
2975.6805255319196,1084
2977.4077950607707,1084
2979.134748516006,1093
2980.861386208289,1063
2982.587708448359,1039
2984.313715547037,1092
2986.039407815222,1097
2987.764785563891,1075
2989.489849104102,1156
2991.2145987469908,1033
2992.9390348037705,1093
2994.6631575857346,1064
2996.3869674042576,1094
2998.1104645707887,1038
2999.83364939686,1061
3001.5565221940783,1082
3003.2790832741334,1044
3005.0013329487924,1027
3006.7232715298996,1067
3008.4448993293804,1065
3010.166216659239,1031
3011.887223831558,1062
3013.607921158498,1074
3015.3283089522993,1090
3017.0483875252826,1045
3018.7681571898443,1083
3020.4876182584626,1082
3022.2067710436927,1096
3023.9256158581707,1036
3025.644153014609,1078
3027.362382825801,1096
3029.0803056046193,1066
3030.797921664012,1037
3032.5152313170106,1025
3034.2322348767225,1033
3035.9489326563353,1041
3037.665324969115,1042
3039.3814121284063,1037
3041.097194447633,1038
3042.812672240299,1024
3044.5278458199855,1069
3046.2427155003525,1052
3047.9572815951406,1067
3049.671544418167,1059
3051.38550428333,1050
3053.0991615046073,1018
3054.812516396051,1071
3056.5255692717974,1076
3058.2383204460575,1069
3059.9507702331257,1052
3061.662918947372,1108
3063.3747669032446,1036
3065.0863144152736,1033
3066.7975617980674,1049
3068.508509366309,1071
3070.219157434767,1053
3071.9295063182844,1041
3073.639556331785,1037
3075.3493077902704,1057
3077.058761008821,1038
3078.7679163025964,1045
3080.476773986837,1109
3082.1853343768594,1043
3083.89359778806,1061
3085.6015645359153,1014
3087.3092349359786,1031
3089.016609303884,1092
3090.7236879553434,1064
3092.4304712061476,1075
3094.136959372166,1059
3095.843152769349,1067
3097.5490517137237,1054
3099.2546565213966,1088
3100.959967508554,1048
3102.66498499146,1059
3104.3697092864577,1079
3106.0741407099695,1012
3107.778279578498,1083
3109.482126208622,1030
3111.1856809170004,1072
3112.8889440203716,1008
3114.5919158355528,1038
3116.294596679439,1075
3117.996986869006,1066
3119.6990867213062,1084
3121.4008965534726,1042
3123.102416682717,1052
3124.803647426329,1115
3126.5045891016784,1114
3128.205242026213,1095
3129.90560651746,1038
3131.605682893025,1058
3133.3054714705922,1060
3135.0049725679282,1046
3136.7041865028714,1075
3138.4031135933465,1040
3140.101754157353,1054
3141.800108512971,997
3143.498176978357,1050
3145.1959598717494,999
3146.8934575114636,1042
3148.5906702158954,991
3150.2875983035183,1019
3151.9842420928853,1033
3153.680601902627,1015
3155.376678051456,1030
3157.07247085816,1033
3158.767980641609,1019
3160.463207720748,1069
3162.158152414606,1013
3163.8528150422862,1026
3165.5471959229726,1058
3167.2412953759303,1017
3168.9351137204976,1053
3170.628651276098,1044
3172.3219083622307,1003
3174.014885298474,1058
3175.707582404485,1047
3177.4000000000005,1076
3179.092138404835,1034
3180.7839979388846,1050
3182.47557892212,1062
3184.166881674594,1054
3185.8579065164386,1014
3187.5486537678626,1051
3189.2391237491547,1045
3190.9293167806827,1032
3192.6192331828934,1035
3194.3088732763117,1019
3195.998237381542,1006
3197.687325819268,1051
3199.376138910251,1033
3201.064676975334,1011
3202.7529403354347,1014
3204.4409293115523,1033
3206.1286442247647,1055
3207.816085396229,1052
3209.5032531471825,1036
3211.190147798936,1030
3212.8767696728846,1055
3214.5631190905015,1069
3216.2491963733373,1017
3217.9350018430214,1043
3219.6205358212637,1017
3221.305798629851,1034
3222.990790590651,1036
3224.6755120256103,1024
3226.359963256751,1031
3228.0441446061795,992
3229.7280563960758,1062
3231.411698948703,1010
3233.0950725863995,1050
3234.778177631587,1030
3236.461014406761,1062
3238.1435832345005,1070
3239.8258844374595,1059
3241.507918338374,1005
3243.1896852600576,1005
3244.8711855254023,1000
3246.552419457381,1040
3248.233387379042,1043
3249.914089613516,1041
3251.59452648401,1004
3253.274698313813,979
3254.95460542629,1020
3256.6342481448855,982
3258.313626793125,1033
3259.9927416946084,1037
3261.6715931730196,1010
3263.3501815521176,982
3265.0285071557437,1034
3266.706570307815,1013
3268.3843713323286,1017
3270.0619105533615,1021
3271.739188295068,1067
3273.4162048816834,1081
3275.0929606375184,1019
3276.769455886966,1005
3278.445690954498,1093
3280.1216661646613,1032
3281.797381842087,1006
3283.4728383114807,1032
3285.1480358976296,1016
3286.8229749253996,1017
3288.4976557197333,1063
3290.172078605655,1051
3291.846243908266,1054
3293.5201519527463,959
3295.193803064357,974
3296.8671975684374,985
3298.5403357904024,1027
3300.21321805575,1046
3301.8858446900567,1083
3303.558216018975,983
3305.23033236824,1020
3306.9021940636603,1020
3308.57380143113,1001
3310.2451547966184,1034
3311.916254486174,1038
3313.5871008259246,1025
3315.2576941420766,983
3316.9280347609147,1027
3318.5981230088046,1025
3320.2679592121895,1005
3321.9375436975924,981
3323.606876791612,994
3325.27595882093,1061
3326.944790112305,1017
3328.6133709925753,1042
3330.2817017886573,1002
3331.949782827547,1007
3333.617614436319,1021
3335.2851969421245,1078
3336.952530672199,1005
3338.619615953853,1033
3340.286453114475,997
3341.9530424815357,1011
3343.619384382583,993
3345.2854791452437,1020
3346.951327097224,1030
3348.6169285663073,1038
3350.2822838803577,1044
3351.947393367319,1060
3353.61225735521,1014
3355.2768761721345,1035
3356.9412501462693,1021
3358.605379605873,996
3360.2692648792827,1028
3361.9329062949146,1026
3363.596304181263,980
