CollectionTime,9/26/2024 8:18:22 AM
ExposureUsed,3
CalibratedSpectrum
-962.7078968117929,697
-959.9714848408522,660
-957.2358232597828,690
-954.5009119013725,737
-951.7667505983302,781
-949.0333391832855,655
-946.3006774887896,645
-943.5687653473143,663
-940.837602591253,766
-938.1071890529199,662
-935.3775245645503,656
-932.6486089583007,637
-929.9204420662485,761
-927.1930237203925,735
-924.4663537526524,800
-921.7404319948689,796
-919.0152582788041,823
-916.2908324361409,936
-913.5671542984834,800
-910.8442236973568,781
-908.1220404642074,795
-905.4006044304027,766
-902.679915427231,708
-899.959973285902,778
-897.2407778375464,846
-894.5223289132158,733
-891.8046263438832,703
-889.0876699604426,640
-886.3714595937089,676
-883.6559950744183,801
-880.9412762332282,806
-878.2273029007168,665
-875.5140749073835,666
-872.8015920836489,624
-870.0898542598545,606
-867.3788612662631,589
-864.6686129330585,616
-861.9591090903457,621
-859.2503495681506,555
-856.5423341964203,573
-853.8350628050229,622
-851.1285352237478,610
-848.4227512823054,631
-845.7177108103272,683
-843.0134136373656,836
-840.3098595928943,825
-837.6070485063082,817
-834.9049802069229,728
-832.2036545239757,659
-829.5030712866244,736
-826.8032303239481,753
-824.1041314649472,701
-821.4057745385428,640
-818.7081593735775,625
-816.0112857988148,709
-813.3151536429393,751
-810.6197627345566,737
-807.9251129021936,772
-805.2312039742981,685
-802.5380357792392,654
-799.8456081453069,655
-797.1539209007124,662
-794.462973873588,673
-791.772766891987,655
-789.083299783884,684
-786.3945723771743,751
-783.7065844996748,681
-781.0193359791231,638
-778.3328266431781,656
-775.6470563194197,683
-772.9620248353489,721
-770.2777320183878,676
-767.5941776958798,600
-764.9113616950891,590
-762.2292838432011,579
-759.5479439673222,630
-756.8673418944801,671
-754.1874774516235,705
-751.5083504656222,675
-748.8299607632671,701
-746.15230817127,852
-743.475392516264,854
-740.7992136248035,725
-738.1237713233636,707
-735.4490654383407,782
-732.7750957960521,696
-730.1018622227365,694
-727.4293645445534,708
-724.7576025875837,791
-722.0865761778291,760
-719.4162851412126,758
-716.7467293035781,844
-714.0779084906909,916
-711.409822528237,726
-708.7424712418238,725
-706.0758544569796,772
-703.4099719991541,745
-700.7448236937178,727
-698.0804093659622,793
-695.4167288411002,766
-692.7537819442656,776
-690.0915685005134,792
-687.4300883348199,775
-684.7693412720819,682
-682.1093271371178,682
-679.4500457546669,723
-676.7914969493897,744
-674.1336805458676,720
-671.4765963686034,721
-668.8202442420206,730
-666.1646239904642,725
-663.5097354382001,754
-660.8555784094151,681
-658.2021527282176,675
-655.5494582186366,691
-652.8974947046223,728
-650.2462620100463,780
-647.5957599587009,818
-644.9459883742998,828
-642.2969470804776,878
-639.6486359007902,842
-637.0010546587141,750
-634.3542031776476,710
-631.7080812809096,705
-629.0626887917401,954
-626.4180255333008,1138
-623.7740913286734,974
-621.1308860008619,804
-618.4884093727904,938
-615.8466612673046,852
-613.2056415071715,830
-610.5653499150785,874
-607.9257863136347,927
-605.28695052537,853
-602.6488423727357,837
-600.0114616781036,1061
-597.3748082637674,1413
-594.7388819519412,1240
-592.1036825647604,1107
-589.4692099242818,1241
-586.8354638524829,1249
-584.2024441712624,1125
-581.5701507024403,1011
-578.9385832677575,947
-576.3077416888759,1015
-573.6776257873787,1191
-571.0482353847704,1101
-568.4195703024757,966
-565.7916303618415,902
-563.164415384135,830
-560.5379251905453,829
-557.9121596021815,1060
-555.2871184400748,1098
-552.6628015251767,994
-550.0392086783606,1032
-547.4163397204204,1037
-544.794194472071,1145
-542.1727727539491,1135
-539.5520743866118,1137
-536.9320991905377,981
-534.3128469861261,1071
-531.6943175936979,1182
-529.0765108334947,1288
-526.4594265256793,1414
-523.8430644903358,1687
-521.2274245474689,1797
-518.612506517005,1815
-515.9983102187913,2120
-513.3848354725959,2433
-510.77208209810846,2488
-508.16004991493924,2871
-505.5487387426199,2855
-502.9381484006032,2500
-500.3282787082628,2207
-497.71912948489364,2013
-495.1107005497117,1679
-492.5029917218539,1467
-489.8960028203786,1265
-487.28973366426493,1131
-484.68418407241325,1079
-482.07935386364494,1179
-479.47524285670266,1089
-476.87185087025,1080
-474.2691777228715,1104
-471.66722323307334,1072
-469.0659872192821,1053
-466.4654694998459,1062
-463.86566989303384,1036
-461.26658821703614,1170
-458.66822428996414,1164
-456.07057792985,1171
-453.4736489546475,1257
-450.877437182231,1091
-448.28194243039627,986
-445.68716451686,1055
-443.09310325926003,1065
-440.49975847515555,1125
-437.9071299820263,1125
-435.31521759727354,1215
-432.72402113821954,1416
-430.13354042210767,1131
-427.5437752661022,1076
-424.95472548728867,1112
-422.36639090267386,1282
-419.7787713291855,1550
-417.1918665836721,1631
-414.60567648290385,1444
-412.0202008435715,1197
-409.4354394822874,1381
-406.8513922155845,1426
-404.26805885991723,1323
-401.685439231661,1207
-399.103533147112,1213
-396.522340422488,1241
-393.9418608739278,1189
-391.3620943174908,1453
-388.7830405691583,1357
-386.2046994448317,1139
-383.6270707603344,1334
-381.05015433141045,1462
-378.473949973725,1122
-375.8984575028645,1085
-373.32367673433623,1112
-370.74960748356875,996
-368.1762495659117,954
-365.60360279663576,1073
-363.03166699093265,1121
-360.4604419639154,960
-357.8899275306178,823
-355.32012350599507,837
-352.7510297049233,842
-350.1826459421999,813
-347.61497203254316,814
-345.04800779059235,927
-342.4817530309082,1190
-339.91620756797226,1255
-337.35137121618743,1200
-334.7872437898774,1326
-332.22382510328725,1730
-329.66111497058273,1421
-327.09911320585127,983
-324.53781962310075,881
-321.9772340362607,867
-319.4173562591816,984
-316.8581861056348,953
-314.2997233893127,850
-311.7419679238294,889
-309.1849195227194,936
-306.62857799943856,1101
-304.0729431673641,1190
-301.51801483979375,1230
-298.963792829947,1142
-296.41027695096386,1171
-293.85746701590574,1514
-291.3053628377552,1652
-288.7539642294155,1596
-286.2032710037115,1538
-283.65328297338897,1970
-281.1039999511146,2465
-278.5554217494762,2661
-276.007548180983,1893
-273.4603790580651,1256
-270.9139141930734,1395
-268.3681533982807,1609
-265.8230964858798,1886
-263.27874326798565,1511
-260.7350935566336,1403
-258.1921471637804,1775
-255.6499039013039,2126
-253.10836358100266,1571
-250.56752601459698,1736
-248.02739101372765,2084
-245.48795838995704,2045
-242.94922795476816,1650
-240.41119951956557,1280
-237.8738728956746,1584
-235.33724789434166,1740
-232.80132432673452,1691
-230.2661020039418,1792
-227.73158073697357,1819
-225.19776033676033,2162
-222.66464061415422,2077
-220.1322213799284,1693
-217.60050244477725,1632
-215.06948361931552,2259
-212.53916471408013,3281
-210.00954553952818,3453
-207.48062590603843,2136
-204.9524056239104,1629
-202.4248845033651,2063
-199.8980623545441,2689
-197.37193898751036,2776
-194.84651421224817,1814
-192.32178783866232,1854
-189.79775967657952,2446
-187.27442953574644,3069
-184.7517972258321,3412
-182.2298625564256,2710
-179.7086253370378,2597
-177.18808537710026,3012
-174.66824248596583,3770
-172.14909647290835,3879
-169.6306471471229,2747
-167.11289431772548,2178
-164.59583779375328,2555
-162.07947738416453,3342
-159.5638128978386,3992
-157.04884414357605,3868
-154.53457093009854,3394
-152.02099306604828,2837
-149.50811035998936,2699
-146.99592262040665,3320
-144.48442965570587,4837
-141.97363127421409,6462
-139.46352728417958,5916
-136.95411749377126,4403
-134.44540171107985,3574
-131.93737974411636,2793
-129.43005140081357,4161
-126.92341648902493,7289
-124.41747481652521,11183
-121.91222619101006,12131
-119.40767042009657,9944
-116.90380731132257,7455
-114.40063667214702,4766
-111.8981583099503,4085
-109.3963720320337,7154
-106.89527764561933,13099
-104.39487495785067,22349
-101.89516377579241,25183
-99.39614390642998,21734
-96.89781515667039,16993
-94.40017733334128,14388
-91.90323024319173,11534
-89.40697369289148,12070
-86.91140748903172,18077
-84.41653143812482,31902
-81.92234534660395,48090
-79.42884902082358,53645
-76.93604226705907,53610
-74.4439248915071,61582
-71.95249670028534,65025
-69.46175749943245,65025
-66.97170709490854,65025
-64.48234529259423,65025
-61.99367189829195,65025
-59.50568671772464,65025
-57.01838955653636,65025
-54.53178022029283,65025
-52.045858514480074,65025
-49.560624244506016,65025
-47.07607721569923,65025
-44.59221723330904,53878
-42.10904410250669,33701
-39.62655762838392,31570
-37.14475761595372,36184
-34.66364387015028,37642
-32.18321619582866,49484
-29.70347439776515,63530
-27.224418280657005,65025
-24.74604764912317,65025
-22.26836230770266,65025
-19.7913620608565,65025
-17.315046712966478,65025
-14.83941606833514,65025
-12.36446993118659,65025
-9.89020810566592,65025
-7.416630395839093,65025
-4.94373660569363,65025
-2.471526539137585,65025
-6.821210263296962E-13,65025
2.47084320796705,65025
4.941003281093458,65025
7.410480415786196,65025
9.879274808531363,65025
12.347386655893956,65025
14.814816154518212,65025
17.28156350112681,65025
19.74762889252179,65025
22.21301252558385,32824
24.67771459727237,12276
27.141735304626195,12829
29.605074844762612,13287
32.06773341487792,10999
34.52971121224755,10965
36.99100843422559,13936
39.45162527824516,13601
41.91156194181792,12273
44.370818622535126,9593
46.82939551806646,9659
49.287292826160524,10821
51.74451074464503,11076
54.201049471426245,9737
56.65690920448981,8150
59.112090141899785,7065
61.56659248179983,5914
64.02041642241159,4568
66.4735621620365,5659
68.92602989905402,6781
71.37781983192338,7183
73.82893215918205,7093
76.27936707944684,6963
78.72912479141326,6923
81.17820549385567,8308
83.62660938562783,7883
86.07433666566146,7295
88.5213875329681,4497
90.96776218663751,4058
93.41346082583925,4057
95.85848364982041,4412
98.30283085790859,7097
100.7465026495089,7419
103.18949922410604,6065
105.63182078126385,5304
108.07346752062438,4652
110.51443964190923,3299
112.95473734491827,3348
115.39436082953114,4282
117.83331029570547,4518
120.27158594347827,3632
122.7091879729652,3311
125.1461165843615,3484
127.58237197794062,4100
130.01795435405518,3989
132.4528639131364,3549
134.88710085569494,4238
137.32066538231982,4111
139.75355769367923,3242
142.1857779905207,3086
144.61732647366978,3658
147.04820334403132,3422
149.47840880258934,2586
151.90794305040674,2647
154.33680628862487,2849
156.76499871846443,2692
159.19252054122433,2875
161.61937195828352,3052
164.04555317109896,3474
166.47106438120693,3230
168.89590579022217,3010
171.320077599839,3263
173.7435800118302,3704
176.16641322804742,4100
178.58857745042144,3644
181.01007288096173,3863
183.43089972175687,4063
185.85105817497413,3316
188.27054844285988,2885
190.6893707277394,3061
193.10752523201643,3557
195.5250121581745,3546
197.9418317087751,3111
200.3579840864594,3458
202.7734694939469,3598
205.18828813403627,3237
207.6024402096051,3293
210.01592592360964,3465
212.42874547908548,3088
214.84089907914665,3368
217.2523869269868,3573
219.66320922587727,3144
222.0733661791695,2900
224.48285799029293,3300
226.8916848627572,3310
229.29984700014882,3069
231.7073446061355,3258
234.11417788446204,3123
236.520347038953,3294
238.92585227351185,3399
241.33069379212054,3039
243.73487179884035,3199
246.1383864978112,3550
248.541238093252,3598
250.9434267894609,3434
253.34495279081432,3293
255.74581630176783,3089
258.1460175268563,3054
260.54555667069314,3270
262.9444339379703,3647
265.3426495334594,3658
267.7402036620107,3484
270.1370965285529,3574
272.53332833809407,3283
274.9288992957214,3425
277.32380960660055,3581
279.718059475976,3374
282.1116491091717,3068
284.5045787115897,2865
286.89684848871195,2941
289.2884586460981,3002
291.67940938938807,3230
294.0697009242996,3112
296.4593334566299,3366
298.84830719225477,3324
301.23662233712923,3280
303.6242790972866,3050
306.01127767884,2938
308.39761828798066,3016
310.78330113097934,2888
313.16832641418534,2664
315.5526943440269,2746
317.9364051270112,2981
320.3194589697242,2989
322.70185607883093,2761
325.0835966610754,2862
327.4646809232805,2780
329.8451090723478,2601
332.2248813152577,2606
334.6039978590701,2642
336.9824589109231,2501
339.36026467803447,2354
341.7374153677,2490
344.113911187295,2413
346.48975234427337,2495
348.8649390461686,2472
351.2394715005918,2368
353.61334991523415,2402
355.9865744978655,2364
358.35914545633375,2400
360.73106299856715,2339
363.10232733257146,2481
365.47293866643247,2473
367.84289720831396,2395
370.2122031664593,2305
372.5808567491905,2374
374.9488581649083,2249
377.31620762209275,2214
379.6829053293021,2255
382.0489514951745,2392
384.4143463284262,2405
386.7790900378528,2382
389.14318283232853,2359
391.50662492080653,2517
393.86941651231916,2755
396.23155781597745,2963
398.5930490409713,2719
400.9538903965696,2511
403.3140820921202,2419
405.6736243370498,2360
408.03251734086336,2393
410.3907613131465,2236
412.74835646356166,2296
415.10530300185144,2208
417.4616011378372,2325
419.81725108141893,2222
422.1722530425758,2238
424.5266072313656,2373
426.880313857925,2221
429.2333731324701,2126
431.58578526529516,2088
433.9375504667738,2040
436.2886689473588,2069
438.63914091758113,2117
440.9889665880513,2073
443.33814616945835,2037
445.68667987257015,2125
448.03456790823395,2159
450.3818104873759,2097
452.72840782100013,2081
455.07436012019105,2050
457.41966759611057,2091
459.7643304600007,1998
462.10834892318155,1979
464.4517231970525,2120
466.79445349309174,2134
469.1365400228566,2146
471.4779829979826,2130
473.81878263018564,2094
476.15893913125876,2153
478.4984527130747,2482
480.8373235875855,2507
483.17555196682144,2342
485.5131380628919,2347
487.8500820879857,2478
490.1863842543697,2635
492.52204477439034,3041
494.8570638604725,3366
497.1914417251204,3944
499.52517858091653,4770
501.85827464052306,5515
504.19073011668036,6021
506.5225452222086,6180
508.85372017000566,6631
511.18425517304956,6931
513.514150444396,8282
515.8434061971808,9581
518.1720226446176,9846
520.4999999999999,9331
522.8273384766991,8410
525.1540382881666,7463
527.480099647932,5925
529.8055227696037,4190
532.1303078668694,3153
534.454455153496,2799
536.777964843328,2613
539.1008371502907,2530
541.4230722883866,2445
543.744670471698,2480
546.0656319143858,2427
548.3859568306899,2474
550.7056454349294,2772
553.0246979415016,2820
555.3431145648834,2526
557.6608955196306,2194
559.978041020377,2424
562.2945512818363,2425
564.6104265188006,2282
566.9256669461412,2283
569.2402727788082,2425
571.5542442318302,2389
573.8675815203156,2165
576.1802848594508,2270
578.4923544645015,2302
580.8037905508126,2130
583.114593333807,2218
585.4247630289875,2219
587.7342998519354,2352
590.0432040183106,2381
592.3514757438526,2125
594.6591152443794,2200
596.9661227357875,2315
599.2724984340531,2211
601.578242555231,2205
603.8833553154542,2163
606.1878369309362,2132
608.4916876179676,2084
610.7949075929192,2109
613.0974970722403,2125
615.3994562724587,2130
617.7007854101818,2114
620.0014847020951,2113
622.3015543649641,2138
624.6009946156324,2164
626.8998056710224,2059
629.1979877481361,2058
631.4955410640538,2095
633.7924658359349,2048
636.0887622810175,2116
638.3844306166192,2012
640.6794710601358,2073
642.9738838290426,2201
645.2676691408932,2090
647.5608272133207,2140
649.853358264037,2245
652.1452625108324,2159
654.4365401715764,2155
656.7271914642178,2246
659.0172166067838,2288
661.3066158173809,2159
663.5953893141935,2202
665.8835373154867,2157
668.1710600396028,2376
670.4579577049639,2280
672.7442305300709,2039
675.0298787335033,2003
677.3149025339197,2061
679.599302150058,2151
681.8830778007342,2137
684.1662297048437,2144
686.4487580813608,2248
688.7306631493387,2143
691.0119451279091,2226
693.2926042362834,2164
695.5726406937516,2101
697.8520547196814,2104
700.1308465335215,2077
702.4090163547982,2090
704.6865644031171,2077
706.9634908981619,2096
709.2397960596965,2068
711.5154801075631,2096
713.7905432616823,2088
716.0649857420548,2058
718.3388077687592,2044
720.612009561953,2103
722.8845913418733,2075
725.1565533288352,2007
727.427895743234,2121
729.6986188055427,2179
731.9687227363137,2178
734.238207756178,2101
736.5070740858458,2168
738.7753219461066,2121
741.0429515578281,2145
743.3099631419569,2147
745.5763569195191,2076
747.8421331116193,2125
750.1072919394409,2140
752.3718336242467,2263
754.6357583873777,2178
756.8990664502545,2148
759.1617580343765,2063
761.423833361321,2093
763.6852926527457,2072
765.9461361303862,2098
768.206364016058,2287
770.4659765316536,2372
772.7249738991469,2263
774.9833563405886,2085
777.2411240781092,2069
779.4982773339183,2077
781.7548163303044,2190
784.010741289634,2308
786.2660524343538,2377
788.5207499869881,2337
790.7748341701416,2270
793.0283052064964,2218
795.2811633188143,2173
797.5334087299362,2224
799.7850416627813,2212
802.0360623403484,2242
804.2864709857143,2352
806.5362678220353,2261
808.7854530725468,2122
811.0340269605625,2241
813.2819897094754,2440
815.5293415427581,2307
817.77608268396,2151
820.0222133567116,2190
822.2677337847211,2450
824.5126441917765,2459
826.7569448017433,2221
829.0006358385675,2031
831.2437175262731,2112
833.4861900889629,2128
835.7280537508192,2152
837.9693087361026,2095
840.2099552691533,2119
842.4499935743896,2112
844.689423876309,2111
846.9282463994886,2115
849.1664613685833,1969
851.4040690083276,1996
853.6410695435349,2110
855.877463199097,2070
858.1132501999847,2068
860.3484307712487,2105
862.5830051380175,2184
864.8169735254988,2101
867.0503361589791,2014
869.2830932638243,2174
871.5152450654786,2035
873.7467917894654,2070
875.9777336613873,2085
878.2080709069252,2124
880.4378037518389,2068
882.666932421968,2281
884.8954571432301,2289
887.1233781416219,2380
889.3506956432192,2231
891.5774098741766,2139
893.803521060728,2172
896.0290294291852,2087
898.2539352059397,2123
900.4782386174619,2373
902.7019398903011,2329
904.925039251085,2311
907.147536926521,2166
909.3694331433943,2134
911.59072812857,2272
913.8114221089921,2154
916.0315153116827,2165
918.2510079637437,2146
920.4699002923547,2152
922.6881925247761,2121
924.905884888345,2190
927.1229776104793,2208
929.3394709186747,2104
931.555365040506,2148
933.7706602036275,2166
935.9853566357709,2349
938.1994545647489,2328
940.4129542184515,2266
942.6258558248488,2231
944.8381596119883,2424
947.0498658079974,2414
949.2609746410825,2383
951.4714863395287,2242
953.6814011316998,2249
955.8907192460387,2263
958.0994409110671,2285
960.3075663553858,2381
962.5150958076741,2353
964.7220294966913,2338
966.928367651274,2249
969.1341105003388,2217
971.3392582728806,2197
973.5438111979742,2192
975.747769504772,2118
977.9511334225061,2084
980.153903180487,2095
982.3560790081052,2154
984.5576611348289,2196
986.7586497902058,2108
988.9590452038618,2137
991.158847605503,2216
993.3580572249133,2170
995.5566742919558,2038
997.7546990365728,1972
999.952131688785,1856
1002.1489724786926,1833
1004.3452216364743,1784
1006.5408793923874,1780
1008.7359459767691,1725
1010.9304216200343,1753
1013.1243065526781,1730
1015.3176010052733,1728
1017.510305208472,1746
1019.7024193930064,2051
1021.8939437896848,1966
1024.0848786293977,1620
1026.2752241431122,1651
1028.4649805618747,1662
1030.6541481168115,1691
1032.842727039127,1639
1035.0307175601051,1588
1037.2181199111074,1633
1039.4049343235752,1550
1041.591161029029,1590
1043.7768002590683,1581
1045.9618522453698,1681
1048.1463172196918,1577
1050.3301954138697,1603
1052.513487059818,1561
1054.69619238953,1562
1056.8783116350783,1621
1059.0598450286152,1723
1061.2407928023704,1663
1063.4211551886528,1569
1065.6009324198508,1551
1067.780124728432,1500
1069.9587323469414,1506
1072.1367555080046,1549
1074.314194444325,1558
1076.4910493886855,1532
1078.667320573947,1508
1080.843008233051,1546
1083.0181125990161,1487
1085.1926339049414,1553
1087.3665723840027,1513
1089.5399282694575,1488
1091.7127017946405,1534
1093.8848931929647,1544
1096.0565026979243,1493
1098.2275305430899,1470
1100.3979769621128,1556
1102.567842188722,1523
1104.737126456726,1531
1106.9058300000124,1598
1109.0739530525475,1496
1111.2414958483764,1485
1113.4084586216231,1512
1115.5748416064907,1569
1117.7406450372605,1588
1119.9058691482942,1541
1122.0705141740304,1510
1124.2345803489884,1471
1126.3980679077658,1466
1128.5609770850388,1528
1130.7233081155623,1481
1132.8850612341707,1376
1135.0462366757774,1390
1137.2068346753745,1395
1139.3668554680326,1457
1141.526299288901,1485
1143.68516637321,1446
1145.8434569562655,1521
1148.001171273455,1467
1150.158309560244,1494
1152.3148720521767,1437
1154.470858984876,1515
1156.626270594044,1469
1158.7811071154629,1526
1160.9353687849912,1474
1163.089055838569,1492
1165.242168512213,1511
1167.3947070420209,1490
1169.5466716641677,1460
1171.6980626149075,1568
1173.8488801305748,1633
1175.9991244475814,1530
1178.1487958024186,1484
1180.2978944316555,1543
1182.4464205719428,1524
1184.5943744600072,1464
1186.7417563326567,1427
1188.8885664267755,1457
1191.0348049793297,1421
1193.1804722273619,1431
1195.325568407995,1478
1197.4700937584303,1443
1199.614048515948,1409
1201.7574329179074,1432
1203.900247201746,1454
1206.042491604982,1377
1208.1841663652099,1409
1210.3252717201053,1477
1212.465807907422,1540
1214.6057751649923,1411
1216.7451737307279,1439
1218.8840038426192,1612
1221.0222657387353,1560
1223.1599596572241,1441
1225.2970858363137,1421
1227.4336445143094,1444
1229.5696359295966,1461
1231.705060320639,1458
1233.8399179259786,1524
1235.9742089842384,1503
1238.107933734118,1471
1240.2410924143974,1470
1242.373685263935,1500
1244.5057125216676,1456
1246.6371744266116,1529
1248.7680712178621,1499
1250.898403134593,1579
1253.028170416058,1518
1255.1573733015875,1492
1257.2860120305932,1472
1259.4140868425648,1543
1261.54159797707,1521
1263.6685456737569,1597
1265.7949301723515,1649
1267.9207517126597,1517
1270.046010534565,1474
1272.1707068780306,1475
1274.2948409830983,1507
1276.4184130898889,1484
1278.541423438603,1579
1280.6638722695184,1515
1282.785759822993,1414
1284.9070863394636,1518
1287.0278520594447,1598
1289.1480572235314,1459
1291.2677020723963,1538
1293.3867868467923,1579
1295.5053117875495,1536
1297.623277135579,1431
1299.740683131868,1453
1301.8575300174857,1530
1303.973818033578,1561
1306.0895474213703,1635
1308.2047184221678,1620
1310.3193312773528,1596
1312.4333862283888,1624
1314.5468835168163,1556
1316.659823384255,1542
1318.7722060724045,1511
1320.8840318230418,1512
1322.9953008780249,1483
1325.1060134792888,1500
1327.2161698688478,1566
1329.3257702887959,1535
1331.4348149813054,1508
1333.5433041886276,1511
1335.6512381530933,1531
1337.7586171171101,1486
1339.8654413231675,1452
1341.9717110138317,1483
1344.0774264317488,1474
1346.1825878196432,1493
1348.2871954203192,1488
1350.3912494766587,1444
1352.4947502316231,1473
1354.5976979282532,1546
1356.7000928096686,1513
1358.8019351190665,1526
1360.9032250997243,1544
1363.0039629949988,1454
1365.1041490483235,1474
1367.2037835032133,1490
1369.3028666032606,1481
1371.401398592137,1497
1373.4993797135926,1498
1375.5968102114575,1501
1377.6936903296396,1536
1379.7900203121262,1501
1381.8858004029835,1486
1383.9810308463561,1483
1386.075711886469,1520
1388.1698437676241,1495
1390.2634267342032,1573
1392.356461030667,1618
1394.4489469015557,1537
1396.5408845914872,1440
1398.6322743451592,1452
1400.7231164073469,1478
1402.813411022907,1544
1404.903158436773,1564
1406.9923588939578,1516
1409.0810126395531,1553
1411.1691199187303,1468
1413.2566809767386,1447
1415.343696058907,1519
1417.4301654106425,1508
1419.5160892774315,1512
1421.6014679048399,1548
1423.6863015385125,1458
1425.7705904241707,1410
1427.8543348076178,1474
1429.9375349347342,1443
1432.0201910514802,1489
1434.102303403894,1489
1436.1838722380944,1487
1438.2648978002767,1411
1440.3453803367174,1507
1442.4253200937692,1555
1444.5047173178677,1506
1446.5835722555234,1462
1448.6618851533285,1553
1450.739656257952,1560
1452.8168858161434,1568
1454.8935740747306,1569
1456.96972128062,1481
1459.045327680797,1507
1461.120393522327,1541
1463.1949190523528,1537
1465.2689045180973,1503
1467.3423501668608,1465
1469.415256246024,1457
1471.4876230030463,1481
1473.559450685465,1503
1475.6307395408976,1507
1477.7014898170391,1621
1479.771701761665,1624
1481.8413756226287,1504
1483.9105116478618,1477
1485.9791100853772,1489
1488.0471711832643,1578
1490.1146951896926,1485
1492.1816823529098,1522
1494.2481329212433,1563
1496.3140471430984,1536
1498.3794252669609,1541
1500.4442675413939,1559
1502.5085742150404,1614
1504.572345536622,1579
1506.6355817549388,1507
1508.6982831188702,1529
1510.7604498773744,1538
1512.8220822794883,1546
1514.8831805743293,1485
1516.9437450110909,1488
1519.003775839048,1512
1521.0632733075522,1502
1523.1222376660367,1554
1525.1806691640113,1511
1527.2385680510652,1465
1529.2959345768668,1517
1531.3527689911643,1583
1533.4090715437833,1591
1535.4648424846291,1579
1537.5200820636855,1597
1539.5747905310159,1541
1541.6289681367616,1482
1543.6826151311434,1572
1545.7357317644614,1633
1547.7883182870937,1494
1549.8403749494987,1453
1551.8919020022113,1460
1553.9428996958477,1598
1555.9933682811015,1616
1558.0433080087469,1602
1560.0927191296346,1607
1562.1416018946961,1637
1564.1899565549415,1581
1566.2377833614592,1568
1568.2850825654164,1545
1570.3318544180606,1567
1572.3780991707158,1555
1574.423817074788,1537
1576.4690083817595,1498
1578.5136733431923,1538
1580.5578122107272,1584
1582.601425236085,1644
1584.6445126710646,1589
1586.6870747675434,1523
1588.7291117774776,1478
1590.7706239529034,1501
1592.8116115459347,1559
1594.8520748087658,1537
1596.8920139936686,1498
1598.9314293529933,1477
1600.9703211391711,1448
1603.008689604711,1514
1605.0465350022005,1522
1607.0838575843068,1506
1609.1206576037753,1495
1611.1569353134305,1552
1613.1926909661765,1465
1615.2279248149953,1553
1617.2626371129481,1489
1619.2968281131757,1481
1621.3304980688963,1519
1623.3636472334088,1474
1625.39627586009,1453
1627.428384202396,1410
1629.459972513861,1427
1631.4910410480993,1507
1633.5215900588028,1511
1635.551619799744,1430
1637.5811305247717,1522
1639.6101224878166,1449
1641.6385959428862,1521
1643.6665511440683,1469
1645.693988345528,1445
1647.7209078015112,1460
1649.7473097663405,1455
1651.7731944944203,1479
1653.7985622402307,1542
1655.823413258333,1470
1657.847747803366,1429
1659.8715661300494,1425
1661.8948684931793,1533
1663.9176551476316,1477
1665.9399263483624,1448
1667.9616823504057,1460
1669.982923408873,1418
1672.0036497789574,1469
1674.0238617159293,1395
1676.043559475138,1427
1678.0627433120121,1421
1680.081413482059,1404
1682.0995702408654,1415
1684.117213844096,1428
1686.134344547495,1440
1688.1509626068864,1465
1690.1670682781705,1417
1692.182661817329,1414
1694.1977434804217,1519
1696.2123135235875,1559
1698.226372203043,1511
1700.2399197750851,1569
1702.2529564960905,1623
1704.2654826225112,1476
1706.277498410882,1436
1708.2890041178139,1435
1710.2999999999988,1442
1712.3104863142066,1482
1714.3204633172854,1411
1716.329931266163,1488
1718.3388904178469,1463
1720.3473410294214,1505
1722.3552833580516,1424
1724.3627176609807,1461
1726.3696441955308,1409
1728.3760632191033,1433
1730.3819749891782,1493
1732.3873797633146,1436
1734.3922777991502,1444
1736.3966693544012,1421
1738.4005546868639,1411
1740.4039340544127,1463
1742.406807715001,1430
1744.4091759266616,1437
1746.4110389475054,1504
1748.4123970357223,1580
1750.413250449582,1500
1752.4135994474318,1461
1754.4134442876993,1400
1756.4127852288902,1414
1758.4116225295893,1430
1760.4099564484595,1480
1762.407787244244,1482
1764.405115175764,1437
1766.4019405019203,1466
1768.3982634816916,1449
1770.3940843741357,1512
1772.3894034383907,1488
1774.3842209336717,1442
1776.378537119274,1458
1778.372352254571,1419
1780.3656665990156,1369
1782.3584804121397,1480
1784.3507939535534,1444
1786.3426074829463,1548
1788.3339212600863,1444
1790.3247355448211,1466
1792.3150505970766,1449
1794.3048666768573,1420
1796.2941840442477,1464
1798.2830029594106,1477
1800.2713236825884,1467
1802.2591464741004,1515
1804.2464715943465,1413
1806.2332993038058,1438
1808.2196298630352,1493
1810.2054635326708,1454
1812.190800573428,1421
1814.175641246101,1517
1816.1599858115628,1455
1818.1438345307652,1508
1820.127187664738,1420
1822.1100454745924,1469
1824.092408221516,1509
1826.0742761667766,1483
1828.055649571721,1482
1830.0365286977735,1454
1832.0169138064398,1441
1833.9968051593014,1518
1835.9762030180214,1472
1837.9551076443408,1520
1839.9335193000788,1499
1841.9114382471344,1476
1843.888864747485,1416
1845.8657990631878,1409
1847.842241456378,1404
1849.8181921892697,1498
1851.7936515241558,1452
1853.7686197234098,1445
1855.7430970494815,1459
1857.7170837649014,1481
1859.6905801322787,1406
1861.6635864143004,1464
1863.6361028737338,1444
1865.608129773424,1443
1867.5796673762961,1509
1869.5507159453537,1433
1871.521275743678,1523
1873.4913470344313,1466
1875.4609300808534,1429
1877.4300251462632,1440
1879.3986324940588,1476
1881.366752387717,1462
1883.3343850907936,1525
1885.3015308669228,1517
1887.268189979819,1483
1889.2343626932739,1485
1891.2000492711595,1422
1893.1652499774254,1487
1895.1299650761011,1501
1897.0941948312952,1430
1899.0579395071945,1504
1901.0211993680641,1461
1902.98397467825,1529
1904.9462657021745,1500
1906.9080727043415,1453
1908.869395949332,1435
1910.8302357018065,1419
1912.790592226504,1476
1914.7504657882428,1450
1916.7098566519212,1394
1918.6687650825133,1453
1920.6271913450764,1453
1922.5851357047422,1471
1924.5425984267245,1429
1926.499579776314,1539
1928.4560800188833,1485
1930.4120994198802,1531
1932.367638244833,1532
1934.32269675935,1511
1936.2772752291175,1427
1938.231373919899,1487
1940.1849930975404,1476
1942.1381330279637,1479
1944.0907939771696,1471
1946.0429762112412,1445
1947.9946799963363,1459
1949.9459055986945,1444
1951.896653284633,1442
1953.8469233205478,1436
1955.7967159729142,1397
1957.7460315082863,1410
1959.6948701932974,1377
1961.6432322946594,1411
1963.5911180791632,1433
1965.5385278136787,1451
1967.4854617651545,1498
1969.4319202006182,1466
1971.377903387176,1443
1973.3234115920136,1510
1975.268445082395,1423
1977.2130041256642,1522
1979.1570889892423,1421
1981.1006999406304,1514
1983.04383724741,1476
1984.986501177238,1526
1986.928691997853,1469
1988.8704099770712,1540
1990.811655382789,1459
1992.7524284829801,1413
1994.692729545698,1511
1996.6325588390755,1438
1998.5719166313224,1474
2000.5108031907307,1425
2002.4492187856677,1440
2004.387163684583,1433
2006.3246381560011,1477
2008.2616424685298,1447
2010.1981768908527,1459
2012.1342416917332,1407
2014.069837140014,1418
2016.0049635046162,1476
2017.9396210545406,1438
2019.8738100588666,1464
2021.8075307867502,1492
2023.740783507431,1459
2025.6735684902228,1443
2027.6058860045214,1503
2029.5377363198004,1458
2031.4691197056118,1494
2033.4000364315875,1515
2035.3304867674374,1524
2037.260470982952,1440
2039.189989347998,1556
2041.1190421325232,1512
2043.047629606554,1373
2044.9757520401945,1406
2046.9034097036288,1388
2048.8306028671195,1420
2050.7573318010086,1394
2052.683596775716,1488
2054.609398061742,1412
2056.5347359296647,1449
2058.4596106501403,1454
2060.384022493906,1427
2062.3079717317764,1448
2064.231458634646,1394
2066.1544834734873,1385
2068.077046519352,1384
2069.99914804337,1423
2071.9207883167524,1429
2073.8419676107865,1386
2075.7626861968406,1410
2077.6829443463607,1423
2079.6027423308715,1409
2081.522080421977,1501
2083.440958891362,1418
2085.359378010786,1334
2087.2773380520907,1433
2089.194839287196,1410
2091.111881988101,1465
2093.0284664268825,1444
2094.9445928756973,1427
2096.86026160678,1468
2098.775472892446,1418
2100.690227005088,1413
2102.604524217178,1415
2104.5183648012676,1419
2106.431749029985,1448
2108.34467717604,1399
2110.2571495122206,1504
2112.169166311393,1466
2114.080727846503,1411
2115.9918343905747,1420
2117.902486216711,1420
2119.8126835980956,1494
2121.722426807987,1445
2123.6317161197285,1424
2125.5405518067364,1438
2127.448934142509,1424
2129.356863400624,1478
2131.264339854737,1452
2133.1713637785815,1397
2135.077935445972,1432
2136.9840551308002,1366
2138.889723107037,1437
2140.7949396487334,1404
2142.699705030018,1458
2144.6040195250994,1471
2146.507883408264,1452
2148.4112969538774,1405
2150.3142604363848,1518
2152.2167741303097,1478
2154.1188383102535,1462
2156.0204532508997,1459
2157.9216192270064,1437
2159.822336513414,1468
2161.7226053850413,1414
2163.622426116884,1493
2165.5217989840185,1474
2167.4207242616,1454
2169.319202224862,1474
2171.2172331491165,1400
2173.1148173097563,1473
2175.0119549822507,1490
2176.90864644215,1534
2178.8048919650823,1475
2180.7006918267534,1471
2182.596046302952,1457
2184.4909556695407,1450
2186.3854202024645,1415
2188.279440177746,1468
2190.173015871487,1460
2192.066147559868,1540
2193.958835519149,1466
2195.851080025667,1492
2197.7428813558417,1444
2199.6342397861667,1521
2201.5251555932186,1472
2203.415629053651,1469
2205.3056604441986,1540
2207.19525004167,1491
2209.084398122958,1472
2210.9731049650327,1444
2212.861370844941,1474
2214.749196039812,1401
2216.636580826851,1498
2218.523525483344,1498
2220.410030286655,1496
2222.296095514226,1515
2224.1817214435805,1497
2226.066908352319,1471
2227.951656518121,1438
2229.835966218746,1463
2231.71983773203,1465
2233.6032713358913,1515
2235.486267308324,1490
2237.3688259274036,1486
2239.2509474712824,1411
2241.132632218193,1475
2243.013880446447,1482
2244.8946924344323,1454
2246.7750684606203,1431
2248.6550088035574,1464
2250.534513741871,1426
2252.413583554265,1465
2254.292218519526,1471
2256.170418916517,1439
2258.0481850241786,1494
2259.925517121534,1421
2261.8024154876825,1396
2263.678880401803,1431
2265.5549121431536,1411
2267.430510991071,1478
2269.305677224971,1396
2271.180411124348,1442
2273.0547129687766,1409
2274.9285830379076,1424
2276.8020216114737,1445
2278.6750289692845,1408
2280.5476053912294,1448
2282.4197511572766,1469
2284.2914665474727,1454
2286.162751841943,1502
2288.0336073208937,1458
2289.904033264608,1429
2291.774029953448,1412
2293.6435976678554,1490
2295.5127366883517,1425
2297.381447295534,1459
2299.2497297700825,1371
2301.1175843927526,1362
2302.9850114443825,1378
2304.852011205885,1410
2306.7185839582553,1278
2308.5847299825664,1280
2310.4504495599676,1251
2312.3157429716925,1261
2314.1806104990483,1345
2316.0450524234247,1268
2317.9090690262888,1217
2319.772660589186,1242
2321.635827393742,1255
2323.498569721661,1289
2325.3608878547248,1264
2327.2227820747967,1280
2329.0842526638157,1250
2330.945299903803,1233
2332.805924076857,1260
2334.6661254651535,1280
2336.525904350951,1277
2338.3852610165827,1220
2340.244195744464,1206
2342.102708817088,1168
2343.9608005170253,1269
2345.8184711269287,1287
2347.675720929526,1298
2349.532550207628,1240
2351.38895924412,1304
2353.24494832197,1279
2355.100517724223,1285
2356.955667734004,1295
2358.810398634514,1304
2360.664710709037,1357
2362.5186042409337,1254
2364.3720795136437,1260
2366.225136810686,1219
2368.0777764156583,1288
2369.929998612237,1222
2371.7818036841777,1211
2373.633191915315,1262
2375.484163589562,1333
2377.3347189909114,1239
2379.184858403434,1250
2381.03458211128,1254
2382.8838903986775,1236
2384.732783549936,1279
2386.5812618494406,1262
2388.4293255816588,1254
2390.2769750311327,1250
2392.1242104824883,1238
2393.971032220427,1247
2395.8174405297295,1242
2397.6634356952563,1249
2399.509018001947,1247
2401.3541877348193,1287
2403.1989451789705,1232
2405.043290619576,1230
2406.8872243418905,1243
2408.730746631247,1241
2410.5738577730594,1284
2412.4165580528183,1225
2414.258847756095,1271
2416.100727168537,1229
2417.9421965758734,1252
2419.783256263912,1260
2421.623906518538,1296
2423.4641476257157,1249
2425.303979871491,1275
2427.143403541984,1260
2428.9824189233977,1238
2430.821026302012,1318
2432.6592259641866,1260
2434.497018196361,1204
2436.33440328505,1237
2438.171381516851,1283
2440.00795317844,1230
2441.844118556569,1262
2443.6798779380724,1239
2445.5152316098606,1324
2447.3501798589255,1296
2449.1847229723357,1249
2451.0188612372403,1264
2452.8525949408663,1257
2454.6859243705203,1253
2456.518849813587,1282
2458.3513715575314,1223
2460.183489889895,1275
2462.015205098301,1294
2463.8465174704493,1260
2465.67742729412,1281
2467.5079348571717,1305
2469.338040447542,1221
2471.1677443532476,1196
2472.9970468623833,1175
2474.825948263123,1182
2476.6544488437207,1232
2478.482548892508,1186
2480.310248697896,1232
2482.137548548374,1215
2483.9644487325118,1255
2485.790949538956,1240
2487.617051256433,1224
2489.44275417375,1233
2491.26805857979,1263
2493.0929647635157,1248
2494.917473013971,1253
2496.741583620276,1243
2498.5652968716304,1288
2500.3886130573137,1252
2502.2115324666834,1259
2504.0340553891765,1286
2505.856182114308,1259
2507.6779129316733,1266
2509.499248130945,1289
2511.3201880018764,1295
2513.140732834298,1239
2514.9608829181198,1229
2516.780638543331,1264
2518.6,1225
2520.418967578273,1232
2522.237541568376,1277
2524.0557222606144,1257
2525.8735099453706,1250
2527.6909049131086,1248
2529.507907454368,1218
2531.32451785977,1223
2533.140736420014,1251
2534.9565634258774,1200
2536.771999168218,1244
2538.5870439379714,1222
2540.4016980261526,1260
2542.2159617238544,1242
2544.02983532225,1235
2545.8433191125914,1226
2547.656413386209,1237
2549.4691184345115,1256
2551.2814345489874,1253
2553.093362021204,1271
2554.904901142808,1223
2556.716052205523,1248
2558.526815501153,1236
2560.3371913215824,1236
2562.147179958771,1197
2563.956781704761,1268
2565.7659968516705,1266
2567.5748256916986,1282
2569.3832685171224,1263
2571.1913256202984,1209
2572.9989972936614,1222
2574.806283829725,1258
2576.613185521084,1288
2578.4197026604074,1237
2580.2258355404483,1242
2582.031584454035,1259
2583.836949694077,1339
2585.6419315535613,1270
2587.4465303255533,1290
2589.2507463032002,1269
2591.0545797797245,1285
2592.8580310484303,1259
2594.6611004026995,1293
2596.463788135992,1284
2598.266094541849,1308
2600.0680199138874,1259
2601.869564545807,1257
2603.670728731383,1304
2605.4715127644704,1330
2607.2719169390048,1282
2609.071941548998,1304
2610.8715868885433,1249
2612.670853251811,1281
2614.469740933052,1242
2616.268250226594,1304
2618.0663814268455,1280
2619.864134828292,1216
2621.6615107255006,1261
2623.458509413115,1362
2625.2551311858597,1248
2627.0513763385347,1253
2628.8472451660223,1286
2630.6427379632833,1256
2632.4378550253564,1244
2634.232596647359,1266
2636.026963124488,1276
2637.8209547520187,1275
2639.6145718253065,1279
2641.407814639785,1254
2643.200683490966,1245
2644.9931786744414,1304
2646.7853004858807,1239
2648.577049221034,1255
2650.3684251757277,1314
2652.1594286458712,1273
2653.9500599274484,1300
2655.740319316525,1263
2657.5302071092437,1260
2659.3197236018286,1218
2661.10886909058,1221
2662.8976438718782,1258
2664.686048242183,1229
2666.4740824980327,1256
2668.2617469360443,1233
2670.0490418529134,1198
2671.8359675454153,1225
2673.622524310403,1262
2675.408712444811,1244
2677.1945322456495,1300
2678.979984010009,1258
2680.76506803506,1284
2682.5497846180497,1229
2684.334134056306,1223
2686.1181166472343,1222
2687.9017326883213,1252
2689.6849824771293,1324
2691.4678663113013,1258
2693.2503844885596,1304
2695.032537306705,1344
2696.8143250636167,1295
2698.5957480572542,1337
2700.3768065856534,1287
2702.1575009469316,1254
2703.937831439283,1259
2705.717798360982,1260
2707.4974020103837,1260
2709.276642685917,1251
2711.055520686095,1286
2712.834036309506,1227
2714.612189854819,1299
2716.389981620782,1284
2718.1674119062204,1248
2719.944481010041,1220
2721.721189231226,1282
2723.4975368688415,1226
2725.273524222027,1240
2727.0491515900053,1259
2728.824419272075,1266
2730.5993275676146,1296
2732.3738767760838,1255
2734.148067197016,1272
2735.921899130031,1229
2737.6953728748194,1228
2739.468488731156,1205
2741.2412469988926,1251
2743.0136479779617,1246
2744.785691968372,1266
2746.5573792702116,1255
2748.3287101836504,1207
2750.099685008934,1225
2751.870304046388,1224
2753.640567596418,1191
2755.4104759595057,1236
2757.1800294362156,1266
2758.949228327187,1242
2760.7180729331412,1266
2762.486563554877,1270
2764.254700493272,1321
2766.022484049284,1252
2767.789914523947,1262
2769.5569922183786,1256
2771.3237174337705,1242
2773.090090471394,1230
2774.8561116326036,1218
2776.6217812188274,1250
2778.3870995315756,1266
2780.1520668724356,1242
2781.9166835430747,1194
2783.6809498452394,1245
2785.444866080754,1299
2787.2084325515225,1218
2788.971649559527,1211
2790.73451740683,1221
2792.4970363955713,1234
2794.2592068279705,1257
2796.0210290063264,1204
2797.7825032330147,1263
2799.543629810493,1243
2801.304409041296,1257
2803.0648412280366,1237
2804.8249266734088,1274
2806.5846656801846,1244
2808.344058551212,1250
2810.1031055894246,1259
2811.8618070978273,1236
2813.6201633795085,1269
2815.378174737636,1298
2817.1358414754536,1210
2818.893163896285,1262
2820.6501423035334,1252
2822.4067770006814,1226
2824.1630682912883,1263
2825.9190164789957,1238
2827.6746218675207,1197
2829.429884760661,1220
2831.184805462294,1230
2832.9393842763743,1275
2834.693621506936,1235
2836.4475174580916,1209
2838.201072434034,1251
2839.954286739034,1260
2841.707160677441,1254
2843.459694553685,1239
2845.2118886722724,1209
2846.96374333779,1255
2848.7152588549034,1196
2850.4664355283567,1241
2852.217273662973,1292
2853.9677735636546,1239
2855.7179355353833,1213
2857.4677598832186,1251
2859.217246912299,1215
2860.9663969278427,1212
2862.715210235146,1214
2864.4636871395846,1168
2866.211827946614,1260
2867.9596329617652,1230
2869.7071024906536,1223
2871.4542368389684,1229
2873.20103631248,1234
2874.947501217038,1260
2876.6936318585695,1243
2878.4394285430812,1258
2880.1848915766604,1214
2881.9300212654707,1294
2883.6748179157553,1230
2885.4192818338374,1243
2887.1634133261173,1258
2888.907212699077,1241
2890.6506802592744,1237
2892.393816313348,1277
2894.1366211680142,1242
2895.8790951300693,1231
2897.621238506388,1222
2899.363051603925,1272
2901.1045347297118,1209
2902.8456881908596,1220
2904.58651229456,1245
2906.327007348081,1254
2908.067173658772,1235
2909.8070115340597,1285
2911.5465212814497,1224
2913.285703208527,1240
2915.0245576229563,1257
2916.7630848324807,1180
2918.5012851449196,1238
2920.2391588681758,1182
2921.976706310227,1240
2923.7139277791334,1289
2925.4508235830313,1193
2927.187394030137,1262
2928.923639428745,1319
2930.6595600872306,1255
2932.395156314046,1171
2934.1304284177218,1286
2935.8653767068713,1249
2937.6000014901815,1276
2939.3343030764227,1266
2941.068281774442,1243
2942.8019378931644,1245
2944.5352717415976,1233
2946.2682836288236,1267
2948.0009738640065,1284
2949.7333427563885,1264
2951.465390615289,1259
2953.1971177501086,1273
2954.9285244703265,1227
2956.6596110855,1230
2958.3903779052657,1211
2960.1208252393385,1222
2961.8509533975125,1238
2963.5807626896617,1261
2965.3102534257378,1246
2967.0394259157715,1199
2968.768280469873,1236
2970.496817398232,1249
2972.2250370111146,1232
2973.952939618869,1273
2975.6805255319196,1284
2977.4077950607707,1252
2979.134748516006,1283
2980.861386208289,1256
2982.587708448359,1221
2984.313715547037,1264
2986.039407815222,1230
2987.764785563891,1210
2989.489849104102,1254
2991.2145987469908,1296
2992.9390348037705,1265
2994.6631575857346,1308
2996.3869674042576,1274
2998.1104645707887,1329
2999.83364939686,1239
3001.5565221940783,1268
3003.2790832741334,1202
3005.0013329487924,1186
3006.7232715298996,1234
3008.4448993293804,1280
3010.166216659239,1220
3011.887223831558,1177
3013.607921158498,1309
3015.3283089522993,1252
3017.0483875252826,1274
3018.7681571898443,1254
3020.4876182584626,1238
3022.2067710436927,1220
3023.9256158581707,1282
3025.644153014609,1237
3027.362382825801,1245
3029.0803056046193,1172
3030.797921664012,1209
3032.5152313170106,1224
3034.2322348767225,1294
3035.9489326563353,1260
3037.665324969115,1283
3039.3814121284063,1244
3041.097194447633,1203
3042.812672240299,1247
3044.5278458199855,1244
3046.2427155003525,1198
3047.9572815951406,1217
3049.671544418167,1242
3051.38550428333,1260
3053.0991615046073,1254
3054.812516396051,1211
3056.5255692717974,1273
3058.2383204460575,1277
3059.9507702331257,1292
3061.662918947372,1310
3063.3747669032446,1223
3065.0863144152736,1261
3066.7975617980674,1189
3068.508509366309,1208
3070.219157434767,1263
3071.9295063182844,1264
3073.639556331785,1256
3075.3493077902704,1230
3077.058761008821,1242
3078.7679163025964,1248
3080.476773986837,1231
3082.1853343768594,1220
3083.89359778806,1207
3085.6015645359153,1227
3087.3092349359786,1182
3089.016609303884,1235
3090.7236879553434,1240
3092.4304712061476,1228
3094.136959372166,1251
3095.843152769349,1280
3097.5490517137237,1261
3099.2546565213966,1208
3100.959967508554,1232
3102.66498499146,1223
3104.3697092864577,1257
3106.0741407099695,1213
3107.778279578498,1192
3109.482126208622,1166
3111.1856809170004,1242
3112.8889440203716,1191
3114.5919158355528,1192
3116.294596679439,1224
3117.996986869006,1199
3119.6990867213062,1239
3121.4008965534726,1216
3123.102416682717,1231
3124.803647426329,1243
3126.5045891016784,1248
3128.205242026213,1203
3129.90560651746,1237
3131.605682893025,1184
3133.3054714705922,1243
3135.0049725679282,1216
3136.7041865028714,1248
3138.4031135933465,1213
3140.101754157353,1240
3141.800108512971,1264
3143.498176978357,1225
3145.1959598717494,1225
3146.8934575114636,1209
3148.5906702158954,1181
3150.2875983035183,1139
3151.9842420928853,1144
3153.680601902627,1194
3155.376678051456,1231
3157.07247085816,1229
3158.767980641609,1218
3160.463207720748,1212
3162.158152414606,1250
3163.8528150422862,1223
3165.5471959229726,1167
3167.2412953759303,1249
3168.9351137204976,1187
3170.628651276098,1216
3172.3219083622307,1205
3174.014885298474,1240
3175.707582404485,1154
3177.4000000000005,1224
3179.092138404835,1248
3180.7839979388846,1245
3182.47557892212,1244
3184.166881674594,1299
3185.8579065164386,1229
3187.5486537678626,1220
3189.2391237491547,1207
3190.9293167806827,1206
3192.6192331828934,1214
3194.3088732763117,1169
3195.998237381542,1185
3197.687325819268,1210
3199.376138910251,1188
3201.064676975334,1157
3202.7529403354347,1189
3204.4409293115523,1224
3206.1286442247647,1181
3207.816085396229,1195
3209.5032531471825,1198
3211.190147798936,1205
3212.8767696728846,1233
3214.5631190905015,1226
3216.2491963733373,1207
3217.9350018430214,1187
3219.6205358212637,1191
3221.305798629851,1205
3222.990790590651,1140
3224.6755120256103,1154
3226.359963256751,1186
3228.0441446061795,1182
3229.7280563960758,1173
3231.411698948703,1179
3233.0950725863995,1197
3234.778177631587,1204
3236.461014406761,1241
3238.1435832345005,1200
3239.8258844374595,1226
3241.507918338374,1224
3243.1896852600576,1223
3244.8711855254023,1256
3246.552419457381,1251
3248.233387379042,1146
3249.914089613516,1220
3251.59452648401,1220
3253.274698313813,1168
3254.95460542629,1195
3256.6342481448855,1177
3258.313626793125,1189
3259.9927416946084,1179
3261.6715931730196,1168
3263.3501815521176,1169
3265.0285071557437,1189
3266.706570307815,1253
3268.3843713323286,1217
3270.0619105533615,1210
3271.739188295068,1199
3273.4162048816834,1206
3275.0929606375184,1193
3276.769455886966,1170
3278.445690954498,1230
3280.1216661646613,1187
3281.797381842087,1220
3283.4728383114807,1189
3285.1480358976296,1224
3286.8229749253996,1176
3288.4976557197333,1170
3290.172078605655,1210
3291.846243908266,1185
3293.5201519527463,1162
3295.193803064357,1154
3296.8671975684374,1156
3298.5403357904024,1182
3300.21321805575,1211
3301.8858446900567,1209
3303.558216018975,1237
3305.23033236824,1242
3306.9021940636603,1203
3308.57380143113,1256
3310.2451547966184,1201
3311.916254486174,1224
3313.5871008259246,1301
3315.2576941420766,1238
3316.9280347609147,1250
3318.5981230088046,1207
3320.2679592121895,1156
3321.9375436975924,1163
3323.606876791612,1241
3325.27595882093,1183
3326.944790112305,1226
3328.6133709925753,1219
3330.2817017886573,1181
3331.949782827547,1168
3333.617614436319,1198
3335.2851969421245,1184
3336.952530672199,1168
3338.619615953853,1206
3340.286453114475,1188
3341.9530424815357,1230
3343.619384382583,1241
3345.2854791452437,1216
3346.951327097224,1207
3348.6169285663073,1227
3350.2822838803577,1201
3351.947393367319,1148
3353.61225735521,1172
3355.2768761721345,1219
3356.9412501462693,1235
3358.605379605873,1233
3360.2692648792827,1190
3361.9329062949146,1190
3363.596304181263,1215
