CollectionTime,9/26/2024 8:21:00 AM
ExposureUsed,3
CalibratedSpectrum
-962.7078968117929,549
-959.9714848408522,553
-957.2358232597828,580
-954.5009119013725,623
-951.7667505983302,614
-949.0333391832855,558
-946.3006774887896,575
-943.5687653473143,611
-940.837602591253,608
-938.1071890529199,554
-935.3775245645503,566
-932.6486089583007,559
-929.9204420662485,615
-927.1930237203925,645
-924.4663537526524,612
-921.7404319948689,586
-919.0152582788041,607
-916.2908324361409,652
-913.5671542984834,629
-910.8442236973568,615
-908.1220404642074,580
-905.4006044304027,569
-902.679915427231,583
-899.959973285902,566
-897.2407778375464,626
-894.5223289132158,600
-891.8046263438832,556
-889.0876699604426,559
-886.3714595937089,557
-883.6559950744183,586
-880.9412762332282,622
-878.2273029007168,529
-875.5140749073835,547
-872.8015920836489,550
-870.0898542598545,571
-867.3788612662631,578
-864.6686129330585,578
-861.9591090903457,536
-859.2503495681506,518
-856.5423341964203,541
-853.8350628050229,552
-851.1285352237478,528
-848.4227512823054,606
-845.7177108103272,592
-843.0134136373656,609
-840.3098595928943,613
-837.6070485063082,595
-834.9049802069229,603
-832.2036545239757,593
-829.5030712866244,634
-826.8032303239481,589
-824.1041314649472,596
-821.4057745385428,541
-818.7081593735775,559
-816.0112857988148,558
-813.3151536429393,602
-810.6197627345566,606
-807.9251129021936,566
-805.2312039742981,628
-802.5380357792392,590
-799.8456081453069,587
-797.1539209007124,618
-794.462973873588,606
-791.772766891987,624
-789.083299783884,622
-786.3945723771743,656
-783.7065844996748,600
-781.0193359791231,621
-778.3328266431781,676
-775.6470563194197,612
-772.9620248353489,594
-770.2777320183878,589
-767.5941776958798,564
-764.9113616950891,563
-762.2292838432011,553
-759.5479439673222,585
-756.8673418944801,651
-754.1874774516235,635
-751.5083504656222,578
-748.8299607632671,590
-746.15230817127,648
-743.475392516264,630
-740.7992136248035,608
-738.1237713233636,568
-735.4490654383407,587
-732.7750957960521,573
-730.1018622227365,597
-727.4293645445534,620
-724.7576025875837,581
-722.0865761778291,632
-719.4162851412126,608
-716.7467293035781,683
-714.0779084906909,759
-711.409822528237,649
-708.7424712418238,608
-706.0758544569796,671
-703.4099719991541,640
-700.7448236937178,625
-698.0804093659622,652
-695.4167288411002,650
-692.7537819442656,623
-690.0915685005134,644
-687.4300883348199,684
-684.7693412720819,660
-682.1093271371178,610
-679.4500457546669,642
-676.7914969493897,655
-674.1336805458676,619
-671.4765963686034,617
-668.8202442420206,643
-666.1646239904642,613
-663.5097354382001,614
-660.8555784094151,674
-658.2021527282176,607
-655.5494582186366,616
-652.8974947046223,686
-650.2462620100463,723
-647.5957599587009,684
-644.9459883742998,727
-642.2969470804776,705
-639.6486359007902,634
-637.0010546587141,609
-634.3542031776476,596
-631.7080812809096,609
-629.0626887917401,743
-626.4180255333008,789
-623.7740913286734,703
-621.1308860008619,686
-618.4884093727904,628
-615.8466612673046,693
-613.2056415071715,675
-610.5653499150785,709
-607.9257863136347,706
-605.28695052537,670
-602.6488423727357,751
-600.0114616781036,784
-597.3748082637674,852
-594.7388819519412,857
-592.1036825647604,731
-589.4692099242818,840
-586.8354638524829,893
-584.2024441712624,827
-581.5701507024403,835
-578.9385832677575,785
-576.3077416888759,812
-573.6776257873787,800
-571.0482353847704,736
-568.4195703024757,714
-565.7916303618415,746
-563.164415384135,742
-560.5379251905453,715
-557.9121596021815,709
-555.2871184400748,731
-552.6628015251767,782
-550.0392086783606,806
-547.4163397204204,803
-544.794194472071,806
-542.1727727539491,767
-539.5520743866118,837
-536.9320991905377,856
-534.3128469861261,912
-531.6943175936979,872
-529.0765108334947,939
-526.4594265256793,1054
-523.8430644903358,1291
-521.2274245474689,1356
-518.612506517005,1433
-515.9983102187913,1535
-513.3848354725959,1766
-510.77208209810846,1776
-508.16004991493924,1882
-505.5487387426199,1911
-502.9381484006032,1767
-500.3282787082628,1496
-497.71912948489364,1273
-495.1107005497117,1137
-492.5029917218539,1107
-489.8960028203786,970
-487.28973366426493,873
-484.68418407241325,829
-482.07935386364494,907
-479.47524285670266,881
-476.87185087025,905
-474.2691777228715,918
-471.66722323307334,888
-469.0659872192821,877
-466.4654694998459,895
-463.86566989303384,831
-461.26658821703614,927
-458.66822428996414,968
-456.07057792985,943
-453.4736489546475,964
-450.877437182231,946
-448.28194243039627,878
-445.68716451686,864
-443.09310325926003,856
-440.49975847515555,863
-437.9071299820263,929
-435.31521759727354,933
-432.72402113821954,1056
-430.13354042210767,901
-427.5437752661022,886
-424.95472548728867,970
-422.36639090267386,1035
-419.7787713291855,982
-417.1918665836721,1042
-414.60567648290385,1063
-412.0202008435715,1044
-409.4354394822874,1038
-406.8513922155845,1051
-404.26805885991723,1023
-401.685439231661,1002
-399.103533147112,951
-396.522340422488,1013
-393.9418608739278,994
-391.3620943174908,970
-388.7830405691583,1058
-386.2046994448317,885
-383.6270707603344,856
-381.05015433141045,949
-378.473949973725,824
-375.8984575028645,778
-373.32367673433623,759
-370.74960748356875,730
-368.1762495659117,662
-365.60360279663576,742
-363.03166699093265,798
-360.4604419639154,754
-357.8899275306178,665
-355.32012350599507,626
-352.7510297049233,607
-350.1826459421999,583
-347.61497203254316,573
-345.04800779059235,622
-342.4817530309082,672
-339.91620756797226,669
-337.35137121618743,658
-334.7872437898774,696
-332.22382510328725,903
-329.66111497058273,865
-327.09911320585127,619
-324.53781962310075,612
-321.9772340362607,653
-319.4173562591816,661
-316.8581861056348,607
-314.2997233893127,629
-311.7419679238294,649
-309.1849195227194,629
-306.62857799943856,597
-304.0729431673641,765
-301.51801483979375,955
-298.963792829947,852
-296.41027695096386,786
-293.85746701590574,793
-291.3053628377552,828
-288.7539642294155,911
-286.2032710037115,1087
-283.65328297338897,1041
-281.1039999511146,1221
-278.5554217494762,1447
-276.007548180983,1185
-273.4603790580651,923
-270.9139141930734,998
-268.3681533982807,1021
-265.8230964858798,1137
-263.27874326798565,967
-260.7350935566336,907
-258.1921471637804,1152
-255.6499039013039,1407
-253.10836358100266,1025
-250.56752601459698,968
-248.02739101372765,1141
-245.48795838995704,1355
-242.94922795476816,1147
-240.41119951956557,958
-237.8738728956746,1019
-235.33724789434166,1158
-232.80132432673452,1247
-230.2661020039418,1052
-227.73158073697357,1006
-225.19776033676033,1228
-222.66464061415422,1307
-220.1322213799284,1110
-217.60050244477725,1081
-215.06948361931552,1353
-212.53916471408013,1717
-210.00954553952818,1939
-207.48062590603843,1426
-204.9524056239104,1111
-202.4248845033651,1326
-199.8980623545441,1622
-197.37193898751036,1660
-194.84651421224817,1338
-192.32178783866232,1234
-189.79775967657952,1343
-187.27442953574644,1620
-184.7517972258321,1595
-182.2298625564256,1340
-179.7086253370378,1344
-177.18808537710026,1713
-174.66824248596583,2035
-172.14909647290835,2332
-169.6306471471229,1760
-167.11289431772548,1335
-164.59583779375328,1481
-162.07947738416453,2294
-159.5638128978386,2452
-157.04884414357605,2402
-154.53457093009854,2048
-152.02099306604828,1644
-149.50811035998936,1678
-146.99592262040665,1909
-144.48442965570587,2584
-141.97363127421409,3343
-139.46352728417958,3246
-136.95411749377126,2798
-134.44540171107985,2239
-131.93737974411636,1787
-129.43005140081357,2310
-126.92341648902493,3866
-124.41747481652521,5897
-121.91222619101006,6437
-119.40767042009657,5625
-116.90380731132257,4231
-114.40063667214702,2971
-111.8981583099503,2459
-109.3963720320337,3596
-106.89527764561933,6032
-104.39487495785067,10947
-101.89516377579241,14806
-99.39614390642998,15812
-96.89781515667039,15896
-94.40017733334128,14314
-91.90323024319173,12409
-89.40697369289148,12380
-86.91140748903172,12863
-84.41653143812482,16778
-81.92234534660395,21442
-79.42884902082358,23433
-76.93604226705907,20228
-74.4439248915071,18545
-71.95249670028534,22572
-69.46175749943245,34858
-66.97170709490854,50742
-64.48234529259423,57215
-61.99367189829195,50466
-59.50568671772464,42122
-57.01838955653636,40156
-54.53178022029283,32803
-52.045858514480074,29091
-49.560624244506016,24928
-47.07607721569923,22547
-44.59221723330904,18012
-42.10904410250669,17866
-39.62655762838392,16300
-37.14475761595372,22275
-34.66364387015028,27304
-32.18321619582866,36214
-29.70347439776515,48349
-27.224418280657005,59494
-24.74604764912317,65026
-22.26836230770266,65026
-19.7913620608565,65026
-17.315046712966478,65026
-14.83941606833514,65026
-12.36446993118659,65026
-9.89020810566592,65026
-7.416630395839093,65026
-4.94373660569363,65026
-2.471526539137585,65026
-6.821210263296962E-13,65026
2.47084320796705,65026
4.941003281093458,65026
7.410480415786196,65026
9.879274808531363,65026
12.347386655893956,65026
14.814816154518212,65026
17.28156350112681,65026
19.74762889252179,65026
22.21301252558385,25333
24.67771459727237,7848
27.141735304626195,8910
29.605074844762612,9213
32.06773341487792,6945
34.52971121224755,5907
36.99100843422559,6769
39.45162527824516,7003
41.91156194181792,6630
44.370818622535126,5366
46.82939551806646,4911
49.287292826160524,4751
51.74451074464503,4679
54.201049471426245,4174
56.65690920448981,4217
59.112090141899785,4379
61.56659248179983,3998
64.02041642241159,3436
66.4735621620365,4032
68.92602989905402,5599
71.37781983192338,5609
73.82893215918205,4815
76.27936707944684,3609
78.72912479141326,3299
81.17820549385567,3507
83.62660938562783,3381
86.07433666566146,3716
88.5213875329681,2877
90.96776218663751,2504
93.41346082583925,2285
95.85848364982041,2461
98.30283085790859,3170
100.7465026495089,3326
103.18949922410604,2700
105.63182078126385,2151
108.07346752062438,2502
110.51443964190923,2067
112.95473734491827,2132
115.39436082953114,2587
117.83331029570547,2716
120.27158594347827,2067
122.7091879729652,2051
125.1461165843615,2161
127.58237197794062,2931
130.01795435405518,2430
132.4528639131364,2338
134.88710085569494,2952
137.32066538231982,2282
139.75355769367923,1732
142.1857779905207,1935
144.61732647366978,2219
147.04820334403132,2217
149.47840880258934,1629
151.90794305040674,1784
154.33680628862487,1851
156.76499871846443,1952
159.19252054122433,1942
161.61937195828352,2063
164.04555317109896,2224
166.47106438120693,2226
168.89590579022217,2313
171.320077599839,2482
173.7435800118302,2841
176.16641322804742,3000
178.58857745042144,2697
181.01007288096173,2493
183.43089972175687,2605
185.85105817497413,2311
188.27054844285988,2359
190.6893707277394,2554
193.10752523201643,2841
195.5250121581745,2753
197.9418317087751,2427
200.3579840864594,2611
202.7734694939469,2758
205.18828813403627,2701
207.6024402096051,2680
210.01592592360964,2706
212.42874547908548,2477
214.84089907914665,2520
217.2523869269868,2674
219.66320922587727,2461
222.0733661791695,2428
224.48285799029293,2493
226.8916848627572,2575
229.29984700014882,2569
231.7073446061355,2557
234.11417788446204,2555
236.520347038953,2594
238.92585227351185,2687
241.33069379212054,2649
243.73487179884035,2591
246.1383864978112,2590
248.541238093252,2682
250.9434267894609,2684
253.34495279081432,2743
255.74581630176783,2698
258.1460175268563,2691
260.54555667069314,2933
262.9444339379703,3092
265.3426495334594,2949
267.7402036620107,2621
270.1370965285529,2640
272.53332833809407,2502
274.9288992957214,2484
277.32380960660055,2422
279.718059475976,2342
282.1116491091717,2275
284.5045787115897,2314
286.89684848871195,2393
289.2884586460981,2269
291.67940938938807,2357
294.0697009242996,2448
296.4593334566299,2582
298.84830719225477,2532
301.23662233712923,2458
303.6242790972866,2358
306.01127767884,2310
308.39761828798066,2286
310.78330113097934,2120
313.16832641418534,2055
315.5526943440269,2101
317.9364051270112,2215
320.3194589697242,2153
322.70185607883093,2119
325.0835966610754,2044
327.4646809232805,2077
329.8451090723478,1994
332.2248813152577,2135
334.6039978590701,2196
336.9824589109231,2016
339.36026467803447,1928
341.7374153677,2005
344.113911187295,1968
346.48975234427337,2061
348.8649390461686,2020
351.2394715005918,1983
353.61334991523415,1902
355.9865744978655,1948
358.35914545633375,1971
360.73106299856715,1909
363.10232733257146,2001
365.47293866643247,1982
367.84289720831396,1888
370.2122031664593,1906
372.5808567491905,1952
374.9488581649083,1821
377.31620762209275,1823
379.6829053293021,1791
382.0489514951745,1820
384.4143463284262,1881
386.7790900378528,1813
389.14318283232853,1774
391.50662492080653,1914
393.86941651231916,1993
396.23155781597745,2015
398.5930490409713,1813
400.9538903965696,1786
403.3140820921202,1814
405.6736243370498,1816
408.03251734086336,1776
410.3907613131465,1847
412.74835646356166,1826
415.10530300185144,1753
417.4616011378372,1858
419.81725108141893,1818
422.1722530425758,1769
424.5266072313656,1873
426.880313857925,1736
429.2333731324701,1678
431.58578526529516,1673
433.9375504667738,1638
436.2886689473588,1700
438.63914091758113,1702
440.9889665880513,1658
443.33814616945835,1675
445.68667987257015,1736
448.03456790823395,1747
450.3818104873759,1714
452.72840782100013,1605
455.07436012019105,1675
457.41966759611057,1598
459.7643304600007,1744
462.10834892318155,1699
464.4517231970525,1766
466.79445349309174,1712
469.1365400228566,1710
471.4779829979826,1712
473.81878263018564,1684
476.15893913125876,1782
478.4984527130747,1995
480.8373235875855,1908
483.17555196682144,1896
485.5131380628919,1892
487.8500820879857,1877
490.1863842543697,1942
492.52204477439034,2049
494.8570638604725,2290
497.1914417251204,2575
499.52517858091653,3029
501.85827464052306,3579
504.19073011668036,4028
506.5225452222086,3953
508.85372017000566,4100
511.18425517304956,4544
513.514150444396,5967
515.8434061971808,7327
518.1720226446176,7830
520.4999999999999,7188
522.8273384766991,6694
525.1540382881666,5770
527.480099647932,4727
529.8055227696037,3379
532.1303078668694,2494
534.454455153496,2177
536.777964843328,2014
539.1008371502907,1962
541.4230722883866,1964
543.744670471698,1861
546.0656319143858,1862
548.3859568306899,1861
550.7056454349294,1830
553.0246979415016,1844
555.3431145648834,1796
557.6608955196306,1721
559.978041020377,1836
562.2945512818363,1846
564.6104265188006,1744
566.9256669461412,1694
569.2402727788082,1845
571.5542442318302,1936
573.8675815203156,1789
576.1802848594508,1766
578.4923544645015,1782
580.8037905508126,1788
583.114593333807,1736
585.4247630289875,1788
587.7342998519354,1627
590.0432040183106,1744
592.3514757438526,1698
594.6591152443794,1713
596.9661227357875,1772
599.2724984340531,1665
601.578242555231,1733
603.8833553154542,1780
606.1878369309362,1755
608.4916876179676,1709
610.7949075929192,1759
613.0974970722403,1722
615.3994562724587,1767
617.7007854101818,1712
620.0014847020951,1677
622.3015543649641,1731
624.6009946156324,1672
626.8998056710224,1674
629.1979877481361,1707
631.4955410640538,1696
633.7924658359349,1731
636.0887622810175,1690
638.3844306166192,1668
640.6794710601358,1716
642.9738838290426,1807
645.2676691408932,1758
647.5608272133207,1725
649.853358264037,1763
652.1452625108324,1733
654.4365401715764,1748
656.7271914642178,1923
659.0172166067838,1915
661.3066158173809,1785
663.5953893141935,1688
665.8835373154867,1788
668.1710600396028,1846
670.4579577049639,1885
672.7442305300709,1771
675.0298787335033,1759
677.3149025339197,1783
679.599302150058,1730
681.8830778007342,1809
684.1662297048437,1855
686.4487580813608,1779
688.7306631493387,1767
691.0119451279091,1822
693.2926042362834,1784
695.5726406937516,1788
697.8520547196814,1777
700.1308465335215,1740
702.4090163547982,1685
704.6865644031171,1774
706.9634908981619,1802
709.2397960596965,1750
711.5154801075631,1740
713.7905432616823,1814
716.0649857420548,1757
718.3388077687592,1758
720.612009561953,1733
722.8845913418733,1753
725.1565533288352,1738
727.427895743234,1681
729.6986188055427,1710
731.9687227363137,1742
734.238207756178,1823
736.5070740858458,1766
738.7753219461066,1703
741.0429515578281,1758
743.3099631419569,1770
745.5763569195191,1716
747.8421331116193,1752
750.1072919394409,1729
752.3718336242467,1656
754.6357583873777,1757
756.8990664502545,1808
759.1617580343765,1679
761.423833361321,1718
763.6852926527457,1739
765.9461361303862,1726
768.206364016058,1759
770.4659765316536,1812
772.7249738991469,1819
774.9833563405886,1787
777.2411240781092,1817
779.4982773339183,1816
781.7548163303044,1806
784.010741289634,1769
786.2660524343538,1873
788.5207499869881,1866
790.7748341701416,1817
793.0283052064964,1796
795.2811633188143,1784
797.5334087299362,1820
799.7850416627813,1913
802.0360623403484,1777
804.2864709857143,1864
806.5362678220353,1823
808.7854530725468,1770
811.0340269605625,1805
813.2819897094754,1921
815.5293415427581,1824
817.77608268396,1798
820.0222133567116,1748
822.2677337847211,1845
824.5126441917765,1856
826.7569448017433,1792
829.0006358385675,1779
831.2437175262731,1799
833.4861900889629,1772
835.7280537508192,1695
837.9693087361026,1782
840.2099552691533,1804
842.4499935743896,1764
844.689423876309,1744
846.9282463994886,1764
849.1664613685833,1629
851.4040690083276,1725
853.6410695435349,1659
855.877463199097,1769
858.1132501999847,1797
860.3484307712487,1755
862.5830051380175,1805
864.8169735254988,1751
867.0503361589791,1685
869.2830932638243,1726
871.5152450654786,1698
873.7467917894654,1767
875.9777336613873,1841
878.2080709069252,1728
880.4378037518389,1781
882.666932421968,1897
884.8954571432301,1855
887.1233781416219,1798
889.3506956432192,1762
891.5774098741766,1770
893.803521060728,1766
896.0290294291852,1753
898.2539352059397,1816
900.4782386174619,1797
902.7019398903011,1809
904.925039251085,1721
907.147536926521,1714
909.3694331433943,1832
911.59072812857,1868
913.8114221089921,1839
916.0315153116827,1745
918.2510079637437,1745
920.4699002923547,1764
922.6881925247761,1806
924.905884888345,1836
927.1229776104793,1836
929.3394709186747,1726
931.555365040506,1845
933.7706602036275,1814
935.9853566357709,1743
938.1994545647489,1828
940.4129542184515,1818
942.6258558248488,1902
944.8381596119883,1827
947.0498658079974,1930
949.2609746410825,1930
951.4714863395287,1882
953.6814011316998,1805
955.8907192460387,1825
958.0994409110671,1845
960.3075663553858,1880
962.5150958076741,1839
964.7220294966913,1787
966.928367651274,1837
969.1341105003388,1825
971.3392582728806,1735
973.5438111979742,1752
975.747769504772,1799
977.9511334225061,1804
980.153903180487,1757
982.3560790081052,1718
984.5576611348289,1795
986.7586497902058,1758
988.9590452038618,1734
991.158847605503,1716
993.3580572249133,1657
995.5566742919558,1628
997.7546990365728,1629
999.952131688785,1568
1002.1489724786926,1532
1004.3452216364743,1521
1006.5408793923874,1480
1008.7359459767691,1482
1010.9304216200343,1462
1013.1243065526781,1460
1015.3176010052733,1529
1017.510305208472,1480
1019.7024193930064,1499
1021.8939437896848,1567
1024.0848786293977,1493
1026.2752241431122,1392
1028.4649805618747,1412
1030.6541481168115,1518
1032.842727039127,1398
1035.0307175601051,1373
1037.2181199111074,1347
1039.4049343235752,1374
1041.591161029029,1444
1043.7768002590683,1440
1045.9618522453698,1402
1048.1463172196918,1408
1050.3301954138697,1421
1052.513487059818,1453
1054.69619238953,1384
1056.8783116350783,1419
1059.0598450286152,1358
1061.2407928023704,1410
1063.4211551886528,1424
1065.6009324198508,1427
1067.780124728432,1342
1069.9587323469414,1338
1072.1367555080046,1339
1074.314194444325,1382
1076.4910493886855,1349
1078.667320573947,1361
1080.843008233051,1280
1083.0181125990161,1340
1085.1926339049414,1369
1087.3665723840027,1311
1089.5399282694575,1390
1091.7127017946405,1347
1093.8848931929647,1310
1096.0565026979243,1291
1098.2275305430899,1283
1100.3979769621128,1305
1102.567842188722,1289
1104.737126456726,1228
1106.9058300000124,1322
1109.0739530525475,1353
1111.2414958483764,1291
1113.4084586216231,1252
1115.5748416064907,1334
1117.7406450372605,1344
1119.9058691482942,1331
1122.0705141740304,1323
1124.2345803489884,1274
1126.3980679077658,1343
1128.5609770850388,1304
1130.7233081155623,1274
1132.8850612341707,1359
1135.0462366757774,1295
1137.2068346753745,1261
1139.3668554680326,1283
1141.526299288901,1305
1143.68516637321,1315
1145.8434569562655,1345
1148.001171273455,1265
1150.158309560244,1325
1152.3148720521767,1321
1154.470858984876,1335
1156.626270594044,1335
1158.7811071154629,1238
1160.9353687849912,1344
1163.089055838569,1314
1165.242168512213,1262
1167.3947070420209,1304
1169.5466716641677,1388
1171.6980626149075,1314
1173.8488801305748,1350
1175.9991244475814,1295
1178.1487958024186,1286
1180.2978944316555,1306
1182.4464205719428,1316
1184.5943744600072,1267
1186.7417563326567,1277
1188.8885664267755,1293
1191.0348049793297,1279
1193.1804722273619,1315
1195.325568407995,1357
1197.4700937584303,1370
1199.614048515948,1283
1201.7574329179074,1295
1203.900247201746,1273
1206.042491604982,1325
1208.1841663652099,1278
1210.3252717201053,1297
1212.465807907422,1321
1214.6057751649923,1326
1216.7451737307279,1284
1218.8840038426192,1376
1221.0222657387353,1325
1223.1599596572241,1332
1225.2970858363137,1322
1227.4336445143094,1382
1229.5696359295966,1372
1231.705060320639,1347
1233.8399179259786,1367
1235.9742089842384,1330
1238.107933734118,1312
1240.2410924143974,1293
1242.373685263935,1399
1244.5057125216676,1352
1246.6371744266116,1342
1248.7680712178621,1399
1250.898403134593,1343
1253.028170416058,1340
1255.1573733015875,1380
1257.2860120305932,1375
1259.4140868425648,1378
1261.54159797707,1343
1263.6685456737569,1335
1265.7949301723515,1402
1267.9207517126597,1346
1270.046010534565,1433
1272.1707068780306,1387
1274.2948409830983,1372
1276.4184130898889,1412
1278.541423438603,1511
1280.6638722695184,1410
1282.785759822993,1398
1284.9070863394636,1455
1287.0278520594447,1444
1289.1480572235314,1491
1291.2677020723963,1474
1293.3867868467923,1517
1295.5053117875495,1486
1297.623277135579,1501
1299.740683131868,1412
1301.8575300174857,1507
1303.973818033578,1467
1306.0895474213703,1523
1308.2047184221678,1551
1310.3193312773528,1534
1312.4333862283888,1619
1314.5468835168163,1560
1316.659823384255,1489
1318.7722060724045,1529
1320.8840318230418,1546
1322.9953008780249,1532
1325.1060134792888,1644
1327.2161698688478,1580
1329.3257702887959,1614
1331.4348149813054,1599
1333.5433041886276,1554
1335.6512381530933,1521
1337.7586171171101,1465
1339.8654413231675,1483
1341.9717110138317,1528
1344.0774264317488,1538
1346.1825878196432,1565
1348.2871954203192,1522
1350.3912494766587,1475
1352.4947502316231,1509
1354.5976979282532,1478
1356.7000928096686,1465
1358.8019351190665,1438
1360.9032250997243,1519
1363.0039629949988,1470
1365.1041490483235,1453
1367.2037835032133,1449
1369.3028666032606,1463
1371.401398592137,1473
1373.4993797135926,1506
1375.5968102114575,1463
1377.6936903296396,1497
1379.7900203121262,1435
1381.8858004029835,1502
1383.9810308463561,1466
1386.075711886469,1451
1388.1698437676241,1516
1390.2634267342032,1476
1392.356461030667,1437
1394.4489469015557,1457
1396.5408845914872,1426
1398.6322743451592,1451
1400.7231164073469,1426
1402.813411022907,1399
1404.903158436773,1439
1406.9923588939578,1403
1409.0810126395531,1445
1411.1691199187303,1438
1413.2566809767386,1477
1415.343696058907,1400
1417.4301654106425,1472
1419.5160892774315,1450
1421.6014679048399,1430
1423.6863015385125,1447
1425.7705904241707,1435
1427.8543348076178,1482
1429.9375349347342,1448
1432.0201910514802,1414
1434.102303403894,1488
1436.1838722380944,1506
1438.2648978002767,1470
1440.3453803367174,1464
1442.4253200937692,1454
1444.5047173178677,1469
1446.5835722555234,1478
1448.6618851533285,1486
1450.739656257952,1526
1452.8168858161434,1482
1454.8935740747306,1527
1456.96972128062,1549
1459.045327680797,1535
1461.120393522327,1572
1463.1949190523528,1588
1465.2689045180973,1538
1467.3423501668608,1539
1469.415256246024,1573
1471.4876230030463,1578
1473.559450685465,1698
1475.6307395408976,1651
1477.7014898170391,1617
1479.771701761665,1646
1481.8413756226287,1667
1483.9105116478618,1697
1485.9791100853772,1611
1488.0471711832643,1665
1490.1146951896926,1714
1492.1816823529098,1689
1494.2481329212433,1701
1496.3140471430984,1623
1498.3794252669609,1689
1500.4442675413939,1697
1502.5085742150404,1757
1504.572345536622,1755
1506.6355817549388,1750
1508.6982831188702,1720
1510.7604498773744,1762
1512.8220822794883,1767
1514.8831805743293,1729
1516.9437450110909,1750
1519.003775839048,1734
1521.0632733075522,1753
1523.1222376660367,1828
1525.1806691640113,1770
1527.2385680510652,1799
1529.2959345768668,1824
1531.3527689911643,1893
1533.4090715437833,1854
1535.4648424846291,1890
1537.5200820636855,1830
1539.5747905310159,1929
1541.6289681367616,1946
1543.6826151311434,2027
1545.7357317644614,2058
1547.7883182870937,1999
1549.8403749494987,2007
1551.8919020022113,2098
1553.9428996958477,2026
1555.9933682811015,2139
1558.0433080087469,2210
1560.0927191296346,2123
1562.1416018946961,2253
1564.1899565549415,2246
1566.2377833614592,2274
1568.2850825654164,2263
1570.3318544180606,2245
1572.3780991707158,2168
1574.423817074788,2139
1576.4690083817595,2054
1578.5136733431923,2009
1580.5578122107272,2033
1582.601425236085,2021
1584.6445126710646,1929
1586.6870747675434,1870
1588.7291117774776,1859
1590.7706239529034,1823
1592.8116115459347,1791
1594.8520748087658,1736
1596.8920139936686,1715
1598.9314293529933,1637
1600.9703211391711,1735
1603.008689604711,1666
1605.0465350022005,1604
1607.0838575843068,1580
1609.1206576037753,1576
1611.1569353134305,1582
1613.1926909661765,1525
1615.2279248149953,1511
1617.2626371129481,1530
1619.2968281131757,1515
1621.3304980688963,1453
1623.3636472334088,1442
1625.39627586009,1438
1627.428384202396,1396
1629.459972513861,1421
1631.4910410480993,1483
1633.5215900588028,1407
1635.551619799744,1393
1637.5811305247717,1383
1639.6101224878166,1367
1641.6385959428862,1396
1643.6665511440683,1359
1645.693988345528,1351
1647.7209078015112,1327
1649.7473097663405,1328
1651.7731944944203,1347
1653.7985622402307,1362
1655.823413258333,1336
1657.847747803366,1350
1659.8715661300494,1336
1661.8948684931793,1302
1663.9176551476316,1346
1665.9399263483624,1360
1667.9616823504057,1302
1669.982923408873,1293
1672.0036497789574,1283
1674.0238617159293,1275
1676.043559475138,1304
1678.0627433120121,1301
1680.081413482059,1363
1682.0995702408654,1362
1684.117213844096,1288
1686.134344547495,1330
1688.1509626068864,1263
1690.1670682781705,1248
1692.182661817329,1273
1694.1977434804217,1309
1696.2123135235875,1404
1698.226372203043,1367
1700.2399197750851,1338
1702.2529564960905,1365
1704.2654826225112,1320
1706.277498410882,1322
1708.2890041178139,1286
1710.2999999999988,1334
1712.3104863142066,1312
1714.3204633172854,1279
1716.329931266163,1271
1718.3388904178469,1303
1720.3473410294214,1338
1722.3552833580516,1297
1724.3627176609807,1301
1726.3696441955308,1287
1728.3760632191033,1283
1730.3819749891782,1230
1732.3873797633146,1344
1734.3922777991502,1316
1736.3966693544012,1265
1738.4005546868639,1306
1740.4039340544127,1349
1742.406807715001,1296
1744.4091759266616,1299
1746.4110389475054,1305
1748.4123970357223,1285
1750.413250449582,1267
1752.4135994474318,1255
1754.4134442876993,1286
1756.4127852288902,1285
1758.4116225295893,1268
1760.4099564484595,1198
1762.407787244244,1230
1764.405115175764,1240
1766.4019405019203,1359
1768.3982634816916,1216
1770.3940843741357,1333
1772.3894034383907,1238
1774.3842209336717,1270
1776.378537119274,1259
1778.372352254571,1281
1780.3656665990156,1257
1782.3584804121397,1279
1784.3507939535534,1238
1786.3426074829463,1235
1788.3339212600863,1246
1790.3247355448211,1266
1792.3150505970766,1250
1794.3048666768573,1238
1796.2941840442477,1280
1798.2830029594106,1307
1800.2713236825884,1253
1802.2591464741004,1211
1804.2464715943465,1230
1806.2332993038058,1244
1808.2196298630352,1250
1810.2054635326708,1240
1812.190800573428,1286
1814.175641246101,1270
1816.1599858115628,1251
1818.1438345307652,1296
1820.127187664738,1271
1822.1100454745924,1241
1824.092408221516,1230
1826.0742761667766,1188
1828.055649571721,1210
1830.0365286977735,1180
1832.0169138064398,1231
1833.9968051593014,1220
1835.9762030180214,1337
1837.9551076443408,1287
1839.9335193000788,1228
1841.9114382471344,1259
1843.888864747485,1302
1845.8657990631878,1292
1847.842241456378,1253
1849.8181921892697,1278
1851.7936515241558,1218
1853.7686197234098,1216
1855.7430970494815,1238
1857.7170837649014,1264
1859.6905801322787,1265
1861.6635864143004,1262
1863.6361028737338,1249
1865.608129773424,1282
1867.5796673762961,1195
1869.5507159453537,1214
1871.521275743678,1178
1873.4913470344313,1207
1875.4609300808534,1242
1877.4300251462632,1259
1879.3986324940588,1230
1881.366752387717,1275
1883.3343850907936,1304
1885.3015308669228,1283
1887.268189979819,1261
1889.2343626932739,1275
1891.2000492711595,1293
1893.1652499774254,1219
1895.1299650761011,1209
1897.0941948312952,1255
1899.0579395071945,1265
1901.0211993680641,1269
1902.98397467825,1305
1904.9462657021745,1208
1906.9080727043415,1271
1908.869395949332,1331
1910.8302357018065,1329
1912.790592226504,1295
1914.7504657882428,1264
1916.7098566519212,1242
1918.6687650825133,1247
1920.6271913450764,1263
1922.5851357047422,1291
1924.5425984267245,1319
1926.499579776314,1312
1928.4560800188833,1262
1930.4120994198802,1286
1932.367638244833,1332
1934.32269675935,1277
1936.2772752291175,1277
1938.231373919899,1291
1940.1849930975404,1339
1942.1381330279637,1288
1944.0907939771696,1268
1946.0429762112412,1263
1947.9946799963363,1257
1949.9459055986945,1296
1951.896653284633,1292
1953.8469233205478,1214
1955.7967159729142,1214
1957.7460315082863,1207
1959.6948701932974,1202
1961.6432322946594,1258
1963.5911180791632,1214
1965.5385278136787,1281
1967.4854617651545,1236
1969.4319202006182,1252
1971.377903387176,1240
1973.3234115920136,1301
1975.268445082395,1288
1977.2130041256642,1245
1979.1570889892423,1210
1981.1006999406304,1218
1983.04383724741,1197
1984.986501177238,1246
1986.928691997853,1246
1988.8704099770712,1275
1990.811655382789,1291
1992.7524284829801,1211
1994.692729545698,1263
1996.6325588390755,1193
1998.5719166313224,1215
2000.5108031907307,1235
2002.4492187856677,1207
2004.387163684583,1225
2006.3246381560011,1210
2008.2616424685298,1321
2010.1981768908527,1255
2012.1342416917332,1267
2014.069837140014,1185
2016.0049635046162,1227
2017.9396210545406,1209
2019.8738100588666,1226
2021.8075307867502,1217
2023.740783507431,1189
2025.6735684902228,1237
2027.6058860045214,1223
2029.5377363198004,1209
2031.4691197056118,1199
2033.4000364315875,1238
2035.3304867674374,1217
2037.260470982952,1197
2039.189989347998,1257
2041.1190421325232,1292
2043.047629606554,1206
2044.9757520401945,1210
2046.9034097036288,1241
2048.8306028671195,1145
2050.7573318010086,1196
2052.683596775716,1234
2054.609398061742,1204
2056.5347359296647,1264
2058.4596106501403,1247
2060.384022493906,1200
2062.3079717317764,1204
2064.231458634646,1171
2066.1544834734873,1228
2068.077046519352,1187
2069.99914804337,1189
2071.9207883167524,1215
2073.8419676107865,1180
2075.7626861968406,1167
2077.6829443463607,1196
2079.6027423308715,1205
2081.522080421977,1170
2083.440958891362,1247
2085.359378010786,1166
2087.2773380520907,1233
2089.194839287196,1241
2091.111881988101,1221
2093.0284664268825,1188
2094.9445928756973,1236
2096.86026160678,1245
2098.775472892446,1236
2100.690227005088,1272
2102.604524217178,1249
2104.5183648012676,1177
2106.431749029985,1222
2108.34467717604,1215
2110.2571495122206,1186
2112.169166311393,1200
2114.080727846503,1201
2115.9918343905747,1232
2117.902486216711,1227
2119.8126835980956,1214
2121.722426807987,1216
2123.6317161197285,1231
2125.5405518067364,1212
2127.448934142509,1273
2129.356863400624,1244
2131.264339854737,1308
2133.1713637785815,1192
2135.077935445972,1246
2136.9840551308002,1231
2138.889723107037,1288
2140.7949396487334,1224
2142.699705030018,1288
2144.6040195250994,1256
2146.507883408264,1245
2148.4112969538774,1229
2150.3142604363848,1210
2152.2167741303097,1206
2154.1188383102535,1228
2156.0204532508997,1206
2157.9216192270064,1238
2159.822336513414,1277
2161.7226053850413,1255
2163.622426116884,1240
2165.5217989840185,1240
2167.4207242616,1226
2169.319202224862,1255
2171.2172331491165,1228
2173.1148173097563,1244
2175.0119549822507,1208
2176.90864644215,1249
2178.8048919650823,1299
2180.7006918267534,1273
2182.596046302952,1227
2184.4909556695407,1238
2186.3854202024645,1275
2188.279440177746,1264
2190.173015871487,1286
2192.066147559868,1263
2193.958835519149,1210
2195.851080025667,1251
2197.7428813558417,1257
2199.6342397861667,1276
2201.5251555932186,1279
2203.415629053651,1267
2205.3056604441986,1234
2207.19525004167,1312
2209.084398122958,1264
2210.9731049650327,1264
2212.861370844941,1335
2214.749196039812,1245
2216.636580826851,1273
2218.523525483344,1298
2220.410030286655,1289
2222.296095514226,1282
2224.1817214435805,1239
2226.066908352319,1286
2227.951656518121,1305
2229.835966218746,1282
2231.71983773203,1267
2233.6032713358913,1274
2235.486267308324,1302
2237.3688259274036,1273
2239.2509474712824,1295
2241.132632218193,1253
2243.013880446447,1287
2244.8946924344323,1293
2246.7750684606203,1265
2248.6550088035574,1267
2250.534513741871,1239
2252.413583554265,1281
2254.292218519526,1278
2256.170418916517,1242
2258.0481850241786,1226
2259.925517121534,1328
2261.8024154876825,1337
2263.678880401803,1305
2265.5549121431536,1348
2267.430510991071,1301
2269.305677224971,1259
2271.180411124348,1267
2273.0547129687766,1257
2274.9285830379076,1302
2276.8020216114737,1274
2278.6750289692845,1229
2280.5476053912294,1272
2282.4197511572766,1249
2284.2914665474727,1257
2286.162751841943,1269
2288.0336073208937,1323
2289.904033264608,1266
2291.774029953448,1277
2293.6435976678554,1236
2295.5127366883517,1200
2297.381447295534,1257
2299.2497297700825,1208
2301.1175843927526,1201
2302.9850114443825,1154
2304.852011205885,1154
2306.7185839582553,1152
2308.5847299825664,1122
2310.4504495599676,1136
2312.3157429716925,1143
2314.1806104990483,1143
2316.0450524234247,1134
2317.9090690262888,1107
2319.772660589186,1116
2321.635827393742,1189
2323.498569721661,1174
2325.3608878547248,1119
2327.2227820747967,1149
2329.0842526638157,1135
2330.945299903803,1105
2332.805924076857,1083
2334.6661254651535,1113
2336.525904350951,1146
2338.3852610165827,1106
2340.244195744464,1139
2342.102708817088,1114
2343.9608005170253,1119
2345.8184711269287,1115
2347.675720929526,1112
2349.532550207628,1134
2351.38895924412,1095
2353.24494832197,1128
2355.100517724223,1070
2356.955667734004,1161
2358.810398634514,1135
2360.664710709037,1178
2362.5186042409337,1163
2364.3720795136437,1097
2366.225136810686,1165
2368.0777764156583,1172
2369.929998612237,1116
2371.7818036841777,1122
2373.633191915315,1137
2375.484163589562,1100
2377.3347189909114,1150
2379.184858403434,1086
2381.03458211128,1123
2382.8838903986775,1127
2384.732783549936,1113
2386.5812618494406,1157
2388.4293255816588,1120
2390.2769750311327,1189
2392.1242104824883,1133
2393.971032220427,1179
2395.8174405297295,1135
2397.6634356952563,1156
2399.509018001947,1148
2401.3541877348193,1124
2403.1989451789705,1140
2405.043290619576,1163
2406.8872243418905,1166
2408.730746631247,1109
2410.5738577730594,1172
2412.4165580528183,1157
2414.258847756095,1179
2416.100727168537,1113
2417.9421965758734,1134
2419.783256263912,1135
2421.623906518538,1171
2423.4641476257157,1159
2425.303979871491,1156
2427.143403541984,1195
2428.9824189233977,1110
2430.821026302012,1099
2432.6592259641866,1164
2434.497018196361,1119
2436.33440328505,1133
2438.171381516851,1128
2440.00795317844,1150
2441.844118556569,1136
2443.6798779380724,1131
2445.5152316098606,1137
2447.3501798589255,1166
2449.1847229723357,1129
2451.0188612372403,1109
2452.8525949408663,1115
2454.6859243705203,1183
2456.518849813587,1127
2458.3513715575314,1121
2460.183489889895,1089
2462.015205098301,1156
2463.8465174704493,1150
2465.67742729412,1123
2467.5079348571717,1146
2469.338040447542,1110
2471.1677443532476,1126
2472.9970468623833,1108
2474.825948263123,1102
2476.6544488437207,1108
2478.482548892508,1154
2480.310248697896,1159
2482.137548548374,1152
2483.9644487325118,1147
2485.790949538956,1153
2487.617051256433,1166
2489.44275417375,1142
2491.26805857979,1192
2493.0929647635157,1206
2494.917473013971,1182
2496.741583620276,1187
2498.5652968716304,1157
2500.3886130573137,1146
2502.2115324666834,1226
2504.0340553891765,1192
2505.856182114308,1136
2507.6779129316733,1208
2509.499248130945,1197
2511.3201880018764,1217
2513.140732834298,1146
2514.9608829181198,1162
2516.780638543331,1146
2518.6,1160
2520.418967578273,1225
2522.237541568376,1152
2524.0557222606144,1209
2525.8735099453706,1163
2527.6909049131086,1201
2529.507907454368,1262
2531.32451785977,1186
2533.140736420014,1176
2534.9565634258774,1179
2536.771999168218,1151
2538.5870439379714,1182
2540.4016980261526,1164
2542.2159617238544,1163
2544.02983532225,1182
2545.8433191125914,1224
2547.656413386209,1273
2549.4691184345115,1195
2551.2814345489874,1267
2553.093362021204,1327
2554.904901142808,1290
2556.716052205523,1226
2558.526815501153,1235
2560.3371913215824,1252
2562.147179958771,1260
2563.956781704761,1272
2565.7659968516705,1261
2567.5748256916986,1225
2569.3832685171224,1283
2571.1913256202984,1326
2572.9989972936614,1303
2574.806283829725,1324
2576.613185521084,1248
2578.4197026604074,1258
2580.2258355404483,1315
2582.031584454035,1236
2583.836949694077,1305
2585.6419315535613,1313
2587.4465303255533,1289
2589.2507463032002,1321
2591.0545797797245,1293
2592.8580310484303,1289
2594.6611004026995,1267
2596.463788135992,1272
2598.266094541849,1321
2600.0680199138874,1322
2601.869564545807,1245
2603.670728731383,1291
2605.4715127644704,1278
2607.2719169390048,1255
2609.071941548998,1281
2610.8715868885433,1317
2612.670853251811,1294
2614.469740933052,1321
2616.268250226594,1333
2618.0663814268455,1296
2619.864134828292,1327
2621.6615107255006,1261
2623.458509413115,1280
2625.2551311858597,1263
2627.0513763385347,1299
2628.8472451660223,1348
2630.6427379632833,1228
2632.4378550253564,1260
2634.232596647359,1295
2636.026963124488,1254
2637.8209547520187,1262
2639.6145718253065,1234
2641.407814639785,1209
2643.200683490966,1278
2644.9931786744414,1236
2646.7853004858807,1232
2648.577049221034,1197
2650.3684251757277,1232
2652.1594286458712,1250
2653.9500599274484,1245
2655.740319316525,1230
2657.5302071092437,1235
2659.3197236018286,1227
2661.10886909058,1202
2662.8976438718782,1212
2664.686048242183,1234
2666.4740824980327,1195
2668.2617469360443,1233
2670.0490418529134,1181
2671.8359675454153,1193
2673.622524310403,1151
2675.408712444811,1191
2677.1945322456495,1163
2678.979984010009,1162
2680.76506803506,1113
2682.5497846180497,1191
2684.334134056306,1183
2686.1181166472343,1148
2687.9017326883213,1192
2689.6849824771293,1171
2691.4678663113013,1134
2693.2503844885596,1146
2695.032537306705,1215
2696.8143250636167,1234
2698.5957480572542,1144
2700.3768065856534,1121
2702.1575009469316,1143
2703.937831439283,1147
2705.717798360982,1091
2707.4974020103837,1118
2709.276642685917,1152
2711.055520686095,1132
2712.834036309506,1167
2714.612189854819,1137
2716.389981620782,1133
2718.1674119062204,1161
2719.944481010041,1121
2721.721189231226,1128
2723.4975368688415,1161
2725.273524222027,1131
2727.0491515900053,1091
2728.824419272075,1114
2730.5993275676146,1101
2732.3738767760838,1160
2734.148067197016,1096
2735.921899130031,1105
2737.6953728748194,1117
2739.468488731156,1089
2741.2412469988926,1116
2743.0136479779617,1108
2744.785691968372,1092
2746.5573792702116,1125
2748.3287101836504,1134
2750.099685008934,1102
2751.870304046388,1098
2753.640567596418,1126
2755.4104759595057,1123
2757.1800294362156,1118
2758.949228327187,1153
2760.7180729331412,1134
2762.486563554877,1108
2764.254700493272,1097
2766.022484049284,1111
2767.789914523947,1101
2769.5569922183786,1071
2771.3237174337705,1098
2773.090090471394,1109
2774.8561116326036,1118
2776.6217812188274,1107
2778.3870995315756,1111
2780.1520668724356,1097
2781.9166835430747,1072
2783.6809498452394,1071
2785.444866080754,1150
2787.2084325515225,1132
2788.971649559527,1152
2790.73451740683,1155
2792.4970363955713,1116
2794.2592068279705,1082
2796.0210290063264,1078
2797.7825032330147,1138
2799.543629810493,1138
2801.304409041296,1136
2803.0648412280366,1125
2804.8249266734088,1107
2806.5846656801846,1108
2808.344058551212,1080
2810.1031055894246,1145
2811.8618070978273,1103
2813.6201633795085,1076
2815.378174737636,1069
2817.1358414754536,1097
2818.893163896285,1119
2820.6501423035334,1098
2822.4067770006814,1055
2824.1630682912883,1122
2825.9190164789957,1131
2827.6746218675207,1086
2829.429884760661,1070
2831.184805462294,1114
2832.9393842763743,1129
2834.693621506936,1101
2836.4475174580916,1093
2838.201072434034,1084
2839.954286739034,1080
2841.707160677441,1072
2843.459694553685,1151
2845.2118886722724,1098
2846.96374333779,1119
2848.7152588549034,1122
2850.4664355283567,1130
2852.217273662973,1099
2853.9677735636546,1099
2855.7179355353833,1157
2857.4677598832186,1125
2859.217246912299,1076
2860.9663969278427,1134
2862.715210235146,1109
2864.4636871395846,1088
2866.211827946614,1078
2867.9596329617652,1102
2869.7071024906536,1154
2871.4542368389684,1096
2873.20103631248,1095
2874.947501217038,1071
2876.6936318585695,1106
2878.4394285430812,1123
2880.1848915766604,1106
2881.9300212654707,1100
2883.6748179157553,1093
2885.4192818338374,1099
2887.1634133261173,1089
2888.907212699077,1087
2890.6506802592744,1128
2892.393816313348,1070
2894.1366211680142,1122
2895.8790951300693,1150
2897.621238506388,1154
2899.363051603925,1092
2901.1045347297118,1128
2902.8456881908596,1097
2904.58651229456,1129
2906.327007348081,1109
2908.067173658772,1071
2909.8070115340597,1121
2911.5465212814497,1116
2913.285703208527,1058
2915.0245576229563,1080
2916.7630848324807,1111
2918.5012851449196,1107
2920.2391588681758,1106
2921.976706310227,1081
2923.7139277791334,1102
2925.4508235830313,1137
2927.187394030137,1132
2928.923639428745,1130
2930.6595600872306,1105
2932.395156314046,1135
2934.1304284177218,1127
2935.8653767068713,1123
2937.6000014901815,1096
2939.3343030764227,1116
2941.068281774442,1142
2942.8019378931644,1067
2944.5352717415976,1089
2946.2682836288236,1049
2948.0009738640065,1123
2949.7333427563885,1103
2951.465390615289,1131
2953.1971177501086,1103
2954.9285244703265,1135
2956.6596110855,1072
2958.3903779052657,1132
2960.1208252393385,1098
2961.8509533975125,1084
2963.5807626896617,1119
2965.3102534257378,1129
2967.0394259157715,1077
2968.768280469873,1114
2970.496817398232,1092
2972.2250370111146,1067
2973.952939618869,1076
2975.6805255319196,1117
2977.4077950607707,1066
2979.134748516006,1110
2980.861386208289,1090
2982.587708448359,1119
2984.313715547037,1087
2986.039407815222,1096
2987.764785563891,1108
2989.489849104102,1090
2991.2145987469908,1110
2992.9390348037705,1125
2994.6631575857346,1089
2996.3869674042576,1108
2998.1104645707887,1087
2999.83364939686,1122
3001.5565221940783,1110
3003.2790832741334,1084
3005.0013329487924,1115
3006.7232715298996,1093
3008.4448993293804,1116
3010.166216659239,1074
3011.887223831558,1126
3013.607921158498,1030
3015.3283089522993,1082
3017.0483875252826,1091
3018.7681571898443,1040
3020.4876182584626,1086
3022.2067710436927,1057
3023.9256158581707,1079
3025.644153014609,1131
3027.362382825801,1084
3029.0803056046193,1129
3030.797921664012,1129
3032.5152313170106,1062
3034.2322348767225,1094
3035.9489326563353,1093
3037.665324969115,1077
3039.3814121284063,1117
3041.097194447633,1051
3042.812672240299,1065
3044.5278458199855,1046
3046.2427155003525,1094
3047.9572815951406,1073
3049.671544418167,1092
3051.38550428333,1061
3053.0991615046073,1086
3054.812516396051,1099
3056.5255692717974,1071
3058.2383204460575,1058
3059.9507702331257,1106
3061.662918947372,1160
3063.3747669032446,1093
3065.0863144152736,1089
3066.7975617980674,1069
3068.508509366309,1086
3070.219157434767,1111
3071.9295063182844,1098
3073.639556331785,1094
3075.3493077902704,1068
3077.058761008821,1114
3078.7679163025964,1076
3080.476773986837,1069
3082.1853343768594,1077
3083.89359778806,1079
3085.6015645359153,1095
3087.3092349359786,1102
3089.016609303884,1071
3090.7236879553434,1072
3092.4304712061476,1123
3094.136959372166,1078
3095.843152769349,1064
3097.5490517137237,1044
3099.2546565213966,1049
3100.959967508554,1149
3102.66498499146,1105
3104.3697092864577,1086
3106.0741407099695,1108
3107.778279578498,1050
3109.482126208622,1065
3111.1856809170004,1091
3112.8889440203716,1091
3114.5919158355528,1079
3116.294596679439,1094
3117.996986869006,1104
3119.6990867213062,1093
3121.4008965534726,1108
3123.102416682717,1089
3124.803647426329,1109
3126.5045891016784,1106
3128.205242026213,1080
3129.90560651746,1090
3131.605682893025,1114
3133.3054714705922,1092
3135.0049725679282,1106
3136.7041865028714,1093
3138.4031135933465,1139
3140.101754157353,1067
3141.800108512971,1122
3143.498176978357,1067
3145.1959598717494,1097
3146.8934575114636,1102
3148.5906702158954,1110
3150.2875983035183,1021
3151.9842420928853,1073
3153.680601902627,1075
3155.376678051456,1074
3157.07247085816,1064
3158.767980641609,1026
3160.463207720748,1086
3162.158152414606,1088
3163.8528150422862,1050
3165.5471959229726,1084
3167.2412953759303,1047
3168.9351137204976,1102
3170.628651276098,1083
3172.3219083622307,1102
3174.014885298474,1084
3175.707582404485,1136
3177.4000000000005,1091
3179.092138404835,1078
3180.7839979388846,1046
3182.47557892212,1091
3184.166881674594,1110
3185.8579065164386,1057
3187.5486537678626,1095
3189.2391237491547,1073
3190.9293167806827,1071
3192.6192331828934,1043
3194.3088732763117,1072
3195.998237381542,1095
3197.687325819268,1069
3199.376138910251,1052
3201.064676975334,1041
3202.7529403354347,1097
3204.4409293115523,1052
3206.1286442247647,1026
3207.816085396229,1076
3209.5032531471825,1038
3211.190147798936,1078
3212.8767696728846,1026
3214.5631190905015,1025
3216.2491963733373,1066
3217.9350018430214,1041
3219.6205358212637,1053
3221.305798629851,1066
3222.990790590651,1072
3224.6755120256103,1057
3226.359963256751,1057
3228.0441446061795,1091
3229.7280563960758,1067
3231.411698948703,1039
3233.0950725863995,1037
3234.778177631587,1067
3236.461014406761,1094
3238.1435832345005,1086
3239.8258844374595,1098
3241.507918338374,1073
3243.1896852600576,1048
3244.8711855254023,1056
3246.552419457381,1086
3248.233387379042,1065
3249.914089613516,1054
3251.59452648401,1083
3253.274698313813,1095
3254.95460542629,1069
3256.6342481448855,1085
3258.313626793125,1082
3259.9927416946084,1042
3261.6715931730196,1055
3263.3501815521176,1041
3265.0285071557437,1038
3266.706570307815,1092
3268.3843713323286,1057
3270.0619105533615,1082
3271.739188295068,1043
3273.4162048816834,1104
3275.0929606375184,1079
3276.769455886966,1059
3278.445690954498,1041
3280.1216661646613,1065
3281.797381842087,1045
3283.4728383114807,1067
3285.1480358976296,1094
3286.8229749253996,1076
3288.4976557197333,1062
3290.172078605655,1072
3291.846243908266,1044
3293.5201519527463,1070
3295.193803064357,1059
3296.8671975684374,1048
3298.5403357904024,1045
3300.21321805575,1095
3301.8858446900567,1038
3303.558216018975,1080
3305.23033236824,1123
3306.9021940636603,1096
3308.57380143113,1029
3310.2451547966184,1010
3311.916254486174,1052
3313.5871008259246,1045
3315.2576941420766,1037
3316.9280347609147,1079
3318.5981230088046,1080
3320.2679592121895,1087
3321.9375436975924,1104
3323.606876791612,1050
3325.27595882093,1085
3326.944790112305,1011
3328.6133709925753,1049
3330.2817017886573,1056
3331.949782827547,1044
3333.617614436319,1102
3335.2851969421245,1053
3336.952530672199,1081
3338.619615953853,1065
3340.286453114475,1053
3341.9530424815357,1066
3343.619384382583,1085
3345.2854791452437,1040
3346.951327097224,1049
3348.6169285663073,1086
3350.2822838803577,1087
3351.947393367319,1039
3353.61225735521,1051
3355.2768761721345,1063
3356.9412501462693,1077
3358.605379605873,1069
3360.2692648792827,1041
3361.9329062949146,1039
3363.596304181263,1035
