CollectionTime,9/26/2024 8:21:27 AM
ExposureUsed,3
CalibratedSpectrum
-962.7078968117929,497
-959.9714848408522,551
-957.2358232597828,618
-954.5009119013725,628
-951.7667505983302,615
-949.0333391832855,564
-946.3006774887896,564
-943.5687653473143,562
-940.837602591253,619
-938.1071890529199,604
-935.3775245645503,601
-932.6486089583007,581
-929.9204420662485,609
-927.1930237203925,653
-924.4663537526524,606
-921.7404319948689,592
-919.0152582788041,630
-916.2908324361409,743
-913.5671542984834,663
-910.8442236973568,602
-908.1220404642074,600
-905.4006044304027,600
-902.679915427231,565
-899.959973285902,599
-897.2407778375464,615
-894.5223289132158,588
-891.8046263438832,601
-889.0876699604426,551
-886.3714595937089,595
-883.6559950744183,637
-880.9412762332282,609
-878.2273029007168,583
-875.5140749073835,564
-872.8015920836489,547
-870.0898542598545,592
-867.3788612662631,591
-864.6686129330585,573
-861.9591090903457,544
-859.2503495681506,531
-856.5423341964203,561
-853.8350628050229,593
-851.1285352237478,552
-848.4227512823054,619
-845.7177108103272,597
-843.0134136373656,601
-840.3098595928943,572
-837.6070485063082,607
-834.9049802069229,598
-832.2036545239757,607
-829.5030712866244,654
-826.8032303239481,592
-824.1041314649472,559
-821.4057745385428,560
-818.7081593735775,618
-816.0112857988148,578
-813.3151536429393,584
-810.6197627345566,587
-807.9251129021936,557
-805.2312039742981,625
-802.5380357792392,617
-799.8456081453069,543
-797.1539209007124,581
-794.462973873588,575
-791.772766891987,618
-789.083299783884,596
-786.3945723771743,652
-783.7065844996748,650
-781.0193359791231,620
-778.3328266431781,667
-775.6470563194197,599
-772.9620248353489,579
-770.2777320183878,583
-767.5941776958798,543
-764.9113616950891,532
-762.2292838432011,553
-759.5479439673222,586
-756.8673418944801,651
-754.1874774516235,600
-751.5083504656222,589
-748.8299607632671,607
-746.15230817127,677
-743.475392516264,622
-740.7992136248035,592
-738.1237713233636,578
-735.4490654383407,609
-732.7750957960521,583
-730.1018622227365,638
-727.4293645445534,633
-724.7576025875837,620
-722.0865761778291,607
-719.4162851412126,616
-716.7467293035781,683
-714.0779084906909,788
-711.409822528237,674
-708.7424712418238,607
-706.0758544569796,658
-703.4099719991541,676
-700.7448236937178,660
-698.0804093659622,665
-695.4167288411002,677
-692.7537819442656,664
-690.0915685005134,622
-687.4300883348199,676
-684.7693412720819,662
-682.1093271371178,646
-679.4500457546669,660
-676.7914969493897,650
-674.1336805458676,634
-671.4765963686034,673
-668.8202442420206,638
-666.1646239904642,630
-663.5097354382001,627
-660.8555784094151,648
-658.2021527282176,615
-655.5494582186366,648
-652.8974947046223,658
-650.2462620100463,661
-647.5957599587009,668
-644.9459883742998,716
-642.2969470804776,628
-639.6486359007902,660
-637.0010546587141,652
-634.3542031776476,644
-631.7080812809096,640
-629.0626887917401,711
-626.4180255333008,747
-623.7740913286734,712
-621.1308860008619,672
-618.4884093727904,684
-615.8466612673046,692
-613.2056415071715,701
-610.5653499150785,695
-607.9257863136347,722
-605.28695052537,689
-602.6488423727357,727
-600.0114616781036,776
-597.3748082637674,802
-594.7388819519412,829
-592.1036825647604,786
-589.4692099242818,868
-586.8354638524829,833
-584.2024441712624,833
-581.5701507024403,783
-578.9385832677575,790
-576.3077416888759,778
-573.6776257873787,802
-571.0482353847704,796
-568.4195703024757,748
-565.7916303618415,804
-563.164415384135,729
-560.5379251905453,722
-557.9121596021815,745
-555.2871184400748,741
-552.6628015251767,739
-550.0392086783606,784
-547.4163397204204,770
-544.794194472071,781
-542.1727727539491,794
-539.5520743866118,851
-536.9320991905377,849
-534.3128469861261,918
-531.6943175936979,892
-529.0765108334947,971
-526.4594265256793,1185
-523.8430644903358,1333
-521.2274245474689,1400
-518.612506517005,1529
-515.9983102187913,1506
-513.3848354725959,1652
-510.77208209810846,1715
-508.16004991493924,1797
-505.5487387426199,1912
-502.9381484006032,1754
-500.3282787082628,1541
-497.71912948489364,1404
-495.1107005497117,1279
-492.5029917218539,1207
-489.8960028203786,1045
-487.28973366426493,921
-484.68418407241325,937
-482.07935386364494,906
-479.47524285670266,925
-476.87185087025,969
-474.2691777228715,971
-471.66722323307334,932
-469.0659872192821,923
-466.4654694998459,916
-463.86566989303384,847
-461.26658821703614,944
-458.66822428996414,878
-456.07057792985,942
-453.4736489546475,984
-450.877437182231,872
-448.28194243039627,863
-445.68716451686,832
-443.09310325926003,873
-440.49975847515555,853
-437.9071299820263,955
-435.31521759727354,964
-432.72402113821954,1057
-430.13354042210767,976
-427.5437752661022,897
-424.95472548728867,972
-422.36639090267386,976
-419.7787713291855,996
-417.1918665836721,1052
-414.60567648290385,1097
-412.0202008435715,1046
-409.4354394822874,994
-406.8513922155845,1019
-404.26805885991723,1102
-401.685439231661,964
-399.103533147112,978
-396.522340422488,961
-393.9418608739278,954
-391.3620943174908,988
-388.7830405691583,1043
-386.2046994448317,900
-383.6270707603344,924
-381.05015433141045,947
-378.473949973725,785
-375.8984575028645,756
-373.32367673433623,793
-370.74960748356875,716
-368.1762495659117,710
-365.60360279663576,778
-363.03166699093265,775
-360.4604419639154,716
-357.8899275306178,653
-355.32012350599507,625
-352.7510297049233,585
-350.1826459421999,561
-347.61497203254316,589
-345.04800779059235,596
-342.4817530309082,626
-339.91620756797226,636
-337.35137121618743,667
-334.7872437898774,740
-332.22382510328725,921
-329.66111497058273,788
-327.09911320585127,646
-324.53781962310075,593
-321.9772340362607,593
-319.4173562591816,589
-316.8581861056348,652
-314.2997233893127,627
-311.7419679238294,697
-309.1849195227194,687
-306.62857799943856,636
-304.0729431673641,788
-301.51801483979375,998
-298.963792829947,808
-296.41027695096386,804
-293.85746701590574,891
-291.3053628377552,848
-288.7539642294155,856
-286.2032710037115,947
-283.65328297338897,986
-281.1039999511146,1178
-278.5554217494762,1367
-276.007548180983,1166
-273.4603790580651,874
-270.9139141930734,888
-268.3681533982807,946
-265.8230964858798,983
-263.27874326798565,858
-260.7350935566336,841
-258.1921471637804,1025
-255.6499039013039,1152
-253.10836358100266,1000
-250.56752601459698,912
-248.02739101372765,1049
-245.48795838995704,1249
-242.94922795476816,1142
-240.41119951956557,900
-237.8738728956746,961
-235.33724789434166,1074
-232.80132432673452,1150
-230.2661020039418,973
-227.73158073697357,948
-225.19776033676033,1136
-222.66464061415422,1152
-220.1322213799284,1066
-217.60050244477725,1095
-215.06948361931552,1291
-212.53916471408013,1635
-210.00954553952818,1751
-207.48062590603843,1240
-204.9524056239104,959
-202.4248845033651,1196
-199.8980623545441,1479
-197.37193898751036,1465
-194.84651421224817,1164
-192.32178783866232,1191
-189.79775967657952,1241
-187.27442953574644,1515
-184.7517972258321,1511
-182.2298625564256,1384
-179.7086253370378,1344
-177.18808537710026,1695
-174.66824248596583,1875
-172.14909647290835,1956
-169.6306471471229,1627
-167.11289431772548,1225
-164.59583779375328,1463
-162.07947738416453,1900
-159.5638128978386,2034
-157.04884414357605,1940
-154.53457093009854,1731
-152.02099306604828,1449
-149.50811035998936,1337
-146.99592262040665,1607
-144.48442965570587,2093
-141.97363127421409,2769
-139.46352728417958,2577
-136.95411749377126,2131
-134.44540171107985,1896
-131.93737974411636,1527
-129.43005140081357,1995
-126.92341648902493,3411
-124.41747481652521,5136
-121.91222619101006,5324
-119.40767042009657,4246
-116.90380731132257,3431
-114.40063667214702,2639
-111.8981583099503,2404
-109.3963720320337,3345
-106.89527764561933,5287
-104.39487495785067,8866
-101.89516377579241,11715
-99.39614390642998,12017
-96.89781515667039,12930
-94.40017733334128,12203
-91.90323024319173,12062
-89.40697369289148,13941
-86.91140748903172,17132
-84.41653143812482,20768
-81.92234534660395,21065
-79.42884902082358,17770
-76.93604226705907,14621
-74.4439248915071,18209
-71.95249670028534,29334
-69.46175749943245,44311
-66.97170709490854,56279
-64.48234529259423,54699
-61.99367189829195,43836
-59.50568671772464,33832
-57.01838955653636,31755
-54.53178022029283,26129
-52.045858514480074,22614
-49.560624244506016,19049
-47.07607721569923,19146
-44.59221723330904,17207
-42.10904410250669,18123
-39.62655762838392,17397
-37.14475761595372,23092
-34.66364387015028,26527
-32.18321619582866,35025
-29.70347439776515,46621
-27.224418280657005,54039
-24.74604764912317,65024
-22.26836230770266,65024
-19.7913620608565,65024
-17.315046712966478,65024
-14.83941606833514,65024
-12.36446993118659,65024
-9.89020810566592,65024
-7.416630395839093,65024
-4.94373660569363,65024
-2.471526539137585,65024
-6.821210263296962E-13,65024
2.47084320796705,65024
4.941003281093458,65024
7.410480415786196,65024
9.879274808531363,65024
12.347386655893956,65024
14.814816154518212,65024
17.28156350112681,65024
19.74762889252179,65024
22.21301252558385,25655
24.67771459727237,7643
27.141735304626195,7532
29.605074844762612,8329
32.06773341487792,7148
34.52971121224755,5884
36.99100843422559,6268
39.45162527824516,6590
41.91156194181792,5868
44.370818622535126,4854
46.82939551806646,4289
49.287292826160524,3882
51.74451074464503,4612
54.201049471426245,4351
56.65690920448981,4278
59.112090141899785,3813
61.56659248179983,3638
64.02041642241159,3332
66.4735621620365,4128
68.92602989905402,5258
71.37781983192338,5286
73.82893215918205,4175
76.27936707944684,3115
78.72912479141326,2928
81.17820549385567,3287
83.62660938562783,3212
86.07433666566146,3585
88.5213875329681,2659
90.96776218663751,2245
93.41346082583925,2048
95.85848364982041,2186
98.30283085790859,2851
100.7465026495089,2951
103.18949922410604,2395
105.63182078126385,2043
108.07346752062438,2292
110.51443964190923,1821
112.95473734491827,1788
115.39436082953114,2312
117.83331029570547,2510
120.27158594347827,2116
122.7091879729652,1917
125.1461165843615,2185
127.58237197794062,2579
130.01795435405518,2132
132.4528639131364,2052
134.88710085569494,2560
137.32066538231982,2166
139.75355769367923,1702
142.1857779905207,1845
144.61732647366978,2100
147.04820334403132,1870
149.47840880258934,1665
151.90794305040674,1779
154.33680628862487,1829
156.76499871846443,1724
159.19252054122433,1831
161.61937195828352,2052
164.04555317109896,2111
166.47106438120693,2149
168.89590579022217,2406
171.320077599839,2413
173.7435800118302,2669
176.16641322804742,2820
178.58857745042144,2585
181.01007288096173,2441
183.43089972175687,2515
185.85105817497413,2394
188.27054844285988,2370
190.6893707277394,2584
193.10752523201643,2804
195.5250121581745,2564
197.9418317087751,2417
200.3579840864594,2609
202.7734694939469,2639
205.18828813403627,2753
207.6024402096051,2692
210.01592592360964,2706
212.42874547908548,2525
214.84089907914665,2459
217.2523869269868,2549
219.66320922587727,2577
222.0733661791695,2461
224.48285799029293,2598
226.8916848627572,2624
229.29984700014882,2520
231.7073446061355,2715
234.11417788446204,2592
236.520347038953,2597
238.92585227351185,2742
241.33069379212054,2665
243.73487179884035,2692
246.1383864978112,2688
248.541238093252,2746
250.9434267894609,2729
253.34495279081432,2858
255.74581630176783,2632
258.1460175268563,2748
260.54555667069314,2842
262.9444339379703,2929
265.3426495334594,2774
267.7402036620107,2631
270.1370965285529,2764
272.53332833809407,2574
274.9288992957214,2481
277.32380960660055,2637
279.718059475976,2453
282.1116491091717,2418
284.5045787115897,2311
286.89684848871195,2436
289.2884586460981,2366
291.67940938938807,2531
294.0697009242996,2564
296.4593334566299,2745
298.84830719225477,2812
301.23662233712923,2465
303.6242790972866,2435
306.01127767884,2513
308.39761828798066,2420
310.78330113097934,2226
313.16832641418534,2144
315.5526943440269,2243
317.9364051270112,2338
320.3194589697242,2315
322.70185607883093,2211
325.0835966610754,2183
327.4646809232805,2161
329.8451090723478,2150
332.2248813152577,2155
334.6039978590701,2323
336.9824589109231,2227
339.36026467803447,2111
341.7374153677,2086
344.113911187295,2162
346.48975234427337,2155
348.8649390461686,2216
351.2394715005918,2011
353.61334991523415,2006
355.9865744978655,1963
358.35914545633375,2068
360.73106299856715,2043
363.10232733257146,2075
365.47293866643247,2145
367.84289720831396,2012
370.2122031664593,1934
372.5808567491905,1944
374.9488581649083,1880
377.31620762209275,1889
379.6829053293021,1929
382.0489514951745,1901
384.4143463284262,2015
386.7790900378528,1905
389.14318283232853,1907
391.50662492080653,2007
393.86941651231916,2015
396.23155781597745,1986
398.5930490409713,1933
400.9538903965696,1905
403.3140820921202,2057
405.6736243370498,1946
408.03251734086336,1995
410.3907613131465,1923
412.74835646356166,1834
415.10530300185144,1865
417.4616011378372,1873
419.81725108141893,1869
422.1722530425758,1834
424.5266072313656,1898
426.880313857925,1870
429.2333731324701,1817
431.58578526529516,1766
433.9375504667738,1777
436.2886689473588,1797
438.63914091758113,1813
440.9889665880513,1734
443.33814616945835,1796
445.68667987257015,1786
448.03456790823395,1799
450.3818104873759,1797
452.72840782100013,1806
455.07436012019105,1786
457.41966759611057,1752
459.7643304600007,1708
462.10834892318155,1774
464.4517231970525,1816
466.79445349309174,1770
469.1365400228566,1811
471.4779829979826,1837
473.81878263018564,1835
476.15893913125876,1913
478.4984527130747,2073
480.8373235875855,2017
483.17555196682144,1880
485.5131380628919,2063
487.8500820879857,2102
490.1863842543697,2132
492.52204477439034,2310
494.8570638604725,2567
497.1914417251204,2953
499.52517858091653,3364
501.85827464052306,3748
504.19073011668036,3886
506.5225452222086,3898
508.85372017000566,3924
511.18425517304956,4551
513.514150444396,5961
515.8434061971808,7638
518.1720226446176,8073
520.4999999999999,7638
522.8273384766991,6972
525.1540382881666,6298
527.480099647932,4967
529.8055227696037,3423
532.1303078668694,2639
534.454455153496,2238
536.777964843328,2080
539.1008371502907,2102
541.4230722883866,2068
543.744670471698,1894
546.0656319143858,1913
548.3859568306899,1977
550.7056454349294,1929
553.0246979415016,1971
555.3431145648834,1876
557.6608955196306,1835
559.978041020377,1994
562.2945512818363,1963
564.6104265188006,1850
566.9256669461412,1907
569.2402727788082,1909
571.5542442318302,1892
573.8675815203156,1846
576.1802848594508,1890
578.4923544645015,1874
580.8037905508126,1743
583.114593333807,1808
585.4247630289875,1816
587.7342998519354,1790
590.0432040183106,1912
592.3514757438526,1790
594.6591152443794,1795
596.9661227357875,1974
599.2724984340531,1853
601.578242555231,1835
603.8833553154542,1837
606.1878369309362,1866
608.4916876179676,1850
610.7949075929192,1823
613.0974970722403,1856
615.3994562724587,1809
617.7007854101818,1848
620.0014847020951,1773
622.3015543649641,1820
624.6009946156324,1807
626.8998056710224,1854
629.1979877481361,1800
631.4955410640538,1819
633.7924658359349,1795
636.0887622810175,1797
638.3844306166192,1800
640.6794710601358,1824
642.9738838290426,1901
645.2676691408932,1793
647.5608272133207,1791
649.853358264037,1900
652.1452625108324,1896
654.4365401715764,1902
656.7271914642178,1989
659.0172166067838,2011
661.3066158173809,1783
663.5953893141935,1862
665.8835373154867,1831
668.1710600396028,1927
670.4579577049639,1957
672.7442305300709,1851
675.0298787335033,1866
677.3149025339197,1856
679.599302150058,1926
681.8830778007342,1902
684.1662297048437,1860
686.4487580813608,1855
688.7306631493387,1889
691.0119451279091,1858
693.2926042362834,1916
695.5726406937516,1830
697.8520547196814,1866
700.1308465335215,1792
702.4090163547982,1738
704.6865644031171,1831
706.9634908981619,1813
709.2397960596965,1838
711.5154801075631,1920
713.7905432616823,1868
716.0649857420548,1902
718.3388077687592,1838
720.612009561953,1873
722.8845913418733,1849
725.1565533288352,1862
727.427895743234,1800
729.6986188055427,1796
731.9687227363137,1780
734.238207756178,1826
736.5070740858458,1818
738.7753219461066,1741
741.0429515578281,1786
743.3099631419569,1843
745.5763569195191,1831
747.8421331116193,1764
750.1072919394409,1837
752.3718336242467,1814
754.6357583873777,1818
756.8990664502545,1952
759.1617580343765,1808
761.423833361321,1882
763.6852926527457,1868
765.9461361303862,1777
768.206364016058,1832
770.4659765316536,1891
772.7249738991469,1912
774.9833563405886,1939
777.2411240781092,1897
779.4982773339183,1822
781.7548163303044,1884
784.010741289634,1849
786.2660524343538,1965
788.5207499869881,2025
790.7748341701416,1899
793.0283052064964,1927
795.2811633188143,1869
797.5334087299362,1839
799.7850416627813,1959
802.0360623403484,1873
804.2864709857143,1958
806.5362678220353,1873
808.7854530725468,1849
811.0340269605625,1944
813.2819897094754,1972
815.5293415427581,1866
817.77608268396,1894
820.0222133567116,1801
822.2677337847211,1861
824.5126441917765,1931
826.7569448017433,1891
829.0006358385675,1844
831.2437175262731,1848
833.4861900889629,1899
835.7280537508192,1804
837.9693087361026,1833
840.2099552691533,1856
842.4499935743896,1874
844.689423876309,1833
846.9282463994886,1820
849.1664613685833,1842
851.4040690083276,1857
853.6410695435349,1859
855.877463199097,1815
858.1132501999847,1833
860.3484307712487,1953
862.5830051380175,1962
864.8169735254988,1849
867.0503361589791,1866
869.2830932638243,1888
871.5152450654786,1829
873.7467917894654,1806
875.9777336613873,1946
878.2080709069252,1817
880.4378037518389,1907
882.666932421968,1909
884.8954571432301,1872
887.1233781416219,1907
889.3506956432192,1841
891.5774098741766,1864
893.803521060728,1922
896.0290294291852,1906
898.2539352059397,1961
900.4782386174619,1916
902.7019398903011,1877
904.925039251085,1938
907.147536926521,1842
909.3694331433943,1954
911.59072812857,1982
913.8114221089921,1893
916.0315153116827,1877
918.2510079637437,1796
920.4699002923547,1811
922.6881925247761,1872
924.905884888345,1896
927.1229776104793,1799
929.3394709186747,1800
931.555365040506,1903
933.7706602036275,1918
935.9853566357709,1893
938.1994545647489,2006
940.4129542184515,2000
942.6258558248488,1911
944.8381596119883,1995
947.0498658079974,1943
949.2609746410825,1977
951.4714863395287,1919
953.6814011316998,1939
955.8907192460387,1909
958.0994409110671,1931
960.3075663553858,1933
962.5150958076741,1965
964.7220294966913,2010
966.928367651274,1963
969.1341105003388,1897
971.3392582728806,1845
973.5438111979742,1916
975.747769504772,1889
977.9511334225061,1864
980.153903180487,1835
982.3560790081052,1833
984.5576611348289,1841
986.7586497902058,1806
988.9590452038618,1823
991.158847605503,1806
993.3580572249133,1786
995.5566742919558,1712
997.7546990365728,1664
999.952131688785,1683
1002.1489724786926,1601
1004.3452216364743,1621
1006.5408793923874,1569
1008.7359459767691,1581
1010.9304216200343,1561
1013.1243065526781,1568
1015.3176010052733,1602
1017.510305208472,1547
1019.7024193930064,1632
1021.8939437896848,1651
1024.0848786293977,1484
1026.2752241431122,1569
1028.4649805618747,1484
1030.6541481168115,1569
1032.842727039127,1522
1035.0307175601051,1505
1037.2181199111074,1493
1039.4049343235752,1424
1041.591161029029,1477
1043.7768002590683,1494
1045.9618522453698,1466
1048.1463172196918,1498
1050.3301954138697,1496
1052.513487059818,1470
1054.69619238953,1485
1056.8783116350783,1471
1059.0598450286152,1457
1061.2407928023704,1483
1063.4211551886528,1455
1065.6009324198508,1413
1067.780124728432,1442
1069.9587323469414,1421
1072.1367555080046,1441
1074.314194444325,1388
1076.4910493886855,1455
1078.667320573947,1412
1080.843008233051,1429
1083.0181125990161,1412
1085.1926339049414,1395
1087.3665723840027,1382
1089.5399282694575,1401
1091.7127017946405,1382
1093.8848931929647,1450
1096.0565026979243,1434
1098.2275305430899,1380
1100.3979769621128,1371
1102.567842188722,1323
1104.737126456726,1363
1106.9058300000124,1373
1109.0739530525475,1417
1111.2414958483764,1383
1113.4084586216231,1416
1115.5748416064907,1398
1117.7406450372605,1457
1119.9058691482942,1405
1122.0705141740304,1398
1124.2345803489884,1356
1126.3980679077658,1395
1128.5609770850388,1385
1130.7233081155623,1378
1132.8850612341707,1328
1135.0462366757774,1340
1137.2068346753745,1342
1139.3668554680326,1418
1141.526299288901,1335
1143.68516637321,1328
1145.8434569562655,1392
1148.001171273455,1449
1150.158309560244,1354
1152.3148720521767,1410
1154.470858984876,1454
1156.626270594044,1405
1158.7811071154629,1420
1160.9353687849912,1351
1163.089055838569,1363
1165.242168512213,1401
1167.3947070420209,1410
1169.5466716641677,1381
1171.6980626149075,1399
1173.8488801305748,1404
1175.9991244475814,1388
1178.1487958024186,1324
1180.2978944316555,1390
1182.4464205719428,1378
1184.5943744600072,1327
1186.7417563326567,1368
1188.8885664267755,1399
1191.0348049793297,1446
1193.1804722273619,1380
1195.325568407995,1392
1197.4700937584303,1401
1199.614048515948,1377
1201.7574329179074,1345
1203.900247201746,1396
1206.042491604982,1362
1208.1841663652099,1422
1210.3252717201053,1354
1212.465807907422,1493
1214.6057751649923,1359
1216.7451737307279,1375
1218.8840038426192,1429
1221.0222657387353,1410
1223.1599596572241,1460
1225.2970858363137,1387
1227.4336445143094,1410
1229.5696359295966,1379
1231.705060320639,1451
1233.8399179259786,1461
1235.9742089842384,1415
1238.107933734118,1404
1240.2410924143974,1404
1242.373685263935,1497
1244.5057125216676,1472
1246.6371744266116,1413
1248.7680712178621,1402
1250.898403134593,1459
1253.028170416058,1437
1255.1573733015875,1374
1257.2860120305932,1508
1259.4140868425648,1473
1261.54159797707,1450
1263.6685456737569,1487
1265.7949301723515,1401
1267.9207517126597,1423
1270.046010534565,1465
1272.1707068780306,1470
1274.2948409830983,1516
1276.4184130898889,1524
1278.541423438603,1560
1280.6638722695184,1535
1282.785759822993,1508
1284.9070863394636,1444
1287.0278520594447,1505
1289.1480572235314,1585
1291.2677020723963,1532
1293.3867868467923,1546
1295.5053117875495,1601
1297.623277135579,1551
1299.740683131868,1567
1301.8575300174857,1572
1303.973818033578,1599
1306.0895474213703,1668
1308.2047184221678,1616
1310.3193312773528,1640
1312.4333862283888,1674
1314.5468835168163,1663
1316.659823384255,1652
1318.7722060724045,1610
1320.8840318230418,1656
1322.9953008780249,1597
1325.1060134792888,1701
1327.2161698688478,1640
1329.3257702887959,1764
1331.4348149813054,1775
1333.5433041886276,1634
1335.6512381530933,1572
1337.7586171171101,1655
1339.8654413231675,1597
1341.9717110138317,1635
1344.0774264317488,1645
1346.1825878196432,1555
1348.2871954203192,1613
1350.3912494766587,1619
1352.4947502316231,1590
1354.5976979282532,1580
1356.7000928096686,1520
1358.8019351190665,1602
1360.9032250997243,1580
1363.0039629949988,1512
1365.1041490483235,1542
1367.2037835032133,1604
1369.3028666032606,1570
1371.401398592137,1537
1373.4993797135926,1487
1375.5968102114575,1493
1377.6936903296396,1548
1379.7900203121262,1527
1381.8858004029835,1554
1383.9810308463561,1481
1386.075711886469,1495
1388.1698437676241,1548
1390.2634267342032,1551
1392.356461030667,1505
1394.4489469015557,1492
1396.5408845914872,1496
1398.6322743451592,1523
1400.7231164073469,1539
1402.813411022907,1577
1404.903158436773,1473
1406.9923588939578,1545
1409.0810126395531,1491
1411.1691199187303,1498
1413.2566809767386,1545
1415.343696058907,1540
1417.4301654106425,1583
1419.5160892774315,1581
1421.6014679048399,1537
1423.6863015385125,1502
1425.7705904241707,1496
1427.8543348076178,1522
1429.9375349347342,1485
1432.0201910514802,1551
1434.102303403894,1463
1436.1838722380944,1562
1438.2648978002767,1553
1440.3453803367174,1556
1442.4253200937692,1528
1444.5047173178677,1585
1446.5835722555234,1589
1448.6618851533285,1605
1450.739656257952,1658
1452.8168858161434,1597
1454.8935740747306,1580
1456.96972128062,1639
1459.045327680797,1608
1461.120393522327,1588
1463.1949190523528,1621
1465.2689045180973,1592
1467.3423501668608,1589
1469.415256246024,1705
1471.4876230030463,1647
1473.559450685465,1606
1475.6307395408976,1654
1477.7014898170391,1687
1479.771701761665,1649
1481.8413756226287,1707
1483.9105116478618,1681
1485.9791100853772,1718
1488.0471711832643,1779
1490.1146951896926,1791
1492.1816823529098,1751
1494.2481329212433,1739
1496.3140471430984,1773
1498.3794252669609,1779
1500.4442675413939,1791
1502.5085742150404,1764
1504.572345536622,1715
1506.6355817549388,1839
1508.6982831188702,1862
1510.7604498773744,1807
1512.8220822794883,1861
1514.8831805743293,1860
1516.9437450110909,1873
1519.003775839048,1865
1521.0632733075522,1814
1523.1222376660367,1866
1525.1806691640113,1839
1527.2385680510652,1868
1529.2959345768668,1975
1531.3527689911643,2036
1533.4090715437833,1990
1535.4648424846291,2041
1537.5200820636855,1969
1539.5747905310159,2009
1541.6289681367616,2015
1543.6826151311434,2017
1545.7357317644614,2123
1547.7883182870937,2156
1549.8403749494987,2178
1551.8919020022113,2240
1553.9428996958477,2175
1555.9933682811015,2268
1558.0433080087469,2339
1560.0927191296346,2301
1562.1416018946961,2304
1564.1899565549415,2334
1566.2377833614592,2280
1568.2850825654164,2286
1570.3318544180606,2231
1572.3780991707158,2204
1574.423817074788,2153
1576.4690083817595,2137
1578.5136733431923,2095
1580.5578122107272,2046
1582.601425236085,1938
1584.6445126710646,1899
1586.6870747675434,1906
1588.7291117774776,1850
1590.7706239529034,1831
1592.8116115459347,1788
1594.8520748087658,1771
1596.8920139936686,1724
1598.9314293529933,1733
1600.9703211391711,1681
1603.008689604711,1680
1605.0465350022005,1606
1607.0838575843068,1587
1609.1206576037753,1579
1611.1569353134305,1593
1613.1926909661765,1595
1615.2279248149953,1504
1617.2626371129481,1514
1619.2968281131757,1557
1621.3304980688963,1531
1623.3636472334088,1530
1625.39627586009,1481
1627.428384202396,1472
1629.459972513861,1463
1631.4910410480993,1491
1633.5215900588028,1448
1635.551619799744,1398
1637.5811305247717,1442
1639.6101224878166,1442
1641.6385959428862,1391
1643.6665511440683,1436
1645.693988345528,1400
1647.7209078015112,1384
1649.7473097663405,1372
1651.7731944944203,1445
1653.7985622402307,1432
1655.823413258333,1441
1657.847747803366,1364
1659.8715661300494,1401
1661.8948684931793,1347
1663.9176551476316,1377
1665.9399263483624,1382
1667.9616823504057,1355
1669.982923408873,1350
1672.0036497789574,1381
1674.0238617159293,1410
1676.043559475138,1395
1678.0627433120121,1393
1680.081413482059,1355
1682.0995702408654,1417
1684.117213844096,1370
1686.134344547495,1373
1688.1509626068864,1375
1690.1670682781705,1363
1692.182661817329,1329
1694.1977434804217,1366
1696.2123135235875,1370
1698.226372203043,1355
1700.2399197750851,1400
1702.2529564960905,1364
1704.2654826225112,1348
1706.277498410882,1310
1708.2890041178139,1390
1710.2999999999988,1414
1712.3104863142066,1284
1714.3204633172854,1367
1716.329931266163,1346
1718.3388904178469,1419
1720.3473410294214,1360
1722.3552833580516,1349
1724.3627176609807,1420
1726.3696441955308,1371
1728.3760632191033,1379
1730.3819749891782,1331
1732.3873797633146,1336
1734.3922777991502,1355
1736.3966693544012,1304
1738.4005546868639,1330
1740.4039340544127,1310
1742.406807715001,1328
1744.4091759266616,1320
1746.4110389475054,1301
1748.4123970357223,1332
1750.413250449582,1356
1752.4135994474318,1297
1754.4134442876993,1374
1756.4127852288902,1352
1758.4116225295893,1341
1760.4099564484595,1329
1762.407787244244,1280
1764.405115175764,1270
1766.4019405019203,1320
1768.3982634816916,1316
1770.3940843741357,1286
1772.3894034383907,1327
1774.3842209336717,1360
1776.378537119274,1300
1778.372352254571,1301
1780.3656665990156,1336
1782.3584804121397,1354
1784.3507939535534,1326
1786.3426074829463,1355
1788.3339212600863,1341
1790.3247355448211,1370
1792.3150505970766,1298
1794.3048666768573,1355
1796.2941840442477,1348
1798.2830029594106,1300
1800.2713236825884,1312
1802.2591464741004,1349
1804.2464715943465,1303
1806.2332993038058,1324
1808.2196298630352,1285
1810.2054635326708,1348
1812.190800573428,1311
1814.175641246101,1259
1816.1599858115628,1278
1818.1438345307652,1336
1820.127187664738,1355
1822.1100454745924,1309
1824.092408221516,1344
1826.0742761667766,1304
1828.055649571721,1296
1830.0365286977735,1330
1832.0169138064398,1322
1833.9968051593014,1376
1835.9762030180214,1336
1837.9551076443408,1306
1839.9335193000788,1301
1841.9114382471344,1292
1843.888864747485,1288
1845.8657990631878,1293
1847.842241456378,1324
1849.8181921892697,1291
1851.7936515241558,1284
1853.7686197234098,1277
1855.7430970494815,1255
1857.7170837649014,1266
1859.6905801322787,1267
1861.6635864143004,1293
1863.6361028737338,1336
1865.608129773424,1323
1867.5796673762961,1286
1869.5507159453537,1301
1871.521275743678,1324
1873.4913470344313,1323
1875.4609300808534,1318
1877.4300251462632,1357
1879.3986324940588,1349
1881.366752387717,1345
1883.3343850907936,1283
1885.3015308669228,1364
1887.268189979819,1358
1889.2343626932739,1398
1891.2000492711595,1337
1893.1652499774254,1305
1895.1299650761011,1338
1897.0941948312952,1329
1899.0579395071945,1304
1901.0211993680641,1295
1902.98397467825,1351
1904.9462657021745,1322
1906.9080727043415,1317
1908.869395949332,1346
1910.8302357018065,1314
1912.790592226504,1372
1914.7504657882428,1284
1916.7098566519212,1354
1918.6687650825133,1325
1920.6271913450764,1359
1922.5851357047422,1340
1924.5425984267245,1331
1926.499579776314,1376
1928.4560800188833,1301
1930.4120994198802,1387
1932.367638244833,1368
1934.32269675935,1349
1936.2772752291175,1310
1938.231373919899,1361
1940.1849930975404,1353
1942.1381330279637,1338
1944.0907939771696,1315
1946.0429762112412,1352
1947.9946799963363,1293
1949.9459055986945,1340
1951.896653284633,1356
1953.8469233205478,1282
1955.7967159729142,1301
1957.7460315082863,1291
1959.6948701932974,1310
1961.6432322946594,1334
1963.5911180791632,1361
1965.5385278136787,1307
1967.4854617651545,1379
1969.4319202006182,1292
1971.377903387176,1282
1973.3234115920136,1285
1975.268445082395,1346
1977.2130041256642,1356
1979.1570889892423,1269
1981.1006999406304,1256
1983.04383724741,1265
1984.986501177238,1373
1986.928691997853,1317
1988.8704099770712,1348
1990.811655382789,1340
1992.7524284829801,1305
1994.692729545698,1295
1996.6325588390755,1249
1998.5719166313224,1229
2000.5108031907307,1270
2002.4492187856677,1312
2004.387163684583,1322
2006.3246381560011,1366
2008.2616424685298,1352
2010.1981768908527,1285
2012.1342416917332,1352
2014.069837140014,1276
2016.0049635046162,1319
2017.9396210545406,1253
2019.8738100588666,1271
2021.8075307867502,1199
2023.740783507431,1320
2025.6735684902228,1318
2027.6058860045214,1350
2029.5377363198004,1309
2031.4691197056118,1325
2033.4000364315875,1339
2035.3304867674374,1316
2037.260470982952,1270
2039.189989347998,1261
2041.1190421325232,1299
2043.047629606554,1349
2044.9757520401945,1308
2046.9034097036288,1312
2048.8306028671195,1294
2050.7573318010086,1296
2052.683596775716,1242
2054.609398061742,1317
2056.5347359296647,1293
2058.4596106501403,1208
2060.384022493906,1289
2062.3079717317764,1294
2064.231458634646,1279
2066.1544834734873,1291
2068.077046519352,1212
2069.99914804337,1256
2071.9207883167524,1276
2073.8419676107865,1327
2075.7626861968406,1263
2077.6829443463607,1291
2079.6027423308715,1318
2081.522080421977,1311
2083.440958891362,1271
2085.359378010786,1311
2087.2773380520907,1260
2089.194839287196,1339
2091.111881988101,1277
2093.0284664268825,1264
2094.9445928756973,1285
2096.86026160678,1231
2098.775472892446,1301
2100.690227005088,1305
2102.604524217178,1276
2104.5183648012676,1287
2106.431749029985,1240
2108.34467717604,1259
2110.2571495122206,1273
2112.169166311393,1308
2114.080727846503,1256
2115.9918343905747,1267
2117.902486216711,1230
2119.8126835980956,1329
2121.722426807987,1285
2123.6317161197285,1306
2125.5405518067364,1356
2127.448934142509,1330
2129.356863400624,1368
2131.264339854737,1340
2133.1713637785815,1328
2135.077935445972,1334
2136.9840551308002,1329
2138.889723107037,1341
2140.7949396487334,1323
2142.699705030018,1301
2144.6040195250994,1339
2146.507883408264,1349
2148.4112969538774,1321
2150.3142604363848,1352
2152.2167741303097,1273
2154.1188383102535,1324
2156.0204532508997,1264
2157.9216192270064,1316
2159.822336513414,1257
2161.7226053850413,1247
2163.622426116884,1293
2165.5217989840185,1321
2167.4207242616,1318
2169.319202224862,1327
2171.2172331491165,1242
2173.1148173097563,1303
2175.0119549822507,1319
2176.90864644215,1307
2178.8048919650823,1313
2180.7006918267534,1369
2182.596046302952,1291
2184.4909556695407,1294
2186.3854202024645,1301
2188.279440177746,1334
2190.173015871487,1285
2192.066147559868,1341
2193.958835519149,1325
2195.851080025667,1290
2197.7428813558417,1322
2199.6342397861667,1283
2201.5251555932186,1291
2203.415629053651,1340
2205.3056604441986,1373
2207.19525004167,1325
2209.084398122958,1330
2210.9731049650327,1335
2212.861370844941,1324
2214.749196039812,1381
2216.636580826851,1359
2218.523525483344,1391
2220.410030286655,1402
2222.296095514226,1369
2224.1817214435805,1362
2226.066908352319,1339
2227.951656518121,1373
2229.835966218746,1357
2231.71983773203,1342
2233.6032713358913,1372
2235.486267308324,1376
2237.3688259274036,1372
2239.2509474712824,1361
2241.132632218193,1316
2243.013880446447,1342
2244.8946924344323,1343
2246.7750684606203,1338
2248.6550088035574,1351
2250.534513741871,1326
2252.413583554265,1265
2254.292218519526,1351
2256.170418916517,1332
2258.0481850241786,1326
2259.925517121534,1356
2261.8024154876825,1368
2263.678880401803,1377
2265.5549121431536,1280
2267.430510991071,1425
2269.305677224971,1331
2271.180411124348,1312
2273.0547129687766,1302
2274.9285830379076,1272
2276.8020216114737,1292
2278.6750289692845,1357
2280.5476053912294,1304
2282.4197511572766,1331
2284.2914665474727,1376
2286.162751841943,1388
2288.0336073208937,1328
2289.904033264608,1375
2291.774029953448,1403
2293.6435976678554,1361
2295.5127366883517,1316
2297.381447295534,1292
2299.2497297700825,1301
2301.1175843927526,1287
2302.9850114443825,1179
2304.852011205885,1268
2306.7185839582553,1228
2308.5847299825664,1156
2310.4504495599676,1207
2312.3157429716925,1224
2314.1806104990483,1174
2316.0450524234247,1187
2317.9090690262888,1164
2319.772660589186,1184
2321.635827393742,1204
2323.498569721661,1171
2325.3608878547248,1185
2327.2227820747967,1187
2329.0842526638157,1200
2330.945299903803,1233
2332.805924076857,1187
2334.6661254651535,1142
2336.525904350951,1171
2338.3852610165827,1150
2340.244195744464,1152
2342.102708817088,1220
2343.9608005170253,1200
2345.8184711269287,1154
2347.675720929526,1170
2349.532550207628,1209
2351.38895924412,1207
2353.24494832197,1150
2355.100517724223,1190
2356.955667734004,1154
2358.810398634514,1178
2360.664710709037,1202
2362.5186042409337,1195
2364.3720795136437,1166
2366.225136810686,1174
2368.0777764156583,1170
2369.929998612237,1157
2371.7818036841777,1205
2373.633191915315,1185
2375.484163589562,1188
2377.3347189909114,1226
2379.184858403434,1207
2381.03458211128,1175
2382.8838903986775,1203
2384.732783549936,1205
2386.5812618494406,1194
2388.4293255816588,1184
2390.2769750311327,1154
2392.1242104824883,1207
2393.971032220427,1189
2395.8174405297295,1218
2397.6634356952563,1222
2399.509018001947,1202
2401.3541877348193,1209
2403.1989451789705,1179
2405.043290619576,1203
2406.8872243418905,1192
2408.730746631247,1163
2410.5738577730594,1156
2412.4165580528183,1170
2414.258847756095,1173
2416.100727168537,1178
2417.9421965758734,1145
2419.783256263912,1217
2421.623906518538,1184
2423.4641476257157,1226
2425.303979871491,1190
2427.143403541984,1195
2428.9824189233977,1188
2430.821026302012,1219
2432.6592259641866,1177
2434.497018196361,1164
2436.33440328505,1268
2438.171381516851,1191
2440.00795317844,1241
2441.844118556569,1222
2443.6798779380724,1220
2445.5152316098606,1201
2447.3501798589255,1208
2449.1847229723357,1174
2451.0188612372403,1225
2452.8525949408663,1169
2454.6859243705203,1149
2456.518849813587,1164
2458.3513715575314,1194
2460.183489889895,1208
2462.015205098301,1200
2463.8465174704493,1182
2465.67742729412,1168
2467.5079348571717,1185
2469.338040447542,1147
2471.1677443532476,1215
2472.9970468623833,1213
2474.825948263123,1204
2476.6544488437207,1208
2478.482548892508,1212
2480.310248697896,1214
2482.137548548374,1218
2483.9644487325118,1262
2485.790949538956,1231
2487.617051256433,1208
2489.44275417375,1184
2491.26805857979,1195
2493.0929647635157,1248
2494.917473013971,1204
2496.741583620276,1222
2498.5652968716304,1212
2500.3886130573137,1215
2502.2115324666834,1218
2504.0340553891765,1266
2505.856182114308,1217
2507.6779129316733,1234
2509.499248130945,1264
2511.3201880018764,1284
2513.140732834298,1222
2514.9608829181198,1231
2516.780638543331,1259
2518.6,1201
2520.418967578273,1244
2522.237541568376,1245
2524.0557222606144,1255
2525.8735099453706,1268
2527.6909049131086,1264
2529.507907454368,1233
2531.32451785977,1265
2533.140736420014,1226
2534.9565634258774,1230
2536.771999168218,1247
2538.5870439379714,1289
2540.4016980261526,1276
2542.2159617238544,1236
2544.02983532225,1273
2545.8433191125914,1318
2547.656413386209,1261
2549.4691184345115,1254
2551.2814345489874,1343
2553.093362021204,1296
2554.904901142808,1319
2556.716052205523,1298
2558.526815501153,1300
2560.3371913215824,1344
2562.147179958771,1331
2563.956781704761,1318
2565.7659968516705,1328
2567.5748256916986,1321
2569.3832685171224,1369
2571.1913256202984,1306
2572.9989972936614,1303
2574.806283829725,1332
2576.613185521084,1314
2578.4197026604074,1300
2580.2258355404483,1379
2582.031584454035,1303
2583.836949694077,1316
2585.6419315535613,1340
2587.4465303255533,1345
2589.2507463032002,1338
2591.0545797797245,1387
2592.8580310484303,1363
2594.6611004026995,1362
2596.463788135992,1363
2598.266094541849,1362
2600.0680199138874,1301
2601.869564545807,1294
2603.670728731383,1338
2605.4715127644704,1320
2607.2719169390048,1358
2609.071941548998,1325
2610.8715868885433,1329
2612.670853251811,1290
2614.469740933052,1314
2616.268250226594,1278
2618.0663814268455,1256
2619.864134828292,1359
2621.6615107255006,1369
2623.458509413115,1285
2625.2551311858597,1349
2627.0513763385347,1313
2628.8472451660223,1351
2630.6427379632833,1302
2632.4378550253564,1317
2634.232596647359,1325
2636.026963124488,1312
2637.8209547520187,1306
2639.6145718253065,1327
2641.407814639785,1293
2643.200683490966,1269
2644.9931786744414,1244
2646.7853004858807,1273
2648.577049221034,1307
2650.3684251757277,1302
2652.1594286458712,1315
2653.9500599274484,1278
2655.740319316525,1340
2657.5302071092437,1267
2659.3197236018286,1277
2661.10886909058,1290
2662.8976438718782,1259
2664.686048242183,1301
2666.4740824980327,1279
2668.2617469360443,1243
2670.0490418529134,1220
2671.8359675454153,1222
2673.622524310403,1314
2675.408712444811,1275
2677.1945322456495,1199
2678.979984010009,1244
2680.76506803506,1212
2682.5497846180497,1243
2684.334134056306,1226
2686.1181166472343,1259
2687.9017326883213,1233
2689.6849824771293,1185
2691.4678663113013,1228
2693.2503844885596,1211
2695.032537306705,1236
2696.8143250636167,1194
2698.5957480572542,1161
2700.3768065856534,1224
2702.1575009469316,1187
2703.937831439283,1186
2705.717798360982,1204
2707.4974020103837,1197
2709.276642685917,1165
2711.055520686095,1174
2712.834036309506,1145
2714.612189854819,1210
2716.389981620782,1223
2718.1674119062204,1178
2719.944481010041,1228
2721.721189231226,1202
2723.4975368688415,1221
2725.273524222027,1160
2727.0491515900053,1165
2728.824419272075,1177
2730.5993275676146,1204
2732.3738767760838,1199
2734.148067197016,1150
2735.921899130031,1113
2737.6953728748194,1130
2739.468488731156,1183
2741.2412469988926,1208
2743.0136479779617,1199
2744.785691968372,1218
2746.5573792702116,1206
2748.3287101836504,1163
2750.099685008934,1179
2751.870304046388,1181
2753.640567596418,1212
2755.4104759595057,1183
2757.1800294362156,1201
2758.949228327187,1170
2760.7180729331412,1116
2762.486563554877,1181
2764.254700493272,1153
2766.022484049284,1185
2767.789914523947,1184
2769.5569922183786,1198
2771.3237174337705,1154
2773.090090471394,1172
2774.8561116326036,1132
2776.6217812188274,1163
2778.3870995315756,1219
2780.1520668724356,1148
2781.9166835430747,1140
2783.6809498452394,1207
2785.444866080754,1203
2787.2084325515225,1188
2788.971649559527,1183
2790.73451740683,1133
2792.4970363955713,1207
2794.2592068279705,1197
2796.0210290063264,1167
2797.7825032330147,1169
2799.543629810493,1182
2801.304409041296,1216
2803.0648412280366,1176
2804.8249266734088,1179
2806.5846656801846,1118
2808.344058551212,1178
2810.1031055894246,1177
2811.8618070978273,1178
2813.6201633795085,1186
2815.378174737636,1109
2817.1358414754536,1157
2818.893163896285,1179
2820.6501423035334,1159
2822.4067770006814,1179
2824.1630682912883,1141
2825.9190164789957,1134
2827.6746218675207,1182
2829.429884760661,1189
2831.184805462294,1172
2832.9393842763743,1185
2834.693621506936,1171
2836.4475174580916,1231
2838.201072434034,1144
2839.954286739034,1133
2841.707160677441,1138
2843.459694553685,1158
2845.2118886722724,1232
2846.96374333779,1145
2848.7152588549034,1185
2850.4664355283567,1172
2852.217273662973,1152
2853.9677735636546,1163
2855.7179355353833,1183
2857.4677598832186,1156
2859.217246912299,1158
2860.9663969278427,1158
2862.715210235146,1117
2864.4636871395846,1172
2866.211827946614,1159
2867.9596329617652,1156
2869.7071024906536,1159
2871.4542368389684,1144
2873.20103631248,1186
2874.947501217038,1174
2876.6936318585695,1196
2878.4394285430812,1182
2880.1848915766604,1195
2881.9300212654707,1167
2883.6748179157553,1164
2885.4192818338374,1163
2887.1634133261173,1128
2888.907212699077,1163
2890.6506802592744,1147
2892.393816313348,1178
2894.1366211680142,1190
2895.8790951300693,1166
2897.621238506388,1219
2899.363051603925,1179
2901.1045347297118,1162
2902.8456881908596,1148
2904.58651229456,1112
2906.327007348081,1118
2908.067173658772,1150
2909.8070115340597,1177
2911.5465212814497,1151
2913.285703208527,1180
2915.0245576229563,1201
2916.7630848324807,1198
2918.5012851449196,1138
2920.2391588681758,1169
2921.976706310227,1195
2923.7139277791334,1204
2925.4508235830313,1162
2927.187394030137,1116
2928.923639428745,1100
2930.6595600872306,1229
2932.395156314046,1195
2934.1304284177218,1209
2935.8653767068713,1154
2937.6000014901815,1122
2939.3343030764227,1294
2941.068281774442,1154
2942.8019378931644,1172
2944.5352717415976,1145
2946.2682836288236,1158
2948.0009738640065,1140
2949.7333427563885,1175
2951.465390615289,1215
2953.1971177501086,1181
2954.9285244703265,1195
2956.6596110855,1167
2958.3903779052657,1167
2960.1208252393385,1192
2961.8509533975125,1189
2963.5807626896617,1137
2965.3102534257378,1206
2967.0394259157715,1154
2968.768280469873,1168
2970.496817398232,1131
2972.2250370111146,1158
2973.952939618869,1161
2975.6805255319196,1160
2977.4077950607707,1133
2979.134748516006,1138
2980.861386208289,1180
2982.587708448359,1204
2984.313715547037,1166
2986.039407815222,1179
2987.764785563891,1192
2989.489849104102,1158
2991.2145987469908,1199
2992.9390348037705,1170
2994.6631575857346,1176
2996.3869674042576,1144
2998.1104645707887,1181
2999.83364939686,1165
3001.5565221940783,1179
3003.2790832741334,1214
3005.0013329487924,1122
3006.7232715298996,1183
3008.4448993293804,1119
3010.166216659239,1146
3011.887223831558,1147
3013.607921158498,1191
3015.3283089522993,1156
3017.0483875252826,1156
3018.7681571898443,1141
3020.4876182584626,1162
3022.2067710436927,1092
3023.9256158581707,1126
3025.644153014609,1139
3027.362382825801,1153
3029.0803056046193,1157
3030.797921664012,1165
3032.5152313170106,1143
3034.2322348767225,1137
3035.9489326563353,1131
3037.665324969115,1160
3039.3814121284063,1177
3041.097194447633,1155
3042.812672240299,1172
3044.5278458199855,1127
3046.2427155003525,1135
3047.9572815951406,1181
3049.671544418167,1143
3051.38550428333,1188
3053.0991615046073,1129
3054.812516396051,1155
3056.5255692717974,1167
3058.2383204460575,1162
3059.9507702331257,1154
3061.662918947372,1185
3063.3747669032446,1151
3065.0863144152736,1167
3066.7975617980674,1125
3068.508509366309,1189
3070.219157434767,1169
3071.9295063182844,1151
3073.639556331785,1144
3075.3493077902704,1141
3077.058761008821,1163
3078.7679163025964,1113
3080.476773986837,1135
3082.1853343768594,1125
3083.89359778806,1171
3085.6015645359153,1116
3087.3092349359786,1140
3089.016609303884,1143
3090.7236879553434,1116
3092.4304712061476,1127
3094.136959372166,1155
3095.843152769349,1147
3097.5490517137237,1169
3099.2546565213966,1120
3100.959967508554,1169
3102.66498499146,1192
3104.3697092864577,1104
3106.0741407099695,1170
3107.778279578498,1116
3109.482126208622,1112
3111.1856809170004,1107
3112.8889440203716,1119
3114.5919158355528,1175
3116.294596679439,1150
3117.996986869006,1161
3119.6990867213062,1135
3121.4008965534726,1155
3123.102416682717,1175
3124.803647426329,1130
3126.5045891016784,1163
3128.205242026213,1146
3129.90560651746,1120
3131.605682893025,1130
3133.3054714705922,1164
3135.0049725679282,1158
3136.7041865028714,1136
3138.4031135933465,1154
3140.101754157353,1134
3141.800108512971,1158
3143.498176978357,1181
3145.1959598717494,1155
3146.8934575114636,1172
3148.5906702158954,1170
3150.2875983035183,1165
3151.9842420928853,1146
3153.680601902627,1122
3155.376678051456,1141
3157.07247085816,1108
3158.767980641609,1160
3160.463207720748,1144
3162.158152414606,1184
3163.8528150422862,1205
3165.5471959229726,1074
3167.2412953759303,1120
3168.9351137204976,1132
3170.628651276098,1152
3172.3219083622307,1130
3174.014885298474,1122
3175.707582404485,1148
3177.4000000000005,1158
3179.092138404835,1181
3180.7839979388846,1152
3182.47557892212,1132
3184.166881674594,1173
3185.8579065164386,1124
3187.5486537678626,1114
3189.2391237491547,1149
3190.9293167806827,1140
3192.6192331828934,1158
3194.3088732763117,1161
3195.998237381542,1126
3197.687325819268,1154
3199.376138910251,1128
3201.064676975334,1095
3202.7529403354347,1128
3204.4409293115523,1120
3206.1286442247647,1146
3207.816085396229,1102
3209.5032531471825,1150
3211.190147798936,1138
3212.8767696728846,1095
3214.5631190905015,1116
3216.2491963733373,1117
3217.9350018430214,1100
3219.6205358212637,1090
3221.305798629851,1083
3222.990790590651,1131
3224.6755120256103,1136
3226.359963256751,1084
3228.0441446061795,1109
3229.7280563960758,1081
3231.411698948703,1105
3233.0950725863995,1137
3234.778177631587,1109
3236.461014406761,1102
3238.1435832345005,1123
3239.8258844374595,1097
3241.507918338374,1125
3243.1896852600576,1081
3244.8711855254023,1106
3246.552419457381,1118
3248.233387379042,1079
3249.914089613516,1138
3251.59452648401,1139
3253.274698313813,1116
3254.95460542629,1103
3256.6342481448855,1076
3258.313626793125,1057
3259.9927416946084,1120
3261.6715931730196,1134
3263.3501815521176,1136
3265.0285071557437,1137
3266.706570307815,1152
3268.3843713323286,1130
3270.0619105533615,1144
3271.739188295068,1066
3273.4162048816834,1084
3275.0929606375184,1124
3276.769455886966,1130
3278.445690954498,1103
3280.1216661646613,1128
3281.797381842087,1199
3283.4728383114807,1108
3285.1480358976296,1152
3286.8229749253996,1145
3288.4976557197333,1086
3290.172078605655,1135
3291.846243908266,1116
3293.5201519527463,1080
3295.193803064357,1091
3296.8671975684374,1079
3298.5403357904024,1053
3300.21321805575,1068
3301.8858446900567,1117
3303.558216018975,1154
3305.23033236824,1127
3306.9021940636603,1112
3308.57380143113,1149
3310.2451547966184,1119
3311.916254486174,1126
3313.5871008259246,1102
3315.2576941420766,1185
3316.9280347609147,1112
3318.5981230088046,1141
3320.2679592121895,1136
3321.9375436975924,1086
3323.606876791612,1051
3325.27595882093,1091
3326.944790112305,1102
3328.6133709925753,1142
3330.2817017886573,1111
3331.949782827547,1114
3333.617614436319,1124
3335.2851969421245,1098
3336.952530672199,1108
3338.619615953853,1145
3340.286453114475,1115
3341.9530424815357,1129
3343.619384382583,1108
3345.2854791452437,1145
3346.951327097224,1085
3348.6169285663073,1096
3350.2822838803577,1088
3351.947393367319,1102
3353.61225735521,1142
3355.2768761721345,1108
3356.9412501462693,1093
3358.605379605873,1138
3360.2692648792827,1099
3361.9329062949146,1112
3363.596304181263,1125
