CollectionTime,6/28/2024 2:41:56 PM
ExposureUsed,3
CalibratedSpectrum
-962.7078968117929,658
-959.9714848408522,686
-957.2358232597828,682
-954.5009119013725,683
-951.7667505983302,674
-949.0333391832855,684
-946.3006774887896,680
-943.5687653473143,687
-940.837602591253,676
-938.1071890529199,705
-935.3775245645503,693
-932.6486089583007,718
-929.9204420662485,677
-927.1930237203925,750
-924.4663537526524,682
-921.7404319948689,682
-919.0152582788041,723
-916.2908324361409,728
-913.5671542984834,739
-910.8442236973568,757
-908.1220404642074,693
-905.4006044304027,707
-902.679915427231,692
-899.959973285902,744
-897.2407778375464,752
-894.5223289132158,717
-891.8046263438832,694
-889.0876699604426,700
-886.3714595937089,705
-883.6559950744183,690
-880.9412762332282,679
-878.2273029007168,704
-875.5140749073835,687
-872.8015920836489,675
-870.0898542598545,651
-867.3788612662631,666
-864.6686129330585,658
-861.9591090903457,638
-859.2503495681506,647
-856.5423341964203,675
-853.8350628050229,672
-851.1285352237478,683
-848.4227512823054,709
-845.7177108103272,672
-843.0134136373656,651
-840.3098595928943,639
-837.6070485063082,680
-834.9049802069229,671
-832.2036545239757,683
-829.5030712866244,656
-826.8032303239481,627
-824.1041314649472,621
-821.4057745385428,681
-818.7081593735775,665
-816.0112857988148,678
-813.3151536429393,624
-810.6197627345566,647
-807.9251129021936,658
-805.2312039742981,689
-802.5380357792392,677
-799.8456081453069,669
-797.1539209007124,672
-794.462973873588,640
-791.772766891987,666
-789.083299783884,656
-786.3945723771743,683
-783.7065844996748,641
-781.0193359791231,660
-778.3328266431781,711
-775.6470563194197,686
-772.9620248353489,670
-770.2777320183878,671
-767.5941776958798,675
-764.9113616950891,677
-762.2292838432011,686
-759.5479439673222,681
-756.8673418944801,680
-754.1874774516235,721
-751.5083504656222,684
-748.8299607632671,663
-746.15230817127,682
-743.475392516264,698
-740.7992136248035,651
-738.1237713233636,673
-735.4490654383407,661
-732.7750957960521,674
-730.1018622227365,663
-727.4293645445534,669
-724.7576025875837,701
-722.0865761778291,706
-719.4162851412126,708
-716.7467293035781,697
-714.0779084906909,718
-711.409822528237,715
-708.7424712418238,682
-706.0758544569796,700
-703.4099719991541,704
-700.7448236937178,738
-698.0804093659622,736
-695.4167288411002,706
-692.7537819442656,686
-690.0915685005134,698
-687.4300883348199,733
-684.7693412720819,728
-682.1093271371178,732
-679.4500457546669,722
-676.7914969493897,730
-674.1336805458676,777
-671.4765963686034,765
-668.8202442420206,706
-666.1646239904642,717
-663.5097354382001,741
-660.8555784094151,734
-658.2021527282176,741
-655.5494582186366,792
-652.8974947046223,771
-650.2462620100463,779
-647.5957599587009,803
-644.9459883742998,804
-642.2969470804776,785
-639.6486359007902,801
-637.0010546587141,838
-634.3542031776476,802
-631.7080812809096,785
-629.0626887917401,756
-626.4180255333008,724
-623.7740913286734,755
-621.1308860008619,775
-618.4884093727904,738
-615.8466612673046,798
-613.2056415071715,747
-610.5653499150785,732
-607.9257863136347,750
-605.28695052537,767
-602.6488423727357,761
-600.0114616781036,779
-597.3748082637674,792
-594.7388819519412,759
-592.1036825647604,780
-589.4692099242818,787
-586.8354638524829,771
-584.2024441712624,775
-581.5701507024403,778
-578.9385832677575,784
-576.3077416888759,786
-573.6776257873787,808
-571.0482353847704,794
-568.4195703024757,861
-565.7916303618415,894
-563.164415384135,844
-560.5379251905453,818
-557.9121596021815,785
-555.2871184400748,757
-552.6628015251767,768
-550.0392086783606,811
-547.4163397204204,826
-544.794194472071,830
-542.1727727539491,842
-539.5520743866118,879
-536.9320991905377,883
-534.3128469861261,894
-531.6943175936979,924
-529.0765108334947,1014
-526.4594265256793,1074
-523.8430644903358,1176
-521.2274245474689,1359
-518.612506517005,1482
-515.9983102187913,1562
-513.3848354725959,1659
-510.77208209810846,1668
-508.16004991493924,1695
-505.5487387426199,1918
-502.9381484006032,2004
-500.3282787082628,2152
-497.71912948489364,2202
-495.1107005497117,2303
-492.5029917218539,2321
-489.8960028203786,2061
-487.28973366426493,1871
-484.68418407241325,1568
-482.07935386364494,1380
-479.47524285670266,1306
-476.87185087025,1290
-474.2691777228715,1228
-471.66722323307334,1166
-469.0659872192821,1153
-466.4654694998459,1142
-463.86566989303384,1150
-461.26658821703614,1066
-458.66822428996414,1096
-456.07057792985,1074
-453.4736489546475,1093
-450.877437182231,1088
-448.28194243039627,1026
-445.68716451686,956
-443.09310325926003,1005
-440.49975847515555,1011
-437.9071299820263,982
-435.31521759727354,1021
-432.72402113821954,1035
-430.13354042210767,1062
-427.5437752661022,1063
-424.95472548728867,1083
-422.36639090267386,1101
-419.7787713291855,1128
-417.1918665836721,1102
-414.60567648290385,1126
-412.0202008435715,1144
-409.4354394822874,1072
-406.8513922155845,1127
-404.26805885991723,1116
-401.685439231661,1147
-399.103533147112,1140
-396.522340422488,1058
-393.9418608739278,1127
-391.3620943174908,1106
-388.7830405691583,1095
-386.2046994448317,1046
-383.6270707603344,956
-381.05015433141045,892
-378.473949973725,829
-375.8984575028645,829
-373.32367673433623,781
-370.74960748356875,722
-368.1762495659117,678
-365.60360279663576,560
-363.03166699093265,599
-360.4604419639154,603
-357.8899275306178,562
-355.32012350599507,552
-352.7510297049233,551
-350.1826459421999,532
-347.61497203254316,551
-345.04800779059235,536
-342.4817530309082,527
-339.91620756797226,518
-337.35137121618743,559
-334.7872437898774,560
-332.22382510328725,540
-329.66111497058273,550
-327.09911320585127,591
-324.53781962310075,590
-321.9772340362607,605
-319.4173562591816,574
-316.8581861056348,572
-314.2997233893127,566
-311.7419679238294,644
-309.1849195227194,616
-306.62857799943856,527
-304.0729431673641,527
-301.51801483979375,568
-298.963792829947,540
-296.41027695096386,620
-293.85746701590574,610
-291.3053628377552,673
-288.7539642294155,666
-286.2032710037115,622
-283.65328297338897,581
-281.1039999511146,660
-278.5554217494762,682
-276.007548180983,658
-273.4603790580651,626
-270.9139141930734,625
-268.3681533982807,653
-265.8230964858798,652
-263.27874326798565,663
-260.7350935566336,695
-258.1921471637804,675
-255.6499039013039,655
-253.10836358100266,635
-250.56752601459698,665
-248.02739101372765,817
-245.48795838995704,845
-242.94922795476816,806
-240.41119951956557,755
-237.8738728956746,777
-235.33724789434166,879
-232.80132432673452,1018
-230.2661020039418,882
-227.73158073697357,802
-225.19776033676033,756
-222.66464061415422,813
-220.1322213799284,789
-217.60050244477725,776
-215.06948361931552,805
-212.53916471408013,809
-210.00954553952818,804
-207.48062590603843,894
-204.9524056239104,878
-202.4248845033651,832
-199.8980623545441,770
-197.37193898751036,853
-194.84651421224817,876
-192.32178783866232,917
-189.79775967657952,965
-187.27442953574644,941
-184.7517972258321,824
-182.2298625564256,838
-179.7086253370378,865
-177.18808537710026,880
-174.66824248596583,897
-172.14909647290835,996
-169.6306471471229,1028
-167.11289431772548,946
-164.59583779375328,1003
-162.07947738416453,1006
-159.5638128978386,1013
-157.04884414357605,1001
-154.53457093009854,1229
-152.02099306604828,1156
-149.50811035998936,1085
-146.99592262040665,1074
-144.48442965570587,1139
-141.97363127421409,1198
-139.46352728417958,1114
-136.95411749377126,1114
-134.44540171107985,1278
-131.93737974411636,1333
-129.43005140081357,1439
-126.92341648902493,1490
-124.41747481652521,1460
-121.91222619101006,1341
-119.40767042009657,1267
-116.90380731132257,1468
-114.40063667214702,1530
-111.8981583099503,1605
-109.3963720320337,1706
-106.89527764561933,1810
-104.39487495785067,1888
-101.89516377579241,1817
-99.39614390642998,1777
-96.89781515667039,1724
-94.40017733334128,2056
-91.90323024319173,2023
-89.40697369289148,2034
-86.91140748903172,1939
-84.41653143812482,1932
-81.92234534660395,2059
-79.42884902082358,2477
-76.93604226705907,2660
-74.4439248915071,2392
-71.95249670028534,2558
-69.46175749943245,2655
-66.97170709490854,3061
-64.48234529259423,3810
-61.99367189829195,2940
-59.50568671772464,2845
-57.01838955653636,3320
-54.53178022029283,3356
-52.045858514480074,3339
-49.560624244506016,3357
-47.07607721569923,3405
-44.59221723330904,3527
-42.10904410250669,3662
-39.62655762838392,4340
-37.14475761595372,5833
-34.66364387015028,6989
-32.18321619582866,7410
-29.70347439776515,8690
-27.224418280657005,10848
-24.74604764912317,15047
-22.26836230770266,24493
-19.7913620608565,40650
-17.315046712966478,53632
-14.83941606833514,65030
-12.36446993118659,65030
-9.89020810566592,65030
-7.416630395839093,65030
-4.94373660569363,65030
-2.471526539137585,65030
-6.821210263296962E-13,65030
2.47084320796705,65030
4.941003281093458,65030
7.410480415786196,65030
9.879274808531363,65030
12.347386655893956,65030
14.814816154518212,65030
17.28156350112681,65030
19.74762889252179,65030
22.21301252558385,65030
24.67771459727237,65030
27.141735304626195,49422
29.605074844762612,17344
32.06773341487792,10291
34.52971121224755,8930
36.99100843422559,9440
39.45162527824516,9422
41.91156194181792,8887
44.370818622535126,9479
46.82939551806646,12110
49.287292826160524,16375
51.74451074464503,15264
54.201049471426245,10740
56.65690920448981,9293
59.112090141899785,6758
61.56659248179983,4759
64.02041642241159,4126
66.4735621620365,3969
68.92602989905402,2725
71.37781983192338,2724
73.82893215918205,3290
76.27936707944684,3295
78.72912479141326,2912
81.17820549385567,2731
83.62660938562783,2441
86.07433666566146,2296
88.5213875329681,2544
90.96776218663751,2304
93.41346082583925,2449
95.85848364982041,2449
98.30283085790859,2309
100.7465026495089,2417
103.18949922410604,2190
105.63182078126385,2061
108.07346752062438,2365
110.51443964190923,2079
112.95473734491827,1705
115.39436082953114,1617
117.83331029570547,1907
120.27158594347827,2072
122.7091879729652,1795
125.1461165843615,1571
127.58237197794062,1712
130.01795435405518,1403
132.4528639131364,1338
134.88710085569494,1615
137.32066538231982,1875
139.75355769367923,1770
142.1857779905207,1764
144.61732647366978,1739
147.04820334403132,1821
149.47840880258934,1678
151.90794305040674,1728
154.33680628862487,1840
156.76499871846443,1816
159.19252054122433,2128
161.61937195828352,2168
164.04555317109896,2161
166.47106438120693,2368
168.89590579022217,2930
171.320077599839,2935
173.7435800118302,3014
176.16641322804742,2931
178.58857745042144,3132
181.01007288096173,3139
183.43089972175687,3049
185.85105817497413,2953
188.27054844285988,2953
190.6893707277394,3036
193.10752523201643,3158
195.5250121581745,3167
197.9418317087751,3220
200.3579840864594,3224
202.7734694939469,3203
205.18828813403627,3208
207.6024402096051,3181
210.01592592360964,3111
212.42874547908548,3096
214.84089907914665,2942
217.2523869269868,2938
219.66320922587727,2976
222.0733661791695,2962
224.48285799029293,2999
226.8916848627572,3049
229.29984700014882,3103
231.7073446061355,3258
234.11417788446204,3144
236.520347038953,3140
238.92585227351185,3242
241.33069379212054,3172
243.73487179884035,3199
246.1383864978112,3090
248.541238093252,3160
250.9434267894609,3111
253.34495279081432,3108
255.74581630176783,3032
258.1460175268563,3236
260.54555667069314,3169
262.9444339379703,3073
265.3426495334594,3052
267.7402036620107,3063
270.1370965285529,3014
272.53332833809407,3031
274.9288992957214,2986
277.32380960660055,2857
279.718059475976,2951
282.1116491091717,2926
284.5045787115897,2934
286.89684848871195,2904
289.2884586460981,2911
291.67940938938807,2866
294.0697009242996,2867
296.4593334566299,2884
298.84830719225477,2811
301.23662233712923,2738
303.6242790972866,2816
306.01127767884,2831
308.39761828798066,2881
310.78330113097934,2785
313.16832641418534,2733
315.5526943440269,2732
317.9364051270112,2622
320.3194589697242,2632
322.70185607883093,2547
325.0835966610754,2562
327.4646809232805,2551
329.8451090723478,2556
332.2248813152577,2539
334.6039978590701,2513
336.9824589109231,2482
339.36026467803447,2524
341.7374153677,2448
344.113911187295,2481
346.48975234427337,2410
348.8649390461686,2449
351.2394715005918,2405
353.61334991523415,2417
355.9865744978655,2419
358.35914545633375,2392
360.73106299856715,2389
363.10232733257146,2415
365.47293866643247,2377
367.84289720831396,2335
370.2122031664593,2322
372.5808567491905,2258
374.9488581649083,2326
377.31620762209275,2314
379.6829053293021,2288
382.0489514951745,2245
384.4143463284262,2321
386.7790900378528,2249
389.14318283232853,2342
391.50662492080653,2232
393.86941651231916,2202
396.23155781597745,2251
398.5930490409713,2206
400.9538903965696,2197
403.3140820921202,2120
405.6736243370498,2259
408.03251734086336,2260
410.3907613131465,2297
412.74835646356166,2257
415.10530300185144,2203
417.4616011378372,2146
419.81725108141893,2234
422.1722530425758,2164
424.5266072313656,2134
426.880313857925,2089
429.2333731324701,2108
431.58578526529516,2128
433.9375504667738,2127
436.2886689473588,2082
438.63914091758113,2128
440.9889665880513,2079
443.33814616945835,2029
445.68667987257015,2122
448.03456790823395,2106
450.3818104873759,2060
452.72840782100013,2152
455.07436012019105,2070
457.41966759611057,2111
459.7643304600007,2212
462.10834892318155,2136
464.4517231970525,2104
466.79445349309174,2197
469.1365400228566,2140
471.4779829979826,2125
473.81878263018564,2282
476.15893913125876,2288
478.4984527130747,2347
480.8373235875855,2324
483.17555196682144,2443
485.5131380628919,2533
487.8500820879857,2646
490.1863842543697,2842
492.52204477439034,3123
494.8570638604725,3463
497.1914417251204,3686
499.52517858091653,3896
501.85827464052306,4081
504.19073011668036,4034
506.5225452222086,3822
508.85372017000566,3634
511.18425517304956,3552
513.514150444396,3776
515.8434061971808,4590
518.1720226446176,5072
520.4999999999999,5434
522.8273384766991,5908
525.1540382881666,5898
527.480099647932,5577
529.8055227696037,4299
532.1303078668694,3053
534.454455153496,2476
536.777964843328,2242
539.1008371502907,2073
541.4230722883866,2084
543.744670471698,2063
546.0656319143858,1991
548.3859568306899,1979
550.7056454349294,1937
553.0246979415016,1961
555.3431145648834,1960
557.6608955196306,1913
559.978041020377,1886
562.2945512818363,1866
564.6104265188006,1924
566.9256669461412,1898
569.2402727788082,1931
571.5542442318302,1944
573.8675815203156,1899
576.1802848594508,1881
578.4923544645015,1797
580.8037905508126,1929
583.114593333807,1875
585.4247630289875,1887
587.7342998519354,1854
590.0432040183106,1886
592.3514757438526,1876
594.6591152443794,1810
596.9661227357875,1869
599.2724984340531,1859
601.578242555231,1958
603.8833553154542,1876
606.1878369309362,1966
608.4916876179676,1944
610.7949075929192,2001
613.0974970722403,1931
615.3994562724587,1951
617.7007854101818,1871
620.0014847020951,1873
622.3015543649641,1939
624.6009946156324,1903
626.8998056710224,1849
629.1979877481361,1816
631.4955410640538,1891
633.7924658359349,1898
636.0887622810175,1963
638.3844306166192,1988
640.6794710601358,1926
642.9738838290426,1961
645.2676691408932,1919
647.5608272133207,1955
649.853358264037,1981
652.1452625108324,1943
654.4365401715764,1935
656.7271914642178,1895
659.0172166067838,1948
661.3066158173809,1883
663.5953893141935,1983
665.8835373154867,1944
668.1710600396028,1941
670.4579577049639,1932
672.7442305300709,1985
675.0298787335033,1969
677.3149025339197,2006
679.599302150058,2004
681.8830778007342,2048
684.1662297048437,1980
686.4487580813608,1952
688.7306631493387,1943
691.0119451279091,1934
693.2926042362834,1900
695.5726406937516,1940
697.8520547196814,1926
700.1308465335215,1925
702.4090163547982,1989
704.6865644031171,1938
706.9634908981619,1885
709.2397960596965,1916
711.5154801075631,1996
713.7905432616823,1933
716.0649857420548,1944
718.3388077687592,1851
720.612009561953,1938
722.8845913418733,1932
725.1565533288352,1968
727.427895743234,1986
729.6986188055427,1893
731.9687227363137,2001
734.238207756178,1847
736.5070740858458,1938
738.7753219461066,1922
741.0429515578281,1922
743.3099631419569,1919
745.5763569195191,1962
747.8421331116193,1976
750.1072919394409,1959
752.3718336242467,1953
754.6357583873777,1953
756.8990664502545,1936
759.1617580343765,1933
761.423833361321,1917
763.6852926527457,1886
765.9461361303862,1934
768.206364016058,1961
770.4659765316536,1959
772.7249738991469,2001
774.9833563405886,1919
777.2411240781092,1949
779.4982773339183,2010
781.7548163303044,2023
784.010741289634,1975
786.2660524343538,2013
788.5207499869881,2049
790.7748341701416,2020
793.0283052064964,1981
795.2811633188143,2015
797.5334087299362,2098
799.7850416627813,1944
802.0360623403484,2005
804.2864709857143,2013
806.5362678220353,1990
808.7854530725468,2027
811.0340269605625,2018
813.2819897094754,2027
815.5293415427581,1991
817.77608268396,1996
820.0222133567116,2020
822.2677337847211,1997
824.5126441917765,1963
826.7569448017433,1960
829.0006358385675,2018
831.2437175262731,2018
833.4861900889629,1946
835.7280537508192,1954
837.9693087361026,2026
840.2099552691533,2008
842.4499935743896,1976
844.689423876309,2012
846.9282463994886,1987
849.1664613685833,1999
851.4040690083276,1958
853.6410695435349,2006
855.877463199097,2004
858.1132501999847,2018
860.3484307712487,2064
862.5830051380175,2064
864.8169735254988,2010
867.0503361589791,2021
869.2830932638243,2007
871.5152450654786,2006
873.7467917894654,2003
875.9777336613873,1961
878.2080709069252,2014
880.4378037518389,2015
882.666932421968,2008
884.8954571432301,2131
887.1233781416219,2092
889.3506956432192,2064
891.5774098741766,2076
893.803521060728,2102
896.0290294291852,2032
898.2539352059397,2047
900.4782386174619,2083
902.7019398903011,2099
904.925039251085,2146
907.147536926521,2065
909.3694331433943,2057
911.59072812857,1961
913.8114221089921,2033
916.0315153116827,2016
918.2510079637437,1995
920.4699002923547,1964
922.6881925247761,2014
924.905884888345,1976
927.1229776104793,2001
929.3394709186747,2072
931.555365040506,1959
933.7706602036275,1991
935.9853566357709,2053
938.1994545647489,1941
940.4129542184515,1971
942.6258558248488,1993
944.8381596119883,2034
947.0498658079974,1962
949.2609746410825,1989
951.4714863395287,1930
953.6814011316998,1954
955.8907192460387,1967
958.0994409110671,1927
960.3075663553858,1921
962.5150958076741,1968
964.7220294966913,1887
966.928367651274,1953
969.1341105003388,1887
971.3392582728806,1915
973.5438111979742,1930
975.747769504772,1860
977.9511334225061,1990
980.153903180487,1835
982.3560790081052,1883
984.5576611348289,1905
986.7586497902058,1834
988.9590452038618,1810
991.158847605503,1822
993.3580572249133,1799
995.5566742919558,1674
997.7546990365728,1701
999.952131688785,1729
1002.1489724786926,1690
1004.3452216364743,1678
1006.5408793923874,1720
1008.7359459767691,1635
1010.9304216200343,1693
1013.1243065526781,1674
1015.3176010052733,1633
1017.510305208472,1619
1019.7024193930064,1654
1021.8939437896848,1613
1024.0848786293977,1513
1026.2752241431122,1550
1028.4649805618747,1618
1030.6541481168115,1599
1032.842727039127,1544
1035.0307175601051,1574
1037.2181199111074,1578
1039.4049343235752,1540
1041.591161029029,1565
1043.7768002590683,1558
1045.9618522453698,1547
1048.1463172196918,1544
1050.3301954138697,1515
1052.513487059818,1539
1054.69619238953,1502
1056.8783116350783,1553
1059.0598450286152,1515
1061.2407928023704,1555
1063.4211551886528,1569
1065.6009324198508,1514
1067.780124728432,1474
1069.9587323469414,1542
1072.1367555080046,1583
1074.314194444325,1498
1076.4910493886855,1534
1078.667320573947,1454
1080.843008233051,1525
1083.0181125990161,1430
1085.1926339049414,1464
1087.3665723840027,1446
1089.5399282694575,1487
1091.7127017946405,1436
1093.8848931929647,1481
1096.0565026979243,1408
1098.2275305430899,1421
1100.3979769621128,1462
1102.567842188722,1466
1104.737126456726,1405
1106.9058300000124,1431
1109.0739530525475,1466
1111.2414958483764,1458
1113.4084586216231,1462
1115.5748416064907,1458
1117.7406450372605,1413
1119.9058691482942,1399
1122.0705141740304,1358
1124.2345803489884,1355
1126.3980679077658,1395
1128.5609770850388,1433
1130.7233081155623,1457
1132.8850612341707,1456
1135.0462366757774,1419
1137.2068346753745,1395
1139.3668554680326,1429
1141.526299288901,1402
1143.68516637321,1411
1145.8434569562655,1399
1148.001171273455,1365
1150.158309560244,1319
1152.3148720521767,1368
1154.470858984876,1379
1156.626270594044,1445
1158.7811071154629,1377
1160.9353687849912,1394
1163.089055838569,1385
1165.242168512213,1449
1167.3947070420209,1349
1169.5466716641677,1454
1171.6980626149075,1455
1173.8488801305748,1358
1175.9991244475814,1362
1178.1487958024186,1297
1180.2978944316555,1342
1182.4464205719428,1406
1184.5943744600072,1377
1186.7417563326567,1354
1188.8885664267755,1439
1191.0348049793297,1392
1193.1804722273619,1397
1195.325568407995,1372
1197.4700937584303,1350
1199.614048515948,1369
1201.7574329179074,1382
1203.900247201746,1376
1206.042491604982,1362
1208.1841663652099,1381
1210.3252717201053,1267
1212.465807907422,1336
1214.6057751649923,1358
1216.7451737307279,1357
1218.8840038426192,1359
1221.0222657387353,1397
1223.1599596572241,1416
1225.2970858363137,1396
1227.4336445143094,1355
1229.5696359295966,1419
1231.705060320639,1416
1233.8399179259786,1402
1235.9742089842384,1386
1238.107933734118,1393
1240.2410924143974,1435
1242.373685263935,1383
1244.5057125216676,1375
1246.6371744266116,1378
1248.7680712178621,1369
1250.898403134593,1409
1253.028170416058,1360
1255.1573733015875,1417
1257.2860120305932,1436
1259.4140868425648,1447
1261.54159797707,1375
1263.6685456737569,1379
1265.7949301723515,1423
1267.9207517126597,1467
1270.046010534565,1422
1272.1707068780306,1416
1274.2948409830983,1373
1276.4184130898889,1422
1278.541423438603,1417
1280.6638722695184,1421
1282.785759822993,1487
1284.9070863394636,1426
1287.0278520594447,1413
1289.1480572235314,1500
1291.2677020723963,1434
1293.3867868467923,1500
1295.5053117875495,1442
1297.623277135579,1456
1299.740683131868,1498
1301.8575300174857,1527
1303.973818033578,1475
1306.0895474213703,1538
1308.2047184221678,1507
1310.3193312773528,1497
1312.4333862283888,1561
1314.5468835168163,1542
1316.659823384255,1454
1318.7722060724045,1545
1320.8840318230418,1550
1322.9953008780249,1499
1325.1060134792888,1576
1327.2161698688478,1502
1329.3257702887959,1486
1331.4348149813054,1583
1333.5433041886276,1492
1335.6512381530933,1509
1337.7586171171101,1491
1339.8654413231675,1464
1341.9717110138317,1444
1344.0774264317488,1456
1346.1825878196432,1534
1348.2871954203192,1408
1350.3912494766587,1508
1352.4947502316231,1494
1354.5976979282532,1475
1356.7000928096686,1490
1358.8019351190665,1478
1360.9032250997243,1377
1363.0039629949988,1471
1365.1041490483235,1491
1367.2037835032133,1452
1369.3028666032606,1459
1371.401398592137,1485
1373.4993797135926,1487
1375.5968102114575,1456
1377.6936903296396,1454
1379.7900203121262,1486
1381.8858004029835,1515
1383.9810308463561,1519
1386.075711886469,1498
1388.1698437676241,1525
1390.2634267342032,1469
1392.356461030667,1444
1394.4489469015557,1458
1396.5408845914872,1470
1398.6322743451592,1534
1400.7231164073469,1544
1402.813411022907,1543
1404.903158436773,1448
1406.9923588939578,1420
1409.0810126395531,1487
1411.1691199187303,1531
1413.2566809767386,1447
1415.343696058907,1507
1417.4301654106425,1491
1419.5160892774315,1534
1421.6014679048399,1506
1423.6863015385125,1475
1425.7705904241707,1524
1427.8543348076178,1517
1429.9375349347342,1587
1432.0201910514802,1568
1434.102303403894,1526
1436.1838722380944,1551
1438.2648978002767,1568
1440.3453803367174,1593
1442.4253200937692,1614
1444.5047173178677,1599
1446.5835722555234,1609
1448.6618851533285,1621
1450.739656257952,1692
1452.8168858161434,1620
1454.8935740747306,1584
1456.96972128062,1690
1459.045327680797,1710
1461.120393522327,1690
1463.1949190523528,1721
1465.2689045180973,1748
1467.3423501668608,1738
1469.415256246024,1768
1471.4876230030463,1799
1473.559450685465,1734
1475.6307395408976,1778
1477.7014898170391,1745
1479.771701761665,1781
1481.8413756226287,1825
1483.9105116478618,1886
1485.9791100853772,1934
1488.0471711832643,1861
1490.1146951896926,1917
1492.1816823529098,2103
1494.2481329212433,2029
1496.3140471430984,1958
1498.3794252669609,1995
1500.4442675413939,2054
1502.5085742150404,2089
1504.572345536622,2126
1506.6355817549388,2185
1508.6982831188702,2139
1510.7604498773744,2237
1512.8220822794883,2187
1514.8831805743293,2323
1516.9437450110909,2320
1519.003775839048,2389
1521.0632733075522,2425
1523.1222376660367,2472
1525.1806691640113,2557
1527.2385680510652,2678
1529.2959345768668,2677
1531.3527689911643,2698
1533.4090715437833,2828
1535.4648424846291,2862
1537.5200820636855,2906
1539.5747905310159,3022
1541.6289681367616,3087
1543.6826151311434,3150
1545.7357317644614,3236
1547.7883182870937,3231
1549.8403749494987,3378
1551.8919020022113,3363
1553.9428996958477,3506
1555.9933682811015,3565
1558.0433080087469,3563
1560.0927191296346,3747
1562.1416018946961,3761
1564.1899565549415,3899
1566.2377833614592,3838
1568.2850825654164,3901
1570.3318544180606,3759
1572.3780991707158,3639
1574.423817074788,3465
1576.4690083817595,3248
1578.5136733431923,3154
1580.5578122107272,2947
1582.601425236085,2749
1584.6445126710646,2667
1586.6870747675434,2552
1588.7291117774776,2391
1590.7706239529034,2346
1592.8116115459347,2121
1594.8520748087658,2137
1596.8920139936686,2072
1598.9314293529933,2036
1600.9703211391711,1956
1603.008689604711,1858
1605.0465350022005,1832
1607.0838575843068,1804
1609.1206576037753,1748
1611.1569353134305,1715
1613.1926909661765,1702
1615.2279248149953,1703
1617.2626371129481,1622
1619.2968281131757,1631
1621.3304980688963,1629
1623.3636472334088,1594
1625.39627586009,1625
1627.428384202396,1538
1629.459972513861,1537
1631.4910410480993,1583
1633.5215900588028,1499
1635.551619799744,1517
1637.5811305247717,1535
1639.6101224878166,1540
1641.6385959428862,1524
1643.6665511440683,1521
1645.693988345528,1581
1647.7209078015112,1499
1649.7473097663405,1471
1651.7731944944203,1466
1653.7985622402307,1455
1655.823413258333,1470
1657.847747803366,1417
1659.8715661300494,1479
1661.8948684931793,1426
1663.9176551476316,1442
1665.9399263483624,1458
1667.9616823504057,1418
1669.982923408873,1493
1672.0036497789574,1423
1674.0238617159293,1463
1676.043559475138,1441
1678.0627433120121,1432
1680.081413482059,1427
1682.0995702408654,1495
1684.117213844096,1452
1686.134344547495,1450
1688.1509626068864,1406
1690.1670682781705,1493
1692.182661817329,1470
1694.1977434804217,1415
1696.2123135235875,1423
1698.226372203043,1432
1700.2399197750851,1441
1702.2529564960905,1513
1704.2654826225112,1465
1706.277498410882,1518
1708.2890041178139,1467
1710.2999999999988,1492
1712.3104863142066,1393
1714.3204633172854,1438
1716.329931266163,1428
1718.3388904178469,1434
1720.3473410294214,1454
1722.3552833580516,1438
1724.3627176609807,1472
1726.3696441955308,1507
1728.3760632191033,1456
1730.3819749891782,1427
1732.3873797633146,1447
1734.3922777991502,1413
1736.3966693544012,1385
1738.4005546868639,1454
1740.4039340544127,1379
1742.406807715001,1413
1744.4091759266616,1395
1746.4110389475054,1402
1748.4123970357223,1377
1750.413250449582,1359
1752.4135994474318,1398
1754.4134442876993,1323
1756.4127852288902,1340
1758.4116225295893,1383
1760.4099564484595,1364
1762.407787244244,1382
1764.405115175764,1470
1766.4019405019203,1382
1768.3982634816916,1379
1770.3940843741357,1372
1772.3894034383907,1355
1774.3842209336717,1343
1776.378537119274,1370
1778.372352254571,1353
1780.3656665990156,1389
1782.3584804121397,1362
1784.3507939535534,1392
1786.3426074829463,1401
1788.3339212600863,1358
1790.3247355448211,1407
1792.3150505970766,1364
1794.3048666768573,1377
1796.2941840442477,1391
1798.2830029594106,1325
1800.2713236825884,1362
1802.2591464741004,1416
1804.2464715943465,1351
1806.2332993038058,1352
1808.2196298630352,1367
1810.2054635326708,1397
1812.190800573428,1361
1814.175641246101,1380
1816.1599858115628,1389
1818.1438345307652,1369
1820.127187664738,1369
1822.1100454745924,1306
1824.092408221516,1311
1826.0742761667766,1342
1828.055649571721,1354
1830.0365286977735,1362
1832.0169138064398,1322
1833.9968051593014,1394
1835.9762030180214,1385
1837.9551076443408,1389
1839.9335193000788,1395
1841.9114382471344,1372
1843.888864747485,1333
1845.8657990631878,1294
1847.842241456378,1373
1849.8181921892697,1319
1851.7936515241558,1344
1853.7686197234098,1354
1855.7430970494815,1333
1857.7170837649014,1337
1859.6905801322787,1360
1861.6635864143004,1377
1863.6361028737338,1346
1865.608129773424,1338
1867.5796673762961,1342
1869.5507159453537,1326
1871.521275743678,1350
1873.4913470344313,1379
1875.4609300808534,1341
1877.4300251462632,1361
1879.3986324940588,1362
1881.366752387717,1329
1883.3343850907936,1321
1885.3015308669228,1384
1887.268189979819,1387
1889.2343626932739,1336
1891.2000492711595,1346
1893.1652499774254,1346
1895.1299650761011,1331
1897.0941948312952,1313
1899.0579395071945,1381
1901.0211993680641,1359
1902.98397467825,1404
1904.9462657021745,1365
1906.9080727043415,1365
1908.869395949332,1360
1910.8302357018065,1330
1912.790592226504,1404
1914.7504657882428,1343
1916.7098566519212,1358
1918.6687650825133,1393
1920.6271913450764,1380
1922.5851357047422,1338
1924.5425984267245,1399
1926.499579776314,1359
1928.4560800188833,1348
1930.4120994198802,1327
1932.367638244833,1349
1934.32269675935,1336
1936.2772752291175,1284
1938.231373919899,1414
1940.1849930975404,1354
1942.1381330279637,1370
1944.0907939771696,1361
1946.0429762112412,1388
1947.9946799963363,1353
1949.9459055986945,1404
1951.896653284633,1351
1953.8469233205478,1373
1955.7967159729142,1319
1957.7460315082863,1288
1959.6948701932974,1373
1961.6432322946594,1336
1963.5911180791632,1363
1965.5385278136787,1326
1967.4854617651545,1359
1969.4319202006182,1332
1971.377903387176,1354
1973.3234115920136,1383
1975.268445082395,1355
1977.2130041256642,1348
1979.1570889892423,1366
1981.1006999406304,1312
1983.04383724741,1314
1984.986501177238,1361
1986.928691997853,1338
1988.8704099770712,1255
1990.811655382789,1375
1992.7524284829801,1397
1994.692729545698,1275
1996.6325588390755,1373
1998.5719166313224,1383
2000.5108031907307,1365
2002.4492187856677,1323
2004.387163684583,1365
2006.3246381560011,1301
2008.2616424685298,1358
2010.1981768908527,1292
2012.1342416917332,1321
2014.069837140014,1336
2016.0049635046162,1285
2017.9396210545406,1319
2019.8738100588666,1281
2021.8075307867502,1286
2023.740783507431,1352
2025.6735684902228,1295
2027.6058860045214,1351
2029.5377363198004,1367
2031.4691197056118,1322
2033.4000364315875,1350
2035.3304867674374,1358
2037.260470982952,1302
2039.189989347998,1322
2041.1190421325232,1283
2043.047629606554,1305
2044.9757520401945,1305
2046.9034097036288,1346
2048.8306028671195,1342
2050.7573318010086,1304
2052.683596775716,1321
2054.609398061742,1352
2056.5347359296647,1342
2058.4596106501403,1338
2060.384022493906,1312
2062.3079717317764,1308
2064.231458634646,1343
2066.1544834734873,1384
2068.077046519352,1358
2069.99914804337,1313
2071.9207883167524,1311
2073.8419676107865,1345
2075.7626861968406,1329
2077.6829443463607,1343
2079.6027423308715,1322
2081.522080421977,1300
2083.440958891362,1329
2085.359378010786,1377
2087.2773380520907,1356
2089.194839287196,1317
2091.111881988101,1383
2093.0284664268825,1326
2094.9445928756973,1332
2096.86026160678,1346
2098.775472892446,1303
2100.690227005088,1281
2102.604524217178,1269
2104.5183648012676,1330
2106.431749029985,1343
2108.34467717604,1345
2110.2571495122206,1307
2112.169166311393,1259
2114.080727846503,1328
2115.9918343905747,1376
2117.902486216711,1322
2119.8126835980956,1280
2121.722426807987,1311
2123.6317161197285,1328
2125.5405518067364,1330
2127.448934142509,1310
2129.356863400624,1280
2131.264339854737,1397
2133.1713637785815,1368
2135.077935445972,1300
2136.9840551308002,1310
2138.889723107037,1332
2140.7949396487334,1342
2142.699705030018,1327
2144.6040195250994,1328
2146.507883408264,1349
2148.4112969538774,1379
2150.3142604363848,1312
2152.2167741303097,1261
2154.1188383102535,1352
2156.0204532508997,1351
2157.9216192270064,1341
2159.822336513414,1339
2161.7226053850413,1328
2163.622426116884,1338
2165.5217989840185,1329
2167.4207242616,1315
2169.319202224862,1313
2171.2172331491165,1331
2173.1148173097563,1328
2175.0119549822507,1325
2176.90864644215,1391
2178.8048919650823,1338
2180.7006918267534,1331
2182.596046302952,1357
2184.4909556695407,1311
2186.3854202024645,1311
2188.279440177746,1314
2190.173015871487,1361
2192.066147559868,1322
2193.958835519149,1347
2195.851080025667,1348
2197.7428813558417,1258
2199.6342397861667,1341
2201.5251555932186,1268
2203.415629053651,1320
2205.3056604441986,1316
2207.19525004167,1311
2209.084398122958,1316
2210.9731049650327,1389
2212.861370844941,1316
2214.749196039812,1313
2216.636580826851,1329
2218.523525483344,1304
2220.410030286655,1342
2222.296095514226,1318
2224.1817214435805,1337
2226.066908352319,1318
2227.951656518121,1322
2229.835966218746,1349
2231.71983773203,1338
2233.6032713358913,1357
2235.486267308324,1285
2237.3688259274036,1332
2239.2509474712824,1358
2241.132632218193,1306
2243.013880446447,1292
2244.8946924344323,1405
2246.7750684606203,1393
2248.6550088035574,1302
2250.534513741871,1340
2252.413583554265,1369
2254.292218519526,1278
2256.170418916517,1312
2258.0481850241786,1303
2259.925517121534,1368
2261.8024154876825,1302
2263.678880401803,1315
2265.5549121431536,1317
2267.430510991071,1297
2269.305677224971,1302
2271.180411124348,1295
2273.0547129687766,1327
2274.9285830379076,1350
2276.8020216114737,1302
2278.6750289692845,1400
2280.5476053912294,1366
2282.4197511572766,1339
2284.2914665474727,1383
2286.162751841943,1291
2288.0336073208937,1312
2289.904033264608,1346
2291.774029953448,1350
2293.6435976678554,1370
2295.5127366883517,1318
2297.381447295534,1310
2299.2497297700825,1332
2301.1175843927526,1313
2302.9850114443825,1318
2304.852011205885,1352
2306.7185839582553,1348
2308.5847299825664,1338
2310.4504495599676,1364
2312.3157429716925,1343
2314.1806104990483,1303
2316.0450524234247,1316
2317.9090690262888,1324
2319.772660589186,1369
2321.635827393742,1368
2323.498569721661,1336
2325.3608878547248,1362
2327.2227820747967,1312
2329.0842526638157,1378
2330.945299903803,1410
2332.805924076857,1396
2334.6661254651535,1337
2336.525904350951,1383
2338.3852610165827,1371
2340.244195744464,1323
2342.102708817088,1333
2343.9608005170253,1339
2345.8184711269287,1381
2347.675720929526,1396
2349.532550207628,1392
2351.38895924412,1382
2353.24494832197,1371
2355.100517724223,1382
2356.955667734004,1375
2358.810398634514,1353
2360.664710709037,1364
2362.5186042409337,1365
2364.3720795136437,1365
2366.225136810686,1341
2368.0777764156583,1338
2369.929998612237,1358
2371.7818036841777,1407
2373.633191915315,1346
2375.484163589562,1326
2377.3347189909114,1349
2379.184858403434,1439
2381.03458211128,1392
2382.8838903986775,1390
2384.732783549936,1377
2386.5812618494406,1386
2388.4293255816588,1447
2390.2769750311327,1404
2392.1242104824883,1402
2393.971032220427,1346
2395.8174405297295,1336
2397.6634356952563,1403
2399.509018001947,1367
2401.3541877348193,1382
2403.1989451789705,1336
2405.043290619576,1407
2406.8872243418905,1413
2408.730746631247,1415
2410.5738577730594,1338
2412.4165580528183,1360
2414.258847756095,1402
2416.100727168537,1403
2417.9421965758734,1450
2419.783256263912,1413
2421.623906518538,1404
2423.4641476257157,1371
2425.303979871491,1383
2427.143403541984,1393
2428.9824189233977,1405
2430.821026302012,1420
2432.6592259641866,1382
2434.497018196361,1396
2436.33440328505,1456
2438.171381516851,1400
2440.00795317844,1437
2441.844118556569,1393
2443.6798779380724,1378
2445.5152316098606,1456
2447.3501798589255,1377
2449.1847229723357,1491
2451.0188612372403,1400
2452.8525949408663,1414
2454.6859243705203,1472
2456.518849813587,1382
2458.3513715575314,1404
2460.183489889895,1450
2462.015205098301,1378
2463.8465174704493,1401
2465.67742729412,1342
2467.5079348571717,1454
2469.338040447542,1408
2471.1677443532476,1437
2472.9970468623833,1421
2474.825948263123,1367
2476.6544488437207,1377
2478.482548892508,1410
2480.310248697896,1360
2482.137548548374,1425
2483.9644487325118,1400
2485.790949538956,1403
2487.617051256433,1408
2489.44275417375,1396
2491.26805857979,1379
2493.0929647635157,1378
2494.917473013971,1410
2496.741583620276,1378
2498.5652968716304,1357
2500.3886130573137,1464
2502.2115324666834,1417
2504.0340553891765,1448
2505.856182114308,1396
2507.6779129316733,1415
2509.499248130945,1422
2511.3201880018764,1395
2513.140732834298,1373
2514.9608829181198,1467
2516.780638543331,1403
2518.6,1466
2520.418967578273,1397
2522.237541568376,1391
2524.0557222606144,1393
2525.8735099453706,1387
2527.6909049131086,1487
2529.507907454368,1424
2531.32451785977,1412
2533.140736420014,1430
2534.9565634258774,1405
2536.771999168218,1498
2538.5870439379714,1433
2540.4016980261526,1543
2542.2159617238544,1474
2544.02983532225,1489
2545.8433191125914,1454
2547.656413386209,1493
2549.4691184345115,1468
2551.2814345489874,1468
2553.093362021204,1499
2554.904901142808,1490
2556.716052205523,1440
2558.526815501153,1479
2560.3371913215824,1508
2562.147179958771,1518
2563.956781704761,1456
2565.7659968516705,1455
2567.5748256916986,1487
2569.3832685171224,1513
2571.1913256202984,1534
2572.9989972936614,1536
2574.806283829725,1573
2576.613185521084,1502
2578.4197026604074,1505
2580.2258355404483,1567
2582.031584454035,1545
2583.836949694077,1556
2585.6419315535613,1561
2587.4465303255533,1588
2589.2507463032002,1544
2591.0545797797245,1617
2592.8580310484303,1646
2594.6611004026995,1540
2596.463788135992,1612
2598.266094541849,1597
2600.0680199138874,1627
2601.869564545807,1654
2603.670728731383,1617
2605.4715127644704,1613
2607.2719169390048,1680
2609.071941548998,1641
2610.8715868885433,1689
2612.670853251811,1735
2614.469740933052,1669
2616.268250226594,1654
2618.0663814268455,1685
2619.864134828292,1669
2621.6615107255006,1666
2623.458509413115,1684
2625.2551311858597,1674
2627.0513763385347,1631
2628.8472451660223,1637
2630.6427379632833,1627
2632.4378550253564,1677
2634.232596647359,1626
2636.026963124488,1656
2637.8209547520187,1568
2639.6145718253065,1597
2641.407814639785,1566
2643.200683490966,1562
2644.9931786744414,1610
2646.7853004858807,1550
2648.577049221034,1597
2650.3684251757277,1536
2652.1594286458712,1589
2653.9500599274484,1509
2655.740319316525,1519
2657.5302071092437,1531
2659.3197236018286,1482
2661.10886909058,1535
2662.8976438718782,1523
2664.686048242183,1529
2666.4740824980327,1518
2668.2617469360443,1541
2670.0490418529134,1524
2671.8359675454153,1486
2673.622524310403,1417
2675.408712444811,1442
2677.1945322456495,1505
2678.979984010009,1387
2680.76506803506,1402
2682.5497846180497,1403
2684.334134056306,1351
2686.1181166472343,1405
2687.9017326883213,1426
2689.6849824771293,1372
2691.4678663113013,1430
2693.2503844885596,1461
2695.032537306705,1450
2696.8143250636167,1391
2698.5957480572542,1440
2700.3768065856534,1419
2702.1575009469316,1423
2703.937831439283,1386
2705.717798360982,1454
2707.4974020103837,1423
2709.276642685917,1351
2711.055520686095,1391
2712.834036309506,1375
2714.612189854819,1398
2716.389981620782,1328
2718.1674119062204,1406
2719.944481010041,1445
2721.721189231226,1417
2723.4975368688415,1351
2725.273524222027,1392
2727.0491515900053,1402
2728.824419272075,1387
2730.5993275676146,1384
2732.3738767760838,1353
2734.148067197016,1405
2735.921899130031,1326
2737.6953728748194,1320
2739.468488731156,1373
2741.2412469988926,1351
2743.0136479779617,1368
2744.785691968372,1384
2746.5573792702116,1387
2748.3287101836504,1424
2750.099685008934,1405
2751.870304046388,1328
2753.640567596418,1359
2755.4104759595057,1360
2757.1800294362156,1316
2758.949228327187,1350
2760.7180729331412,1332
2762.486563554877,1355
2764.254700493272,1343
2766.022484049284,1329
2767.789914523947,1343
2769.5569922183786,1335
2771.3237174337705,1296
2773.090090471394,1378
2774.8561116326036,1302
2776.6217812188274,1338
2778.3870995315756,1314
2780.1520668724356,1370
2781.9166835430747,1336
2783.6809498452394,1323
2785.444866080754,1348
2787.2084325515225,1326
2788.971649559527,1361
2790.73451740683,1333
2792.4970363955713,1351
2794.2592068279705,1408
2796.0210290063264,1350
2797.7825032330147,1314
2799.543629810493,1314
2801.304409041296,1389
2803.0648412280366,1358
2804.8249266734088,1346
2806.5846656801846,1376
2808.344058551212,1373
2810.1031055894246,1356
2811.8618070978273,1314
2813.6201633795085,1319
2815.378174737636,1342
2817.1358414754536,1372
2818.893163896285,1378
2820.6501423035334,1347
2822.4067770006814,1368
2824.1630682912883,1340
2825.9190164789957,1302
2827.6746218675207,1351
2829.429884760661,1328
2831.184805462294,1369
2832.9393842763743,1337
2834.693621506936,1374
2836.4475174580916,1389
2838.201072434034,1326
2839.954286739034,1373
2841.707160677441,1342
2843.459694553685,1348
2845.2118886722724,1360
2846.96374333779,1322
2848.7152588549034,1355
2850.4664355283567,1375
2852.217273662973,1404
2853.9677735636546,1389
2855.7179355353833,1358
2857.4677598832186,1325
2859.217246912299,1293
2860.9663969278427,1300
2862.715210235146,1347
2864.4636871395846,1390
2866.211827946614,1353
2867.9596329617652,1321
2869.7071024906536,1388
2871.4542368389684,1368
2873.20103631248,1335
2874.947501217038,1348
2876.6936318585695,1331
2878.4394285430812,1450
2880.1848915766604,1341
2881.9300212654707,1390
2883.6748179157553,1355
2885.4192818338374,1366
2887.1634133261173,1325
2888.907212699077,1398
2890.6506802592744,1371
2892.393816313348,1342
2894.1366211680142,1332
2895.8790951300693,1326
2897.621238506388,1385
2899.363051603925,1344
2901.1045347297118,1317
2902.8456881908596,1351
2904.58651229456,1365
2906.327007348081,1326
2908.067173658772,1385
2909.8070115340597,1334
2911.5465212814497,1313
2913.285703208527,1342
2915.0245576229563,1338
2916.7630848324807,1336
2918.5012851449196,1321
2920.2391588681758,1378
2921.976706310227,1339
2923.7139277791334,1352
2925.4508235830313,1341
2927.187394030137,1311
2928.923639428745,1308
2930.6595600872306,1311
2932.395156314046,1337
2934.1304284177218,1341
2935.8653767068713,1344
2937.6000014901815,1373
2939.3343030764227,1378
2941.068281774442,1361
2942.8019378931644,1350
2944.5352717415976,1320
2946.2682836288236,1349
2948.0009738640065,1412
2949.7333427563885,1330
2951.465390615289,1262
2953.1971177501086,1284
2954.9285244703265,1329
2956.6596110855,1384
2958.3903779052657,1344
2960.1208252393385,1336
2961.8509533975125,1366
2963.5807626896617,1339
2965.3102534257378,1347
2967.0394259157715,1306
2968.768280469873,1317
2970.496817398232,1378
2972.2250370111146,1376
2973.952939618869,1317
2975.6805255319196,1316
2977.4077950607707,1397
2979.134748516006,1325
2980.861386208289,1378
2982.587708448359,1358
2984.313715547037,1360
2986.039407815222,1372
2987.764785563891,1326
2989.489849104102,1342
2991.2145987469908,1357
2992.9390348037705,1398
2994.6631575857346,1337
2996.3869674042576,1325
2998.1104645707887,1300
2999.83364939686,1350
3001.5565221940783,1286
3003.2790832741334,1366
3005.0013329487924,1336
3006.7232715298996,1316
3008.4448993293804,1339
3010.166216659239,1377
3011.887223831558,1362
3013.607921158498,1342
3015.3283089522993,1339
3017.0483875252826,1288
3018.7681571898443,1298
3020.4876182584626,1373
3022.2067710436927,1297
3023.9256158581707,1347
3025.644153014609,1315
3027.362382825801,1362
3029.0803056046193,1301
3030.797921664012,1347
3032.5152313170106,1353
3034.2322348767225,1394
3035.9489326563353,1347
3037.665324969115,1350
3039.3814121284063,1323
3041.097194447633,1339
3042.812672240299,1326
3044.5278458199855,1319
3046.2427155003525,1350
3047.9572815951406,1312
3049.671544418167,1334
3051.38550428333,1354
3053.0991615046073,1356
3054.812516396051,1312
3056.5255692717974,1390
3058.2383204460575,1357
3059.9507702331257,1320
3061.662918947372,1341
3063.3747669032446,1342
3065.0863144152736,1390
3066.7975617980674,1344
3068.508509366309,1331
3070.219157434767,1315
3071.9295063182844,1410
3073.639556331785,1362
3075.3493077902704,1341
3077.058761008821,1311
3078.7679163025964,1361
3080.476773986837,1332
3082.1853343768594,1387
3083.89359778806,1336
3085.6015645359153,1270
3087.3092349359786,1339
3089.016609303884,1298
3090.7236879553434,1336
3092.4304712061476,1329
3094.136959372166,1406
3095.843152769349,1396
3097.5490517137237,1320
3099.2546565213966,1342
3100.959967508554,1339
3102.66498499146,1311
3104.3697092864577,1345
3106.0741407099695,1453
3107.778279578498,1345
3109.482126208622,1325
3111.1856809170004,1348
3112.8889440203716,1324
3114.5919158355528,1349
3116.294596679439,1354
3117.996986869006,1343
3119.6990867213062,1361
3121.4008965534726,1350
3123.102416682717,1371
3124.803647426329,1418
3126.5045891016784,1401
3128.205242026213,1375
3129.90560651746,1361
3131.605682893025,1326
3133.3054714705922,1344
3135.0049725679282,1434
3136.7041865028714,1289
3138.4031135933465,1357
3140.101754157353,1378
3141.800108512971,1385
3143.498176978357,1372
3145.1959598717494,1385
3146.8934575114636,1375
3148.5906702158954,1320
3150.2875983035183,1353
3151.9842420928853,1360
3153.680601902627,1348
3155.376678051456,1340
3157.07247085816,1329
3158.767980641609,1356
3160.463207720748,1378
3162.158152414606,1395
3163.8528150422862,1382
3165.5471959229726,1341
3167.2412953759303,1336
3168.9351137204976,1346
3170.628651276098,1387
3172.3219083622307,1441
3174.014885298474,1357
3175.707582404485,1349
3177.4000000000005,1341
3179.092138404835,1369
3180.7839979388846,1372
3182.47557892212,1392
3184.166881674594,1352
3185.8579065164386,1353
3187.5486537678626,1343
3189.2391237491547,1346
3190.9293167806827,1299
3192.6192331828934,1338
3194.3088732763117,1332
3195.998237381542,1378
3197.687325819268,1382
3199.376138910251,1326
3201.064676975334,1377
3202.7529403354347,1313
3204.4409293115523,1297
3206.1286442247647,1226
3207.816085396229,1358
3209.5032531471825,1308
3211.190147798936,1281
3212.8767696728846,1337
3214.5631190905015,1326
3216.2491963733373,1307
3217.9350018430214,1349
3219.6205358212637,1253
3221.305798629851,1303
3222.990790590651,1347
3224.6755120256103,1317
3226.359963256751,1341
3228.0441446061795,1317
3229.7280563960758,1318
3231.411698948703,1292
3233.0950725863995,1362
3234.778177631587,1314
3236.461014406761,1325
3238.1435832345005,1308
3239.8258844374595,1365
3241.507918338374,1318
3243.1896852600576,1398
3244.8711855254023,1342
3246.552419457381,1323
3248.233387379042,1294
3249.914089613516,1313
3251.59452648401,1322
3253.274698313813,1282
3254.95460542629,1287
3256.6342481448855,1331
3258.313626793125,1296
3259.9927416946084,1363
3261.6715931730196,1252
3263.3501815521176,1290
3265.0285071557437,1290
3266.706570307815,1341
3268.3843713323286,1370
3270.0619105533615,1320
3271.739188295068,1299
3273.4162048816834,1316
3275.0929606375184,1336
3276.769455886966,1349
3278.445690954498,1336
3280.1216661646613,1315
3281.797381842087,1315
3283.4728383114807,1345
3285.1480358976296,1268
3286.8229749253996,1256
3288.4976557197333,1241
3290.172078605655,1272
3291.846243908266,1322
3293.5201519527463,1360
3295.193803064357,1279
3296.8671975684374,1294
3298.5403357904024,1274
3300.21321805575,1329
3301.8858446900567,1303
3303.558216018975,1316
3305.23033236824,1292
3306.9021940636603,1328
3308.57380143113,1310
3310.2451547966184,1370
3311.916254486174,1324
3313.5871008259246,1325
3315.2576941420766,1318
3316.9280347609147,1299
3318.5981230088046,1303
3320.2679592121895,1275
3321.9375436975924,1277
3323.606876791612,1317
3325.27595882093,1307
3326.944790112305,1305
3328.6133709925753,1261
3330.2817017886573,1322
3331.949782827547,1326
3333.617614436319,1316
3335.2851969421245,1341
3336.952530672199,1316
3338.619615953853,1307
3340.286453114475,1341
3341.9530424815357,1368
3343.619384382583,1354
3345.2854791452437,1299
3346.951327097224,1345
3348.6169285663073,1329
3350.2822838803577,1330
3351.947393367319,1372
3353.61225735521,1406
3355.2768761721345,1336
3356.9412501462693,1332
3358.605379605873,1283
3360.2692648792827,1322
3361.9329062949146,1361
3363.596304181263,1324
