CollectionTime,9/20/2024 12:39:15 PM
ExposureUsed,3
CalibratedSpectrum
-962.7078968117929,1783
-959.9714848408522,1884
-957.2358232597828,1948
-954.5009119013725,2001
-951.7667505983302,1972
-949.0333391832855,1937
-946.3006774887896,1962
-943.5687653473143,1960
-940.837602591253,2002
-938.1071890529199,2002
-935.3775245645503,2054
-932.6486089583007,1935
-929.9204420662485,2007
-927.1930237203925,1961
-924.4663537526524,1965
-921.7404319948689,2087
-919.0152582788041,2059
-916.2908324361409,1976
-913.5671542984834,1876
-910.8442236973568,1981
-908.1220404642074,1943
-905.4006044304027,1985
-902.679915427231,2005
-899.959973285902,1995
-897.2407778375464,1954
-894.5223289132158,1926
-891.8046263438832,1995
-889.0876699604426,1939
-886.3714595937089,1937
-883.6559950744183,1960
-880.9412762332282,1913
-878.2273029007168,1895
-875.5140749073835,1894
-872.8015920836489,1952
-870.0898542598545,1894
-867.3788612662631,1916
-864.6686129330585,1960
-861.9591090903457,1908
-859.2503495681506,1900
-856.5423341964203,1898
-853.8350628050229,1947
-851.1285352237478,1880
-848.4227512823054,1985
-845.7177108103272,1979
-843.0134136373656,1900
-840.3098595928943,1982
-837.6070485063082,1978
-834.9049802069229,1915
-832.2036545239757,1939
-829.5030712866244,1957
-826.8032303239481,1962
-824.1041314649472,1909
-821.4057745385428,1937
-818.7081593735775,1923
-816.0112857988148,1956
-813.3151536429393,1904
-810.6197627345566,1896
-807.9251129021936,1916
-805.2312039742981,1947
-802.5380357792392,1966
-799.8456081453069,1989
-797.1539209007124,2023
-794.462973873588,1982
-791.772766891987,1947
-789.083299783884,2012
-786.3945723771743,2015
-783.7065844996748,1981
-781.0193359791231,1931
-778.3328266431781,2022
-775.6470563194197,1994
-772.9620248353489,1887
-770.2777320183878,1954
-767.5941776958798,1940
-764.9113616950891,2014
-762.2292838432011,1971
-759.5479439673222,1948
-756.8673418944801,1969
-754.1874774516235,1970
-751.5083504656222,1965
-748.8299607632671,1918
-746.15230817127,1948
-743.475392516264,1952
-740.7992136248035,1908
-738.1237713233636,1963
-735.4490654383407,1901
-732.7750957960521,1949
-730.1018622227365,1954
-727.4293645445534,1917
-724.7576025875837,1977
-722.0865761778291,2032
-719.4162851412126,2014
-716.7467293035781,2032
-714.0779084906909,1992
-711.409822528237,2016
-708.7424712418238,2023
-706.0758544569796,2054
-703.4099719991541,2006
-700.7448236937178,2065
-698.0804093659622,2041
-695.4167288411002,2008
-692.7537819442656,2069
-690.0915685005134,1999
-687.4300883348199,2082
-684.7693412720819,2039
-682.1093271371178,2049
-679.4500457546669,2042
-676.7914969493897,2014
-674.1336805458676,2006
-671.4765963686034,2051
-668.8202442420206,1974
-666.1646239904642,2042
-663.5097354382001,2075
-660.8555784094151,1954
-658.2021527282176,2011
-655.5494582186366,2103
-652.8974947046223,2139
-650.2462620100463,2077
-647.5957599587009,2037
-644.9459883742998,2064
-642.2969470804776,2194
-639.6486359007902,2131
-637.0010546587141,2117
-634.3542031776476,2083
-631.7080812809096,2092
-629.0626887917401,2093
-626.4180255333008,2045
-623.7740913286734,2080
-621.1308860008619,2064
-618.4884093727904,2094
-615.8466612673046,2136
-613.2056415071715,2111
-610.5653499150785,2147
-607.9257863136347,2112
-605.28695052537,2072
-602.6488423727357,2078
-600.0114616781036,2115
-597.3748082637674,2165
-594.7388819519412,2226
-592.1036825647604,2165
-589.4692099242818,2095
-586.8354638524829,2107
-584.2024441712624,2162
-581.5701507024403,2184
-578.9385832677575,2217
-576.3077416888759,2197
-573.6776257873787,2023
-571.0482353847704,2074
-568.4195703024757,2103
-565.7916303618415,2144
-563.164415384135,2128
-560.5379251905453,2077
-557.9121596021815,2131
-555.2871184400748,2057
-552.6628015251767,2072
-550.0392086783606,2104
-547.4163397204204,2244
-544.794194472071,2175
-542.1727727539491,2195
-539.5520743866118,2155
-536.9320991905377,2142
-534.3128469861261,2166
-531.6943175936979,2206
-529.0765108334947,2146
-526.4594265256793,2280
-523.8430644903358,2507
-521.2274245474689,2555
-518.612506517005,2588
-515.9983102187913,2681
-513.3848354725959,2634
-510.77208209810846,2696
-508.16004991493924,2855
-505.5487387426199,2809
-502.9381484006032,2925
-500.3282787082628,3065
-497.71912948489364,3036
-495.1107005497117,2985
-492.5029917218539,2784
-489.8960028203786,2628
-487.28973366426493,2479
-484.68418407241325,2381
-482.07935386364494,2395
-479.47524285670266,2340
-476.87185087025,2360
-474.2691777228715,2321
-471.66722323307334,2359
-469.0659872192821,2336
-466.4654694998459,2417
-463.86566989303384,2309
-461.26658821703614,2357
-458.66822428996414,2338
-456.07057792985,2297
-453.4736489546475,2320
-450.877437182231,2245
-448.28194243039627,2289
-445.68716451686,2292
-443.09310325926003,2170
-440.49975847515555,2215
-437.9071299820263,2256
-435.31521759727354,2279
-432.72402113821954,2262
-430.13354042210767,2188
-427.5437752661022,2289
-424.95472548728867,2367
-422.36639090267386,2285
-419.7787713291855,2340
-417.1918665836721,2372
-414.60567648290385,2328
-412.0202008435715,2360
-409.4354394822874,2360
-406.8513922155845,2383
-404.26805885991723,2379
-401.685439231661,2402
-399.103533147112,2423
-396.522340422488,2377
-393.9418608739278,2342
-391.3620943174908,2311
-388.7830405691583,2177
-386.2046994448317,2168
-383.6270707603344,2054
-381.05015433141045,1900
-378.473949973725,1904
-375.8984575028645,1662
-373.32367673433623,1479
-370.74960748356875,1334
-368.1762495659117,1223
-365.60360279663576,1064
-363.03166699093265,977
-360.4604419639154,799
-357.8899275306178,733
-355.32012350599507,675
-352.7510297049233,608
-350.1826459421999,612
-347.61497203254316,577
-345.04800779059235,556
-342.4817530309082,574
-339.91620756797226,597
-337.35137121618743,620
-334.7872437898774,570
-332.22382510328725,566
-329.66111497058273,514
-327.09911320585127,491
-324.53781962310075,505
-321.9772340362607,512
-319.4173562591816,514
-316.8581861056348,552
-314.2997233893127,584
-311.7419679238294,589
-309.1849195227194,587
-306.62857799943856,639
-304.0729431673641,561
-301.51801483979375,592
-298.963792829947,583
-296.41027695096386,555
-293.85746701590574,581
-291.3053628377552,645
-288.7539642294155,637
-286.2032710037115,638
-283.65328297338897,684
-281.1039999511146,738
-278.5554217494762,707
-276.007548180983,665
-273.4603790580651,658
-270.9139141930734,640
-268.3681533982807,698
-265.8230964858798,705
-263.27874326798565,712
-260.7350935566336,705
-258.1921471637804,749
-255.6499039013039,844
-253.10836358100266,885
-250.56752601459698,752
-248.02739101372765,816
-245.48795838995704,912
-242.94922795476816,804
-240.41119951956557,833
-237.8738728956746,838
-235.33724789434166,905
-232.80132432673452,917
-230.2661020039418,847
-227.73158073697357,827
-225.19776033676033,882
-222.66464061415422,914
-220.1322213799284,901
-217.60050244477725,897
-215.06948361931552,909
-212.53916471408013,1041
-210.00954553952818,1046
-207.48062590603843,846
-204.9524056239104,819
-202.4248845033651,1002
-199.8980623545441,973
-197.37193898751036,1067
-194.84651421224817,983
-192.32178783866232,984
-189.79775967657952,1070
-187.27442953574644,1150
-184.7517972258321,1261
-182.2298625564256,1061
-179.7086253370378,886
-177.18808537710026,1022
-174.66824248596583,1282
-172.14909647290835,1269
-169.6306471471229,1028
-167.11289431772548,956
-164.59583779375328,987
-162.07947738416453,1327
-159.5638128978386,1710
-157.04884414357605,1652
-154.53457093009854,1561
-152.02099306604828,1143
-149.50811035998936,1091
-146.99592262040665,1540
-144.48442965570587,1873
-141.97363127421409,1752
-139.46352728417958,1700
-136.95411749377126,1565
-134.44540171107985,1270
-131.93737974411636,1127
-129.43005140081357,1392
-126.92341648902493,1817
-124.41747481652521,2304
-121.91222619101006,2319
-119.40767042009657,1895
-116.90380731132257,1653
-114.40063667214702,2294
-111.8981583099503,3436
-109.3963720320337,5547
-106.89527764561933,8192
-104.39487495785067,10493
-101.89516377579241,13533
-99.39614390642998,18557
-96.89781515667039,23086
-94.40017733334128,23620
-91.90323024319173,20790
-89.40697369289148,16263
-86.91140748903172,9211
-84.41653143812482,6873
-81.92234534660395,10976
-79.42884902082358,17419
-76.93604226705907,24068
-74.4439248915071,28258
-71.95249670028534,26762
-69.46175749943245,20485
-66.97170709490854,14628
-64.48234529259423,10703
-61.99367189829195,10158
-59.50568671772464,10899
-57.01838955653636,10173
-54.53178022029283,10789
-52.045858514480074,12082
-49.560624244506016,12025
-47.07607721569923,10133
-44.59221723330904,11987
-42.10904410250669,16347
-39.62655762838392,18911
-37.14475761595372,17411
-34.66364387015028,20876
-32.18321619582866,22264
-29.70347439776515,23300
-27.224418280657005,25766
-24.74604764912317,30119
-22.26836230770266,46254
-19.7913620608565,65036
-17.315046712966478,65036
-14.83941606833514,65036
-12.36446993118659,65036
-9.89020810566592,65036
-7.416630395839093,65036
-4.94373660569363,65036
-2.471526539137585,65036
-6.821210263296962E-13,65036
2.47084320796705,65036
4.941003281093458,65036
7.410480415786196,65036
9.879274808531363,65036
12.347386655893956,65036
14.814816154518212,65036
17.28156350112681,65036
19.74762889252179,65036
22.21301252558385,25088
24.67771459727237,6668
27.141735304626195,6191
29.605074844762612,5634
32.06773341487792,4876
34.52971121224755,4640
36.99100843422559,4550
39.45162527824516,3675
41.91156194181792,3885
44.370818622535126,4055
46.82939551806646,3141
49.287292826160524,4759
51.74451074464503,5174
54.201049471426245,3944
56.65690920448981,2710
59.112090141899785,2062
61.56659248179983,2259
64.02041642241159,2498
66.4735621620365,2715
68.92602989905402,3012
71.37781983192338,3226
73.82893215918205,2583
76.27936707944684,1792
78.72912479141326,2320
81.17820549385567,2448
83.62660938562783,1880
86.07433666566146,1423
88.5213875329681,1156
90.96776218663751,1505
93.41346082583925,1847
95.85848364982041,2169
98.30283085790859,2101
100.7465026495089,1770
103.18949922410604,1612
105.63182078126385,1320
108.07346752062438,1423
110.51443964190923,1322
112.95473734491827,1261
115.39436082953114,1321
117.83331029570547,1380
120.27158594347827,1546
122.7091879729652,1532
125.1461165843615,1466
127.58237197794062,1295
130.01795435405518,1180
132.4528639131364,1301
134.88710085569494,1249
137.32066538231982,1381
139.75355769367923,1440
142.1857779905207,1312
144.61732647366978,1197
147.04820334403132,1200
149.47840880258934,1223
151.90794305040674,1411
154.33680628862487,1507
156.76499871846443,1635
159.19252054122433,1784
161.61937195828352,2063
164.04555317109896,2085
166.47106438120693,2430
168.89590579022217,2635
171.320077599839,2941
173.7435800118302,3085
176.16641322804742,3080
178.58857745042144,3279
181.01007288096173,3537
183.43089972175687,3447
185.85105817497413,3465
188.27054844285988,3532
190.6893707277394,3648
193.10752523201643,3824
195.5250121581745,3911
197.9418317087751,3978
200.3579840864594,4031
202.7734694939469,4177
205.18828813403627,4358
207.6024402096051,4264
210.01592592360964,4099
212.42874547908548,4078
214.84089907914665,4142
217.2523869269868,4150
219.66320922587727,4255
222.0733661791695,4194
224.48285799029293,4218
226.8916848627572,4168
229.29984700014882,4181
231.7073446061355,4394
234.11417788446204,4353
236.520347038953,4338
238.92585227351185,4351
241.33069379212054,4599
243.73487179884035,4642
246.1383864978112,4464
248.541238093252,4588
250.9434267894609,4627
253.34495279081432,4486
255.74581630176783,4426
258.1460175268563,4582
260.54555667069314,4541
262.9444339379703,4635
265.3426495334594,4529
267.7402036620107,4527
270.1370965285529,4466
272.53332833809407,4328
274.9288992957214,4123
277.32380960660055,4171
279.718059475976,4081
282.1116491091717,4023
284.5045787115897,3965
286.89684848871195,3981
289.2884586460981,3978
291.67940938938807,4205
294.0697009242996,4078
296.4593334566299,4162
298.84830719225477,4061
301.23662233712923,4014
303.6242790972866,4078
306.01127767884,4024
308.39761828798066,4003
310.78330113097934,3939
313.16832641418534,3808
315.5526943440269,3840
317.9364051270112,3835
320.3194589697242,3850
322.70185607883093,3809
325.0835966610754,3810
327.4646809232805,3608
329.8451090723478,3680
332.2248813152577,3598
334.6039978590701,3698
336.9824589109231,3642
339.36026467803447,3617
341.7374153677,3639
344.113911187295,3666
346.48975234427337,3594
348.8649390461686,3739
351.2394715005918,3688
353.61334991523415,3646
355.9865744978655,3479
358.35914545633375,3705
360.73106299856715,3671
363.10232733257146,3633
365.47293866643247,3629
367.84289720831396,3546
370.2122031664593,3499
372.5808567491905,3586
374.9488581649083,3564
377.31620762209275,3472
379.6829053293021,3452
382.0489514951745,3468
384.4143463284262,3541
386.7790900378528,3417
389.14318283232853,3475
391.50662492080653,3492
393.86941651231916,3474
396.23155781597745,3520
398.5930490409713,3519
400.9538903965696,3434
403.3140820921202,3486
405.6736243370498,3380
408.03251734086336,3333
410.3907613131465,3444
412.74835646356166,3432
415.10530300185144,3370
417.4616011378372,3424
419.81725108141893,3427
422.1722530425758,3445
424.5266072313656,3448
426.880313857925,3438
429.2333731324701,3480
431.58578526529516,3380
433.9375504667738,3479
436.2886689473588,3354
438.63914091758113,3334
440.9889665880513,3333
443.33814616945835,3380
445.68667987257015,3471
448.03456790823395,3421
450.3818104873759,3431
452.72840782100013,3328
455.07436012019105,3338
457.41966759611057,3273
459.7643304600007,3303
462.10834892318155,3315
464.4517231970525,3382
466.79445349309174,3431
469.1365400228566,3421
471.4779829979826,3343
473.81878263018564,3399
476.15893913125876,3380
478.4984527130747,3641
480.8373235875855,3545
483.17555196682144,3506
485.5131380628919,3556
487.8500820879857,3633
490.1863842543697,3795
492.52204477439034,3992
494.8570638604725,4168
497.1914417251204,4542
499.52517858091653,4720
501.85827464052306,4929
504.19073011668036,5054
506.5225452222086,4978
508.85372017000566,5019
511.18425517304956,4828
513.514150444396,5174
515.8434061971808,6205
518.1720226446176,6977
520.4999999999999,7152
522.8273384766991,6792
525.1540382881666,6622
527.480099647932,6193
529.8055227696037,5485
532.1303078668694,4463
534.454455153496,3880
536.777964843328,3647
539.1008371502907,3622
541.4230722883866,3571
543.744670471698,3562
546.0656319143858,3505
548.3859568306899,3473
550.7056454349294,3473
553.0246979415016,3426
555.3431145648834,3410
557.6608955196306,3214
559.978041020377,3352
562.2945512818363,3378
564.6104265188006,3420
566.9256669461412,3435
569.2402727788082,3335
571.5542442318302,3478
573.8675815203156,3524
576.1802848594508,3389
578.4923544645015,3493
580.8037905508126,3567
583.114593333807,3432
585.4247630289875,3539
587.7342998519354,3456
590.0432040183106,3499
592.3514757438526,3502
594.6591152443794,3495
596.9661227357875,3293
599.2724984340531,3456
601.578242555231,3535
603.8833553154542,3516
606.1878369309362,3446
608.4916876179676,3457
610.7949075929192,3341
613.0974970722403,3472
615.3994562724587,3423
617.7007854101818,3516
620.0014847020951,3492
622.3015543649641,3590
624.6009946156324,3476
626.8998056710224,3513
629.1979877481361,3502
631.4955410640538,3306
633.7924658359349,3476
636.0887622810175,3466
638.3844306166192,3565
640.6794710601358,3575
642.9738838290426,3482
645.2676691408932,3516
647.5608272133207,3570
649.853358264037,3502
652.1452625108324,3596
654.4365401715764,3473
656.7271914642178,3502
659.0172166067838,3598
661.3066158173809,3666
663.5953893141935,3549
665.8835373154867,3560
668.1710600396028,3505
670.4579577049639,3552
672.7442305300709,3541
675.0298787335033,3559
677.3149025339197,3590
679.599302150058,3561
681.8830778007342,3502
684.1662297048437,3607
686.4487580813608,3571
688.7306631493387,3562
691.0119451279091,3583
693.2926042362834,3480
695.5726406937516,3577
697.8520547196814,3525
700.1308465335215,3468
702.4090163547982,3573
704.6865644031171,3563
706.9634908981619,3565
709.2397960596965,3481
711.5154801075631,3615
713.7905432616823,3528
716.0649857420548,3580
718.3388077687592,3655
720.612009561953,3574
722.8845913418733,3543
725.1565533288352,3408
727.427895743234,3568
729.6986188055427,3555
731.9687227363137,3605
734.238207756178,3674
736.5070740858458,3465
738.7753219461066,3440
741.0429515578281,3501
743.3099631419569,3539
745.5763569195191,3616
747.8421331116193,3497
750.1072919394409,3594
752.3718336242467,3527
754.6357583873777,3521
756.8990664502545,3576
759.1617580343765,3536
761.423833361321,3570
763.6852926527457,3559
765.9461361303862,3568
768.206364016058,3604
770.4659765316536,3552
772.7249738991469,3545
774.9833563405886,3651
777.2411240781092,3659
779.4982773339183,3611
781.7548163303044,3646
784.010741289634,3667
786.2660524343538,3689
788.5207499869881,3541
790.7748341701416,3675
793.0283052064964,3657
795.2811633188143,3568
797.5334087299362,3637
799.7850416627813,3642
802.0360623403484,3550
804.2864709857143,3645
806.5362678220353,3845
808.7854530725468,3658
811.0340269605625,3589
813.2819897094754,3630
815.5293415427581,3562
817.77608268396,3642
820.0222133567116,3666
822.2677337847211,3654
824.5126441917765,3672
826.7569448017433,3660
829.0006358385675,3687
831.2437175262731,3702
833.4861900889629,3685
835.7280537508192,3703
837.9693087361026,3642
840.2099552691533,3646
842.4499935743896,3623
844.689423876309,3695
846.9282463994886,3718
849.1664613685833,3617
851.4040690083276,3685
853.6410695435349,3594
855.877463199097,3731
858.1132501999847,3710
860.3484307712487,3750
862.5830051380175,3828
864.8169735254988,3735
867.0503361589791,3630
869.2830932638243,3679
871.5152450654786,3771
873.7467917894654,3827
875.9777336613873,3657
878.2080709069252,3747
880.4378037518389,3797
882.666932421968,3764
884.8954571432301,3725
887.1233781416219,3843
889.3506956432192,3755
891.5774098741766,3762
893.803521060728,3849
896.0290294291852,3751
898.2539352059397,3854
900.4782386174619,3786
902.7019398903011,3781
904.925039251085,3763
907.147536926521,3804
909.3694331433943,3741
911.59072812857,3739
913.8114221089921,3848
916.0315153116827,3678
918.2510079637437,3680
920.4699002923547,3661
922.6881925247761,3608
924.905884888345,3720
927.1229776104793,3685
929.3394709186747,3644
931.555365040506,3721
933.7706602036275,3680
935.9853566357709,3694
938.1994545647489,3795
940.4129542184515,3763
942.6258558248488,3807
944.8381596119883,3791
947.0498658079974,3807
949.2609746410825,3726
951.4714863395287,3808
953.6814011316998,3787
955.8907192460387,3732
958.0994409110671,3731
960.3075663553858,3755
962.5150958076741,3886
964.7220294966913,3721
966.928367651274,3665
969.1341105003388,3674
971.3392582728806,3774
973.5438111979742,3705
975.747769504772,3785
977.9511334225061,3768
980.153903180487,3747
982.3560790081052,3700
984.5576611348289,3570
986.7586497902058,3638
988.9590452038618,3675
991.158847605503,3668
993.3580572249133,3622
995.5566742919558,3503
997.7546990365728,3512
999.952131688785,3597
1002.1489724786926,3484
1004.3452216364743,3516
1006.5408793923874,3440
1008.7359459767691,3461
1010.9304216200343,3473
1013.1243065526781,3448
1015.3176010052733,3464
1017.510305208472,3478
1019.7024193930064,3491
1021.8939437896848,3516
1024.0848786293977,3443
1026.2752241431122,3473
1028.4649805618747,3420
1030.6541481168115,3363
1032.842727039127,3382
1035.0307175601051,3341
1037.2181199111074,3422
1039.4049343235752,3436
1041.591161029029,3353
1043.7768002590683,3443
1045.9618522453698,3338
1048.1463172196918,3382
1050.3301954138697,3417
1052.513487059818,3504
1054.69619238953,3331
1056.8783116350783,3441
1059.0598450286152,3325
1061.2407928023704,3373
1063.4211551886528,3397
1065.6009324198508,3349
1067.780124728432,3348
1069.9587323469414,3473
1072.1367555080046,3351
1074.314194444325,3424
1076.4910493886855,3419
1078.667320573947,3457
1080.843008233051,3318
1083.0181125990161,3386
1085.1926339049414,3364
1087.3665723840027,3425
1089.5399282694575,3348
1091.7127017946405,3288
1093.8848931929647,3329
1096.0565026979243,3318
1098.2275305430899,3337
1100.3979769621128,3363
1102.567842188722,3321
1104.737126456726,3360
1106.9058300000124,3253
1109.0739530525475,3394
1111.2414958483764,3304
1113.4084586216231,3354
1115.5748416064907,3250
1117.7406450372605,3341
1119.9058691482942,3348
1122.0705141740304,3301
1124.2345803489884,3427
1126.3980679077658,3340
1128.5609770850388,3369
1130.7233081155623,3424
1132.8850612341707,3335
1135.0462366757774,3421
1137.2068346753745,3329
1139.3668554680326,3369
1141.526299288901,3424
1143.68516637321,3301
1145.8434569562655,3318
1148.001171273455,3391
1150.158309560244,3447
1152.3148720521767,3321
1154.470858984876,3340
1156.626270594044,3310
1158.7811071154629,3339
1160.9353687849912,3383
1163.089055838569,3318
1165.242168512213,3414
1167.3947070420209,3327
1169.5466716641677,3293
1171.6980626149075,3337
1173.8488801305748,3411
1175.9991244475814,3309
1178.1487958024186,3264
1180.2978944316555,3388
1182.4464205719428,3279
1184.5943744600072,3220
1186.7417563326567,3241
1188.8885664267755,3336
1191.0348049793297,3238
1193.1804722273619,3299
1195.325568407995,3413
1197.4700937584303,3273
1199.614048515948,3313
1201.7574329179074,3368
1203.900247201746,3347
1206.042491604982,3288
1208.1841663652099,3441
1210.3252717201053,3387
1212.465807907422,3496
1214.6057751649923,3402
1216.7451737307279,3460
1218.8840038426192,3310
1221.0222657387353,3335
1223.1599596572241,3422
1225.2970858363137,3345
1227.4336445143094,3435
1229.5696359295966,3398
1231.705060320639,3440
1233.8399179259786,3482
1235.9742089842384,3422
1238.107933734118,3459
1240.2410924143974,3464
1242.373685263935,3418
1244.5057125216676,3381
1246.6371744266116,3421
1248.7680712178621,3390
1250.898403134593,3443
1253.028170416058,3443
1255.1573733015875,3308
1257.2860120305932,3459
1259.4140868425648,3393
1261.54159797707,3419
1263.6685456737569,3476
1265.7949301723515,3531
1267.9207517126597,3528
1270.046010534565,3458
1272.1707068780306,3465
1274.2948409830983,3539
1276.4184130898889,3521
1278.541423438603,3619
1280.6638722695184,3492
1282.785759822993,3568
1284.9070863394636,3546
1287.0278520594447,3625
1289.1480572235314,3548
1291.2677020723963,3607
1293.3867868467923,3586
1295.5053117875495,3586
1297.623277135579,3615
1299.740683131868,3621
1301.8575300174857,3576
1303.973818033578,3639
1306.0895474213703,3594
1308.2047184221678,3743
1310.3193312773528,3735
1312.4333862283888,3710
1314.5468835168163,3713
1316.659823384255,3642
1318.7722060724045,3723
1320.8840318230418,3708
1322.9953008780249,3634
1325.1060134792888,3657
1327.2161698688478,3731
1329.3257702887959,3750
1331.4348149813054,3635
1333.5433041886276,3687
1335.6512381530933,3724
1337.7586171171101,3653
1339.8654413231675,3742
1341.9717110138317,3699
1344.0774264317488,3620
1346.1825878196432,3571
1348.2871954203192,3746
1350.3912494766587,3716
1352.4947502316231,3736
1354.5976979282532,3688
1356.7000928096686,3649
1358.8019351190665,3640
1360.9032250997243,3629
1363.0039629949988,3531
1365.1041490483235,3679
1367.2037835032133,3671
1369.3028666032606,3689
1371.401398592137,3637
1373.4993797135926,3662
1375.5968102114575,3702
1377.6936903296396,3608
1379.7900203121262,3658
1381.8858004029835,3646
1383.9810308463561,3541
1386.075711886469,3546
1388.1698437676241,3681
1390.2634267342032,3691
1392.356461030667,3755
1394.4489469015557,3653
1396.5408845914872,3749
1398.6322743451592,3692
1400.7231164073469,3773
1402.813411022907,3648
1404.903158436773,3717
1406.9923588939578,3730
1409.0810126395531,3689
1411.1691199187303,3707
1413.2566809767386,3627
1415.343696058907,3735
1417.4301654106425,3756
1419.5160892774315,3779
1421.6014679048399,3717
1423.6863015385125,3728
1425.7705904241707,3763
1427.8543348076178,3809
1429.9375349347342,3719
1432.0201910514802,3754
1434.102303403894,3747
1436.1838722380944,3904
1438.2648978002767,3930
1440.3453803367174,3790
1442.4253200937692,3961
1444.5047173178677,3992
1446.5835722555234,4019
1448.6618851533285,3979
1450.739656257952,4028
1452.8168858161434,4122
1454.8935740747306,4043
1456.96972128062,4171
1459.045327680797,4206
1461.120393522327,4166
1463.1949190523528,4191
1465.2689045180973,4240
1467.3423501668608,4248
1469.415256246024,4367
1471.4876230030463,4363
1473.559450685465,4298
1475.6307395408976,4443
1477.7014898170391,4560
1479.771701761665,4542
1481.8413756226287,4556
1483.9105116478618,4585
1485.9791100853772,4602
1488.0471711832643,4664
1490.1146951896926,4659
1492.1816823529098,4775
1494.2481329212433,4746
1496.3140471430984,4842
1498.3794252669609,4883
1500.4442675413939,4839
1502.5085742150404,4906
1504.572345536622,4939
1506.6355817549388,4989
1508.6982831188702,4992
1510.7604498773744,4923
1512.8220822794883,5105
1514.8831805743293,5123
1516.9437450110909,5205
1519.003775839048,5063
1521.0632733075522,5095
1523.1222376660367,5168
1525.1806691640113,5152
1527.2385680510652,5192
1529.2959345768668,5259
1531.3527689911643,5372
1533.4090715437833,5368
1535.4648424846291,5432
1537.5200820636855,5441
1539.5747905310159,5522
1541.6289681367616,5603
1543.6826151311434,5498
1545.7357317644614,5641
1547.7883182870937,5836
1549.8403749494987,5806
1551.8919020022113,5819
1553.9428996958477,6001
1555.9933682811015,6069
1558.0433080087469,6140
1560.0927191296346,6097
1562.1416018946961,6335
1564.1899565549415,6190
1566.2377833614592,6031
1568.2850825654164,6027
1570.3318544180606,5891
1572.3780991707158,5683
1574.423817074788,5624
1576.4690083817595,5527
1578.5136733431923,5319
1580.5578122107272,5168
1582.601425236085,5055
1584.6445126710646,4960
1586.6870747675434,4744
1588.7291117774776,4618
1590.7706239529034,4587
1592.8116115459347,4526
1594.8520748087658,4459
1596.8920139936686,4360
1598.9314293529933,4255
1600.9703211391711,4124
1603.008689604711,4099
1605.0465350022005,4194
1607.0838575843068,4040
1609.1206576037753,3894
1611.1569353134305,3851
1613.1926909661765,3898
1615.2279248149953,3765
1617.2626371129481,3831
1619.2968281131757,3806
1621.3304980688963,3746
1623.3636472334088,3720
1625.39627586009,3712
1627.428384202396,3767
1629.459972513861,3745
1631.4910410480993,3684
1633.5215900588028,3656
1635.551619799744,3579
1637.5811305247717,3592
1639.6101224878166,3558
1641.6385959428862,3683
1643.6665511440683,3539
1645.693988345528,3571
1647.7209078015112,3625
1649.7473097663405,3564
1651.7731944944203,3547
1653.7985622402307,3510
1655.823413258333,3551
1657.847747803366,3492
1659.8715661300494,3543
1661.8948684931793,3514
1663.9176551476316,3483
1665.9399263483624,3556
1667.9616823504057,3460
1669.982923408873,3464
1672.0036497789574,3418
1674.0238617159293,3436
1676.043559475138,3394
1678.0627433120121,3492
1680.081413482059,3492
1682.0995702408654,3444
1684.117213844096,3517
1686.134344547495,3635
1688.1509626068864,3465
1690.1670682781705,3521
1692.182661817329,3504
1694.1977434804217,3480
1696.2123135235875,3473
1698.226372203043,3373
1700.2399197750851,3411
1702.2529564960905,3464
1704.2654826225112,3482
1706.277498410882,3389
1708.2890041178139,3434
1710.2999999999988,3446
1712.3104863142066,3491
1714.3204633172854,3391
1716.329931266163,3412
1718.3388904178469,3522
1720.3473410294214,3478
1722.3552833580516,3388
1724.3627176609807,3424
1726.3696441955308,3393
1728.3760632191033,3402
1730.3819749891782,3402
1732.3873797633146,3369
1734.3922777991502,3446
1736.3966693544012,3342
1738.4005546868639,3381
1740.4039340544127,3361
1742.406807715001,3397
1744.4091759266616,3446
1746.4110389475054,3368
1748.4123970357223,3261
1750.413250449582,3349
1752.4135994474318,3376
1754.4134442876993,3459
1756.4127852288902,3371
1758.4116225295893,3328
1760.4099564484595,3327
1762.407787244244,3374
1764.405115175764,3339
1766.4019405019203,3338
1768.3982634816916,3299
1770.3940843741357,3394
1772.3894034383907,3340
1774.3842209336717,3315
1776.378537119274,3286
1778.372352254571,3336
1780.3656665990156,3339
1782.3584804121397,3264
1784.3507939535534,3256
1786.3426074829463,3307
1788.3339212600863,3368
1790.3247355448211,3320
1792.3150505970766,3317
1794.3048666768573,3316
1796.2941840442477,3268
1798.2830029594106,3304
1800.2713236825884,3300
1802.2591464741004,3269
1804.2464715943465,3328
1806.2332993038058,3267
1808.2196298630352,3261
1810.2054635326708,3288
1812.190800573428,3270
1814.175641246101,3331
1816.1599858115628,3353
1818.1438345307652,3302
1820.127187664738,3302
1822.1100454745924,3298
1824.092408221516,3231
1826.0742761667766,3250
1828.055649571721,3290
1830.0365286977735,3281
1832.0169138064398,3328
1833.9968051593014,3284
1835.9762030180214,3341
1837.9551076443408,3259
1839.9335193000788,3275
1841.9114382471344,3176
1843.888864747485,3199
1845.8657990631878,3279
1847.842241456378,3285
1849.8181921892697,3248
1851.7936515241558,3136
1853.7686197234098,3192
1855.7430970494815,3278
1857.7170837649014,3347
1859.6905801322787,3253
1861.6635864143004,3275
1863.6361028737338,3199
1865.608129773424,3162
1867.5796673762961,3282
1869.5507159453537,3246
1871.521275743678,3288
1873.4913470344313,3279
1875.4609300808534,3296
1877.4300251462632,3301
1879.3986324940588,3253
1881.366752387717,3310
1883.3343850907936,3251
1885.3015308669228,3257
1887.268189979819,3212
1889.2343626932739,3268
1891.2000492711595,3282
1893.1652499774254,3289
1895.1299650761011,3272
1897.0941948312952,3360
1899.0579395071945,3343
1901.0211993680641,3252
1902.98397467825,3213
1904.9462657021745,3258
1906.9080727043415,3240
1908.869395949332,3302
1910.8302357018065,3237
1912.790592226504,3196
1914.7504657882428,3170
1916.7098566519212,3101
1918.6687650825133,3256
1920.6271913450764,3269
1922.5851357047422,3257
1924.5425984267245,3252
1926.499579776314,3226
1928.4560800188833,3311
1930.4120994198802,3216
1932.367638244833,3175
1934.32269675935,3204
1936.2772752291175,3252
1938.231373919899,3212
1940.1849930975404,3244
1942.1381330279637,3245
1944.0907939771696,3220
1946.0429762112412,3193
1947.9946799963363,3216
1949.9459055986945,3293
1951.896653284633,3255
1953.8469233205478,3171
1955.7967159729142,3189
1957.7460315082863,3120
1959.6948701932974,3156
1961.6432322946594,3201
1963.5911180791632,3173
1965.5385278136787,3286
1967.4854617651545,3207
1969.4319202006182,3247
1971.377903387176,3188
1973.3234115920136,3186
1975.268445082395,3210
1977.2130041256642,3206
1979.1570889892423,3183
1981.1006999406304,3283
1983.04383724741,3248
1984.986501177238,3189
1986.928691997853,3198
1988.8704099770712,3257
1990.811655382789,3172
1992.7524284829801,3161
1994.692729545698,3091
1996.6325588390755,3081
1998.5719166313224,3083
2000.5108031907307,3189
2002.4492187856677,3102
2004.387163684583,3282
2006.3246381560011,3277
2008.2616424685298,3112
2010.1981768908527,3202
2012.1342416917332,3140
2014.069837140014,3293
2016.0049635046162,3176
2017.9396210545406,3210
2019.8738100588666,3085
2021.8075307867502,3124
2023.740783507431,3232
2025.6735684902228,3108
2027.6058860045214,3171
2029.5377363198004,3188
2031.4691197056118,3138
2033.4000364315875,3148
2035.3304867674374,3153
2037.260470982952,3120
2039.189989347998,3198
2041.1190421325232,3097
2043.047629606554,3113
2044.9757520401945,3152
2046.9034097036288,3120
2048.8306028671195,3160
2050.7573318010086,3200
2052.683596775716,3110
2054.609398061742,3213
2056.5347359296647,3089
2058.4596106501403,3120
2060.384022493906,3106
2062.3079717317764,3100
2064.231458634646,3158
2066.1544834734873,3136
2068.077046519352,3059
2069.99914804337,3142
2071.9207883167524,3146
2073.8419676107865,3134
2075.7626861968406,3094
2077.6829443463607,3132
2079.6027423308715,3142
2081.522080421977,3051
2083.440958891362,3208
2085.359378010786,3184
2087.2773380520907,3228
2089.194839287196,3188
2091.111881988101,3146
2093.0284664268825,3011
2094.9445928756973,3041
2096.86026160678,3135
2098.775472892446,3210
2100.690227005088,3175
2102.604524217178,3062
2104.5183648012676,3071
2106.431749029985,3061
2108.34467717604,3148
2110.2571495122206,3115
2112.169166311393,3161
2114.080727846503,3061
2115.9918343905747,3018
2117.902486216711,3092
2119.8126835980956,3240
2121.722426807987,3091
2123.6317161197285,3138
2125.5405518067364,3118
2127.448934142509,3150
2129.356863400624,3186
2131.264339854737,3242
2133.1713637785815,3218
2135.077935445972,3141
2136.9840551308002,3135
2138.889723107037,3162
2140.7949396487334,3197
2142.699705030018,3080
2144.6040195250994,3189
2146.507883408264,3057
2148.4112969538774,3079
2150.3142604363848,3158
2152.2167741303097,3116
2154.1188383102535,3059
2156.0204532508997,3126
2157.9216192270064,3111
2159.822336513414,3172
2161.7226053850413,3150
2163.622426116884,3069
2165.5217989840185,3143
2167.4207242616,3200
2169.319202224862,3201
2171.2172331491165,3190
2173.1148173097563,3115
2175.0119549822507,3184
2176.90864644215,3183
2178.8048919650823,3130
2180.7006918267534,3209
2182.596046302952,3162
2184.4909556695407,3144
2186.3854202024645,3154
2188.279440177746,3185
2190.173015871487,3088
2192.066147559868,3112
2193.958835519149,3166
2195.851080025667,3192
2197.7428813558417,3288
2199.6342397861667,3092
2201.5251555932186,3183
2203.415629053651,3190
2205.3056604441986,3219
2207.19525004167,3251
2209.084398122958,3205
2210.9731049650327,3198
2212.861370844941,3147
2214.749196039812,3177
2216.636580826851,3200
2218.523525483344,3129
2220.410030286655,3183
2222.296095514226,3291
2224.1817214435805,3215
2226.066908352319,3212
2227.951656518121,3119
2229.835966218746,3173
2231.71983773203,3124
2233.6032713358913,3211
2235.486267308324,3152
2237.3688259274036,3257
2239.2509474712824,3214
2241.132632218193,3257
2243.013880446447,3102
2244.8946924344323,3169
2246.7750684606203,3265
2248.6550088035574,3181
2250.534513741871,3134
2252.413583554265,3163
2254.292218519526,3065
2256.170418916517,3143
2258.0481850241786,3021
2259.925517121534,3117
2261.8024154876825,3160
2263.678880401803,3189
2265.5549121431536,3128
2267.430510991071,3141
2269.305677224971,3140
2271.180411124348,3130
2273.0547129687766,3063
2274.9285830379076,3128
2276.8020216114737,3207
2278.6750289692845,3189
2280.5476053912294,3159
2282.4197511572766,3144
2284.2914665474727,3169
2286.162751841943,3186
2288.0336073208937,3136
2289.904033264608,3064
2291.774029953448,3181
2293.6435976678554,3134
2295.5127366883517,3165
2297.381447295534,3042
2299.2497297700825,3021
2301.1175843927526,2972
2302.9850114443825,3096
2304.852011205885,2998
2306.7185839582553,2892
2308.5847299825664,2895
2310.4504495599676,2912
2312.3157429716925,2893
2314.1806104990483,2980
2316.0450524234247,3013
2317.9090690262888,2917
2319.772660589186,2888
2321.635827393742,3004
2323.498569721661,2985
2325.3608878547248,2948
2327.2227820747967,2912
2329.0842526638157,2884
2330.945299903803,2923
2332.805924076857,2993
2334.6661254651535,2905
2336.525904350951,2887
2338.3852610165827,2922
2340.244195744464,2888
2342.102708817088,2931
2343.9608005170253,2880
2345.8184711269287,2899
2347.675720929526,2883
2349.532550207628,2881
2351.38895924412,2923
2353.24494832197,2877
2355.100517724223,2900
2356.955667734004,2883
2358.810398634514,2904
2360.664710709037,2971
2362.5186042409337,2893
2364.3720795136437,2898
2366.225136810686,2994
2368.0777764156583,2956
2369.929998612237,2971
2371.7818036841777,2853
2373.633191915315,3001
2375.484163589562,2935
2377.3347189909114,2906
2379.184858403434,2956
2381.03458211128,2909
2382.8838903986775,2945
2384.732783549936,2893
2386.5812618494406,2984
2388.4293255816588,2888
2390.2769750311327,2885
2392.1242104824883,3002
2393.971032220427,2900
2395.8174405297295,2891
2397.6634356952563,2980
2399.509018001947,2903
2401.3541877348193,2891
2403.1989451789705,2921
2405.043290619576,2943
2406.8872243418905,2910
2408.730746631247,2849
2410.5738577730594,2927
2412.4165580528183,2957
2414.258847756095,2874
2416.100727168537,2865
2417.9421965758734,2913
2419.783256263912,2835
2421.623906518538,2869
2423.4641476257157,2909
2425.303979871491,2903
2427.143403541984,2913
2428.9824189233977,2994
2430.821026302012,2864
2432.6592259641866,2837
2434.497018196361,2834
2436.33440328505,2907
2438.171381516851,2878
2440.00795317844,2902
2441.844118556569,2948
2443.6798779380724,2909
2445.5152316098606,2837
2447.3501798589255,2930
2449.1847229723357,2944
2451.0188612372403,2796
2452.8525949408663,2978
2454.6859243705203,2893
2456.518849813587,2836
2458.3513715575314,2873
2460.183489889895,2941
2462.015205098301,2909
2463.8465174704493,2867
2465.67742729412,2968
2467.5079348571717,2795
2469.338040447542,2776
2471.1677443532476,2952
2472.9970468623833,2870
2474.825948263123,2954
2476.6544488437207,2963
2478.482548892508,2924
2480.310248697896,2933
2482.137548548374,2942
2483.9644487325118,2850
2485.790949538956,2855
2487.617051256433,2852
2489.44275417375,2896
2491.26805857979,2885
2493.0929647635157,2920
2494.917473013971,2927
2496.741583620276,2903
2498.5652968716304,2902
2500.3886130573137,2904
2502.2115324666834,2833
2504.0340553891765,2894
2505.856182114308,2951
2507.6779129316733,2879
2509.499248130945,2867
2511.3201880018764,2861
2513.140732834298,2847
2514.9608829181198,2893
2516.780638543331,2948
2518.6,2994
2520.418967578273,2893
2522.237541568376,2895
2524.0557222606144,2930
2525.8735099453706,2890
2527.6909049131086,2923
2529.507907454368,2957
2531.32451785977,2996
2533.140736420014,2932
2534.9565634258774,2904
2536.771999168218,2916
2538.5870439379714,2916
2540.4016980261526,2982
2542.2159617238544,2931
2544.02983532225,2944
2545.8433191125914,2984
2547.656413386209,3014
2549.4691184345115,3112
2551.2814345489874,3022
2553.093362021204,3005
2554.904901142808,3071
2556.716052205523,3107
2558.526815501153,3019
2560.3371913215824,3008
2562.147179958771,3062
2563.956781704761,3123
2565.7659968516705,3076
2567.5748256916986,3049
2569.3832685171224,3080
2571.1913256202984,2985
2572.9989972936614,3017
2574.806283829725,3048
2576.613185521084,3045
2578.4197026604074,3075
2580.2258355404483,3067
2582.031584454035,3121
2583.836949694077,3159
2585.6419315535613,3024
2587.4465303255533,3057
2589.2507463032002,3166
2591.0545797797245,3248
2592.8580310484303,3145
2594.6611004026995,3096
2596.463788135992,3111
2598.266094541849,3113
2600.0680199138874,3133
2601.869564545807,3206
2603.670728731383,3177
2605.4715127644704,3140
2607.2719169390048,3148
2609.071941548998,3116
2610.8715868885433,3209
2612.670853251811,3205
2614.469740933052,3133
2616.268250226594,3074
2618.0663814268455,3142
2619.864134828292,3121
2621.6615107255006,3165
2623.458509413115,3090
2625.2551311858597,3101
2627.0513763385347,3094
2628.8472451660223,3101
2630.6427379632833,3128
2632.4378550253564,3034
2634.232596647359,3076
2636.026963124488,3117
2637.8209547520187,3088
2639.6145718253065,3058
2641.407814639785,3067
2643.200683490966,3050
2644.9931786744414,2991
2646.7853004858807,2999
2648.577049221034,2893
2650.3684251757277,2925
2652.1594286458712,2961
2653.9500599274484,2981
2655.740319316525,2935
2657.5302071092437,2909
2659.3197236018286,2891
2661.10886909058,2980
2662.8976438718782,2924
2664.686048242183,2897
2666.4740824980327,2892
2668.2617469360443,2846
2670.0490418529134,2862
2671.8359675454153,2836
2673.622524310403,2884
2675.408712444811,2899
2677.1945322456495,2841
2678.979984010009,2797
2680.76506803506,2777
2682.5497846180497,2880
2684.334134056306,2844
2686.1181166472343,2784
2687.9017326883213,2778
2689.6849824771293,2793
2691.4678663113013,2800
2693.2503844885596,2821
2695.032537306705,2747
2696.8143250636167,2794
2698.5957480572542,2727
2700.3768065856534,2734
2702.1575009469316,2796
2703.937831439283,2694
2705.717798360982,2756
2707.4974020103837,2736
2709.276642685917,2766
2711.055520686095,2695
2712.834036309506,2658
2714.612189854819,2637
2716.389981620782,2714
2718.1674119062204,2729
2719.944481010041,2611
2721.721189231226,2707
2723.4975368688415,2669
2725.273524222027,2656
2727.0491515900053,2708
2728.824419272075,2724
2730.5993275676146,2569
2732.3738767760838,2675
2734.148067197016,2661
2735.921899130031,2723
2737.6953728748194,2669
2739.468488731156,2631
2741.2412469988926,2590
2743.0136479779617,2657
2744.785691968372,2671
2746.5573792702116,2580
2748.3287101836504,2631
2750.099685008934,2748
2751.870304046388,2687
2753.640567596418,2687
2755.4104759595057,2645
2757.1800294362156,2609
2758.949228327187,2678
2760.7180729331412,2673
2762.486563554877,2644
2764.254700493272,2664
2766.022484049284,2690
2767.789914523947,2639
2769.5569922183786,2635
2771.3237174337705,2627
2773.090090471394,2636
2774.8561116326036,2614
2776.6217812188274,2736
2778.3870995315756,2614
2780.1520668724356,2637
2781.9166835430747,2644
2783.6809498452394,2574
2785.444866080754,2668
2787.2084325515225,2589
2788.971649559527,2678
2790.73451740683,2634
2792.4970363955713,2656
2794.2592068279705,2601
2796.0210290063264,2568
2797.7825032330147,2582
2799.543629810493,2601
2801.304409041296,2577
2803.0648412280366,2637
2804.8249266734088,2571
2806.5846656801846,2610
2808.344058551212,2633
2810.1031055894246,2675
2811.8618070978273,2601
2813.6201633795085,2639
2815.378174737636,2595
2817.1358414754536,2677
2818.893163896285,2607
2820.6501423035334,2560
2822.4067770006814,2567
2824.1630682912883,2559
2825.9190164789957,2622
2827.6746218675207,2635
2829.429884760661,2695
2831.184805462294,2590
2832.9393842763743,2604
2834.693621506936,2652
2836.4475174580916,2501
2838.201072434034,2582
2839.954286739034,2523
2841.707160677441,2599
2843.459694553685,2649
2845.2118886722724,2636
2846.96374333779,2565
2848.7152588549034,2612
2850.4664355283567,2552
2852.217273662973,2621
2853.9677735636546,2602
2855.7179355353833,2547
2857.4677598832186,2572
2859.217246912299,2607
2860.9663969278427,2530
2862.715210235146,2575
2864.4636871395846,2544
2866.211827946614,2584
2867.9596329617652,2575
2869.7071024906536,2631
2871.4542368389684,2543
2873.20103631248,2615
2874.947501217038,2480
2876.6936318585695,2577
2878.4394285430812,2507
2880.1848915766604,2498
2881.9300212654707,2477
2883.6748179157553,2501
2885.4192818338374,2497
2887.1634133261173,2549
2888.907212699077,2541
2890.6506802592744,2541
2892.393816313348,2640
2894.1366211680142,2499
2895.8790951300693,2449
2897.621238506388,2522
2899.363051603925,2477
2901.1045347297118,2663
2902.8456881908596,2407
2904.58651229456,2494
2906.327007348081,2612
2908.067173658772,2503
2909.8070115340597,2563
2911.5465212814497,2503
2913.285703208527,2497
2915.0245576229563,2516
2916.7630848324807,2521
2918.5012851449196,2512
2920.2391588681758,2513
2921.976706310227,2510
2923.7139277791334,2478
2925.4508235830313,2506
2927.187394030137,2523
2928.923639428745,2521
2930.6595600872306,2479
2932.395156314046,2604
2934.1304284177218,2498
2935.8653767068713,2555
2937.6000014901815,2527
2939.3343030764227,2484
2941.068281774442,2541
2942.8019378931644,2570
2944.5352717415976,2574
2946.2682836288236,2521
2948.0009738640065,2594
2949.7333427563885,2560
2951.465390615289,2577
2953.1971177501086,2530
2954.9285244703265,2479
2956.6596110855,2579
2958.3903779052657,2508
2960.1208252393385,2429
2961.8509533975125,2468
2963.5807626896617,2420
2965.3102534257378,2502
2967.0394259157715,2466
2968.768280469873,2455
2970.496817398232,2398
2972.2250370111146,2502
2973.952939618869,2524
2975.6805255319196,2559
2977.4077950607707,2440
2979.134748516006,2550
2980.861386208289,2561
2982.587708448359,2544
2984.313715547037,2522
2986.039407815222,2504
2987.764785563891,2504
2989.489849104102,2491
2991.2145987469908,2493
2992.9390348037705,2468
2994.6631575857346,2474
2996.3869674042576,2502
2998.1104645707887,2454
2999.83364939686,2511
3001.5565221940783,2463
3003.2790832741334,2487
3005.0013329487924,2408
3006.7232715298996,2477
3008.4448993293804,2522
3010.166216659239,2498
3011.887223831558,2505
3013.607921158498,2476
3015.3283089522993,2545
3017.0483875252826,2415
3018.7681571898443,2435
3020.4876182584626,2402
3022.2067710436927,2496
3023.9256158581707,2481
3025.644153014609,2488
3027.362382825801,2457
3029.0803056046193,2455
3030.797921664012,2374
3032.5152313170106,2502
3034.2322348767225,2482
3035.9489326563353,2376
3037.665324969115,2469
3039.3814121284063,2391
3041.097194447633,2431
3042.812672240299,2432
3044.5278458199855,2412
3046.2427155003525,2478
3047.9572815951406,2443
3049.671544418167,2435
3051.38550428333,2415
3053.0991615046073,2432
3054.812516396051,2406
3056.5255692717974,2468
3058.2383204460575,2416
3059.9507702331257,2499
3061.662918947372,2370
3063.3747669032446,2358
3065.0863144152736,2420
3066.7975617980674,2393
3068.508509366309,2379
3070.219157434767,2519
3071.9295063182844,2412
3073.639556331785,2420
3075.3493077902704,2466
3077.058761008821,2494
3078.7679163025964,2515
3080.476773986837,2427
3082.1853343768594,2455
3083.89359778806,2416
3085.6015645359153,2419
3087.3092349359786,2472
3089.016609303884,2482
3090.7236879553434,2440
3092.4304712061476,2389
3094.136959372166,2444
3095.843152769349,2434
3097.5490517137237,2439
3099.2546565213966,2395
3100.959967508554,2447
3102.66498499146,2425
3104.3697092864577,2397
3106.0741407099695,2385
3107.778279578498,2401
3109.482126208622,2441
3111.1856809170004,2415
3112.8889440203716,2497
3114.5919158355528,2406
3116.294596679439,2509
3117.996986869006,2549
3119.6990867213062,2482
3121.4008965534726,2503
3123.102416682717,2517
3124.803647426329,2456
3126.5045891016784,2441
3128.205242026213,2454
3129.90560651746,2541
3131.605682893025,2341
3133.3054714705922,2472
3135.0049725679282,2438
3136.7041865028714,2466
3138.4031135933465,2417
3140.101754157353,2387
3141.800108512971,2386
3143.498176978357,2344
3145.1959598717494,2379
3146.8934575114636,2341
3148.5906702158954,2494
3150.2875983035183,2415
3151.9842420928853,2485
3153.680601902627,2381
3155.376678051456,2442
3157.07247085816,2458
3158.767980641609,2453
3160.463207720748,2437
3162.158152414606,2408
3163.8528150422862,2411
3165.5471959229726,2364
3167.2412953759303,2383
3168.9351137204976,2412
3170.628651276098,2409
3172.3219083622307,2373
3174.014885298474,2402
3175.707582404485,2373
3177.4000000000005,2412
3179.092138404835,2357
3180.7839979388846,2385
3182.47557892212,2498
3184.166881674594,2420
3185.8579065164386,2407
3187.5486537678626,2362
3189.2391237491547,2431
3190.9293167806827,2337
3192.6192331828934,2365
3194.3088732763117,2344
3195.998237381542,2336
3197.687325819268,2504
3199.376138910251,2355
3201.064676975334,2326
3202.7529403354347,2428
3204.4409293115523,2334
3206.1286442247647,2360
3207.816085396229,2328
3209.5032531471825,2398
3211.190147798936,2315
3212.8767696728846,2288
3214.5631190905015,2299
3216.2491963733373,2314
3217.9350018430214,2182
3219.6205358212637,2284
3221.305798629851,2244
3222.990790590651,2308
3224.6755120256103,2344
3226.359963256751,2322
3228.0441446061795,2269
3229.7280563960758,2331
3231.411698948703,2335
3233.0950725863995,2321
3234.778177631587,2366
3236.461014406761,2354
3238.1435832345005,2376
3239.8258844374595,2314
3241.507918338374,2349
3243.1896852600576,2363
3244.8711855254023,2365
3246.552419457381,2365
3248.233387379042,2373
3249.914089613516,2380
3251.59452648401,2349
3253.274698313813,2401
3254.95460542629,2328
3256.6342481448855,2253
3258.313626793125,2266
3259.9927416946084,2263
3261.6715931730196,2326
3263.3501815521176,2291
3265.0285071557437,2296
3266.706570307815,2242
3268.3843713323286,2280
3270.0619105533615,2327
3271.739188295068,2363
3273.4162048816834,2345
3275.0929606375184,2394
3276.769455886966,2345
3278.445690954498,2356
3280.1216661646613,2310
3281.797381842087,2376
3283.4728383114807,2335
3285.1480358976296,2340
3286.8229749253996,2266
3288.4976557197333,2306
3290.172078605655,2305
3291.846243908266,2237
3293.5201519527463,2373
3295.193803064357,2282
3296.8671975684374,2296
3298.5403357904024,2263
3300.21321805575,2289
3301.8858446900567,2299
3303.558216018975,2324
3305.23033236824,2275
3306.9021940636603,2300
3308.57380143113,2309
3310.2451547966184,2375
3311.916254486174,2292
3313.5871008259246,2304
3315.2576941420766,2252
3316.9280347609147,2286
3318.5981230088046,2302
3320.2679592121895,2296
3321.9375436975924,2235
3323.606876791612,2258
3325.27595882093,2271
3326.944790112305,2275
3328.6133709925753,2287
3330.2817017886573,2266
3331.949782827547,2312
3333.617614436319,2320
3335.2851969421245,2347
3336.952530672199,2272
3338.619615953853,2369
3340.286453114475,2220
3341.9530424815357,2278
3343.619384382583,2288
3345.2854791452437,2331
3346.951327097224,2330
3348.6169285663073,2245
3350.2822838803577,2285
3351.947393367319,2268
3353.61225735521,2295
3355.2768761721345,2328
3356.9412501462693,2321
3358.605379605873,2300
3360.2692648792827,2317
3361.9329062949146,2259
3363.596304181263,2249
