CollectionTime,9/20/2024 12:36:53 PM
ExposureUsed,3
CalibratedSpectrum
-962.7078968117929,716
-959.9714848408522,778
-957.2358232597828,788
-954.5009119013725,738
-951.7667505983302,776
-949.0333391832855,764
-946.3006774887896,749
-943.5687653473143,774
-940.837602591253,771
-938.1071890529199,786
-935.3775245645503,764
-932.6486089583007,781
-929.9204420662485,830
-927.1930237203925,805
-924.4663537526524,797
-921.7404319948689,803
-919.0152582788041,851
-916.2908324361409,826
-913.5671542984834,758
-910.8442236973568,765
-908.1220404642074,747
-905.4006044304027,761
-902.679915427231,732
-899.959973285902,758
-897.2407778375464,751
-894.5223289132158,760
-891.8046263438832,781
-889.0876699604426,759
-886.3714595937089,735
-883.6559950744183,735
-880.9412762332282,756
-878.2273029007168,718
-875.5140749073835,756
-872.8015920836489,764
-870.0898542598545,725
-867.3788612662631,707
-864.6686129330585,747
-861.9591090903457,717
-859.2503495681506,729
-856.5423341964203,718
-853.8350628050229,729
-851.1285352237478,738
-848.4227512823054,760
-845.7177108103272,756
-843.0134136373656,729
-840.3098595928943,731
-837.6070485063082,715
-834.9049802069229,742
-832.2036545239757,760
-829.5030712866244,770
-826.8032303239481,784
-824.1041314649472,740
-821.4057745385428,747
-818.7081593735775,770
-816.0112857988148,742
-813.3151536429393,709
-810.6197627345566,761
-807.9251129021936,752
-805.2312039742981,791
-802.5380357792392,769
-799.8456081453069,751
-797.1539209007124,768
-794.462973873588,751
-791.772766891987,778
-789.083299783884,784
-786.3945723771743,780
-783.7065844996748,765
-781.0193359791231,756
-778.3328266431781,771
-775.6470563194197,761
-772.9620248353489,794
-770.2777320183878,764
-767.5941776958798,757
-764.9113616950891,755
-762.2292838432011,795
-759.5479439673222,774
-756.8673418944801,766
-754.1874774516235,827
-751.5083504656222,793
-748.8299607632671,805
-746.15230817127,791
-743.475392516264,807
-740.7992136248035,759
-738.1237713233636,756
-735.4490654383407,791
-732.7750957960521,745
-730.1018622227365,775
-727.4293645445534,792
-724.7576025875837,810
-722.0865761778291,807
-719.4162851412126,802
-716.7467293035781,830
-714.0779084906909,822
-711.409822528237,836
-708.7424712418238,804
-706.0758544569796,836
-703.4099719991541,809
-700.7448236937178,852
-698.0804093659622,823
-695.4167288411002,834
-692.7537819442656,806
-690.0915685005134,835
-687.4300883348199,835
-684.7693412720819,857
-682.1093271371178,850
-679.4500457546669,807
-676.7914969493897,874
-674.1336805458676,845
-671.4765963686034,835
-668.8202442420206,868
-666.1646239904642,865
-663.5097354382001,872
-660.8555784094151,853
-658.2021527282176,875
-655.5494582186366,814
-652.8974947046223,882
-650.2462620100463,866
-647.5957599587009,869
-644.9459883742998,868
-642.2969470804776,916
-639.6486359007902,937
-637.0010546587141,931
-634.3542031776476,936
-631.7080812809096,938
-629.0626887917401,876
-626.4180255333008,868
-623.7740913286734,897
-621.1308860008619,969
-618.4884093727904,873
-615.8466612673046,898
-613.2056415071715,915
-610.5653499150785,873
-607.9257863136347,884
-605.28695052537,938
-602.6488423727357,922
-600.0114616781036,912
-597.3748082637674,955
-594.7388819519412,960
-592.1036825647604,994
-589.4692099242818,962
-586.8354638524829,930
-584.2024441712624,961
-581.5701507024403,981
-578.9385832677575,944
-576.3077416888759,934
-573.6776257873787,918
-571.0482353847704,878
-568.4195703024757,905
-565.7916303618415,947
-563.164415384135,906
-560.5379251905453,931
-557.9121596021815,878
-555.2871184400748,900
-552.6628015251767,955
-550.0392086783606,935
-547.4163397204204,980
-544.794194472071,1036
-542.1727727539491,1000
-539.5520743866118,959
-536.9320991905377,1036
-534.3128469861261,1028
-531.6943175936979,1062
-529.0765108334947,1046
-526.4594265256793,1140
-523.8430644903358,1301
-521.2274245474689,1391
-518.612506517005,1488
-515.9983102187913,1443
-513.3848354725959,1553
-510.77208209810846,1539
-508.16004991493924,1722
-505.5487387426199,1739
-502.9381484006032,1835
-500.3282787082628,1905
-497.71912948489364,1921
-495.1107005497117,1743
-492.5029917218539,1681
-489.8960028203786,1548
-487.28973366426493,1388
-484.68418407241325,1289
-482.07935386364494,1278
-479.47524285670266,1202
-476.87185087025,1167
-474.2691777228715,1124
-471.66722323307334,1218
-469.0659872192821,1169
-466.4654694998459,1148
-463.86566989303384,1202
-461.26658821703614,1147
-458.66822428996414,1164
-456.07057792985,1162
-453.4736489546475,1168
-450.877437182231,1161
-448.28194243039627,1120
-445.68716451686,1051
-443.09310325926003,1101
-440.49975847515555,1064
-437.9071299820263,1060
-435.31521759727354,1136
-432.72402113821954,1178
-430.13354042210767,1120
-427.5437752661022,1164
-424.95472548728867,1160
-422.36639090267386,1173
-419.7787713291855,1258
-417.1918665836721,1168
-414.60567648290385,1241
-412.0202008435715,1256
-409.4354394822874,1206
-406.8513922155845,1184
-404.26805885991723,1193
-401.685439231661,1226
-399.103533147112,1265
-396.522340422488,1193
-393.9418608739278,1258
-391.3620943174908,1180
-388.7830405691583,1156
-386.2046994448317,1056
-383.6270707603344,1081
-381.05015433141045,1027
-378.473949973725,995
-375.8984575028645,889
-373.32367673433623,822
-370.74960748356875,855
-368.1762495659117,774
-365.60360279663576,697
-363.03166699093265,682
-360.4604419639154,609
-357.8899275306178,613
-355.32012350599507,569
-352.7510297049233,546
-350.1826459421999,581
-347.61497203254316,543
-345.04800779059235,525
-342.4817530309082,550
-339.91620756797226,593
-337.35137121618743,615
-334.7872437898774,589
-332.22382510328725,538
-329.66111497058273,525
-327.09911320585127,504
-324.53781962310075,504
-321.9772340362607,512
-319.4173562591816,543
-316.8581861056348,529
-314.2997233893127,538
-311.7419679238294,536
-309.1849195227194,541
-306.62857799943856,586
-304.0729431673641,555
-301.51801483979375,575
-298.963792829947,560
-296.41027695096386,571
-293.85746701590574,600
-291.3053628377552,615
-288.7539642294155,615
-286.2032710037115,645
-283.65328297338897,682
-281.1039999511146,678
-278.5554217494762,671
-276.007548180983,677
-273.4603790580651,675
-270.9139141930734,680
-268.3681533982807,678
-265.8230964858798,664
-263.27874326798565,691
-260.7350935566336,705
-258.1921471637804,744
-255.6499039013039,863
-253.10836358100266,867
-250.56752601459698,799
-248.02739101372765,800
-245.48795838995704,855
-242.94922795476816,784
-240.41119951956557,821
-237.8738728956746,837
-235.33724789434166,897
-232.80132432673452,863
-230.2661020039418,797
-227.73158073697357,833
-225.19776033676033,879
-222.66464061415422,889
-220.1322213799284,850
-217.60050244477725,873
-215.06948361931552,829
-212.53916471408013,1114
-210.00954553952818,1084
-207.48062590603843,891
-204.9524056239104,799
-202.4248845033651,921
-199.8980623545441,972
-197.37193898751036,968
-194.84651421224817,935
-192.32178783866232,945
-189.79775967657952,1044
-187.27442953574644,1161
-184.7517972258321,1263
-182.2298625564256,977
-179.7086253370378,875
-177.18808537710026,1053
-174.66824248596583,1287
-172.14909647290835,1271
-169.6306471471229,1131
-167.11289431772548,963
-164.59583779375328,1055
-162.07947738416453,1349
-159.5638128978386,1585
-157.04884414357605,1455
-154.53457093009854,1542
-152.02099306604828,1144
-149.50811035998936,1097
-146.99592262040665,1439
-144.48442965570587,1764
-141.97363127421409,1746
-139.46352728417958,1687
-136.95411749377126,1592
-134.44540171107985,1284
-131.93737974411636,1188
-129.43005140081357,1398
-126.92341648902493,1837
-124.41747481652521,2245
-121.91222619101006,2283
-119.40767042009657,1968
-116.90380731132257,1668
-114.40063667214702,2257
-111.8981583099503,3427
-109.3963720320337,5572
-106.89527764561933,8433
-104.39487495785067,10361
-101.89516377579241,13584
-99.39614390642998,18577
-96.89781515667039,23517
-94.40017733334128,24934
-91.90323024319173,21043
-89.40697369289148,16594
-86.91140748903172,9459
-84.41653143812482,7073
-81.92234534660395,11254
-79.42884902082358,17904
-76.93604226705907,23671
-74.4439248915071,27033
-71.95249670028534,25373
-69.46175749943245,19186
-66.97170709490854,13371
-64.48234529259423,9393
-61.99367189829195,8992
-59.50568671772464,9472
-57.01838955653636,8704
-54.53178022029283,9102
-52.045858514480074,10843
-49.560624244506016,13084
-47.07607721569923,12100
-44.59221723330904,12386
-42.10904410250669,16084
-39.62655762838392,18377
-37.14475761595372,17362
-34.66364387015028,20314
-32.18321619582866,21454
-29.70347439776515,22972
-27.224418280657005,26277
-24.74604764912317,30676
-22.26836230770266,47857
-19.7913620608565,65036
-17.315046712966478,65036
-14.83941606833514,65036
-12.36446993118659,65036
-9.89020810566592,65036
-7.416630395839093,65036
-4.94373660569363,65036
-2.471526539137585,65036
-6.821210263296962E-13,65036
2.47084320796705,65036
4.941003281093458,65036
7.410480415786196,65036
9.879274808531363,65036
12.347386655893956,65036
14.814816154518212,65036
17.28156350112681,65036
19.74762889252179,65036
22.21301252558385,25682
24.67771459727237,6753
27.141735304626195,5712
29.605074844762612,5805
32.06773341487792,5178
34.52971121224755,4846
36.99100843422559,4445
39.45162527824516,3578
41.91156194181792,3467
44.370818622535126,3420
46.82939551806646,3025
49.287292826160524,4750
51.74451074464503,5275
54.201049471426245,4011
56.65690920448981,2578
59.112090141899785,1804
61.56659248179983,2162
64.02041642241159,2520
66.4735621620365,2695
68.92602989905402,3156
71.37781983192338,3283
73.82893215918205,2711
76.27936707944684,1867
78.72912479141326,2336
81.17820549385567,2335
83.62660938562783,1825
86.07433666566146,1463
88.5213875329681,1207
90.96776218663751,1507
93.41346082583925,1853
95.85848364982041,2286
98.30283085790859,2028
100.7465026495089,1626
103.18949922410604,1743
105.63182078126385,1389
108.07346752062438,1420
110.51443964190923,1239
112.95473734491827,1188
115.39436082953114,1172
117.83331029570547,1342
120.27158594347827,1435
122.7091879729652,1366
125.1461165843615,1357
127.58237197794062,1236
130.01795435405518,1193
132.4528639131364,1249
134.88710085569494,1192
137.32066538231982,1265
139.75355769367923,1406
142.1857779905207,1225
144.61732647366978,1104
147.04820334403132,1121
149.47840880258934,1161
151.90794305040674,1283
154.33680628862487,1368
156.76499871846443,1454
159.19252054122433,1590
161.61937195828352,1726
164.04555317109896,1916
166.47106438120693,2107
168.89590579022217,2217
171.320077599839,2399
173.7435800118302,2519
176.16641322804742,2536
178.58857745042144,2657
181.01007288096173,2792
183.43089972175687,2819
185.85105817497413,2793
188.27054844285988,2857
190.6893707277394,2789
193.10752523201643,2818
195.5250121581745,3084
197.9418317087751,2972
200.3579840864594,2987
202.7734694939469,3109
205.18828813403627,3224
207.6024402096051,3169
210.01592592360964,3135
212.42874547908548,3107
214.84089907914665,3078
217.2523869269868,3080
219.66320922587727,3049
222.0733661791695,3141
224.48285799029293,3028
226.8916848627572,3024
229.29984700014882,3265
231.7073446061355,3204
234.11417788446204,3272
236.520347038953,3315
238.92585227351185,3405
241.33069379212054,3516
243.73487179884035,3512
246.1383864978112,3535
248.541238093252,3512
250.9434267894609,3662
253.34495279081432,3600
255.74581630176783,3584
258.1460175268563,3646
260.54555667069314,3663
262.9444339379703,3503
265.3426495334594,3540
267.7402036620107,3598
270.1370965285529,3415
272.53332833809407,3166
274.9288992957214,3050
277.32380960660055,2991
279.718059475976,3053
282.1116491091717,3007
284.5045787115897,3007
286.89684848871195,2981
289.2884586460981,2983
291.67940938938807,2922
294.0697009242996,3068
296.4593334566299,2959
298.84830719225477,2899
301.23662233712923,3009
303.6242790972866,2872
306.01127767884,2821
308.39761828798066,2798
310.78330113097934,2786
313.16832641418534,2812
315.5526943440269,2711
317.9364051270112,2649
320.3194589697242,2696
322.70185607883093,2695
325.0835966610754,2549
327.4646809232805,2525
329.8451090723478,2476
332.2248813152577,2497
334.6039978590701,2576
336.9824589109231,2616
339.36026467803447,2479
341.7374153677,2374
344.113911187295,2448
346.48975234427337,2397
348.8649390461686,2533
351.2394715005918,2506
353.61334991523415,2396
355.9865744978655,2479
358.35914545633375,2420
360.73106299856715,2487
363.10232733257146,2411
365.47293866643247,2467
367.84289720831396,2404
370.2122031664593,2448
372.5808567491905,2440
374.9488581649083,2316
377.31620762209275,2311
379.6829053293021,2335
382.0489514951745,2319
384.4143463284262,2277
386.7790900378528,2237
389.14318283232853,2289
391.50662492080653,2302
393.86941651231916,2288
396.23155781597745,2317
398.5930490409713,2378
400.9538903965696,2259
403.3140820921202,2284
405.6736243370498,2240
408.03251734086336,2260
410.3907613131465,2268
412.74835646356166,2265
415.10530300185144,2280
417.4616011378372,2308
419.81725108141893,2242
422.1722530425758,2230
424.5266072313656,2240
426.880313857925,2244
429.2333731324701,2218
431.58578526529516,2151
433.9375504667738,2183
436.2886689473588,2204
438.63914091758113,2194
440.9889665880513,2282
443.33814616945835,2160
445.68667987257015,2086
448.03456790823395,2226
450.3818104873759,2156
452.72840782100013,2130
455.07436012019105,2197
457.41966759611057,2217
459.7643304600007,2170
462.10834892318155,2202
464.4517231970525,2139
466.79445349309174,2245
469.1365400228566,2128
471.4779829979826,2176
473.81878263018564,2245
476.15893913125876,2255
478.4984527130747,2293
480.8373235875855,2376
483.17555196682144,2362
485.5131380628919,2338
487.8500820879857,2427
490.1863842543697,2566
492.52204477439034,2877
494.8570638604725,2983
497.1914417251204,3319
499.52517858091653,3598
501.85827464052306,3764
504.19073011668036,3840
506.5225452222086,3905
508.85372017000566,3690
511.18425517304956,3724
513.514150444396,4064
515.8434061971808,5042
518.1720226446176,6011
520.4999999999999,6137
522.8273384766991,5910
525.1540382881666,5520
527.480099647932,5254
529.8055227696037,4218
532.1303078668694,3271
534.454455153496,2693
536.777964843328,2431
539.1008371502907,2344
541.4230722883866,2359
543.744670471698,2264
546.0656319143858,2224
548.3859568306899,2184
550.7056454349294,2149
553.0246979415016,2204
555.3431145648834,2247
557.6608955196306,2113
559.978041020377,2145
562.2945512818363,2115
564.6104265188006,2235
566.9256669461412,2193
569.2402727788082,2152
571.5542442318302,2212
573.8675815203156,2216
576.1802848594508,2211
578.4923544645015,2196
580.8037905508126,2238
583.114593333807,2277
585.4247630289875,2209
587.7342998519354,2191
590.0432040183106,2266
592.3514757438526,2273
594.6591152443794,2184
596.9661227357875,2122
599.2724984340531,2198
601.578242555231,2237
603.8833553154542,2135
606.1878369309362,2140
608.4916876179676,2131
610.7949075929192,2200
613.0974970722403,2241
615.3994562724587,2243
617.7007854101818,2216
620.0014847020951,2140
622.3015543649641,2233
624.6009946156324,2190
626.8998056710224,2171
629.1979877481361,2230
631.4955410640538,2269
633.7924658359349,2219
636.0887622810175,2149
638.3844306166192,2198
640.6794710601358,2296
642.9738838290426,2187
645.2676691408932,2251
647.5608272133207,2209
649.853358264037,2281
652.1452625108324,2307
654.4365401715764,2232
656.7271914642178,2299
659.0172166067838,2259
661.3066158173809,2302
663.5953893141935,2305
665.8835373154867,2285
668.1710600396028,2239
670.4579577049639,2200
672.7442305300709,2210
675.0298787335033,2323
677.3149025339197,2216
679.599302150058,2254
681.8830778007342,2293
684.1662297048437,2197
686.4487580813608,2261
688.7306631493387,2191
691.0119451279091,2250
693.2926042362834,2273
695.5726406937516,2297
697.8520547196814,2302
700.1308465335215,2154
702.4090163547982,2199
704.6865644031171,2273
706.9634908981619,2179
709.2397960596965,2224
711.5154801075631,2267
713.7905432616823,2146
716.0649857420548,2311
718.3388077687592,2273
720.612009561953,2254
722.8845913418733,2261
725.1565533288352,2257
727.427895743234,2225
729.6986188055427,2232
731.9687227363137,2271
734.238207756178,2284
736.5070740858458,2115
738.7753219461066,2221
741.0429515578281,2224
743.3099631419569,2265
745.5763569195191,2255
747.8421331116193,2203
750.1072919394409,2146
752.3718336242467,2209
754.6357583873777,2188
756.8990664502545,2172
759.1617580343765,2234
761.423833361321,2146
763.6852926527457,2201
765.9461361303862,2204
768.206364016058,2191
770.4659765316536,2275
772.7249738991469,2311
774.9833563405886,2210
777.2411240781092,2210
779.4982773339183,2254
781.7548163303044,2333
784.010741289634,2256
786.2660524343538,2357
788.5207499869881,2241
790.7748341701416,2327
793.0283052064964,2304
795.2811633188143,2233
797.5334087299362,2338
799.7850416627813,2252
802.0360623403484,2270
804.2864709857143,2296
806.5362678220353,2283
808.7854530725468,2180
811.0340269605625,2289
813.2819897094754,2288
815.5293415427581,2352
817.77608268396,2310
820.0222133567116,2257
822.2677337847211,2317
824.5126441917765,2313
826.7569448017433,2234
829.0006358385675,2233
831.2437175262731,2285
833.4861900889629,2236
835.7280537508192,2264
837.9693087361026,2254
840.2099552691533,2311
842.4499935743896,2325
844.689423876309,2274
846.9282463994886,2287
849.1664613685833,2266
851.4040690083276,2330
853.6410695435349,2284
855.877463199097,2289
858.1132501999847,2342
860.3484307712487,2379
862.5830051380175,2206
864.8169735254988,2341
867.0503361589791,2307
869.2830932638243,2392
871.5152450654786,2317
873.7467917894654,2276
875.9777336613873,2336
878.2080709069252,2305
880.4378037518389,2331
882.666932421968,2281
884.8954571432301,2352
887.1233781416219,2411
889.3506956432192,2353
891.5774098741766,2287
893.803521060728,2419
896.0290294291852,2448
898.2539352059397,2308
900.4782386174619,2478
902.7019398903011,2351
904.925039251085,2328
907.147536926521,2336
909.3694331433943,2425
911.59072812857,2407
913.8114221089921,2273
916.0315153116827,2407
918.2510079637437,2287
920.4699002923547,2292
922.6881925247761,2352
924.905884888345,2333
927.1229776104793,2304
929.3394709186747,2297
931.555365040506,2255
933.7706602036275,2328
935.9853566357709,2424
938.1994545647489,2304
940.4129542184515,2308
942.6258558248488,2319
944.8381596119883,2207
947.0498658079974,2378
949.2609746410825,2356
951.4714863395287,2313
953.6814011316998,2329
955.8907192460387,2255
958.0994409110671,2324
960.3075663553858,2379
962.5150958076741,2302
964.7220294966913,2355
966.928367651274,2174
969.1341105003388,2280
971.3392582728806,2316
973.5438111979742,2238
975.747769504772,2244
977.9511334225061,2188
980.153903180487,2218
982.3560790081052,2182
984.5576611348289,2218
986.7586497902058,2167
988.9590452038618,2219
991.158847605503,2212
993.3580572249133,2172
995.5566742919558,2020
997.7546990365728,2023
999.952131688785,1996
1002.1489724786926,1988
1004.3452216364743,1960
1006.5408793923874,2007
1008.7359459767691,1999
1010.9304216200343,1952
1013.1243065526781,1960
1015.3176010052733,2007
1017.510305208472,1910
1019.7024193930064,1979
1021.8939437896848,2005
1024.0848786293977,1882
1026.2752241431122,1947
1028.4649805618747,1947
1030.6541481168115,1967
1032.842727039127,1957
1035.0307175601051,1952
1037.2181199111074,1857
1039.4049343235752,1945
1041.591161029029,1850
1043.7768002590683,1950
1045.9618522453698,1912
1048.1463172196918,1915
1050.3301954138697,1947
1052.513487059818,1895
1054.69619238953,1882
1056.8783116350783,1849
1059.0598450286152,1871
1061.2407928023704,1864
1063.4211551886528,1853
1065.6009324198508,1912
1067.780124728432,1851
1069.9587323469414,1865
1072.1367555080046,1853
1074.314194444325,1846
1076.4910493886855,1858
1078.667320573947,1798
1080.843008233051,1836
1083.0181125990161,1800
1085.1926339049414,1815
1087.3665723840027,1869
1089.5399282694575,1839
1091.7127017946405,1813
1093.8848931929647,1809
1096.0565026979243,1820
1098.2275305430899,1845
1100.3979769621128,1784
1102.567842188722,1805
1104.737126456726,1889
1106.9058300000124,1760
1109.0739530525475,1798
1111.2414958483764,1848
1113.4084586216231,1736
1115.5748416064907,1823
1117.7406450372605,1758
1119.9058691482942,1802
1122.0705141740304,1824
1124.2345803489884,1768
1126.3980679077658,1706
1128.5609770850388,1833
1130.7233081155623,1793
1132.8850612341707,1759
1135.0462366757774,1755
1137.2068346753745,1767
1139.3668554680326,1758
1141.526299288901,1755
1143.68516637321,1770
1145.8434569562655,1800
1148.001171273455,1821
1150.158309560244,1774
1152.3148720521767,1726
1154.470858984876,1719
1156.626270594044,1715
1158.7811071154629,1765
1160.9353687849912,1721
1163.089055838569,1702
1165.242168512213,1794
1167.3947070420209,1765
1169.5466716641677,1785
1171.6980626149075,1717
1173.8488801305748,1745
1175.9991244475814,1782
1178.1487958024186,1744
1180.2978944316555,1667
1182.4464205719428,1679
1184.5943744600072,1726
1186.7417563326567,1803
1188.8885664267755,1685
1191.0348049793297,1769
1193.1804722273619,1727
1195.325568407995,1759
1197.4700937584303,1778
1199.614048515948,1761
1201.7574329179074,1780
1203.900247201746,1794
1206.042491604982,1708
1208.1841663652099,1716
1210.3252717201053,1772
1212.465807907422,1795
1214.6057751649923,1842
1216.7451737307279,1863
1218.8840038426192,1755
1221.0222657387353,1805
1223.1599596572241,1821
1225.2970858363137,1707
1227.4336445143094,1753
1229.5696359295966,1773
1231.705060320639,1784
1233.8399179259786,1786
1235.9742089842384,1770
1238.107933734118,1821
1240.2410924143974,1804
1242.373685263935,1857
1244.5057125216676,1813
1246.6371744266116,1872
1248.7680712178621,1802
1250.898403134593,1803
1253.028170416058,1887
1255.1573733015875,1801
1257.2860120305932,1842
1259.4140868425648,1824
1261.54159797707,1883
1263.6685456737569,1870
1265.7949301723515,1794
1267.9207517126597,1894
1270.046010534565,1829
1272.1707068780306,1916
1274.2948409830983,1878
1276.4184130898889,1877
1278.541423438603,1896
1280.6638722695184,1950
1282.785759822993,1843
1284.9070863394636,1861
1287.0278520594447,1906
1289.1480572235314,1950
1291.2677020723963,1932
1293.3867868467923,1940
1295.5053117875495,1934
1297.623277135579,1969
1299.740683131868,1960
1301.8575300174857,1953
1303.973818033578,1961
1306.0895474213703,2059
1308.2047184221678,1993
1310.3193312773528,2015
1312.4333862283888,2006
1314.5468835168163,1988
1316.659823384255,2017
1318.7722060724045,2025
1320.8840318230418,1942
1322.9953008780249,1972
1325.1060134792888,1991
1327.2161698688478,2067
1329.3257702887959,2019
1331.4348149813054,1989
1333.5433041886276,1971
1335.6512381530933,2037
1337.7586171171101,2015
1339.8654413231675,1947
1341.9717110138317,1983
1344.0774264317488,2000
1346.1825878196432,2001
1348.2871954203192,1994
1350.3912494766587,2021
1352.4947502316231,1994
1354.5976979282532,1948
1356.7000928096686,1968
1358.8019351190665,1972
1360.9032250997243,1955
1363.0039629949988,1972
1365.1041490483235,1977
1367.2037835032133,1950
1369.3028666032606,2025
1371.401398592137,2015
1373.4993797135926,1951
1375.5968102114575,1998
1377.6936903296396,2017
1379.7900203121262,2007
1381.8858004029835,1984
1383.9810308463561,2047
1386.075711886469,1948
1388.1698437676241,1979
1390.2634267342032,2045
1392.356461030667,1970
1394.4489469015557,2005
1396.5408845914872,2035
1398.6322743451592,2053
1400.7231164073469,1985
1402.813411022907,2047
1404.903158436773,2059
1406.9923588939578,2052
1409.0810126395531,2000
1411.1691199187303,2051
1413.2566809767386,2062
1415.343696058907,2030
1417.4301654106425,2036
1419.5160892774315,2018
1421.6014679048399,2105
1423.6863015385125,2136
1425.7705904241707,2147
1427.8543348076178,2159
1429.9375349347342,2147
1432.0201910514802,2202
1434.102303403894,2206
1436.1838722380944,2264
1438.2648978002767,2224
1440.3453803367174,2225
1442.4253200937692,2255
1444.5047173178677,2274
1446.5835722555234,2336
1448.6618851533285,2344
1450.739656257952,2341
1452.8168858161434,2330
1454.8935740747306,2400
1456.96972128062,2524
1459.045327680797,2532
1461.120393522327,2545
1463.1949190523528,2615
1465.2689045180973,2624
1467.3423501668608,2702
1469.415256246024,2691
1471.4876230030463,2724
1473.559450685465,2766
1475.6307395408976,2805
1477.7014898170391,2805
1479.771701761665,2930
1481.8413756226287,2864
1483.9105116478618,2899
1485.9791100853772,3090
1488.0471711832643,3046
1490.1146951896926,3029
1492.1816823529098,3202
1494.2481329212433,3192
1496.3140471430984,3224
1498.3794252669609,3256
1500.4442675413939,3169
1502.5085742150404,3341
1504.572345536622,3285
1506.6355817549388,3325
1508.6982831188702,3410
1510.7604498773744,3421
1512.8220822794883,3397
1514.8831805743293,3446
1516.9437450110909,3509
1519.003775839048,3337
1521.0632733075522,3450
1523.1222376660367,3423
1525.1806691640113,3468
1527.2385680510652,3543
1529.2959345768668,3584
1531.3527689911643,3634
1533.4090715437833,3658
1535.4648424846291,3637
1537.5200820636855,3723
1539.5747905310159,3830
1541.6289681367616,3858
1543.6826151311434,3838
1545.7357317644614,3904
1547.7883182870937,3990
1549.8403749494987,4083
1551.8919020022113,4139
1553.9428996958477,4171
1555.9933682811015,4231
1558.0433080087469,4245
1560.0927191296346,4304
1562.1416018946961,4446
1564.1899565549415,4306
1566.2377833614592,4204
1568.2850825654164,4196
1570.3318544180606,4094
1572.3780991707158,3889
1574.423817074788,3771
1576.4690083817595,3760
1578.5136733431923,3481
1580.5578122107272,3400
1582.601425236085,3219
1584.6445126710646,3248
1586.6870747675434,2930
1588.7291117774776,2857
1590.7706239529034,2788
1592.8116115459347,2711
1594.8520748087658,2723
1596.8920139936686,2597
1598.9314293529933,2488
1600.9703211391711,2433
1603.008689604711,2329
1605.0465350022005,2398
1607.0838575843068,2279
1609.1206576037753,2262
1611.1569353134305,2167
1613.1926909661765,2178
1615.2279248149953,2143
1617.2626371129481,2173
1619.2968281131757,2132
1621.3304980688963,2047
1623.3636472334088,2012
1625.39627586009,2072
1627.428384202396,1973
1629.459972513861,1976
1631.4910410480993,1907
1633.5215900588028,1941
1635.551619799744,1952
1637.5811305247717,1921
1639.6101224878166,1869
1641.6385959428862,1895
1643.6665511440683,1892
1645.693988345528,1817
1647.7209078015112,1829
1649.7473097663405,1828
1651.7731944944203,1790
1653.7985622402307,1890
1655.823413258333,1850
1657.847747803366,1867
1659.8715661300494,1819
1661.8948684931793,1781
1663.9176551476316,1856
1665.9399263483624,1904
1667.9616823504057,1814
1669.982923408873,1832
1672.0036497789574,1800
1674.0238617159293,1816
1676.043559475138,1797
1678.0627433120121,1809
1680.081413482059,1801
1682.0995702408654,1774
1684.117213844096,1796
1686.134344547495,1848
1688.1509626068864,1846
1690.1670682781705,1838
1692.182661817329,1878
1694.1977434804217,1850
1696.2123135235875,1776
1698.226372203043,1793
1700.2399197750851,1824
1702.2529564960905,1821
1704.2654826225112,1830
1706.277498410882,1748
1708.2890041178139,1782
1710.2999999999988,1796
1712.3104863142066,1808
1714.3204633172854,1820
1716.329931266163,1757
1718.3388904178469,1721
1720.3473410294214,1738
1722.3552833580516,1735
1724.3627176609807,1789
1726.3696441955308,1764
1728.3760632191033,1794
1730.3819749891782,1720
1732.3873797633146,1753
1734.3922777991502,1724
1736.3966693544012,1658
1738.4005546868639,1691
1740.4039340544127,1716
1742.406807715001,1693
1744.4091759266616,1683
1746.4110389475054,1716
1748.4123970357223,1749
1750.413250449582,1742
1752.4135994474318,1727
1754.4134442876993,1700
1756.4127852288902,1694
1758.4116225295893,1670
1760.4099564484595,1675
1762.407787244244,1719
1764.405115175764,1681
1766.4019405019203,1725
1768.3982634816916,1670
1770.3940843741357,1671
1772.3894034383907,1742
1774.3842209336717,1636
1776.378537119274,1680
1778.372352254571,1672
1780.3656665990156,1653
1782.3584804121397,1645
1784.3507939535534,1663
1786.3426074829463,1605
1788.3339212600863,1635
1790.3247355448211,1692
1792.3150505970766,1655
1794.3048666768573,1595
1796.2941840442477,1694
1798.2830029594106,1626
1800.2713236825884,1674
1802.2591464741004,1663
1804.2464715943465,1619
1806.2332993038058,1583
1808.2196298630352,1576
1810.2054635326708,1687
1812.190800573428,1653
1814.175641246101,1621
1816.1599858115628,1641
1818.1438345307652,1655
1820.127187664738,1613
1822.1100454745924,1650
1824.092408221516,1680
1826.0742761667766,1615
1828.055649571721,1625
1830.0365286977735,1608
1832.0169138064398,1595
1833.9968051593014,1601
1835.9762030180214,1608
1837.9551076443408,1639
1839.9335193000788,1593
1841.9114382471344,1604
1843.888864747485,1569
1845.8657990631878,1569
1847.842241456378,1602
1849.8181921892697,1537
1851.7936515241558,1570
1853.7686197234098,1626
1855.7430970494815,1579
1857.7170837649014,1661
1859.6905801322787,1663
1861.6635864143004,1538
1863.6361028737338,1552
1865.608129773424,1618
1867.5796673762961,1642
1869.5507159453537,1615
1871.521275743678,1662
1873.4913470344313,1561
1875.4609300808534,1633
1877.4300251462632,1563
1879.3986324940588,1675
1881.366752387717,1696
1883.3343850907936,1645
1885.3015308669228,1637
1887.268189979819,1648
1889.2343626932739,1623
1891.2000492711595,1631
1893.1652499774254,1651
1895.1299650761011,1630
1897.0941948312952,1598
1899.0579395071945,1626
1901.0211993680641,1695
1902.98397467825,1630
1904.9462657021745,1652
1906.9080727043415,1643
1908.869395949332,1699
1910.8302357018065,1645
1912.790592226504,1669
1914.7504657882428,1588
1916.7098566519212,1587
1918.6687650825133,1598
1920.6271913450764,1590
1922.5851357047422,1618
1924.5425984267245,1644
1926.499579776314,1645
1928.4560800188833,1605
1930.4120994198802,1657
1932.367638244833,1549
1934.32269675935,1702
1936.2772752291175,1601
1938.231373919899,1626
1940.1849930975404,1694
1942.1381330279637,1584
1944.0907939771696,1677
1946.0429762112412,1599
1947.9946799963363,1611
1949.9459055986945,1646
1951.896653284633,1591
1953.8469233205478,1581
1955.7967159729142,1624
1957.7460315082863,1611
1959.6948701932974,1597
1961.6432322946594,1547
1963.5911180791632,1658
1965.5385278136787,1639
1967.4854617651545,1603
1969.4319202006182,1598
1971.377903387176,1601
1973.3234115920136,1597
1975.268445082395,1611
1977.2130041256642,1599
1979.1570889892423,1583
1981.1006999406304,1624
1983.04383724741,1575
1984.986501177238,1556
1986.928691997853,1598
1988.8704099770712,1601
1990.811655382789,1556
1992.7524284829801,1653
1994.692729545698,1550
1996.6325588390755,1516
1998.5719166313224,1620
2000.5108031907307,1543
2002.4492187856677,1679
2004.387163684583,1578
2006.3246381560011,1600
2008.2616424685298,1561
2010.1981768908527,1581
2012.1342416917332,1577
2014.069837140014,1584
2016.0049635046162,1528
2017.9396210545406,1563
2019.8738100588666,1580
2021.8075307867502,1593
2023.740783507431,1551
2025.6735684902228,1608
2027.6058860045214,1513
2029.5377363198004,1569
2031.4691197056118,1541
2033.4000364315875,1554
2035.3304867674374,1620
2037.260470982952,1543
2039.189989347998,1550
2041.1190421325232,1550
2043.047629606554,1626
2044.9757520401945,1588
2046.9034097036288,1562
2048.8306028671195,1597
2050.7573318010086,1529
2052.683596775716,1527
2054.609398061742,1482
2056.5347359296647,1512
2058.4596106501403,1534
2060.384022493906,1543
2062.3079717317764,1530
2064.231458634646,1546
2066.1544834734873,1572
2068.077046519352,1603
2069.99914804337,1575
2071.9207883167524,1562
2073.8419676107865,1517
2075.7626861968406,1529
2077.6829443463607,1485
2079.6027423308715,1539
2081.522080421977,1546
2083.440958891362,1511
2085.359378010786,1554
2087.2773380520907,1561
2089.194839287196,1521
2091.111881988101,1522
2093.0284664268825,1568
2094.9445928756973,1557
2096.86026160678,1527
2098.775472892446,1522
2100.690227005088,1535
2102.604524217178,1522
2104.5183648012676,1604
2106.431749029985,1551
2108.34467717604,1547
2110.2571495122206,1491
2112.169166311393,1536
2114.080727846503,1572
2115.9918343905747,1582
2117.902486216711,1559
2119.8126835980956,1552
2121.722426807987,1542
2123.6317161197285,1547
2125.5405518067364,1675
2127.448934142509,1601
2129.356863400624,1582
2131.264339854737,1579
2133.1713637785815,1584
2135.077935445972,1575
2136.9840551308002,1610
2138.889723107037,1575
2140.7949396487334,1570
2142.699705030018,1601
2144.6040195250994,1571
2146.507883408264,1563
2148.4112969538774,1554
2150.3142604363848,1580
2152.2167741303097,1613
2154.1188383102535,1654
2156.0204532508997,1524
2157.9216192270064,1648
2159.822336513414,1591
2161.7226053850413,1557
2163.622426116884,1621
2165.5217989840185,1608
2167.4207242616,1641
2169.319202224862,1550
2171.2172331491165,1610
2173.1148173097563,1660
2175.0119549822507,1628
2176.90864644215,1671
2178.8048919650823,1617
2180.7006918267534,1578
2182.596046302952,1659
2184.4909556695407,1557
2186.3854202024645,1595
2188.279440177746,1649
2190.173015871487,1602
2192.066147559868,1580
2193.958835519149,1589
2195.851080025667,1588
2197.7428813558417,1630
2199.6342397861667,1593
2201.5251555932186,1675
2203.415629053651,1555
2205.3056604441986,1663
2207.19525004167,1605
2209.084398122958,1677
2210.9731049650327,1610
2212.861370844941,1672
2214.749196039812,1656
2216.636580826851,1676
2218.523525483344,1654
2220.410030286655,1657
2222.296095514226,1648
2224.1817214435805,1651
2226.066908352319,1613
2227.951656518121,1690
2229.835966218746,1633
2231.71983773203,1716
2233.6032713358913,1633
2235.486267308324,1625
2237.3688259274036,1666
2239.2509474712824,1708
2241.132632218193,1698
2243.013880446447,1731
2244.8946924344323,1725
2246.7750684606203,1599
2248.6550088035574,1684
2250.534513741871,1742
2252.413583554265,1716
2254.292218519526,1608
2256.170418916517,1642
2258.0481850241786,1639
2259.925517121534,1668
2261.8024154876825,1635
2263.678880401803,1658
2265.5549121431536,1698
2267.430510991071,1722
2269.305677224971,1610
2271.180411124348,1696
2273.0547129687766,1669
2274.9285830379076,1607
2276.8020216114737,1692
2278.6750289692845,1691
2280.5476053912294,1713
2282.4197511572766,1626
2284.2914665474727,1660
2286.162751841943,1654
2288.0336073208937,1724
2289.904033264608,1654
2291.774029953448,1689
2293.6435976678554,1660
2295.5127366883517,1633
2297.381447295534,1622
2299.2497297700825,1591
2301.1175843927526,1584
2302.9850114443825,1557
2304.852011205885,1545
2306.7185839582553,1483
2308.5847299825664,1511
2310.4504495599676,1481
2312.3157429716925,1417
2314.1806104990483,1476
2316.0450524234247,1490
2317.9090690262888,1475
2319.772660589186,1405
2321.635827393742,1481
2323.498569721661,1418
2325.3608878547248,1392
2327.2227820747967,1509
2329.0842526638157,1448
2330.945299903803,1391
2332.805924076857,1475
2334.6661254651535,1400
2336.525904350951,1467
2338.3852610165827,1406
2340.244195744464,1441
2342.102708817088,1473
2343.9608005170253,1455
2345.8184711269287,1428
2347.675720929526,1366
2349.532550207628,1463
2351.38895924412,1445
2353.24494832197,1448
2355.100517724223,1424
2356.955667734004,1465
2358.810398634514,1510
2360.664710709037,1447
2362.5186042409337,1434
2364.3720795136437,1444
2366.225136810686,1459
2368.0777764156583,1442
2369.929998612237,1452
2371.7818036841777,1475
2373.633191915315,1426
2375.484163589562,1427
2377.3347189909114,1461
2379.184858403434,1489
2381.03458211128,1446
2382.8838903986775,1501
2384.732783549936,1456
2386.5812618494406,1449
2388.4293255816588,1455
2390.2769750311327,1398
2392.1242104824883,1438
2393.971032220427,1497
2395.8174405297295,1478
2397.6634356952563,1478
2399.509018001947,1509
2401.3541877348193,1569
2403.1989451789705,1497
2405.043290619576,1508
2406.8872243418905,1493
2408.730746631247,1485
2410.5738577730594,1461
2412.4165580528183,1531
2414.258847756095,1537
2416.100727168537,1521
2417.9421965758734,1484
2419.783256263912,1496
2421.623906518538,1503
2423.4641476257157,1494
2425.303979871491,1496
2427.143403541984,1501
2428.9824189233977,1467
2430.821026302012,1489
2432.6592259641866,1536
2434.497018196361,1537
2436.33440328505,1456
2438.171381516851,1502
2440.00795317844,1497
2441.844118556569,1485
2443.6798779380724,1492
2445.5152316098606,1511
2447.3501798589255,1497
2449.1847229723357,1518
2451.0188612372403,1496
2452.8525949408663,1501
2454.6859243705203,1509
2456.518849813587,1470
2458.3513715575314,1495
2460.183489889895,1536
2462.015205098301,1519
2463.8465174704493,1500
2465.67742729412,1565
2467.5079348571717,1447
2469.338040447542,1493
2471.1677443532476,1480
2472.9970468623833,1537
2474.825948263123,1511
2476.6544488437207,1484
2478.482548892508,1552
2480.310248697896,1561
2482.137548548374,1526
2483.9644487325118,1580
2485.790949538956,1444
2487.617051256433,1587
2489.44275417375,1496
2491.26805857979,1484
2493.0929647635157,1529
2494.917473013971,1535
2496.741583620276,1566
2498.5652968716304,1588
2500.3886130573137,1512
2502.2115324666834,1557
2504.0340553891765,1563
2505.856182114308,1550
2507.6779129316733,1563
2509.499248130945,1551
2511.3201880018764,1536
2513.140732834298,1513
2514.9608829181198,1554
2516.780638543331,1597
2518.6,1612
2520.418967578273,1571
2522.237541568376,1625
2524.0557222606144,1577
2525.8735099453706,1648
2527.6909049131086,1632
2529.507907454368,1597
2531.32451785977,1613
2533.140736420014,1674
2534.9565634258774,1633
2536.771999168218,1635
2538.5870439379714,1608
2540.4016980261526,1701
2542.2159617238544,1685
2544.02983532225,1635
2545.8433191125914,1700
2547.656413386209,1714
2549.4691184345115,1684
2551.2814345489874,1746
2553.093362021204,1702
2554.904901142808,1806
2556.716052205523,1764
2558.526815501153,1808
2560.3371913215824,1792
2562.147179958771,1780
2563.956781704761,1705
2565.7659968516705,1724
2567.5748256916986,1770
2569.3832685171224,1828
2571.1913256202984,1816
2572.9989972936614,1767
2574.806283829725,1787
2576.613185521084,1829
2578.4197026604074,1804
2580.2258355404483,1845
2582.031584454035,1924
2583.836949694077,1894
2585.6419315535613,1858
2587.4465303255533,1853
2589.2507463032002,1890
2591.0545797797245,1879
2592.8580310484303,1817
2594.6611004026995,1872
2596.463788135992,1795
2598.266094541849,1890
2600.0680199138874,1911
2601.869564545807,1844
2603.670728731383,1872
2605.4715127644704,1911
2607.2719169390048,1922
2609.071941548998,1876
2610.8715868885433,1800
2612.670853251811,1892
2614.469740933052,1812
2616.268250226594,1883
2618.0663814268455,1759
2619.864134828292,1837
2621.6615107255006,1820
2623.458509413115,1800
2625.2551311858597,1853
2627.0513763385347,1830
2628.8472451660223,1781
2630.6427379632833,1769
2632.4378550253564,1805
2634.232596647359,1756
2636.026963124488,1694
2637.8209547520187,1718
2639.6145718253065,1772
2641.407814639785,1733
2643.200683490966,1703
2644.9931786744414,1687
2646.7853004858807,1672
2648.577049221034,1717
2650.3684251757277,1695
2652.1594286458712,1653
2653.9500599274484,1635
2655.740319316525,1644
2657.5302071092437,1630
2659.3197236018286,1660
2661.10886909058,1629
2662.8976438718782,1561
2664.686048242183,1584
2666.4740824980327,1549
2668.2617469360443,1623
2670.0490418529134,1585
2671.8359675454153,1649
2673.622524310403,1541
2675.408712444811,1552
2677.1945322456495,1605
2678.979984010009,1573
2680.76506803506,1515
2682.5497846180497,1561
2684.334134056306,1551
2686.1181166472343,1517
2687.9017326883213,1564
2689.6849824771293,1551
2691.4678663113013,1483
2693.2503844885596,1553
2695.032537306705,1510
2696.8143250636167,1525
2698.5957480572542,1529
2700.3768065856534,1503
2702.1575009469316,1510
2703.937831439283,1538
2705.717798360982,1485
2707.4974020103837,1513
2709.276642685917,1465
2711.055520686095,1473
2712.834036309506,1500
2714.612189854819,1507
2716.389981620782,1482
2718.1674119062204,1496
2719.944481010041,1470
2721.721189231226,1494
2723.4975368688415,1490
2725.273524222027,1474
2727.0491515900053,1462
2728.824419272075,1473
2730.5993275676146,1461
2732.3738767760838,1455
2734.148067197016,1409
2735.921899130031,1404
2737.6953728748194,1469
2739.468488731156,1450
2741.2412469988926,1435
2743.0136479779617,1450
2744.785691968372,1403
2746.5573792702116,1446
2748.3287101836504,1444
2750.099685008934,1451
2751.870304046388,1453
2753.640567596418,1384
2755.4104759595057,1428
2757.1800294362156,1418
2758.949228327187,1442
2760.7180729331412,1441
2762.486563554877,1442
2764.254700493272,1435
2766.022484049284,1415
2767.789914523947,1429
2769.5569922183786,1420
2771.3237174337705,1442
2773.090090471394,1454
2774.8561116326036,1375
2776.6217812188274,1419
2778.3870995315756,1421
2780.1520668724356,1458
2781.9166835430747,1421
2783.6809498452394,1434
2785.444866080754,1406
2787.2084325515225,1413
2788.971649559527,1369
2790.73451740683,1411
2792.4970363955713,1425
2794.2592068279705,1391
2796.0210290063264,1420
2797.7825032330147,1442
2799.543629810493,1364
2801.304409041296,1453
2803.0648412280366,1378
2804.8249266734088,1391
2806.5846656801846,1461
2808.344058551212,1448
2810.1031055894246,1428
2811.8618070978273,1391
2813.6201633795085,1500
2815.378174737636,1395
2817.1358414754536,1410
2818.893163896285,1400
2820.6501423035334,1433
2822.4067770006814,1419
2824.1630682912883,1414
2825.9190164789957,1375
2827.6746218675207,1358
2829.429884760661,1438
2831.184805462294,1434
2832.9393842763743,1408
2834.693621506936,1499
2836.4475174580916,1417
2838.201072434034,1377
2839.954286739034,1388
2841.707160677441,1388
2843.459694553685,1417
2845.2118886722724,1442
2846.96374333779,1379
2848.7152588549034,1417
2850.4664355283567,1392
2852.217273662973,1451
2853.9677735636546,1400
2855.7179355353833,1451
2857.4677598832186,1423
2859.217246912299,1452
2860.9663969278427,1408
2862.715210235146,1392
2864.4636871395846,1421
2866.211827946614,1418
2867.9596329617652,1400
2869.7071024906536,1371
2871.4542368389684,1387
2873.20103631248,1469
2874.947501217038,1445
2876.6936318585695,1401
2878.4394285430812,1357
2880.1848915766604,1405
2881.9300212654707,1393
2883.6748179157553,1343
2885.4192818338374,1383
2887.1634133261173,1438
2888.907212699077,1418
2890.6506802592744,1442
2892.393816313348,1404
2894.1366211680142,1384
2895.8790951300693,1395
2897.621238506388,1402
2899.363051603925,1380
2901.1045347297118,1374
2902.8456881908596,1455
2904.58651229456,1382
2906.327007348081,1423
2908.067173658772,1393
2909.8070115340597,1480
2911.5465212814497,1442
2913.285703208527,1327
2915.0245576229563,1318
2916.7630848324807,1386
2918.5012851449196,1414
2920.2391588681758,1348
2921.976706310227,1367
2923.7139277791334,1376
2925.4508235830313,1349
2927.187394030137,1439
2928.923639428745,1341
2930.6595600872306,1434
2932.395156314046,1338
2934.1304284177218,1366
2935.8653767068713,1361
2937.6000014901815,1424
2939.3343030764227,1384
2941.068281774442,1447
2942.8019378931644,1411
2944.5352717415976,1424
2946.2682836288236,1417
2948.0009738640065,1414
2949.7333427563885,1392
2951.465390615289,1407
2953.1971177501086,1414
2954.9285244703265,1342
2956.6596110855,1389
2958.3903779052657,1413
2960.1208252393385,1345
2961.8509533975125,1434
2963.5807626896617,1407
2965.3102534257378,1360
2967.0394259157715,1413
2968.768280469873,1356
2970.496817398232,1448
2972.2250370111146,1444
2973.952939618869,1398
2975.6805255319196,1393
2977.4077950607707,1429
2979.134748516006,1388
2980.861386208289,1387
2982.587708448359,1365
2984.313715547037,1404
2986.039407815222,1418
2987.764785563891,1442
2989.489849104102,1409
2991.2145987469908,1398
2992.9390348037705,1416
2994.6631575857346,1393
2996.3869674042576,1399
2998.1104645707887,1416
2999.83364939686,1377
3001.5565221940783,1365
3003.2790832741334,1401
3005.0013329487924,1342
3006.7232715298996,1351
3008.4448993293804,1371
3010.166216659239,1305
3011.887223831558,1345
3013.607921158498,1384
3015.3283089522993,1423
3017.0483875252826,1395
3018.7681571898443,1383
3020.4876182584626,1345
3022.2067710436927,1351
3023.9256158581707,1393
3025.644153014609,1420
3027.362382825801,1415
3029.0803056046193,1394
3030.797921664012,1342
3032.5152313170106,1374
3034.2322348767225,1369
3035.9489326563353,1394
3037.665324969115,1377
3039.3814121284063,1323
3041.097194447633,1386
3042.812672240299,1339
3044.5278458199855,1334
3046.2427155003525,1360
3047.9572815951406,1305
3049.671544418167,1372
3051.38550428333,1315
3053.0991615046073,1385
3054.812516396051,1432
3056.5255692717974,1390
3058.2383204460575,1392
3059.9507702331257,1391
3061.662918947372,1329
3063.3747669032446,1370
3065.0863144152736,1386
3066.7975617980674,1423
3068.508509366309,1336
3070.219157434767,1328
3071.9295063182844,1360
3073.639556331785,1408
3075.3493077902704,1360
3077.058761008821,1359
3078.7679163025964,1376
3080.476773986837,1377
3082.1853343768594,1392
3083.89359778806,1393
3085.6015645359153,1315
3087.3092349359786,1375
3089.016609303884,1394
3090.7236879553434,1389
3092.4304712061476,1381
3094.136959372166,1330
3095.843152769349,1383
3097.5490517137237,1433
3099.2546565213966,1336
3100.959967508554,1383
3102.66498499146,1322
3104.3697092864577,1403
3106.0741407099695,1369
3107.778279578498,1347
3109.482126208622,1368
3111.1856809170004,1388
3112.8889440203716,1369
3114.5919158355528,1360
3116.294596679439,1411
3117.996986869006,1412
3119.6990867213062,1346
3121.4008965534726,1372
3123.102416682717,1380
3124.803647426329,1408
3126.5045891016784,1416
3128.205242026213,1399
3129.90560651746,1438
3131.605682893025,1462
3133.3054714705922,1428
3135.0049725679282,1371
3136.7041865028714,1352
3138.4031135933465,1374
3140.101754157353,1331
3141.800108512971,1392
3143.498176978357,1370
3145.1959598717494,1364
3146.8934575114636,1371
3148.5906702158954,1361
3150.2875983035183,1373
3151.9842420928853,1351
3153.680601902627,1399
3155.376678051456,1335
3157.07247085816,1336
3158.767980641609,1351
3160.463207720748,1328
3162.158152414606,1355
3163.8528150422862,1372
3165.5471959229726,1337
3167.2412953759303,1351
3168.9351137204976,1385
3170.628651276098,1353
3172.3219083622307,1356
3174.014885298474,1416
3175.707582404485,1352
3177.4000000000005,1316
3179.092138404835,1370
3180.7839979388846,1407
3182.47557892212,1361
3184.166881674594,1409
3185.8579065164386,1331
3187.5486537678626,1374
3189.2391237491547,1385
3190.9293167806827,1385
3192.6192331828934,1362
3194.3088732763117,1312
3195.998237381542,1343
3197.687325819268,1343
3199.376138910251,1373
3201.064676975334,1332
3202.7529403354347,1353
3204.4409293115523,1322
3206.1286442247647,1310
3207.816085396229,1329
3209.5032531471825,1330
3211.190147798936,1300
3212.8767696728846,1343
3214.5631190905015,1345
3216.2491963733373,1370
3217.9350018430214,1364
3219.6205358212637,1304
3221.305798629851,1353
3222.990790590651,1368
3224.6755120256103,1290
3226.359963256751,1299
3228.0441446061795,1271
3229.7280563960758,1325
3231.411698948703,1320
3233.0950725863995,1302
3234.778177631587,1420
3236.461014406761,1344
3238.1435832345005,1339
3239.8258844374595,1345
3241.507918338374,1356
3243.1896852600576,1391
3244.8711855254023,1299
3246.552419457381,1342
3248.233387379042,1386
3249.914089613516,1324
3251.59452648401,1351
3253.274698313813,1310
3254.95460542629,1383
3256.6342481448855,1315
3258.313626793125,1305
3259.9927416946084,1322
3261.6715931730196,1376
3263.3501815521176,1343
3265.0285071557437,1246
3266.706570307815,1277
3268.3843713323286,1352
3270.0619105533615,1328
3271.739188295068,1277
3273.4162048816834,1339
3275.0929606375184,1293
3276.769455886966,1285
3278.445690954498,1339
3280.1216661646613,1324
3281.797381842087,1336
3283.4728383114807,1332
3285.1480358976296,1327
3286.8229749253996,1318
3288.4976557197333,1330
3290.172078605655,1295
3291.846243908266,1339
3293.5201519527463,1323
3295.193803064357,1317
3296.8671975684374,1273
3298.5403357904024,1329
3300.21321805575,1302
3301.8858446900567,1317
3303.558216018975,1368
3305.23033236824,1307
3306.9021940636603,1308
3308.57380143113,1305
3310.2451547966184,1305
3311.916254486174,1316
3313.5871008259246,1295
3315.2576941420766,1328
3316.9280347609147,1326
3318.5981230088046,1306
3320.2679592121895,1363
3321.9375436975924,1340
3323.606876791612,1311
3325.27595882093,1345
3326.944790112305,1313
3328.6133709925753,1293
3330.2817017886573,1316
3331.949782827547,1312
3333.617614436319,1327
3335.2851969421245,1287
3336.952530672199,1382
3338.619615953853,1366
3340.286453114475,1301
3341.9530424815357,1366
3343.619384382583,1335
3345.2854791452437,1364
3346.951327097224,1329
3348.6169285663073,1344
3350.2822838803577,1309
3351.947393367319,1277
3353.61225735521,1284
3355.2768761721345,1312
3356.9412501462693,1389
3358.605379605873,1314
3360.2692648792827,1331
3361.9329062949146,1336
3363.596304181263,1311
