CollectionTime,7/11/2024 12:14:52 PM
ExposureUsed,3
CalibratedSpectrum
-962.7078968117929,1524
-959.9714848408522,1714
-957.2358232597828,1728
-954.5009119013725,1755
-951.7667505983302,1714
-949.0333391832855,1771
-946.3006774887896,1754
-943.5687653473143,1795
-940.837602591253,1753
-938.1071890529199,1788
-935.3775245645503,1734
-932.6486089583007,1766
-929.9204420662485,1847
-927.1930237203925,1750
-924.4663537526524,1773
-921.7404319948689,1714
-919.0152582788041,1914
-916.2908324361409,1910
-913.5671542984834,1724
-910.8442236973568,1766
-908.1220404642074,1722
-905.4006044304027,1788
-902.679915427231,1683
-899.959973285902,1728
-897.2407778375464,1851
-894.5223289132158,1808
-891.8046263438832,1691
-889.0876699604426,1785
-886.3714595937089,1823
-883.6559950744183,1787
-880.9412762332282,1755
-878.2273029007168,1782
-875.5140749073835,1815
-872.8015920836489,1767
-870.0898542598545,1719
-867.3788612662631,1773
-864.6686129330585,1757
-861.9591090903457,1860
-859.2503495681506,1794
-856.5423341964203,1826
-853.8350628050229,1847
-851.1285352237478,1782
-848.4227512823054,1819
-845.7177108103272,1757
-843.0134136373656,1816
-840.3098595928943,1851
-837.6070485063082,1944
-834.9049802069229,1798
-832.2036545239757,1885
-829.5030712866244,1892
-826.8032303239481,1881
-824.1041314649472,1779
-821.4057745385428,1827
-818.7081593735775,1879
-816.0112857988148,1905
-813.3151536429393,1899
-810.6197627345566,1926
-807.9251129021936,1834
-805.2312039742981,1838
-802.5380357792392,1877
-799.8456081453069,1894
-797.1539209007124,1900
-794.462973873588,1970
-791.772766891987,1996
-789.083299783884,1954
-786.3945723771743,1855
-783.7065844996748,1880
-781.0193359791231,1894
-778.3328266431781,1943
-775.6470563194197,1961
-772.9620248353489,1912
-770.2777320183878,1961
-767.5941776958798,2010
-764.9113616950891,1992
-762.2292838432011,1907
-759.5479439673222,1940
-756.8673418944801,1933
-754.1874774516235,1931
-751.5083504656222,1915
-748.8299607632671,2029
-746.15230817127,2023
-743.475392516264,1984
-740.7992136248035,1974
-738.1237713233636,1988
-735.4490654383407,2011
-732.7750957960521,1961
-730.1018622227365,2007
-727.4293645445534,1950
-724.7576025875837,1951
-722.0865761778291,2026
-719.4162851412126,1943
-716.7467293035781,2059
-714.0779084906909,2074
-711.409822528237,2099
-708.7424712418238,2089
-706.0758544569796,2003
-703.4099719991541,2087
-700.7448236937178,2114
-698.0804093659622,2055
-695.4167288411002,2102
-692.7537819442656,2107
-690.0915685005134,2110
-687.4300883348199,2094
-684.7693412720819,2086
-682.1093271371178,2164
-679.4500457546669,2115
-676.7914969493897,2111
-674.1336805458676,2100
-671.4765963686034,2125
-668.8202442420206,2133
-666.1646239904642,2169
-663.5097354382001,2091
-660.8555784094151,2100
-658.2021527282176,2205
-655.5494582186366,2228
-652.8974947046223,2182
-650.2462620100463,2144
-647.5957599587009,2183
-644.9459883742998,2219
-642.2969470804776,2214
-639.6486359007902,2155
-637.0010546587141,2247
-634.3542031776476,2246
-631.7080812809096,2190
-629.0626887917401,2241
-626.4180255333008,2204
-623.7740913286734,2239
-621.1308860008619,2160
-618.4884093727904,2246
-615.8466612673046,2272
-613.2056415071715,2264
-610.5653499150785,2249
-607.9257863136347,2273
-605.28695052537,2236
-602.6488423727357,2272
-600.0114616781036,2258
-597.3748082637674,2246
-594.7388819519412,2330
-592.1036825647604,2442
-589.4692099242818,2423
-586.8354638524829,2405
-584.2024441712624,2362
-581.5701507024403,2357
-578.9385832677575,2393
-576.3077416888759,2463
-573.6776257873787,2380
-571.0482353847704,2386
-568.4195703024757,2286
-565.7916303618415,2324
-563.164415384135,2344
-560.5379251905453,2430
-557.9121596021815,2355
-555.2871184400748,2353
-552.6628015251767,2344
-550.0392086783606,2404
-547.4163397204204,2375
-544.794194472071,2375
-542.1727727539491,2434
-539.5520743866118,2524
-536.9320991905377,2462
-534.3128469861261,2457
-531.6943175936979,2516
-529.0765108334947,2515
-526.4594265256793,2594
-523.8430644903358,2739
-521.2274245474689,2708
-518.612506517005,2725
-515.9983102187913,2786
-513.3848354725959,2752
-510.77208209810846,2783
-508.16004991493924,2780
-505.5487387426199,2956
-502.9381484006032,3085
-500.3282787082628,3093
-497.71912948489364,3107
-495.1107005497117,3046
-492.5029917218539,2943
-489.8960028203786,2866
-487.28973366426493,2743
-484.68418407241325,2679
-482.07935386364494,2574
-479.47524285670266,2649
-476.87185087025,2715
-474.2691777228715,2639
-471.66722323307334,2666
-469.0659872192821,2659
-466.4654694998459,2697
-463.86566989303384,2755
-461.26658821703614,2647
-458.66822428996414,2705
-456.07057792985,2638
-453.4736489546475,2604
-450.877437182231,2545
-448.28194243039627,2553
-445.68716451686,2628
-443.09310325926003,2639
-440.49975847515555,2597
-437.9071299820263,2501
-435.31521759727354,2586
-432.72402113821954,2682
-430.13354042210767,2739
-427.5437752661022,2692
-424.95472548728867,2627
-422.36639090267386,2729
-419.7787713291855,2952
-417.1918665836721,2911
-414.60567648290385,2718
-412.0202008435715,2789
-409.4354394822874,2871
-406.8513922155845,2755
-404.26805885991723,2804
-401.685439231661,2859
-399.103533147112,2888
-396.522340422488,2790
-393.9418608739278,2712
-391.3620943174908,2626
-388.7830405691583,2637
-386.2046994448317,2487
-383.6270707603344,2326
-381.05015433141045,2105
-378.473949973725,1944
-375.8984575028645,1892
-373.32367673433623,1671
-370.74960748356875,1459
-368.1762495659117,1316
-365.60360279663576,1120
-363.03166699093265,976
-360.4604419639154,820
-357.8899275306178,712
-355.32012350599507,685
-352.7510297049233,660
-350.1826459421999,626
-347.61497203254316,610
-345.04800779059235,645
-342.4817530309082,598
-339.91620756797226,639
-337.35137121618743,725
-334.7872437898774,846
-332.22382510328725,759
-329.66111497058273,618
-327.09911320585127,580
-324.53781962310075,640
-321.9772340362607,645
-319.4173562591816,578
-316.8581861056348,588
-314.2997233893127,588
-311.7419679238294,555
-309.1849195227194,568
-306.62857799943856,711
-304.0729431673641,789
-301.51801483979375,763
-298.963792829947,707
-296.41027695096386,706
-293.85746701590574,686
-291.3053628377552,742
-288.7539642294155,732
-286.2032710037115,750
-283.65328297338897,717
-281.1039999511146,789
-278.5554217494762,815
-276.007548180983,707
-273.4603790580651,662
-270.9139141930734,636
-268.3681533982807,582
-265.8230964858798,657
-263.27874326798565,812
-260.7350935566336,899
-258.1921471637804,860
-255.6499039013039,810
-253.10836358100266,823
-250.56752601459698,873
-248.02739101372765,855
-245.48795838995704,864
-242.94922795476816,905
-240.41119951956557,832
-237.8738728956746,933
-235.33724789434166,793
-232.80132432673452,713
-230.2661020039418,746
-227.73158073697357,775
-225.19776033676033,976
-222.66464061415422,962
-220.1322213799284,813
-217.60050244477725,823
-215.06948361931552,818
-212.53916471408013,893
-210.00954553952818,956
-207.48062590603843,1058
-204.9524056239104,974
-202.4248845033651,1023
-199.8980623545441,891
-197.37193898751036,868
-194.84651421224817,959
-192.32178783866232,977
-189.79775967657952,957
-187.27442953574644,960
-184.7517972258321,1085
-182.2298625564256,1147
-179.7086253370378,1204
-177.18808537710026,1090
-174.66824248596583,927
-172.14909647290835,921
-169.6306471471229,1027
-167.11289431772548,1069
-164.59583779375328,1001
-162.07947738416453,942
-159.5638128978386,1139
-157.04884414357605,1429
-154.53457093009854,1644
-152.02099306604828,1346
-149.50811035998936,1134
-146.99592262040665,1130
-144.48442965570587,1352
-141.97363127421409,1405
-139.46352728417958,1369
-136.95411749377126,1462
-134.44540171107985,1442
-131.93737974411636,1131
-129.43005140081357,1326
-126.92341648902493,1751
-124.41747481652521,2033
-121.91222619101006,2108
-119.40767042009657,2168
-116.90380731132257,1963
-114.40063667214702,2186
-111.8981583099503,2217
-109.3963720320337,2648
-106.89527764561933,4681
-104.39487495785067,8590
-101.89516377579241,11079
-99.39614390642998,13825
-96.89781515667039,17418
-94.40017733334128,23000
-91.90323024319173,33031
-89.40697369289148,37221
-86.91140748903172,28158
-84.41653143812482,18333
-81.92234534660395,9300
-79.42884902082358,10312
-76.93604226705907,22704
-74.4439248915071,38662
-71.95249670028534,49703
-69.46175749943245,50020
-66.97170709490854,44854
-64.48234529259423,37751
-61.99367189829195,28914
-59.50568671772464,20744
-57.01838955653636,17751
-54.53178022029283,17182
-52.045858514480074,15796
-49.560624244506016,14944
-47.07607721569923,13718
-44.59221723330904,13176
-42.10904410250669,11176
-39.62655762838392,11112
-37.14475761595372,12808
-34.66364387015028,12865
-32.18321619582866,11506
-29.70347439776515,10870
-27.224418280657005,10427
-24.74604764912317,12360
-22.26836230770266,21231
-19.7913620608565,46859
-17.315046712966478,65039
-14.83941606833514,65039
-12.36446993118659,65039
-9.89020810566592,65039
-7.416630395839093,65039
-4.94373660569363,65039
-2.471526539137585,65039
-6.821210263296962E-13,65039
2.47084320796705,65039
4.941003281093458,65039
7.410480415786196,65039
9.879274808531363,65039
12.347386655893956,65039
14.814816154518212,65039
17.28156350112681,65039
19.74762889252179,65039
22.21301252558385,65039
24.67771459727237,22858
27.141735304626195,5582
29.605074844762612,4779
32.06773341487792,5555
34.52971121224755,4763
36.99100843422559,4444
39.45162527824516,3618
41.91156194181792,2560
44.370818622535126,2621
46.82939551806646,2508
49.287292826160524,2749
51.74451074464503,4474
54.201049471426245,4748
56.65690920448981,3374
59.112090141899785,2198
61.56659248179983,2033
64.02041642241159,2161
66.4735621620365,2360
68.92602989905402,2339
71.37781983192338,3011
73.82893215918205,3017
76.27936707944684,2397
78.72912479141326,1905
81.17820549385567,2279
83.62660938562783,2567
86.07433666566146,2415
88.5213875329681,1889
90.96776218663751,1629
93.41346082583925,1627
95.85848364982041,1994
98.30283085790859,2424
100.7465026495089,1939
103.18949922410604,2019
105.63182078126385,1871
108.07346752062438,1613
110.51443964190923,1646
112.95473734491827,1617
115.39436082953114,1904
117.83331029570547,1552
120.27158594347827,1491
122.7091879729652,1736
125.1461165843615,1845
127.58237197794062,1719
130.01795435405518,1325
132.4528639131364,1458
134.88710085569494,1287
137.32066538231982,1111
139.75355769367923,1394
142.1857779905207,1629
144.61732647366978,1411
147.04820334403132,1124
149.47840880258934,1187
151.90794305040674,1469
154.33680628862487,1754
156.76499871846443,2004
159.19252054122433,2246
161.61937195828352,2227
164.04555317109896,2554
166.47106438120693,2867
168.89590579022217,3325
171.320077599839,3485
173.7435800118302,3534
176.16641322804742,3740
178.58857745042144,4051
181.01007288096173,4310
183.43089972175687,4146
185.85105817497413,4245
188.27054844285988,4483
190.6893707277394,4503
193.10752523201643,4842
195.5250121581745,4878
197.9418317087751,4980
200.3579840864594,4942
202.7734694939469,5012
205.18828813403627,5140
207.6024402096051,5323
210.01592592360964,5381
212.42874547908548,5230
214.84089907914665,5087
217.2523869269868,5224
219.66320922587727,5148
222.0733661791695,5200
224.48285799029293,5179
226.8916848627572,5239
229.29984700014882,5329
231.7073446061355,5276
234.11417788446204,5254
236.520347038953,5463
238.92585227351185,5401
241.33069379212054,5599
243.73487179884035,5709
246.1383864978112,5585
248.541238093252,5398
250.9434267894609,5496
253.34495279081432,5529
255.74581630176783,5450
258.1460175268563,5363
260.54555667069314,5329
262.9444339379703,5510
265.3426495334594,5476
267.7402036620107,5586
270.1370965285529,5548
272.53332833809407,5320
274.9288992957214,5210
277.32380960660055,5151
279.718059475976,5174
282.1116491091717,5185
284.5045787115897,5127
286.89684848871195,5133
289.2884586460981,5083
291.67940938938807,5068
294.0697009242996,5341
296.4593334566299,5386
298.84830719225477,5253
301.23662233712923,4955
303.6242790972866,5095
306.01127767884,5170
308.39761828798066,5118
310.78330113097934,5140
313.16832641418534,5106
315.5526943440269,4950
317.9364051270112,4978
320.3194589697242,5075
322.70185607883093,5058
325.0835966610754,5118
327.4646809232805,5035
329.8451090723478,4870
332.2248813152577,4884
334.6039978590701,4899
336.9824589109231,5006
339.36026467803447,5093
341.7374153677,4900
344.113911187295,4804
346.48975234427337,4941
348.8649390461686,4896
351.2394715005918,4963
353.61334991523415,4862
355.9865744978655,4774
358.35914545633375,4940
360.73106299856715,4939
363.10232733257146,4892
365.47293866643247,4938
367.84289720831396,4839
370.2122031664593,4755
372.5808567491905,4825
374.9488581649083,4788
377.31620762209275,4690
379.6829053293021,4722
382.0489514951745,4693
384.4143463284262,4690
386.7790900378528,4761
389.14318283232853,4777
391.50662492080653,4652
393.86941651231916,4948
396.23155781597745,4914
398.5930490409713,4980
400.9538903965696,4975
403.3140820921202,4692
405.6736243370498,4852
408.03251734086336,4704
410.3907613131465,4661
412.74835646356166,4690
415.10530300185144,4658
417.4616011378372,4705
419.81725108141893,4744
422.1722530425758,4739
424.5266072313656,4673
426.880313857925,4682
429.2333731324701,4863
431.58578526529516,4869
433.9375504667738,4782
436.2886689473588,4672
438.63914091758113,4737
440.9889665880513,4651
443.33814616945835,4779
445.68667987257015,4524
448.03456790823395,4619
450.3818104873759,4532
452.72840782100013,4612
455.07436012019105,4569
457.41966759611057,4579
459.7643304600007,4733
462.10834892318155,4647
464.4517231970525,4750
466.79445349309174,4852
469.1365400228566,4724
471.4779829979826,4775
473.81878263018564,4660
476.15893913125876,4700
478.4984527130747,4732
480.8373235875855,4751
483.17555196682144,4801
485.5131380628919,4776
487.8500820879857,4868
490.1863842543697,5027
492.52204477439034,5122
494.8570638604725,5470
497.1914417251204,5646
499.52517858091653,5802
501.85827464052306,5809
504.19073011668036,5913
506.5225452222086,5975
508.85372017000566,5986
511.18425517304956,5920
513.514150444396,6060
515.8434061971808,6780
518.1720226446176,7307
520.4999999999999,7527
522.8273384766991,7327
525.1540382881666,6943
527.480099647932,6616
529.8055227696037,6057
532.1303078668694,5428
534.454455153496,5195
536.777964843328,4872
539.1008371502907,4928
541.4230722883866,4786
543.744670471698,4884
546.0656319143858,4867
548.3859568306899,4898
550.7056454349294,4761
553.0246979415016,4685
555.3431145648834,4858
557.6608955196306,4787
559.978041020377,4749
562.2945512818363,4731
564.6104265188006,4789
566.9256669461412,4864
569.2402727788082,4714
571.5542442318302,4847
573.8675815203156,4847
576.1802848594508,4867
578.4923544645015,4819
580.8037905508126,5005
583.114593333807,5045
585.4247630289875,4799
587.7342998519354,4844
590.0432040183106,4904
592.3514757438526,5032
594.6591152443794,4965
596.9661227357875,4810
599.2724984340531,4903
601.578242555231,4803
603.8833553154542,4885
606.1878369309362,4897
608.4916876179676,4872
610.7949075929192,4955
613.0974970722403,4892
615.3994562724587,4809
617.7007854101818,4834
620.0014847020951,4859
622.3015543649641,4915
624.6009946156324,4838
626.8998056710224,4819
629.1979877481361,4731
631.4955410640538,4792
633.7924658359349,4744
636.0887622810175,4851
638.3844306166192,4905
640.6794710601358,5063
642.9738838290426,4956
645.2676691408932,4875
647.5608272133207,4914
649.853358264037,5054
652.1452625108324,4895
654.4365401715764,5004
656.7271914642178,4959
659.0172166067838,5097
661.3066158173809,4966
663.5953893141935,5023
665.8835373154867,5024
668.1710600396028,4897
670.4579577049639,4990
672.7442305300709,4819
675.0298787335033,4960
677.3149025339197,4943
679.599302150058,4919
681.8830778007342,5023
684.1662297048437,5001
686.4487580813608,4948
688.7306631493387,5005
691.0119451279091,5050
693.2926042362834,4889
695.5726406937516,4963
697.8520547196814,4950
700.1308465335215,4928
702.4090163547982,4987
704.6865644031171,5005
706.9634908981619,4974
709.2397960596965,4972
711.5154801075631,4949
713.7905432616823,4957
716.0649857420548,4992
718.3388077687592,4876
720.612009561953,4987
722.8845913418733,4876
725.1565533288352,4937
727.427895743234,4903
729.6986188055427,4877
731.9687227363137,4944
734.238207756178,4823
736.5070740858458,4850
738.7753219461066,4889
741.0429515578281,4969
743.3099631419569,5011
745.5763569195191,4944
747.8421331116193,4981
750.1072919394409,5091
752.3718336242467,4987
754.6357583873777,5077
756.8990664502545,5011
759.1617580343765,5017
761.423833361321,5015
763.6852926527457,4916
765.9461361303862,4935
768.206364016058,4997
770.4659765316536,4955
772.7249738991469,5002
774.9833563405886,4962
777.2411240781092,5049
779.4982773339183,4984
781.7548163303044,5092
784.010741289634,5149
786.2660524343538,5137
788.5207499869881,4992
790.7748341701416,5097
793.0283052064964,4989
795.2811633188143,4926
797.5334087299362,5188
799.7850416627813,5018
802.0360623403484,5010
804.2864709857143,4991
806.5362678220353,5103
808.7854530725468,4966
811.0340269605625,5028
813.2819897094754,5053
815.5293415427581,4983
817.77608268396,4995
820.0222133567116,5089
822.2677337847211,5157
824.5126441917765,5140
826.7569448017433,5112
829.0006358385675,4952
831.2437175262731,5125
833.4861900889629,5138
835.7280537508192,5039
837.9693087361026,5202
840.2099552691533,5064
842.4499935743896,4987
844.689423876309,5143
846.9282463994886,5097
849.1664613685833,5042
851.4040690083276,5188
853.6410695435349,5165
855.877463199097,5091
858.1132501999847,5135
860.3484307712487,5114
862.5830051380175,5052
864.8169735254988,5136
867.0503361589791,5097
869.2830932638243,5163
871.5152450654786,5226
873.7467917894654,5014
875.9777336613873,5153
878.2080709069252,5125
880.4378037518389,5152
882.666932421968,5273
884.8954571432301,5180
887.1233781416219,5136
889.3506956432192,5175
891.5774098741766,5261
893.803521060728,5131
896.0290294291852,5326
898.2539352059397,5178
900.4782386174619,5143
902.7019398903011,5051
904.925039251085,5049
907.147536926521,5187
909.3694331433943,5132
911.59072812857,5044
913.8114221089921,5104
916.0315153116827,5200
918.2510079637437,5146
920.4699002923547,5098
922.6881925247761,5140
924.905884888345,5126
927.1229776104793,5270
929.3394709186747,5136
931.555365040506,5111
933.7706602036275,5102
935.9853566357709,5117
938.1994545647489,5124
940.4129542184515,5056
942.6258558248488,5165
944.8381596119883,5026
947.0498658079974,5006
949.2609746410825,5076
951.4714863395287,5098
953.6814011316998,5177
955.8907192460387,5058
958.0994409110671,5005
960.3075663553858,5079
962.5150958076741,5113
964.7220294966913,5129
966.928367651274,5073
969.1341105003388,5046
971.3392582728806,5068
973.5438111979742,5000
975.747769504772,4963
977.9511334225061,5071
980.153903180487,5129
982.3560790081052,5089
984.5576611348289,4989
986.7586497902058,5016
988.9590452038618,5042
991.158847605503,5137
993.3580572249133,4972
995.5566742919558,4882
997.7546990365728,4999
999.952131688785,4914
1002.1489724786926,4838
1004.3452216364743,4868
1006.5408793923874,4870
1008.7359459767691,4926
1010.9304216200343,4878
1013.1243065526781,4816
1015.3176010052733,4801
1017.510305208472,4817
1019.7024193930064,4834
1021.8939437896848,4833
1024.0848786293977,4795
1026.2752241431122,4923
1028.4649805618747,4883
1030.6541481168115,4830
1032.842727039127,4924
1035.0307175601051,4819
1037.2181199111074,4773
1039.4049343235752,4850
1041.591161029029,4882
1043.7768002590683,4807
1045.9618522453698,4901
1048.1463172196918,4785
1050.3301954138697,4870
1052.513487059818,4884
1054.69619238953,4796
1056.8783116350783,4989
1059.0598450286152,4643
1061.2407928023704,4798
1063.4211551886528,4875
1065.6009324198508,4756
1067.780124728432,4833
1069.9587323469414,4669
1072.1367555080046,4779
1074.314194444325,4775
1076.4910493886855,4728
1078.667320573947,4817
1080.843008233051,4809
1083.0181125990161,4799
1085.1926339049414,4836
1087.3665723840027,4788
1089.5399282694575,4732
1091.7127017946405,4736
1093.8848931929647,4707
1096.0565026979243,4655
1098.2275305430899,4678
1100.3979769621128,4808
1102.567842188722,4805
1104.737126456726,4783
1106.9058300000124,4653
1109.0739530525475,4767
1111.2414958483764,4828
1113.4084586216231,4773
1115.5748416064907,4693
1117.7406450372605,4827
1119.9058691482942,4736
1122.0705141740304,4721
1124.2345803489884,4816
1126.3980679077658,4873
1128.5609770850388,4869
1130.7233081155623,4851
1132.8850612341707,4885
1135.0462366757774,4755
1137.2068346753745,4796
1139.3668554680326,4759
1141.526299288901,4797
1143.68516637321,4786
1145.8434569562655,4755
1148.001171273455,4780
1150.158309560244,4793
1152.3148720521767,4746
1154.470858984876,4869
1156.626270594044,4711
1158.7811071154629,4753
1160.9353687849912,4801
1163.089055838569,4752
1165.242168512213,4734
1167.3947070420209,4806
1169.5466716641677,4766
1171.6980626149075,4778
1173.8488801305748,4643
1175.9991244475814,4715
1178.1487958024186,4741
1180.2978944316555,4732
1182.4464205719428,4832
1184.5943744600072,4703
1186.7417563326567,4771
1188.8885664267755,4687
1191.0348049793297,4774
1193.1804722273619,4693
1195.325568407995,4728
1197.4700937584303,4724
1199.614048515948,4675
1201.7574329179074,4842
1203.900247201746,4701
1206.042491604982,4743
1208.1841663652099,4752
1210.3252717201053,4792
1212.465807907422,4862
1214.6057751649923,4863
1216.7451737307279,4904
1218.8840038426192,4851
1221.0222657387353,4882
1223.1599596572241,4907
1225.2970858363137,4914
1227.4336445143094,4743
1229.5696359295966,4875
1231.705060320639,4817
1233.8399179259786,4902
1235.9742089842384,4842
1238.107933734118,4980
1240.2410924143974,4873
1242.373685263935,4881
1244.5057125216676,4814
1246.6371744266116,4957
1248.7680712178621,4841
1250.898403134593,4875
1253.028170416058,4785
1255.1573733015875,4817
1257.2860120305932,4883
1259.4140868425648,4796
1261.54159797707,4986
1263.6685456737569,4898
1265.7949301723515,4919
1267.9207517126597,4904
1270.046010534565,4916
1272.1707068780306,5013
1274.2948409830983,4841
1276.4184130898889,4930
1278.541423438603,4810
1280.6638722695184,4872
1282.785759822993,4926
1284.9070863394636,5006
1287.0278520594447,4971
1289.1480572235314,4977
1291.2677020723963,4946
1293.3867868467923,5026
1295.5053117875495,4934
1297.623277135579,4930
1299.740683131868,4943
1301.8575300174857,5079
1303.973818033578,4995
1306.0895474213703,5247
1308.2047184221678,5060
1310.3193312773528,5083
1312.4333862283888,5106
1314.5468835168163,5153
1316.659823384255,4948
1318.7722060724045,5152
1320.8840318230418,5153
1322.9953008780249,5051
1325.1060134792888,5181
1327.2161698688478,5059
1329.3257702887959,5117
1331.4348149813054,5100
1333.5433041886276,4967
1335.6512381530933,5168
1337.7586171171101,5068
1339.8654413231675,4900
1341.9717110138317,5013
1344.0774264317488,5114
1346.1825878196432,5068
1348.2871954203192,5042
1350.3912494766587,5036
1352.4947502316231,5035
1354.5976979282532,4989
1356.7000928096686,5080
1358.8019351190665,5093
1360.9032250997243,5028
1363.0039629949988,5056
1365.1041490483235,5091
1367.2037835032133,5149
1369.3028666032606,5187
1371.401398592137,5133
1373.4993797135926,5073
1375.5968102114575,5175
1377.6936903296396,5049
1379.7900203121262,5157
1381.8858004029835,5159
1383.9810308463561,5196
1386.075711886469,5030
1388.1698437676241,4999
1390.2634267342032,5188
1392.356461030667,5118
1394.4489469015557,5051
1396.5408845914872,5256
1398.6322743451592,5305
1400.7231164073469,5181
1402.813411022907,5214
1404.903158436773,5190
1406.9923588939578,5165
1409.0810126395531,5224
1411.1691199187303,5164
1413.2566809767386,5199
1415.343696058907,5187
1417.4301654106425,5228
1419.5160892774315,5220
1421.6014679048399,5280
1423.6863015385125,5185
1425.7705904241707,5211
1427.8543348076178,5174
1429.9375349347342,5258
1432.0201910514802,5220
1434.102303403894,5381
1436.1838722380944,5244
1438.2648978002767,5237
1440.3453803367174,5471
1442.4253200937692,5415
1444.5047173178677,5389
1446.5835722555234,5462
1448.6618851533285,5365
1450.739656257952,5507
1452.8168858161434,5432
1454.8935740747306,5377
1456.96972128062,5447
1459.045327680797,5486
1461.120393522327,5571
1463.1949190523528,5395
1465.2689045180973,5676
1467.3423501668608,5554
1469.415256246024,5656
1471.4876230030463,5663
1473.559450685465,5769
1475.6307395408976,5721
1477.7014898170391,5826
1479.771701761665,5804
1481.8413756226287,5890
1483.9105116478618,6009
1485.9791100853772,6077
1488.0471711832643,5939
1490.1146951896926,5987
1492.1816823529098,6000
1494.2481329212433,6026
1496.3140471430984,6047
1498.3794252669609,5920
1500.4442675413939,6060
1502.5085742150404,6177
1504.572345536622,6086
1506.6355817549388,6172
1508.6982831188702,6136
1510.7604498773744,6174
1512.8220822794883,6203
1514.8831805743293,6188
1516.9437450110909,6217
1519.003775839048,6299
1521.0632733075522,6301
1523.1222376660367,6231
1525.1806691640113,6360
1527.2385680510652,6383
1529.2959345768668,6354
1531.3527689911643,6256
1533.4090715437833,6486
1535.4648424846291,6376
1537.5200820636855,6267
1539.5747905310159,6510
1541.6289681367616,6580
1543.6826151311434,6567
1545.7357317644614,6716
1547.7883182870937,6715
1549.8403749494987,6639
1551.8919020022113,6740
1553.9428996958477,6861
1555.9933682811015,6781
1558.0433080087469,6871
1560.0927191296346,6941
1562.1416018946961,6914
1564.1899565549415,6929
1566.2377833614592,6758
1568.2850825654164,6788
1570.3318544180606,6751
1572.3780991707158,6629
1574.423817074788,6462
1576.4690083817595,6534
1578.5136733431923,6389
1580.5578122107272,6276
1582.601425236085,6167
1584.6445126710646,6087
1586.6870747675434,5905
1588.7291117774776,5952
1590.7706239529034,5927
1592.8116115459347,5835
1594.8520748087658,5751
1596.8920139936686,5646
1598.9314293529933,5595
1600.9703211391711,5575
1603.008689604711,5466
1605.0465350022005,5517
1607.0838575843068,5504
1609.1206576037753,5436
1611.1569353134305,5342
1613.1926909661765,5372
1615.2279248149953,5518
1617.2626371129481,5418
1619.2968281131757,5359
1621.3304980688963,5362
1623.3636472334088,5319
1625.39627586009,5320
1627.428384202396,5265
1629.459972513861,5467
1631.4910410480993,5356
1633.5215900588028,5501
1635.551619799744,5240
1637.5811305247717,5296
1639.6101224878166,5203
1641.6385959428862,5259
1643.6665511440683,5158
1645.693988345528,5257
1647.7209078015112,5279
1649.7473097663405,5350
1651.7731944944203,5200
1653.7985622402307,5288
1655.823413258333,5182
1657.847747803366,5192
1659.8715661300494,5282
1661.8948684931793,5262
1663.9176551476316,5253
1665.9399263483624,5200
1667.9616823504057,5106
1669.982923408873,5166
1672.0036497789574,5167
1674.0238617159293,5132
1676.043559475138,5164
1678.0627433120121,5112
1680.081413482059,5154
1682.0995702408654,5132
1684.117213844096,5056
1686.134344547495,5071
1688.1509626068864,5213
1690.1670682781705,5226
1692.182661817329,5277
1694.1977434804217,5189
1696.2123135235875,5209
1698.226372203043,5130
1700.2399197750851,5161
1702.2529564960905,5250
1704.2654826225112,5169
1706.277498410882,5206
1708.2890041178139,5175
1710.2999999999988,5109
1712.3104863142066,5237
1714.3204633172854,5186
1716.329931266163,5134
1718.3388904178469,5168
1720.3473410294214,5234
1722.3552833580516,5224
1724.3627176609807,5171
1726.3696441955308,5177
1728.3760632191033,5135
1730.3819749891782,5184
1732.3873797633146,5187
1734.3922777991502,5217
1736.3966693544012,5165
1738.4005546868639,5253
1740.4039340544127,5069
1742.406807715001,5188
1744.4091759266616,5162
1746.4110389475054,5147
1748.4123970357223,5193
1750.413250449582,5077
1752.4135994474318,5135
1754.4134442876993,5111
1756.4127852288902,5153
1758.4116225295893,5118
1760.4099564484595,5092
1762.407787244244,5157
1764.405115175764,5111
1766.4019405019203,5072
1768.3982634816916,5184
1770.3940843741357,5053
1772.3894034383907,5099
1774.3842209336717,5198
1776.378537119274,5204
1778.372352254571,5159
1780.3656665990156,5073
1782.3584804121397,5071
1784.3507939535534,5029
1786.3426074829463,5023
1788.3339212600863,5103
1790.3247355448211,5209
1792.3150505970766,5196
1794.3048666768573,5112
1796.2941840442477,5233
1798.2830029594106,4969
1800.2713236825884,5018
1802.2591464741004,5177
1804.2464715943465,5216
1806.2332993038058,5101
1808.2196298630352,5254
1810.2054635326708,5266
1812.190800573428,5206
1814.175641246101,5178
1816.1599858115628,5249
1818.1438345307652,5208
1820.127187664738,5291
1822.1100454745924,5268
1824.092408221516,5311
1826.0742761667766,5301
1828.055649571721,5223
1830.0365286977735,5145
1832.0169138064398,5231
1833.9968051593014,5143
1835.9762030180214,5217
1837.9551076443408,5145
1839.9335193000788,5247
1841.9114382471344,5215
1843.888864747485,5173
1845.8657990631878,5235
1847.842241456378,5135
1849.8181921892697,5258
1851.7936515241558,5226
1853.7686197234098,5204
1855.7430970494815,5172
1857.7170837649014,5219
1859.6905801322787,5153
1861.6635864143004,5111
1863.6361028737338,5230
1865.608129773424,5312
1867.5796673762961,5281
1869.5507159453537,5214
1871.521275743678,5313
1873.4913470344313,5155
1875.4609300808534,5321
1877.4300251462632,5292
1879.3986324940588,5406
1881.366752387717,5435
1883.3343850907936,5241
1885.3015308669228,5339
1887.268189979819,5312
1889.2343626932739,5227
1891.2000492711595,5164
1893.1652499774254,5364
1895.1299650761011,5292
1897.0941948312952,5389
1899.0579395071945,5329
1901.0211993680641,5398
1902.98397467825,5205
1904.9462657021745,5374
1906.9080727043415,5249
1908.869395949332,5329
1910.8302357018065,5335
1912.790592226504,5264
1914.7504657882428,5446
1916.7098566519212,5436
1918.6687650825133,5285
1920.6271913450764,5210
1922.5851357047422,5344
1924.5425984267245,5255
1926.499579776314,5284
1928.4560800188833,5376
1930.4120994198802,5260
1932.367638244833,5380
1934.32269675935,5294
1936.2772752291175,5299
1938.231373919899,5334
1940.1849930975404,5391
1942.1381330279637,5338
1944.0907939771696,5413
1946.0429762112412,5377
1947.9946799963363,5512
1949.9459055986945,5404
1951.896653284633,5359
1953.8469233205478,5285
1955.7967159729142,5332
1957.7460315082863,5329
1959.6948701932974,5341
1961.6432322946594,5344
1963.5911180791632,5309
1965.5385278136787,5432
1967.4854617651545,5437
1969.4319202006182,5361
1971.377903387176,5302
1973.3234115920136,5397
1975.268445082395,5297
1977.2130041256642,5437
1979.1570889892423,5379
1981.1006999406304,5461
1983.04383724741,5479
1984.986501177238,5400
1986.928691997853,5425
1988.8704099770712,5455
1990.811655382789,5451
1992.7524284829801,5361
1994.692729545698,5504
1996.6325588390755,5349
1998.5719166313224,5483
2000.5108031907307,5499
2002.4492187856677,5303
2004.387163684583,5403
2006.3246381560011,5374
2008.2616424685298,5379
2010.1981768908527,5350
2012.1342416917332,5313
2014.069837140014,5339
2016.0049635046162,5399
2017.9396210545406,5337
2019.8738100588666,5308
2021.8075307867502,5389
2023.740783507431,5366
2025.6735684902228,5410
2027.6058860045214,5384
2029.5377363198004,5380
2031.4691197056118,5478
2033.4000364315875,5404
2035.3304867674374,5366
2037.260470982952,5315
2039.189989347998,5407
2041.1190421325232,5390
2043.047629606554,5424
2044.9757520401945,5357
2046.9034097036288,5381
2048.8306028671195,5355
2050.7573318010086,5527
2052.683596775716,5466
2054.609398061742,5501
2056.5347359296647,5411
2058.4596106501403,5400
2060.384022493906,5582
2062.3079717317764,5382
2064.231458634646,5492
2066.1544834734873,5415
2068.077046519352,5471
2069.99914804337,5623
2071.9207883167524,5459
2073.8419676107865,5599
2075.7626861968406,5577
2077.6829443463607,5615
2079.6027423308715,5505
2081.522080421977,5440
2083.440958891362,5524
2085.359378010786,5429
2087.2773380520907,5553
2089.194839287196,5497
2091.111881988101,5574
2093.0284664268825,5451
2094.9445928756973,5331
2096.86026160678,5410
2098.775472892446,5564
2100.690227005088,5511
2102.604524217178,5496
2104.5183648012676,5654
2106.431749029985,5481
2108.34467717604,5509
2110.2571495122206,5637
2112.169166311393,5425
2114.080727846503,5479
2115.9918343905747,5538
2117.902486216711,5470
2119.8126835980956,5527
2121.722426807987,5654
2123.6317161197285,5655
2125.5405518067364,5556
2127.448934142509,5495
2129.356863400624,5572
2131.264339854737,5687
2133.1713637785815,5656
2135.077935445972,5622
2136.9840551308002,5664
2138.889723107037,5593
2140.7949396487334,5583
2142.699705030018,5693
2144.6040195250994,5605
2146.507883408264,5667
2148.4112969538774,5640
2150.3142604363848,5659
2152.2167741303097,5752
2154.1188383102535,5659
2156.0204532508997,5615
2157.9216192270064,5691
2159.822336513414,5732
2161.7226053850413,5668
2163.622426116884,5646
2165.5217989840185,5704
2167.4207242616,5671
2169.319202224862,5667
2171.2172331491165,5727
2173.1148173097563,5727
2175.0119549822507,5681
2176.90864644215,5669
2178.8048919650823,5653
2180.7006918267534,5715
2182.596046302952,5738
2184.4909556695407,5756
2186.3854202024645,5799
2188.279440177746,5758
2190.173015871487,5778
2192.066147559868,5769
2193.958835519149,5658
2195.851080025667,5678
2197.7428813558417,5866
2199.6342397861667,5806
2201.5251555932186,5892
2203.415629053651,5877
2205.3056604441986,5793
2207.19525004167,5743
2209.084398122958,5959
2210.9731049650327,5994
2212.861370844941,5871
2214.749196039812,5824
2216.636580826851,5857
2218.523525483344,5757
2220.410030286655,5848
2222.296095514226,5888
2224.1817214435805,5763
2226.066908352319,5840
2227.951656518121,5930
2229.835966218746,5998
2231.71983773203,5951
2233.6032713358913,5822
2235.486267308324,5889
2237.3688259274036,5939
2239.2509474712824,5912
2241.132632218193,5866
2243.013880446447,5831
2244.8946924344323,5868
2246.7750684606203,5908
2248.6550088035574,5808
2250.534513741871,5828
2252.413583554265,5858
2254.292218519526,5781
2256.170418916517,5706
2258.0481850241786,5770
2259.925517121534,6018
2261.8024154876825,5822
2263.678880401803,5816
2265.5549121431536,5925
2267.430510991071,5765
2269.305677224971,5852
2271.180411124348,5640
2273.0547129687766,5777
2274.9285830379076,5774
2276.8020216114737,5817
2278.6750289692845,5788
2280.5476053912294,5865
2282.4197511572766,5834
2284.2914665474727,5823
2286.162751841943,5796
2288.0336073208937,5965
2289.904033264608,5818
2291.774029953448,5946
2293.6435976678554,5807
2295.5127366883517,5875
2297.381447295534,5756
2299.2497297700825,5832
2301.1175843927526,5830
2302.9850114443825,5742
2304.852011205885,5760
2306.7185839582553,5718
2308.5847299825664,5722
2310.4504495599676,5819
2312.3157429716925,5811
2314.1806104990483,5778
2316.0450524234247,5714
2317.9090690262888,5679
2319.772660589186,5858
2321.635827393742,5735
2323.498569721661,5850
2325.3608878547248,5737
2327.2227820747967,5847
2329.0842526638157,5813
2330.945299903803,5822
2332.805924076857,5795
2334.6661254651535,5783
2336.525904350951,5574
2338.3852610165827,5773
2340.244195744464,5811
2342.102708817088,5698
2343.9608005170253,5813
2345.8184711269287,5702
2347.675720929526,5846
2349.532550207628,5796
2351.38895924412,5881
2353.24494832197,5783
2355.100517724223,5843
2356.955667734004,5824
2358.810398634514,5855
2360.664710709037,5853
2362.5186042409337,5830
2364.3720795136437,5780
2366.225136810686,5840
2368.0777764156583,5843
2369.929998612237,5915
2371.7818036841777,5838
2373.633191915315,5977
2375.484163589562,5879
2377.3347189909114,5819
2379.184858403434,5883
2381.03458211128,5818
2382.8838903986775,5891
2384.732783549936,5879
2386.5812618494406,5832
2388.4293255816588,5926
2390.2769750311327,5817
2392.1242104824883,5839
2393.971032220427,5879
2395.8174405297295,5879
2397.6634356952563,5920
2399.509018001947,5920
2401.3541877348193,5780
2403.1989451789705,5882
2405.043290619576,5853
2406.8872243418905,5867
2408.730746631247,5866
2410.5738577730594,5842
2412.4165580528183,5874
2414.258847756095,5969
2416.100727168537,5852
2417.9421965758734,5848
2419.783256263912,5888
2421.623906518538,5867
2423.4641476257157,5999
2425.303979871491,5880
2427.143403541984,6035
2428.9824189233977,6009
2430.821026302012,5920
2432.6592259641866,5960
2434.497018196361,5883
2436.33440328505,5935
2438.171381516851,5763
2440.00795317844,5964
2441.844118556569,5839
2443.6798779380724,6013
2445.5152316098606,5864
2447.3501798589255,6008
2449.1847229723357,6075
2451.0188612372403,5963
2452.8525949408663,6012
2454.6859243705203,6163
2456.518849813587,5933
2458.3513715575314,6012
2460.183489889895,5974
2462.015205098301,6089
2463.8465174704493,5886
2465.67742729412,5861
2467.5079348571717,5915
2469.338040447542,5760
2471.1677443532476,5957
2472.9970468623833,6024
2474.825948263123,6036
2476.6544488437207,5967
2478.482548892508,6033
2480.310248697896,6000
2482.137548548374,6076
2483.9644487325118,5917
2485.790949538956,5994
2487.617051256433,5918
2489.44275417375,6128
2491.26805857979,6077
2493.0929647635157,6127
2494.917473013971,6127
2496.741583620276,6126
2498.5652968716304,6058
2500.3886130573137,6055
2502.2115324666834,6058
2504.0340553891765,6204
2505.856182114308,6082
2507.6779129316733,6034
2509.499248130945,5981
2511.3201880018764,6098
2513.140732834298,6159
2514.9608829181198,6120
2516.780638543331,6165
2518.6,6169
2520.418967578273,6192
2522.237541568376,6195
2524.0557222606144,6090
2525.8735099453706,5989
2527.6909049131086,6081
2529.507907454368,6194
2531.32451785977,6074
2533.140736420014,6232
2534.9565634258774,6126
2536.771999168218,6158
2538.5870439379714,6139
2540.4016980261526,6117
2542.2159617238544,6097
2544.02983532225,6307
2545.8433191125914,6280
2547.656413386209,6129
2549.4691184345115,6142
2551.2814345489874,6262
2553.093362021204,6230
2554.904901142808,6259
2556.716052205523,6280
2558.526815501153,6341
2560.3371913215824,6293
2562.147179958771,6335
2563.956781704761,6230
2565.7659968516705,6363
2567.5748256916986,6335
2569.3832685171224,6165
2571.1913256202984,6362
2572.9989972936614,6337
2574.806283829725,6354
2576.613185521084,6360
2578.4197026604074,6389
2580.2258355404483,6450
2582.031584454035,6258
2583.836949694077,6217
2585.6419315535613,6356
2587.4465303255533,6293
2589.2507463032002,6497
2591.0545797797245,6299
2592.8580310484303,6326
2594.6611004026995,6332
2596.463788135992,6377
2598.266094541849,6260
2600.0680199138874,6355
2601.869564545807,6572
2603.670728731383,6484
2605.4715127644704,6388
2607.2719169390048,6462
2609.071941548998,6363
2610.8715868885433,6371
2612.670853251811,6410
2614.469740933052,6338
2616.268250226594,6383
2618.0663814268455,6371
2619.864134828292,6451
2621.6615107255006,6351
2623.458509413115,6317
2625.2551311858597,6333
2627.0513763385347,6250
2628.8472451660223,6357
2630.6427379632833,6336
2632.4378550253564,6472
2634.232596647359,6394
2636.026963124488,6376
2637.8209547520187,6423
2639.6145718253065,6338
2641.407814639785,6297
2643.200683490966,6141
2644.9931786744414,6313
2646.7853004858807,6332
2648.577049221034,6509
2650.3684251757277,6343
2652.1594286458712,6427
2653.9500599274484,6291
2655.740319316525,6421
2657.5302071092437,6274
2659.3197236018286,6259
2661.10886909058,6340
2662.8976438718782,6371
2664.686048242183,6177
2666.4740824980327,6401
2668.2617469360443,6321
2670.0490418529134,6249
2671.8359675454153,6236
2673.622524310403,6335
2675.408712444811,6335
2677.1945322456495,6144
2678.979984010009,6256
2680.76506803506,6161
2682.5497846180497,6258
2684.334134056306,6223
2686.1181166472343,6216
2687.9017326883213,6266
2689.6849824771293,6136
2691.4678663113013,6355
2693.2503844885596,6277
2695.032537306705,6318
2696.8143250636167,6276
2698.5957480572542,6201
2700.3768065856534,6394
2702.1575009469316,6300
2703.937831439283,6154
2705.717798360982,6241
2707.4974020103837,6312
2709.276642685917,6305
2711.055520686095,6265
2712.834036309506,6242
2714.612189854819,6128
2716.389981620782,6245
2718.1674119062204,6112
2719.944481010041,6184
2721.721189231226,6165
2723.4975368688415,6159
2725.273524222027,6162
2727.0491515900053,6055
2728.824419272075,6236
2730.5993275676146,6103
2732.3738767760838,6312
2734.148067197016,6323
2735.921899130031,6300
2737.6953728748194,6249
2739.468488731156,6222
2741.2412469988926,6229
2743.0136479779617,6252
2744.785691968372,6272
2746.5573792702116,6290
2748.3287101836504,6222
2750.099685008934,6089
2751.870304046388,6248
2753.640567596418,6254
2755.4104759595057,6156
2757.1800294362156,6216
2758.949228327187,6318
2760.7180729331412,6412
2762.486563554877,6256
2764.254700493272,6332
2766.022484049284,6357
2767.789914523947,6222
2769.5569922183786,6121
2771.3237174337705,6211
2773.090090471394,6244
2774.8561116326036,6248
2776.6217812188274,6167
2778.3870995315756,6223
2780.1520668724356,6282
2781.9166835430747,6128
2783.6809498452394,6222
2785.444866080754,6333
2787.2084325515225,6249
2788.971649559527,6255
2790.73451740683,6228
2792.4970363955713,6289
2794.2592068279705,6260
2796.0210290063264,6327
2797.7825032330147,6377
2799.543629810493,6286
2801.304409041296,6142
2803.0648412280366,6300
2804.8249266734088,6275
2806.5846656801846,6408
2808.344058551212,6284
2810.1031055894246,6409
2811.8618070978273,6369
2813.6201633795085,6405
2815.378174737636,6415
2817.1358414754536,6401
2818.893163896285,6460
2820.6501423035334,6294
2822.4067770006814,6285
2824.1630682912883,6339
2825.9190164789957,6476
2827.6746218675207,6344
2829.429884760661,6341
2831.184805462294,6316
2832.9393842763743,6381
2834.693621506936,6400
2836.4475174580916,6423
2838.201072434034,6380
2839.954286739034,6423
2841.707160677441,6464
2843.459694553685,6395
2845.2118886722724,6248
2846.96374333779,6453
2848.7152588549034,6403
2850.4664355283567,6550
2852.217273662973,6486
2853.9677735636546,6470
2855.7179355353833,6408
2857.4677598832186,6445
2859.217246912299,6441
2860.9663969278427,6426
2862.715210235146,6381
2864.4636871395846,6237
2866.211827946614,6455
2867.9596329617652,6449
2869.7071024906536,6628
2871.4542368389684,6427
2873.20103631248,6510
2874.947501217038,6366
2876.6936318585695,6355
2878.4394285430812,6423
2880.1848915766604,6427
2881.9300212654707,6386
2883.6748179157553,6387
2885.4192818338374,6443
2887.1634133261173,6517
2888.907212699077,6318
2890.6506802592744,6370
2892.393816313348,6460
2894.1366211680142,6318
2895.8790951300693,6539
2897.621238506388,6480
2899.363051603925,6500
2901.1045347297118,6589
2902.8456881908596,6514
2904.58651229456,6365
2906.327007348081,6507
2908.067173658772,6299
2909.8070115340597,6391
2911.5465212814497,6358
2913.285703208527,6367
2915.0245576229563,6426
2916.7630848324807,6323
2918.5012851449196,6477
2920.2391588681758,6537
2921.976706310227,6331
2923.7139277791334,6450
2925.4508235830313,6501
2927.187394030137,6586
2928.923639428745,6522
2930.6595600872306,6470
2932.395156314046,6486
2934.1304284177218,6539
2935.8653767068713,6547
2937.6000014901815,6533
2939.3343030764227,6452
2941.068281774442,6654
2942.8019378931644,6629
2944.5352717415976,6578
2946.2682836288236,6769
2948.0009738640065,6544
2949.7333427563885,6616
2951.465390615289,6530
2953.1971177501086,6593
2954.9285244703265,6698
2956.6596110855,6558
2958.3903779052657,6462
2960.1208252393385,6403
2961.8509533975125,6404
2963.5807626896617,6428
2965.3102534257378,6412
2967.0394259157715,6659
2968.768280469873,6445
2970.496817398232,6493
2972.2250370111146,6647
2973.952939618869,6625
2975.6805255319196,6602
2977.4077950607707,6588
2979.134748516006,6651
2980.861386208289,6693
2982.587708448359,6630
2984.313715547037,6679
2986.039407815222,6701
2987.764785563891,6640
2989.489849104102,6689
2991.2145987469908,6678
2992.9390348037705,6634
2994.6631575857346,6608
2996.3869674042576,6648
2998.1104645707887,6587
2999.83364939686,6686
3001.5565221940783,6735
3003.2790832741334,6583
3005.0013329487924,6539
3006.7232715298996,6539
3008.4448993293804,6514
3010.166216659239,6540
3011.887223831558,6467
3013.607921158498,6615
3015.3283089522993,6669
3017.0483875252826,6669
3018.7681571898443,6475
3020.4876182584626,6565
3022.2067710436927,6514
3023.9256158581707,6675
3025.644153014609,6677
3027.362382825801,6699
3029.0803056046193,6612
3030.797921664012,6612
3032.5152313170106,6639
3034.2322348767225,6461
3035.9489326563353,6597
3037.665324969115,6696
3039.3814121284063,6710
3041.097194447633,6540
3042.812672240299,6668
3044.5278458199855,6726
3046.2427155003525,6710
3047.9572815951406,6608
3049.671544418167,6577
3051.38550428333,6629
3053.0991615046073,6661
3054.812516396051,6559
3056.5255692717974,6604
3058.2383204460575,6578
3059.9507702331257,6631
3061.662918947372,6584
3063.3747669032446,6580
3065.0863144152736,6689
3066.7975617980674,6746
3068.508509366309,6657
3070.219157434767,6798
3071.9295063182844,6750
3073.639556331785,6651
3075.3493077902704,6731
3077.058761008821,6745
3078.7679163025964,6707
3080.476773986837,6652
3082.1853343768594,6700
3083.89359778806,6589
3085.6015645359153,6667
3087.3092349359786,6760
3089.016609303884,6577
3090.7236879553434,6779
3092.4304712061476,6700
3094.136959372166,6726
3095.843152769349,6809
3097.5490517137237,6712
3099.2546565213966,6760
3100.959967508554,6700
3102.66498499146,6661
3104.3697092864577,6663
3106.0741407099695,6660
3107.778279578498,6843
3109.482126208622,6639
3111.1856809170004,6707
3112.8889440203716,6687
3114.5919158355528,6829
3116.294596679439,6803
3117.996986869006,6860
3119.6990867213062,6699
3121.4008965534726,6735
3123.102416682717,6840
3124.803647426329,6785
3126.5045891016784,6713
3128.205242026213,6703
3129.90560651746,6805
3131.605682893025,6950
3133.3054714705922,6882
3135.0049725679282,6837
3136.7041865028714,6890
3138.4031135933465,6779
3140.101754157353,6795
3141.800108512971,6849
3143.498176978357,6796
3145.1959598717494,6715
3146.8934575114636,6555
3148.5906702158954,6765
3150.2875983035183,6761
3151.9842420928853,6714
3153.680601902627,6560
3155.376678051456,6752
3157.07247085816,6628
3158.767980641609,6762
3160.463207720748,6733
3162.158152414606,6710
3163.8528150422862,6685
3165.5471959229726,6647
3167.2412953759303,6703
3168.9351137204976,6852
3170.628651276098,6719
3172.3219083622307,6874
3174.014885298474,6810
3175.707582404485,6846
3177.4000000000005,6772
3179.092138404835,6859
3180.7839979388846,6828
3182.47557892212,6904
3184.166881674594,6816
3185.8579065164386,6940
3187.5486537678626,6881
3189.2391237491547,6751
3190.9293167806827,6790
3192.6192331828934,6763
3194.3088732763117,6768
3195.998237381542,6803
3197.687325819268,6671
3199.376138910251,6782
3201.064676975334,6851
3202.7529403354347,6787
3204.4409293115523,6791
3206.1286442247647,6909
3207.816085396229,6867
3209.5032531471825,6745
3211.190147798936,6662
3212.8767696728846,6749
3214.5631190905015,6626
3216.2491963733373,6673
3217.9350018430214,6768
3219.6205358212637,6669
3221.305798629851,6831
3222.990790590651,6692
3224.6755120256103,6654
3226.359963256751,6697
3228.0441446061795,6831
3229.7280563960758,6790
3231.411698948703,6753
3233.0950725863995,6865
3234.778177631587,6809
3236.461014406761,6746
3238.1435832345005,6926
3239.8258844374595,6970
3241.507918338374,6960
3243.1896852600576,6899
3244.8711855254023,6861
3246.552419457381,6860
3248.233387379042,6889
3249.914089613516,6930
3251.59452648401,6979
3253.274698313813,6885
3254.95460542629,6791
3256.6342481448855,6833
3258.313626793125,6742
3259.9927416946084,6611
3261.6715931730196,6856
3263.3501815521176,6838
3265.0285071557437,6800
3266.706570307815,6845
3268.3843713323286,6794
3270.0619105533615,6849
3271.739188295068,6808
3273.4162048816834,6826
3275.0929606375184,6881
3276.769455886966,7010
3278.445690954498,6991
3280.1216661646613,6929
3281.797381842087,6914
3283.4728383114807,6964
3285.1480358976296,6967
3286.8229749253996,6732
3288.4976557197333,6793
3290.172078605655,6968
3291.846243908266,6780
3293.5201519527463,6741
3295.193803064357,6851
3296.8671975684374,6875
3298.5403357904024,6816
3300.21321805575,6842
3301.8858446900567,6877
3303.558216018975,6880
3305.23033236824,6871
3306.9021940636603,6835
3308.57380143113,6984
3310.2451547966184,6910
3311.916254486174,6902
3313.5871008259246,6885
3315.2576941420766,6937
3316.9280347609147,6976
3318.5981230088046,6892
3320.2679592121895,6810
3321.9375436975924,6834
3323.606876791612,6837
3325.27595882093,6792
3326.944790112305,6889
3328.6133709925753,6839
3330.2817017886573,6771
3331.949782827547,6728
3333.617614436319,6862
3335.2851969421245,6954
3336.952530672199,6976
3338.619615953853,7030
3340.286453114475,6978
3341.9530424815357,7066
3343.619384382583,6966
3345.2854791452437,7050
3346.951327097224,6964
3348.6169285663073,7101
3350.2822838803577,7055
3351.947393367319,7037
3353.61225735521,7125
3355.2768761721345,7133
3356.9412501462693,7017
3358.605379605873,6931
3360.2692648792827,7012
3361.9329062949146,6995
3363.596304181263,6846
