CollectionTime,7/11/2024 12:14:16 PM
ExposureUsed,3
CalibratedSpectrum
-962.7078968117929,1101
-959.9714848408522,1203
-957.2358232597828,1232
-954.5009119013725,1186
-951.7667505983302,1257
-949.0333391832855,1276
-946.3006774887896,1327
-943.5687653473143,1289
-940.837602591253,1268
-938.1071890529199,1264
-935.3775245645503,1229
-932.6486089583007,1268
-929.9204420662485,1328
-927.1930237203925,1212
-924.4663537526524,1212
-921.7404319948689,1249
-919.0152582788041,1319
-916.2908324361409,1354
-913.5671542984834,1249
-910.8442236973568,1240
-908.1220404642074,1211
-905.4006044304027,1325
-902.679915427231,1234
-899.959973285902,1215
-897.2407778375464,1294
-894.5223289132158,1225
-891.8046263438832,1290
-889.0876699604426,1252
-886.3714595937089,1270
-883.6559950744183,1264
-880.9412762332282,1239
-878.2273029007168,1240
-875.5140749073835,1238
-872.8015920836489,1224
-870.0898542598545,1243
-867.3788612662631,1235
-864.6686129330585,1269
-861.9591090903457,1249
-859.2503495681506,1346
-856.5423341964203,1274
-853.8350628050229,1299
-851.1285352237478,1280
-848.4227512823054,1233
-845.7177108103272,1320
-843.0134136373656,1257
-840.3098595928943,1343
-837.6070485063082,1351
-834.9049802069229,1363
-832.2036545239757,1275
-829.5030712866244,1336
-826.8032303239481,1269
-824.1041314649472,1312
-821.4057745385428,1228
-818.7081593735775,1283
-816.0112857988148,1347
-813.3151536429393,1334
-810.6197627345566,1298
-807.9251129021936,1290
-805.2312039742981,1328
-802.5380357792392,1352
-799.8456081453069,1286
-797.1539209007124,1314
-794.462973873588,1303
-791.772766891987,1318
-789.083299783884,1329
-786.3945723771743,1311
-783.7065844996748,1316
-781.0193359791231,1357
-778.3328266431781,1342
-775.6470563194197,1343
-772.9620248353489,1330
-770.2777320183878,1329
-767.5941776958798,1332
-764.9113616950891,1368
-762.2292838432011,1319
-759.5479439673222,1286
-756.8673418944801,1318
-754.1874774516235,1324
-751.5083504656222,1320
-748.8299607632671,1392
-746.15230817127,1388
-743.475392516264,1451
-740.7992136248035,1416
-738.1237713233636,1406
-735.4490654383407,1415
-732.7750957960521,1373
-730.1018622227365,1437
-727.4293645445534,1375
-724.7576025875837,1451
-722.0865761778291,1396
-719.4162851412126,1450
-716.7467293035781,1419
-714.0779084906909,1406
-711.409822528237,1392
-708.7424712418238,1424
-706.0758544569796,1406
-703.4099719991541,1470
-700.7448236937178,1545
-698.0804093659622,1401
-695.4167288411002,1415
-692.7537819442656,1469
-690.0915685005134,1424
-687.4300883348199,1463
-684.7693412720819,1418
-682.1093271371178,1464
-679.4500457546669,1470
-676.7914969493897,1456
-674.1336805458676,1455
-671.4765963686034,1478
-668.8202442420206,1494
-666.1646239904642,1521
-663.5097354382001,1505
-660.8555784094151,1519
-658.2021527282176,1490
-655.5494582186366,1515
-652.8974947046223,1488
-650.2462620100463,1434
-647.5957599587009,1541
-644.9459883742998,1551
-642.2969470804776,1604
-639.6486359007902,1551
-637.0010546587141,1498
-634.3542031776476,1614
-631.7080812809096,1538
-629.0626887917401,1476
-626.4180255333008,1558
-623.7740913286734,1631
-621.1308860008619,1565
-618.4884093727904,1531
-615.8466612673046,1559
-613.2056415071715,1589
-610.5653499150785,1565
-607.9257863136347,1547
-605.28695052537,1637
-602.6488423727357,1563
-600.0114616781036,1588
-597.3748082637674,1644
-594.7388819519412,1572
-592.1036825647604,1703
-589.4692099242818,1747
-586.8354638524829,1712
-584.2024441712624,1557
-581.5701507024403,1617
-578.9385832677575,1610
-576.3077416888759,1678
-573.6776257873787,1683
-571.0482353847704,1610
-568.4195703024757,1590
-565.7916303618415,1738
-563.164415384135,1648
-560.5379251905453,1675
-557.9121596021815,1676
-555.2871184400748,1605
-552.6628015251767,1616
-550.0392086783606,1642
-547.4163397204204,1745
-544.794194472071,1694
-542.1727727539491,1697
-539.5520743866118,1802
-536.9320991905377,1738
-534.3128469861261,1682
-531.6943175936979,1761
-529.0765108334947,1806
-526.4594265256793,1865
-523.8430644903358,1975
-521.2274245474689,2033
-518.612506517005,2113
-515.9983102187913,1963
-513.3848354725959,2039
-510.77208209810846,2116
-508.16004991493924,2195
-505.5487387426199,2266
-502.9381484006032,2365
-500.3282787082628,2345
-497.71912948489364,2335
-495.1107005497117,2305
-492.5029917218539,2199
-489.8960028203786,2090
-487.28973366426493,2054
-484.68418407241325,1946
-482.07935386364494,1956
-479.47524285670266,1905
-476.87185087025,1916
-474.2691777228715,1876
-471.66722323307334,1872
-469.0659872192821,1864
-466.4654694998459,1903
-463.86566989303384,1941
-461.26658821703614,1911
-458.66822428996414,1970
-456.07057792985,1904
-453.4736489546475,1923
-450.877437182231,1910
-448.28194243039627,1873
-445.68716451686,1870
-443.09310325926003,1815
-440.49975847515555,1773
-437.9071299820263,1806
-435.31521759727354,1824
-432.72402113821954,1943
-430.13354042210767,1916
-427.5437752661022,1876
-424.95472548728867,1914
-422.36639090267386,1887
-419.7787713291855,1972
-417.1918665836721,2073
-414.60567648290385,1970
-412.0202008435715,1935
-409.4354394822874,2013
-406.8513922155845,2118
-404.26805885991723,1988
-401.685439231661,2033
-399.103533147112,2061
-396.522340422488,1989
-393.9418608739278,1937
-391.3620943174908,1913
-388.7830405691583,1878
-386.2046994448317,1785
-383.6270707603344,1710
-381.05015433141045,1538
-378.473949973725,1440
-375.8984575028645,1351
-373.32367673433623,1246
-370.74960748356875,1155
-368.1762495659117,1116
-365.60360279663576,934
-363.03166699093265,788
-360.4604419639154,706
-357.8899275306178,661
-355.32012350599507,634
-352.7510297049233,603
-350.1826459421999,578
-347.61497203254316,592
-345.04800779059235,603
-342.4817530309082,525
-339.91620756797226,555
-337.35137121618743,684
-334.7872437898774,764
-332.22382510328725,707
-329.66111497058273,563
-327.09911320585127,573
-324.53781962310075,568
-321.9772340362607,543
-319.4173562591816,592
-316.8581861056348,550
-314.2997233893127,544
-311.7419679238294,570
-309.1849195227194,549
-306.62857799943856,592
-304.0729431673641,714
-301.51801483979375,759
-298.963792829947,671
-296.41027695096386,649
-293.85746701590574,703
-291.3053628377552,671
-288.7539642294155,643
-286.2032710037115,631
-283.65328297338897,728
-281.1039999511146,748
-278.5554217494762,718
-276.007548180983,683
-273.4603790580651,633
-270.9139141930734,653
-268.3681533982807,578
-265.8230964858798,541
-263.27874326798565,639
-260.7350935566336,768
-258.1921471637804,757
-255.6499039013039,722
-253.10836358100266,746
-250.56752601459698,816
-248.02739101372765,819
-245.48795838995704,817
-242.94922795476816,853
-240.41119951956557,787
-237.8738728956746,857
-235.33724789434166,789
-232.80132432673452,712
-230.2661020039418,711
-227.73158073697357,744
-225.19776033676033,829
-222.66464061415422,863
-220.1322213799284,759
-217.60050244477725,761
-215.06948361931552,746
-212.53916471408013,831
-210.00954553952818,830
-207.48062590603843,1026
-204.9524056239104,1023
-202.4248845033651,960
-199.8980623545441,907
-197.37193898751036,872
-194.84651421224817,922
-192.32178783866232,994
-189.79775967657952,900
-187.27442953574644,965
-184.7517972258321,1029
-182.2298625564256,1061
-179.7086253370378,1162
-177.18808537710026,1003
-174.66824248596583,777
-172.14909647290835,831
-169.6306471471229,941
-167.11289431772548,952
-164.59583779375328,925
-162.07947738416453,882
-159.5638128978386,1127
-157.04884414357605,1320
-154.53457093009854,1504
-152.02099306604828,1288
-149.50811035998936,1017
-146.99592262040665,1073
-144.48442965570587,1206
-141.97363127421409,1264
-139.46352728417958,1287
-136.95411749377126,1343
-134.44540171107985,1227
-131.93737974411636,1074
-129.43005140081357,1305
-126.92341648902493,1696
-124.41747481652521,1877
-121.91222619101006,2010
-119.40767042009657,2027
-116.90380731132257,1959
-114.40063667214702,1903
-111.8981583099503,1700
-109.3963720320337,2063
-106.89527764561933,3508
-104.39487495785067,7034
-101.89516377579241,9249
-99.39614390642998,10863
-96.89781515667039,12627
-94.40017733334128,17318
-91.90323024319173,26505
-89.40697369289148,32454
-86.91140748903172,26923
-84.41653143812482,18593
-81.92234534660395,9595
-79.42884902082358,8178
-76.93604226705907,18103
-74.4439248915071,32261
-71.95249670028534,43020
-69.46175749943245,43663
-66.97170709490854,40841
-64.48234529259423,35051
-61.99367189829195,28321
-59.50568671772464,20210
-57.01838955653636,17203
-54.53178022029283,16947
-52.045858514480074,19373
-49.560624244506016,19611
-47.07607721569923,19993
-44.59221723330904,17654
-42.10904410250669,15197
-39.62655762838392,13345
-37.14475761595372,12275
-34.66364387015028,11729
-32.18321619582866,10015
-29.70347439776515,8426
-27.224418280657005,8287
-24.74604764912317,10417
-22.26836230770266,17432
-19.7913620608565,37103
-17.315046712966478,64342
-14.83941606833514,65038
-12.36446993118659,65038
-9.89020810566592,65038
-7.416630395839093,65038
-4.94373660569363,65038
-2.471526539137585,65038
-6.821210263296962E-13,65038
2.47084320796705,65038
4.941003281093458,65038
7.410480415786196,65038
9.879274808531363,65038
12.347386655893956,65038
14.814816154518212,65038
17.28156350112681,65038
19.74762889252179,65038
22.21301252558385,65038
24.67771459727237,22695
27.141735304626195,5533
29.605074844762612,4403
32.06773341487792,5236
34.52971121224755,4682
36.99100843422559,3674
39.45162527824516,2913
41.91156194181792,2229
44.370818622535126,2203
46.82939551806646,2107
49.287292826160524,2709
51.74451074464503,4167
54.201049471426245,4581
56.65690920448981,3169
59.112090141899785,2216
61.56659248179983,2139
64.02041642241159,2058
66.4735621620365,2092
68.92602989905402,1959
71.37781983192338,2686
73.82893215918205,2725
76.27936707944684,2300
78.72912479141326,1660
81.17820549385567,1966
83.62660938562783,2479
86.07433666566146,2347
88.5213875329681,1760
90.96776218663751,1436
93.41346082583925,1456
95.85848364982041,1741
98.30283085790859,1946
100.7465026495089,1812
103.18949922410604,1895
105.63182078126385,1907
108.07346752062438,1595
110.51443964190923,1490
112.95473734491827,1508
115.39436082953114,1883
117.83331029570547,1637
120.27158594347827,1446
122.7091879729652,1465
125.1461165843615,1583
127.58237197794062,1412
130.01795435405518,1287
132.4528639131364,1172
134.88710085569494,1221
137.32066538231982,1109
139.75355769367923,1267
142.1857779905207,1475
144.61732647366978,1324
147.04820334403132,1091
149.47840880258934,1095
151.90794305040674,1363
154.33680628862487,1555
156.76499871846443,1774
159.19252054122433,1905
161.61937195828352,1885
164.04555317109896,2127
166.47106438120693,2505
168.89590579022217,2688
171.320077599839,2800
173.7435800118302,2943
176.16641322804742,3204
178.58857745042144,3434
181.01007288096173,3568
183.43089972175687,3359
185.85105817497413,3388
188.27054844285988,3472
190.6893707277394,3716
193.10752523201643,3852
195.5250121581745,3745
197.9418317087751,3854
200.3579840864594,3905
202.7734694939469,4094
205.18828813403627,3972
207.6024402096051,4323
210.01592592360964,4158
212.42874547908548,3977
214.84089907914665,3912
217.2523869269868,4032
219.66320922587727,4031
222.0733661791695,4076
224.48285799029293,3968
226.8916848627572,4026
229.29984700014882,4134
231.7073446061355,4118
234.11417788446204,4148
236.520347038953,4214
238.92585227351185,4304
241.33069379212054,4406
243.73487179884035,4454
246.1383864978112,4474
248.541238093252,4417
250.9434267894609,4350
253.34495279081432,4493
255.74581630176783,4431
258.1460175268563,4249
260.54555667069314,4231
262.9444339379703,4325
265.3426495334594,4328
267.7402036620107,4415
270.1370965285529,4342
272.53332833809407,4312
274.9288992957214,4085
277.32380960660055,4026
279.718059475976,3997
282.1116491091717,4094
284.5045787115897,4025
286.89684848871195,3972
289.2884586460981,3966
291.67940938938807,4006
294.0697009242996,4073
296.4593334566299,4114
298.84830719225477,4078
301.23662233712923,3940
303.6242790972866,3955
306.01127767884,3842
308.39761828798066,3898
310.78330113097934,3979
313.16832641418534,3845
315.5526943440269,3833
317.9364051270112,3809
320.3194589697242,3886
322.70185607883093,4004
325.0835966610754,3830
327.4646809232805,3731
329.8451090723478,3773
332.2248813152577,3681
334.6039978590701,3672
336.9824589109231,3754
339.36026467803447,3732
341.7374153677,3660
344.113911187295,3564
346.48975234427337,3755
348.8649390461686,3632
351.2394715005918,3741
353.61334991523415,3713
355.9865744978655,3635
358.35914545633375,3727
360.73106299856715,3701
363.10232733257146,3657
365.47293866643247,3566
367.84289720831396,3604
370.2122031664593,3597
372.5808567491905,3580
374.9488581649083,3558
377.31620762209275,3536
379.6829053293021,3415
382.0489514951745,3532
384.4143463284262,3568
386.7790900378528,3474
389.14318283232853,3518
391.50662492080653,3616
393.86941651231916,3652
396.23155781597745,3605
398.5930490409713,3548
400.9538903965696,3735
403.3140820921202,3729
405.6736243370498,3550
408.03251734086336,3552
410.3907613131465,3483
412.74835646356166,3436
415.10530300185144,3503
417.4616011378372,3485
419.81725108141893,3466
422.1722530425758,3438
424.5266072313656,3505
426.880313857925,3551
429.2333731324701,3441
431.58578526529516,3549
433.9375504667738,3417
436.2886689473588,3533
438.63914091758113,3437
440.9889665880513,3437
443.33814616945835,3429
445.68667987257015,3332
448.03456790823395,3387
450.3818104873759,3408
452.72840782100013,3321
455.07436012019105,3363
457.41966759611057,3309
459.7643304600007,3389
462.10834892318155,3395
464.4517231970525,3427
466.79445349309174,3440
469.1365400228566,3504
471.4779829979826,3535
473.81878263018564,3437
476.15893913125876,3511
478.4984527130747,3534
480.8373235875855,3575
483.17555196682144,3502
485.5131380628919,3572
487.8500820879857,3675
490.1863842543697,3817
492.52204477439034,4054
494.8570638604725,4049
497.1914417251204,4315
499.52517858091653,4453
501.85827464052306,4664
504.19073011668036,4756
506.5225452222086,4538
508.85372017000566,4558
511.18425517304956,4586
513.514150444396,4814
515.8434061971808,5378
518.1720226446176,6112
520.4999999999999,6306
522.8273384766991,6017
525.1540382881666,5608
527.480099647932,5162
529.8055227696037,4601
532.1303078668694,4060
534.454455153496,3750
536.777964843328,3693
539.1008371502907,3608
541.4230722883866,3464
543.744670471698,3513
546.0656319143858,3512
548.3859568306899,3716
550.7056454349294,3516
553.0246979415016,3536
555.3431145648834,3568
557.6608955196306,3535
559.978041020377,3593
562.2945512818363,3599
564.6104265188006,3587
566.9256669461412,3594
569.2402727788082,3510
571.5542442318302,3532
573.8675815203156,3557
576.1802848594508,3622
578.4923544645015,3601
580.8037905508126,3687
583.114593333807,3573
585.4247630289875,3551
587.7342998519354,3459
590.0432040183106,3495
592.3514757438526,3599
594.6591152443794,3588
596.9661227357875,3572
599.2724984340531,3510
601.578242555231,3499
603.8833553154542,3445
606.1878369309362,3567
608.4916876179676,3499
610.7949075929192,3535
613.0974970722403,3570
615.3994562724587,3540
617.7007854101818,3537
620.0014847020951,3567
622.3015543649641,3479
624.6009946156324,3576
626.8998056710224,3568
629.1979877481361,3558
631.4955410640538,3620
633.7924658359349,3528
636.0887622810175,3447
638.3844306166192,3599
640.6794710601358,3686
642.9738838290426,3714
645.2676691408932,3670
647.5608272133207,3630
649.853358264037,3651
652.1452625108324,3709
654.4365401715764,3633
656.7271914642178,3657
659.0172166067838,3583
661.3066158173809,3658
663.5953893141935,3672
665.8835373154867,3640
668.1710600396028,3691
670.4579577049639,3602
672.7442305300709,3589
675.0298787335033,3651
677.3149025339197,3624
679.599302150058,3666
681.8830778007342,3637
684.1662297048437,3619
686.4487580813608,3746
688.7306631493387,3619
691.0119451279091,3632
693.2926042362834,3579
695.5726406937516,3602
697.8520547196814,3618
700.1308465335215,3698
702.4090163547982,3779
704.6865644031171,3649
706.9634908981619,3618
709.2397960596965,3689
711.5154801075631,3685
713.7905432616823,3597
716.0649857420548,3585
718.3388077687592,3648
720.612009561953,3638
722.8845913418733,3642
725.1565533288352,3714
727.427895743234,3587
729.6986188055427,3600
731.9687227363137,3517
734.238207756178,3622
736.5070740858458,3664
738.7753219461066,3590
741.0429515578281,3804
743.3099631419569,3698
745.5763569195191,3618
747.8421331116193,3732
750.1072919394409,3597
752.3718336242467,3675
754.6357583873777,3831
756.8990664502545,3667
759.1617580343765,3613
761.423833361321,3566
763.6852926527457,3614
765.9461361303862,3597
768.206364016058,3731
770.4659765316536,3688
772.7249738991469,3647
774.9833563405886,3741
777.2411240781092,3733
779.4982773339183,3629
781.7548163303044,3687
784.010741289634,3729
786.2660524343538,3788
788.5207499869881,3733
790.7748341701416,3695
793.0283052064964,3743
795.2811633188143,3732
797.5334087299362,3769
799.7850416627813,3696
802.0360623403484,3843
804.2864709857143,3744
806.5362678220353,3754
808.7854530725468,3744
811.0340269605625,3729
813.2819897094754,3662
815.5293415427581,3606
817.77608268396,3806
820.0222133567116,3796
822.2677337847211,3755
824.5126441917765,3674
826.7569448017433,3821
829.0006358385675,3745
831.2437175262731,3730
833.4861900889629,3657
835.7280537508192,3689
837.9693087361026,3825
840.2099552691533,3773
842.4499935743896,3811
844.689423876309,3733
846.9282463994886,3585
849.1664613685833,3766
851.4040690083276,3651
853.6410695435349,3677
855.877463199097,3834
858.1132501999847,3837
860.3484307712487,3804
862.5830051380175,3903
864.8169735254988,3793
867.0503361589791,3741
869.2830932638243,3829
871.5152450654786,3802
873.7467917894654,3810
875.9777336613873,3769
878.2080709069252,3713
880.4378037518389,3840
882.666932421968,3797
884.8954571432301,3760
887.1233781416219,3838
889.3506956432192,4001
891.5774098741766,3773
893.803521060728,3860
896.0290294291852,3817
898.2539352059397,3718
900.4782386174619,3879
902.7019398903011,3768
904.925039251085,3816
907.147536926521,3741
909.3694331433943,3870
911.59072812857,3844
913.8114221089921,3690
916.0315153116827,3704
918.2510079637437,3728
920.4699002923547,3727
922.6881925247761,3817
924.905884888345,3762
927.1229776104793,3689
929.3394709186747,3705
931.555365040506,3799
933.7706602036275,3612
935.9853566357709,3697
938.1994545647489,3768
940.4129542184515,3653
942.6258558248488,3898
944.8381596119883,3720
947.0498658079974,3622
949.2609746410825,3769
951.4714863395287,3682
953.6814011316998,3734
955.8907192460387,3777
958.0994409110671,3707
960.3075663553858,3772
962.5150958076741,3660
964.7220294966913,3729
966.928367651274,3706
969.1341105003388,3712
971.3392582728806,3779
973.5438111979742,3755
975.747769504772,3660
977.9511334225061,3714
980.153903180487,3694
982.3560790081052,3721
984.5576611348289,3643
986.7586497902058,3593
988.9590452038618,3748
991.158847605503,3624
993.3580572249133,3582
995.5566742919558,3560
997.7546990365728,3656
999.952131688785,3569
1002.1489724786926,3546
1004.3452216364743,3547
1006.5408793923874,3522
1008.7359459767691,3492
1010.9304216200343,3564
1013.1243065526781,3491
1015.3176010052733,3430
1017.510305208472,3394
1019.7024193930064,3499
1021.8939437896848,3493
1024.0848786293977,3546
1026.2752241431122,3491
1028.4649805618747,3613
1030.6541481168115,3510
1032.842727039127,3421
1035.0307175601051,3444
1037.2181199111074,3485
1039.4049343235752,3361
1041.591161029029,3493
1043.7768002590683,3485
1045.9618522453698,3424
1048.1463172196918,3471
1050.3301954138697,3550
1052.513487059818,3519
1054.69619238953,3437
1056.8783116350783,3450
1059.0598450286152,3468
1061.2407928023704,3429
1063.4211551886528,3545
1065.6009324198508,3422
1067.780124728432,3390
1069.9587323469414,3384
1072.1367555080046,3373
1074.314194444325,3453
1076.4910493886855,3374
1078.667320573947,3308
1080.843008233051,3369
1083.0181125990161,3350
1085.1926339049414,3474
1087.3665723840027,3289
1089.5399282694575,3356
1091.7127017946405,3310
1093.8848931929647,3334
1096.0565026979243,3289
1098.2275305430899,3354
1100.3979769621128,3354
1102.567842188722,3384
1104.737126456726,3423
1106.9058300000124,3405
1109.0739530525475,3307
1111.2414958483764,3301
1113.4084586216231,3301
1115.5748416064907,3370
1117.7406450372605,3417
1119.9058691482942,3333
1122.0705141740304,3247
1124.2345803489884,3313
1126.3980679077658,3386
1128.5609770850388,3277
1130.7233081155623,3335
1132.8850612341707,3385
1135.0462366757774,3374
1137.2068346753745,3382
1139.3668554680326,3303
1141.526299288901,3408
1143.68516637321,3303
1145.8434569562655,3407
1148.001171273455,3405
1150.158309560244,3431
1152.3148720521767,3432
1154.470858984876,3360
1156.626270594044,3363
1158.7811071154629,3411
1160.9353687849912,3354
1163.089055838569,3261
1165.242168512213,3307
1167.3947070420209,3313
1169.5466716641677,3330
1171.6980626149075,3342
1173.8488801305748,3238
1175.9991244475814,3302
1178.1487958024186,3384
1180.2978944316555,3328
1182.4464205719428,3287
1184.5943744600072,3268
1186.7417563326567,3338
1188.8885664267755,3333
1191.0348049793297,3268
1193.1804722273619,3383
1195.325568407995,3249
1197.4700937584303,3267
1199.614048515948,3288
1201.7574329179074,3329
1203.900247201746,3416
1206.042491604982,3408
1208.1841663652099,3331
1210.3252717201053,3346
1212.465807907422,3416
1214.6057751649923,3441
1216.7451737307279,3375
1218.8840038426192,3442
1221.0222657387353,3498
1223.1599596572241,3389
1225.2970858363137,3432
1227.4336445143094,3311
1229.5696359295966,3456
1231.705060320639,3450
1233.8399179259786,3320
1235.9742089842384,3437
1238.107933734118,3365
1240.2410924143974,3344
1242.373685263935,3538
1244.5057125216676,3497
1246.6371744266116,3413
1248.7680712178621,3431
1250.898403134593,3476
1253.028170416058,3425
1255.1573733015875,3409
1257.2860120305932,3513
1259.4140868425648,3443
1261.54159797707,3419
1263.6685456737569,3454
1265.7949301723515,3430
1267.9207517126597,3398
1270.046010534565,3380
1272.1707068780306,3353
1274.2948409830983,3344
1276.4184130898889,3427
1278.541423438603,3420
1280.6638722695184,3490
1282.785759822993,3465
1284.9070863394636,3406
1287.0278520594447,3452
1289.1480572235314,3373
1291.2677020723963,3459
1293.3867868467923,3552
1295.5053117875495,3396
1297.623277135579,3533
1299.740683131868,3569
1301.8575300174857,3511
1303.973818033578,3565
1306.0895474213703,3589
1308.2047184221678,3654
1310.3193312773528,3567
1312.4333862283888,3576
1314.5468835168163,3720
1316.659823384255,3594
1318.7722060724045,3568
1320.8840318230418,3589
1322.9953008780249,3530
1325.1060134792888,3624
1327.2161698688478,3556
1329.3257702887959,3577
1331.4348149813054,3548
1333.5433041886276,3554
1335.6512381530933,3592
1337.7586171171101,3563
1339.8654413231675,3572
1341.9717110138317,3558
1344.0774264317488,3579
1346.1825878196432,3615
1348.2871954203192,3584
1350.3912494766587,3566
1352.4947502316231,3637
1354.5976979282532,3500
1356.7000928096686,3561
1358.8019351190665,3677
1360.9032250997243,3527
1363.0039629949988,3504
1365.1041490483235,3448
1367.2037835032133,3606
1369.3028666032606,3509
1371.401398592137,3416
1373.4993797135926,3565
1375.5968102114575,3567
1377.6936903296396,3620
1379.7900203121262,3580
1381.8858004029835,3615
1383.9810308463561,3574
1386.075711886469,3537
1388.1698437676241,3559
1390.2634267342032,3541
1392.356461030667,3556
1394.4489469015557,3662
1396.5408845914872,3641
1398.6322743451592,3655
1400.7231164073469,3610
1402.813411022907,3634
1404.903158436773,3652
1406.9923588939578,3593
1409.0810126395531,3611
1411.1691199187303,3634
1413.2566809767386,3672
1415.343696058907,3648
1417.4301654106425,3639
1419.5160892774315,3757
1421.6014679048399,3705
1423.6863015385125,3686
1425.7705904241707,3654
1427.8543348076178,3704
1429.9375349347342,3835
1432.0201910514802,3764
1434.102303403894,3789
1436.1838722380944,3745
1438.2648978002767,3741
1440.3453803367174,3865
1442.4253200937692,3850
1444.5047173178677,3870
1446.5835722555234,3830
1448.6618851533285,4008
1450.739656257952,3980
1452.8168858161434,3948
1454.8935740747306,3898
1456.96972128062,3956
1459.045327680797,3957
1461.120393522327,3975
1463.1949190523528,3992
1465.2689045180973,4099
1467.3423501668608,4020
1469.415256246024,4125
1471.4876230030463,4165
1473.559450685465,4081
1475.6307395408976,4213
1477.7014898170391,4264
1479.771701761665,4260
1481.8413756226287,4238
1483.9105116478618,4307
1485.9791100853772,4269
1488.0471711832643,4336
1490.1146951896926,4366
1492.1816823529098,4419
1494.2481329212433,4442
1496.3140471430984,4539
1498.3794252669609,4419
1500.4442675413939,4400
1502.5085742150404,4441
1504.572345536622,4465
1506.6355817549388,4506
1508.6982831188702,4538
1510.7604498773744,4533
1512.8220822794883,4650
1514.8831805743293,4478
1516.9437450110909,4608
1519.003775839048,4762
1521.0632733075522,4669
1523.1222376660367,4654
1525.1806691640113,4671
1527.2385680510652,4615
1529.2959345768668,4735
1531.3527689911643,4737
1533.4090715437833,4906
1535.4648424846291,4962
1537.5200820636855,4880
1539.5747905310159,4869
1541.6289681367616,4784
1543.6826151311434,4947
1545.7357317644614,4995
1547.7883182870937,5026
1549.8403749494987,5200
1551.8919020022113,5002
1553.9428996958477,5151
1555.9933682811015,5256
1558.0433080087469,5134
1560.0927191296346,5208
1562.1416018946961,5251
1564.1899565549415,5259
1566.2377833614592,5345
1568.2850825654164,5170
1570.3318544180606,5182
1572.3780991707158,5101
1574.423817074788,4936
1576.4690083817595,4857
1578.5136733431923,4771
1580.5578122107272,4676
1582.601425236085,4529
1584.6445126710646,4601
1586.6870747675434,4423
1588.7291117774776,4371
1590.7706239529034,4276
1592.8116115459347,4201
1594.8520748087658,4184
1596.8920139936686,4093
1598.9314293529933,4115
1600.9703211391711,3915
1603.008689604711,3898
1605.0465350022005,3987
1607.0838575843068,3830
1609.1206576037753,3808
1611.1569353134305,3781
1613.1926909661765,3832
1615.2279248149953,3760
1617.2626371129481,3754
1619.2968281131757,3836
1621.3304980688963,3750
1623.3636472334088,3771
1625.39627586009,3689
1627.428384202396,3702
1629.459972513861,3673
1631.4910410480993,3771
1633.5215900588028,3701
1635.551619799744,3771
1637.5811305247717,3689
1639.6101224878166,3593
1641.6385959428862,3611
1643.6665511440683,3579
1645.693988345528,3671
1647.7209078015112,3588
1649.7473097663405,3671
1651.7731944944203,3657
1653.7985622402307,3674
1655.823413258333,3601
1657.847747803366,3604
1659.8715661300494,3599
1661.8948684931793,3599
1663.9176551476316,3625
1665.9399263483624,3568
1667.9616823504057,3633
1669.982923408873,3663
1672.0036497789574,3681
1674.0238617159293,3661
1676.043559475138,3626
1678.0627433120121,3592
1680.081413482059,3573
1682.0995702408654,3489
1684.117213844096,3576
1686.134344547495,3620
1688.1509626068864,3577
1690.1670682781705,3527
1692.182661817329,3542
1694.1977434804217,3613
1696.2123135235875,3632
1698.226372203043,3672
1700.2399197750851,3601
1702.2529564960905,3538
1704.2654826225112,3547
1706.277498410882,3534
1708.2890041178139,3598
1710.2999999999988,3537
1712.3104863142066,3597
1714.3204633172854,3559
1716.329931266163,3586
1718.3388904178469,3633
1720.3473410294214,3523
1722.3552833580516,3508
1724.3627176609807,3553
1726.3696441955308,3535
1728.3760632191033,3553
1730.3819749891782,3618
1732.3873797633146,3584
1734.3922777991502,3599
1736.3966693544012,3555
1738.4005546868639,3652
1740.4039340544127,3569
1742.406807715001,3536
1744.4091759266616,3591
1746.4110389475054,3551
1748.4123970357223,3470
1750.413250449582,3629
1752.4135994474318,3580
1754.4134442876993,3591
1756.4127852288902,3533
1758.4116225295893,3575
1760.4099564484595,3626
1762.407787244244,3603
1764.405115175764,3548
1766.4019405019203,3547
1768.3982634816916,3579
1770.3940843741357,3516
1772.3894034383907,3455
1774.3842209336717,3561
1776.378537119274,3491
1778.372352254571,3492
1780.3656665990156,3398
1782.3584804121397,3523
1784.3507939535534,3470
1786.3426074829463,3478
1788.3339212600863,3509
1790.3247355448211,3551
1792.3150505970766,3548
1794.3048666768573,3559
1796.2941840442477,3507
1798.2830029594106,3520
1800.2713236825884,3572
1802.2591464741004,3565
1804.2464715943465,3415
1806.2332993038058,3471
1808.2196298630352,3498
1810.2054635326708,3495
1812.190800573428,3559
1814.175641246101,3507
1816.1599858115628,3617
1818.1438345307652,3546
1820.127187664738,3475
1822.1100454745924,3554
1824.092408221516,3568
1826.0742761667766,3543
1828.055649571721,3628
1830.0365286977735,3537
1832.0169138064398,3498
1833.9968051593014,3583
1835.9762030180214,3547
1837.9551076443408,3640
1839.9335193000788,3478
1841.9114382471344,3504
1843.888864747485,3565
1845.8657990631878,3529
1847.842241456378,3437
1849.8181921892697,3528
1851.7936515241558,3533
1853.7686197234098,3495
1855.7430970494815,3471
1857.7170837649014,3476
1859.6905801322787,3584
1861.6635864143004,3604
1863.6361028737338,3560
1865.608129773424,3543
1867.5796673762961,3534
1869.5507159453537,3634
1871.521275743678,3723
1873.4913470344313,3571
1875.4609300808534,3548
1877.4300251462632,3588
1879.3986324940588,3575
1881.366752387717,3641
1883.3343850907936,3658
1885.3015308669228,3626
1887.268189979819,3592
1889.2343626932739,3634
1891.2000492711595,3614
1893.1652499774254,3702
1895.1299650761011,3681
1897.0941948312952,3595
1899.0579395071945,3636
1901.0211993680641,3755
1902.98397467825,3645
1904.9462657021745,3558
1906.9080727043415,3583
1908.869395949332,3609
1910.8302357018065,3541
1912.790592226504,3671
1914.7504657882428,3682
1916.7098566519212,3592
1918.6687650825133,3553
1920.6271913450764,3587
1922.5851357047422,3678
1924.5425984267245,3624
1926.499579776314,3505
1928.4560800188833,3560
1930.4120994198802,3672
1932.367638244833,3677
1934.32269675935,3653
1936.2772752291175,3545
1938.231373919899,3722
1940.1849930975404,3614
1942.1381330279637,3687
1944.0907939771696,3620
1946.0429762112412,3667
1947.9946799963363,3587
1949.9459055986945,3697
1951.896653284633,3629
1953.8469233205478,3617
1955.7967159729142,3704
1957.7460315082863,3707
1959.6948701932974,3696
1961.6432322946594,3673
1963.5911180791632,3646
1965.5385278136787,3774
1967.4854617651545,3680
1969.4319202006182,3631
1971.377903387176,3701
1973.3234115920136,3586
1975.268445082395,3743
1977.2130041256642,3688
1979.1570889892423,3701
1981.1006999406304,3676
1983.04383724741,3631
1984.986501177238,3630
1986.928691997853,3618
1988.8704099770712,3588
1990.811655382789,3684
1992.7524284829801,3666
1994.692729545698,3713
1996.6325588390755,3649
1998.5719166313224,3679
2000.5108031907307,3712
2002.4492187856677,3594
2004.387163684583,3616
2006.3246381560011,3640
2008.2616424685298,3629
2010.1981768908527,3710
2012.1342416917332,3581
2014.069837140014,3690
2016.0049635046162,3734
2017.9396210545406,3829
2019.8738100588666,3681
2021.8075307867502,3656
2023.740783507431,3688
2025.6735684902228,3723
2027.6058860045214,3761
2029.5377363198004,3624
2031.4691197056118,3660
2033.4000364315875,3712
2035.3304867674374,3633
2037.260470982952,3627
2039.189989347998,3667
2041.1190421325232,3647
2043.047629606554,3649
2044.9757520401945,3509
2046.9034097036288,3691
2048.8306028671195,3784
2050.7573318010086,3774
2052.683596775716,3687
2054.609398061742,3766
2056.5347359296647,3838
2058.4596106501403,3686
2060.384022493906,3705
2062.3079717317764,3782
2064.231458634646,3758
2066.1544834734873,3787
2068.077046519352,3741
2069.99914804337,3667
2071.9207883167524,3783
2073.8419676107865,3683
2075.7626861968406,3714
2077.6829443463607,3716
2079.6027423308715,3786
2081.522080421977,3751
2083.440958891362,3710
2085.359378010786,3743
2087.2773380520907,3685
2089.194839287196,3703
2091.111881988101,3695
2093.0284664268825,3742
2094.9445928756973,3700
2096.86026160678,3822
2098.775472892446,3792
2100.690227005088,3738
2102.604524217178,3673
2104.5183648012676,3767
2106.431749029985,3840
2108.34467717604,3938
2110.2571495122206,3767
2112.169166311393,3737
2114.080727846503,3848
2115.9918343905747,3723
2117.902486216711,3761
2119.8126835980956,3730
2121.722426807987,3894
2123.6317161197285,3776
2125.5405518067364,3833
2127.448934142509,3754
2129.356863400624,3689
2131.264339854737,3826
2133.1713637785815,3884
2135.077935445972,3722
2136.9840551308002,3890
2138.889723107037,3760
2140.7949396487334,3829
2142.699705030018,3799
2144.6040195250994,3849
2146.507883408264,3779
2148.4112969538774,3822
2150.3142604363848,3813
2152.2167741303097,3850
2154.1188383102535,3812
2156.0204532508997,3770
2157.9216192270064,3908
2159.822336513414,3828
2161.7226053850413,3835
2163.622426116884,3848
2165.5217989840185,3834
2167.4207242616,3921
2169.319202224862,3860
2171.2172331491165,3952
2173.1148173097563,3820
2175.0119549822507,3936
2176.90864644215,3932
2178.8048919650823,3782
2180.7006918267534,3920
2182.596046302952,3840
2184.4909556695407,3937
2186.3854202024645,3947
2188.279440177746,3871
2190.173015871487,3861
2192.066147559868,3840
2193.958835519149,3881
2195.851080025667,3961
2197.7428813558417,3864
2199.6342397861667,3871
2201.5251555932186,3834
2203.415629053651,3958
2205.3056604441986,3993
2207.19525004167,4022
2209.084398122958,3967
2210.9731049650327,3971
2212.861370844941,3888
2214.749196039812,4050
2216.636580826851,3979
2218.523525483344,4004
2220.410030286655,3945
2222.296095514226,4004
2224.1817214435805,4053
2226.066908352319,3943
2227.951656518121,3962
2229.835966218746,4034
2231.71983773203,3983
2233.6032713358913,3937
2235.486267308324,3978
2237.3688259274036,4114
2239.2509474712824,4035
2241.132632218193,4002
2243.013880446447,4045
2244.8946924344323,3929
2246.7750684606203,4004
2248.6550088035574,3997
2250.534513741871,3989
2252.413583554265,3927
2254.292218519526,3926
2256.170418916517,3910
2258.0481850241786,3965
2259.925517121534,4031
2261.8024154876825,3964
2263.678880401803,4031
2265.5549121431536,4103
2267.430510991071,3946
2269.305677224971,3987
2271.180411124348,3911
2273.0547129687766,3997
2274.9285830379076,4041
2276.8020216114737,3942
2278.6750289692845,3961
2280.5476053912294,4018
2282.4197511572766,4055
2284.2914665474727,4044
2286.162751841943,4065
2288.0336073208937,3996
2289.904033264608,4113
2291.774029953448,4031
2293.6435976678554,4012
2295.5127366883517,4085
2297.381447295534,3976
2299.2497297700825,4011
2301.1175843927526,3965
2302.9850114443825,3989
2304.852011205885,3963
2306.7185839582553,3847
2308.5847299825664,3953
2310.4504495599676,3909
2312.3157429716925,3883
2314.1806104990483,3906
2316.0450524234247,3865
2317.9090690262888,3860
2319.772660589186,3844
2321.635827393742,3836
2323.498569721661,3909
2325.3608878547248,3894
2327.2227820747967,3978
2329.0842526638157,3915
2330.945299903803,3925
2332.805924076857,3830
2334.6661254651535,3922
2336.525904350951,3805
2338.3852610165827,3922
2340.244195744464,3815
2342.102708817088,3883
2343.9608005170253,3900
2345.8184711269287,3911
2347.675720929526,3878
2349.532550207628,3896
2351.38895924412,3994
2353.24494832197,3896
2355.100517724223,3806
2356.955667734004,3906
2358.810398634514,3857
2360.664710709037,3891
2362.5186042409337,3886
2364.3720795136437,3952
2366.225136810686,3990
2368.0777764156583,4021
2369.929998612237,3858
2371.7818036841777,3909
2373.633191915315,3861
2375.484163589562,3968
2377.3347189909114,3886
2379.184858403434,3904
2381.03458211128,3960
2382.8838903986775,3957
2384.732783549936,3982
2386.5812618494406,3890
2388.4293255816588,3999
2390.2769750311327,4043
2392.1242104824883,3931
2393.971032220427,3981
2395.8174405297295,4072
2397.6634356952563,3880
2399.509018001947,3957
2401.3541877348193,3913
2403.1989451789705,4023
2405.043290619576,3873
2406.8872243418905,4062
2408.730746631247,3910
2410.5738577730594,3932
2412.4165580528183,3988
2414.258847756095,3938
2416.100727168537,3975
2417.9421965758734,3958
2419.783256263912,3997
2421.623906518538,3950
2423.4641476257157,4033
2425.303979871491,3887
2427.143403541984,3957
2428.9824189233977,4036
2430.821026302012,3921
2432.6592259641866,3907
2434.497018196361,3982
2436.33440328505,3990
2438.171381516851,4073
2440.00795317844,3907
2441.844118556569,4123
2443.6798779380724,3942
2445.5152316098606,4043
2447.3501798589255,3953
2449.1847229723357,3971
2451.0188612372403,4040
2452.8525949408663,4011
2454.6859243705203,4090
2456.518849813587,3981
2458.3513715575314,3908
2460.183489889895,3986
2462.015205098301,4002
2463.8465174704493,3959
2465.67742729412,4052
2467.5079348571717,4039
2469.338040447542,3966
2471.1677443532476,3907
2472.9970468623833,4049
2474.825948263123,3941
2476.6544488437207,4152
2478.482548892508,3985
2480.310248697896,4083
2482.137548548374,4096
2483.9644487325118,4149
2485.790949538956,4048
2487.617051256433,4064
2489.44275417375,3989
2491.26805857979,4069
2493.0929647635157,4129
2494.917473013971,4123
2496.741583620276,4154
2498.5652968716304,4091
2500.3886130573137,4173
2502.2115324666834,4111
2504.0340553891765,4132
2505.856182114308,4160
2507.6779129316733,4113
2509.499248130945,4008
2511.3201880018764,4208
2513.140732834298,4128
2514.9608829181198,4128
2516.780638543331,4145
2518.6,4149
2520.418967578273,4130
2522.237541568376,4199
2524.0557222606144,4075
2525.8735099453706,4128
2527.6909049131086,4124
2529.507907454368,4141
2531.32451785977,4138
2533.140736420014,4129
2534.9565634258774,4179
2536.771999168218,4115
2538.5870439379714,4125
2540.4016980261526,4207
2542.2159617238544,4194
2544.02983532225,4218
2545.8433191125914,4222
2547.656413386209,4248
2549.4691184345115,4316
2551.2814345489874,4242
2553.093362021204,4189
2554.904901142808,4249
2556.716052205523,4377
2558.526815501153,4137
2560.3371913215824,4329
2562.147179958771,4203
2563.956781704761,4341
2565.7659968516705,4369
2567.5748256916986,4282
2569.3832685171224,4260
2571.1913256202984,4262
2572.9989972936614,4363
2574.806283829725,4305
2576.613185521084,4371
2578.4197026604074,4424
2580.2258355404483,4326
2582.031584454035,4408
2583.836949694077,4308
2585.6419315535613,4411
2587.4465303255533,4431
2589.2507463032002,4363
2591.0545797797245,4358
2592.8580310484303,4398
2594.6611004026995,4517
2596.463788135992,4383
2598.266094541849,4376
2600.0680199138874,4437
2601.869564545807,4435
2603.670728731383,4401
2605.4715127644704,4434
2607.2719169390048,4437
2609.071941548998,4455
2610.8715868885433,4404
2612.670853251811,4431
2614.469740933052,4316
2616.268250226594,4368
2618.0663814268455,4433
2619.864134828292,4347
2621.6615107255006,4273
2623.458509413115,4356
2625.2551311858597,4299
2627.0513763385347,4362
2628.8472451660223,4406
2630.6427379632833,4461
2632.4378550253564,4312
2634.232596647359,4348
2636.026963124488,4305
2637.8209547520187,4309
2639.6145718253065,4394
2641.407814639785,4260
2643.200683490966,4301
2644.9931786744414,4371
2646.7853004858807,4346
2648.577049221034,4248
2650.3684251757277,4299
2652.1594286458712,4307
2653.9500599274484,4183
2655.740319316525,4237
2657.5302071092437,4188
2659.3197236018286,4282
2661.10886909058,4189
2662.8976438718782,4338
2664.686048242183,4345
2666.4740824980327,4306
2668.2617469360443,4353
2670.0490418529134,4277
2671.8359675454153,4286
2673.622524310403,4324
2675.408712444811,4269
2677.1945322456495,4273
2678.979984010009,4323
2680.76506803506,4219
2682.5497846180497,4245
2684.334134056306,4293
2686.1181166472343,4139
2687.9017326883213,4216
2689.6849824771293,4157
2691.4678663113013,4274
2693.2503844885596,4276
2695.032537306705,4173
2696.8143250636167,4367
2698.5957480572542,4187
2700.3768065856534,4260
2702.1575009469316,4261
2703.937831439283,4210
2705.717798360982,4122
2707.4974020103837,4133
2709.276642685917,4165
2711.055520686095,4210
2712.834036309506,4123
2714.612189854819,4161
2716.389981620782,4195
2718.1674119062204,4129
2719.944481010041,4112
2721.721189231226,4141
2723.4975368688415,4195
2725.273524222027,4088
2727.0491515900053,4142
2728.824419272075,4187
2730.5993275676146,4110
2732.3738767760838,4068
2734.148067197016,4220
2735.921899130031,4130
2737.6953728748194,4276
2739.468488731156,4266
2741.2412469988926,4172
2743.0136479779617,4185
2744.785691968372,4333
2746.5573792702116,4195
2748.3287101836504,4184
2750.099685008934,4298
2751.870304046388,4136
2753.640567596418,4258
2755.4104759595057,4366
2757.1800294362156,4137
2758.949228327187,4189
2760.7180729331412,4150
2762.486563554877,4216
2764.254700493272,4185
2766.022484049284,4148
2767.789914523947,4217
2769.5569922183786,4183
2771.3237174337705,4160
2773.090090471394,4135
2774.8561116326036,4255
2776.6217812188274,4182
2778.3870995315756,4162
2780.1520668724356,4187
2781.9166835430747,4254
2783.6809498452394,4214
2785.444866080754,4153
2787.2084325515225,4278
2788.971649559527,4243
2790.73451740683,4165
2792.4970363955713,4128
2794.2592068279705,4153
2796.0210290063264,4133
2797.7825032330147,4147
2799.543629810493,4150
2801.304409041296,4354
2803.0648412280366,4269
2804.8249266734088,4198
2806.5846656801846,4191
2808.344058551212,4289
2810.1031055894246,4212
2811.8618070978273,4282
2813.6201633795085,4214
2815.378174737636,4283
2817.1358414754536,4202
2818.893163896285,4242
2820.6501423035334,4244
2822.4067770006814,4242
2824.1630682912883,4333
2825.9190164789957,4216
2827.6746218675207,4260
2829.429884760661,4238
2831.184805462294,4334
2832.9393842763743,4309
2834.693621506936,4339
2836.4475174580916,4320
2838.201072434034,4299
2839.954286739034,4269
2841.707160677441,4307
2843.459694553685,4423
2845.2118886722724,4337
2846.96374333779,4264
2848.7152588549034,4264
2850.4664355283567,4322
2852.217273662973,4245
2853.9677735636546,4276
2855.7179355353833,4274
2857.4677598832186,4185
2859.217246912299,4351
2860.9663969278427,4413
2862.715210235146,4277
2864.4636871395846,4378
2866.211827946614,4164
2867.9596329617652,4353
2869.7071024906536,4135
2871.4542368389684,4267
2873.20103631248,4246
2874.947501217038,4233
2876.6936318585695,4263
2878.4394285430812,4298
2880.1848915766604,4262
2881.9300212654707,4307
2883.6748179157553,4195
2885.4192818338374,4270
2887.1634133261173,4401
2888.907212699077,4292
2890.6506802592744,4349
2892.393816313348,4319
2894.1366211680142,4245
2895.8790951300693,4322
2897.621238506388,4257
2899.363051603925,4338
2901.1045347297118,4342
2902.8456881908596,4280
2904.58651229456,4317
2906.327007348081,4286
2908.067173658772,4346
2909.8070115340597,4320
2911.5465212814497,4291
2913.285703208527,4246
2915.0245576229563,4315
2916.7630848324807,4250
2918.5012851449196,4278
2920.2391588681758,4299
2921.976706310227,4237
2923.7139277791334,4331
2925.4508235830313,4228
2927.187394030137,4397
2928.923639428745,4424
2930.6595600872306,4338
2932.395156314046,4275
2934.1304284177218,4358
2935.8653767068713,4394
2937.6000014901815,4335
2939.3343030764227,4437
2941.068281774442,4383
2942.8019378931644,4516
2944.5352717415976,4450
2946.2682836288236,4505
2948.0009738640065,4282
2949.7333427563885,4418
2951.465390615289,4342
2953.1971177501086,4452
2954.9285244703265,4347
2956.6596110855,4346
2958.3903779052657,4312
2960.1208252393385,4333
2961.8509533975125,4277
2963.5807626896617,4311
2965.3102534257378,4228
2967.0394259157715,4242
2968.768280469873,4372
2970.496817398232,4295
2972.2250370111146,4385
2973.952939618869,4322
2975.6805255319196,4353
2977.4077950607707,4453
2979.134748516006,4489
2980.861386208289,4290
2982.587708448359,4330
2984.313715547037,4311
2986.039407815222,4534
2987.764785563891,4422
2989.489849104102,4410
2991.2145987469908,4351
2992.9390348037705,4420
2994.6631575857346,4549
2996.3869674042576,4494
2998.1104645707887,4350
2999.83364939686,4287
3001.5565221940783,4264
3003.2790832741334,4415
3005.0013329487924,4358
3006.7232715298996,4422
3008.4448993293804,4322
3010.166216659239,4377
3011.887223831558,4386
3013.607921158498,4371
3015.3283089522993,4367
3017.0483875252826,4230
3018.7681571898443,4415
3020.4876182584626,4430
3022.2067710436927,4387
3023.9256158581707,4453
3025.644153014609,4374
3027.362382825801,4448
3029.0803056046193,4434
3030.797921664012,4303
3032.5152313170106,4440
3034.2322348767225,4507
3035.9489326563353,4492
3037.665324969115,4431
3039.3814121284063,4441
3041.097194447633,4337
3042.812672240299,4206
3044.5278458199855,4400
3046.2427155003525,4344
3047.9572815951406,4423
3049.671544418167,4532
3051.38550428333,4377
3053.0991615046073,4327
3054.812516396051,4430
3056.5255692717974,4332
3058.2383204460575,4377
3059.9507702331257,4466
3061.662918947372,4461
3063.3747669032446,4366
3065.0863144152736,4432
3066.7975617980674,4474
3068.508509366309,4396
3070.219157434767,4504
3071.9295063182844,4339
3073.639556331785,4454
3075.3493077902704,4399
3077.058761008821,4362
3078.7679163025964,4494
3080.476773986837,4485
3082.1853343768594,4566
3083.89359778806,4322
3085.6015645359153,4365
3087.3092349359786,4467
3089.016609303884,4483
3090.7236879553434,4467
3092.4304712061476,4427
3094.136959372166,4358
3095.843152769349,4529
3097.5490517137237,4351
3099.2546565213966,4387
3100.959967508554,4467
3102.66498499146,4441
3104.3697092864577,4423
3106.0741407099695,4572
3107.778279578498,4477
3109.482126208622,4304
3111.1856809170004,4465
3112.8889440203716,4575
3114.5919158355528,4400
3116.294596679439,4583
3117.996986869006,4610
3119.6990867213062,4561
3121.4008965534726,4479
3123.102416682717,4543
3124.803647426329,4533
3126.5045891016784,4421
3128.205242026213,4595
3129.90560651746,4533
3131.605682893025,4449
3133.3054714705922,4521
3135.0049725679282,4423
3136.7041865028714,4601
3138.4031135933465,4471
3140.101754157353,4514
3141.800108512971,4590
3143.498176978357,4540
3145.1959598717494,4520
3146.8934575114636,4336
3148.5906702158954,4394
3150.2875983035183,4496
3151.9842420928853,4430
3153.680601902627,4517
3155.376678051456,4390
3157.07247085816,4463
3158.767980641609,4475
3160.463207720748,4450
3162.158152414606,4552
3163.8528150422862,4578
3165.5471959229726,4559
3167.2412953759303,4506
3168.9351137204976,4484
3170.628651276098,4527
3172.3219083622307,4531
3174.014885298474,4561
3175.707582404485,4537
3177.4000000000005,4650
3179.092138404835,4547
3180.7839979388846,4663
3182.47557892212,4580
3184.166881674594,4556
3185.8579065164386,4530
3187.5486537678626,4589
3189.2391237491547,4612
3190.9293167806827,4581
3192.6192331828934,4551
3194.3088732763117,4547
3195.998237381542,4552
3197.687325819268,4583
3199.376138910251,4541
3201.064676975334,4577
3202.7529403354347,4510
3204.4409293115523,4441
3206.1286442247647,4516
3207.816085396229,4541
3209.5032531471825,4465
3211.190147798936,4517
3212.8767696728846,4464
3214.5631190905015,4443
3216.2491963733373,4351
3217.9350018430214,4467
3219.6205358212637,4424
3221.305798629851,4482
3222.990790590651,4383
3224.6755120256103,4434
3226.359963256751,4508
3228.0441446061795,4513
3229.7280563960758,4517
3231.411698948703,4524
3233.0950725863995,4595
3234.778177631587,4679
3236.461014406761,4436
3238.1435832345005,4615
3239.8258844374595,4575
3241.507918338374,4570
3243.1896852600576,4563
3244.8711855254023,4569
3246.552419457381,4671
3248.233387379042,4582
3249.914089613516,4582
3251.59452648401,4531
3253.274698313813,4556
3254.95460542629,4639
3256.6342481448855,4549
3258.313626793125,4537
3259.9927416946084,4476
3261.6715931730196,4486
3263.3501815521176,4505
3265.0285071557437,4452
3266.706570307815,4498
3268.3843713323286,4586
3270.0619105533615,4449
3271.739188295068,4623
3273.4162048816834,4630
3275.0929606375184,4671
3276.769455886966,4674
3278.445690954498,4744
3280.1216661646613,4705
3281.797381842087,4660
3283.4728383114807,4601
3285.1480358976296,4562
3286.8229749253996,4491
3288.4976557197333,4518
3290.172078605655,4535
3291.846243908266,4611
3293.5201519527463,4633
3295.193803064357,4459
3296.8671975684374,4546
3298.5403357904024,4663
3300.21321805575,4573
3301.8858446900567,4568
3303.558216018975,4517
3305.23033236824,4586
3306.9021940636603,4483
3308.57380143113,4681
3310.2451547966184,4652
3311.916254486174,4661
3313.5871008259246,4650
3315.2576941420766,4618
3316.9280347609147,4505
3318.5981230088046,4476
3320.2679592121895,4507
3321.9375436975924,4426
3323.606876791612,4676
3325.27595882093,4571
3326.944790112305,4568
3328.6133709925753,4570
3330.2817017886573,4509
3331.949782827547,4622
3333.617614436319,4624
3335.2851969421245,4638
3336.952530672199,4669
3338.619615953853,4609
3340.286453114475,4704
3341.9530424815357,4699
3343.619384382583,4575
3345.2854791452437,4664
3346.951327097224,4592
3348.6169285663073,4618
3350.2822838803577,4696
3351.947393367319,4709
3353.61225735521,4629
3355.2768761721345,4745
3356.9412501462693,4609
3358.605379605873,4488
3360.2692648792827,4653
3361.9329062949146,4635
3363.596304181263,4576
