CollectionTime,7/11/2024 12:15:35 PM
ExposureUsed,3
CalibratedSpectrum
-962.7078968117929,3435
-959.9714848408522,3665
-957.2358232597828,3615
-954.5009119013725,3629
-951.7667505983302,3590
-949.0333391832855,3762
-946.3006774887896,3729
-943.5687653473143,3660
-940.837602591253,3686
-938.1071890529199,3594
-935.3775245645503,3647
-932.6486089583007,3694
-929.9204420662485,3711
-927.1930237203925,3708
-924.4663537526524,3655
-921.7404319948689,3760
-919.0152582788041,3781
-916.2908324361409,3722
-913.5671542984834,3700
-910.8442236973568,3636
-908.1220404642074,3612
-905.4006044304027,3753
-902.679915427231,3787
-899.959973285902,3770
-897.2407778375464,3761
-894.5223289132158,3700
-891.8046263438832,3768
-889.0876699604426,3806
-886.3714595937089,3754
-883.6559950744183,3782
-880.9412762332282,3810
-878.2273029007168,3755
-875.5140749073835,3905
-872.8015920836489,3897
-870.0898542598545,3724
-867.3788612662631,3879
-864.6686129330585,3673
-861.9591090903457,3945
-859.2503495681506,3901
-856.5423341964203,3919
-853.8350628050229,3862
-851.1285352237478,3926
-848.4227512823054,3885
-845.7177108103272,3944
-843.0134136373656,3955
-840.3098595928943,3914
-837.6070485063082,4081
-834.9049802069229,4056
-832.2036545239757,3975
-829.5030712866244,3923
-826.8032303239481,3976
-824.1041314649472,3961
-821.4057745385428,3977
-818.7081593735775,3967
-816.0112857988148,3987
-813.3151536429393,4014
-810.6197627345566,4058
-807.9251129021936,4005
-805.2312039742981,3952
-802.5380357792392,3989
-799.8456081453069,4093
-797.1539209007124,4132
-794.462973873588,4119
-791.772766891987,4119
-789.083299783884,4092
-786.3945723771743,4020
-783.7065844996748,4170
-781.0193359791231,4192
-778.3328266431781,4135
-775.6470563194197,4130
-772.9620248353489,4115
-770.2777320183878,4070
-767.5941776958798,4023
-764.9113616950891,4251
-762.2292838432011,4214
-759.5479439673222,4149
-756.8673418944801,4193
-754.1874774516235,4244
-751.5083504656222,4152
-748.8299607632671,4167
-746.15230817127,4225
-743.475392516264,4199
-740.7992136248035,4183
-738.1237713233636,4143
-735.4490654383407,4123
-732.7750957960521,4291
-730.1018622227365,4273
-727.4293645445534,4292
-724.7576025875837,4250
-722.0865761778291,4219
-719.4162851412126,4395
-716.7467293035781,4437
-714.0779084906909,4426
-711.409822528237,4380
-708.7424712418238,4318
-706.0758544569796,4422
-703.4099719991541,4548
-700.7448236937178,4408
-698.0804093659622,4554
-695.4167288411002,4482
-692.7537819442656,4446
-690.0915685005134,4434
-687.4300883348199,4360
-684.7693412720819,4515
-682.1093271371178,4617
-679.4500457546669,4479
-676.7914969493897,4416
-674.1336805458676,4594
-671.4765963686034,4461
-668.8202442420206,4548
-666.1646239904642,4544
-663.5097354382001,4604
-660.8555784094151,4510
-658.2021527282176,4519
-655.5494582186366,4439
-652.8974947046223,4595
-650.2462620100463,4587
-647.5957599587009,4571
-644.9459883742998,4707
-642.2969470804776,4647
-639.6486359007902,4683
-637.0010546587141,4653
-634.3542031776476,4874
-631.7080812809096,4650
-629.0626887917401,4694
-626.4180255333008,4800
-623.7740913286734,4660
-621.1308860008619,4696
-618.4884093727904,4642
-615.8466612673046,4738
-613.2056415071715,4812
-610.5653499150785,4900
-607.9257863136347,4742
-605.28695052537,4741
-602.6488423727357,4851
-600.0114616781036,4741
-597.3748082637674,4791
-594.7388819519412,4905
-592.1036825647604,5004
-589.4692099242818,4861
-586.8354638524829,5009
-584.2024441712624,4910
-581.5701507024403,4966
-578.9385832677575,4871
-576.3077416888759,5077
-573.6776257873787,5011
-571.0482353847704,4908
-568.4195703024757,4987
-565.7916303618415,4985
-563.164415384135,5067
-560.5379251905453,5029
-557.9121596021815,4972
-555.2871184400748,4981
-552.6628015251767,4956
-550.0392086783606,5003
-547.4163397204204,5076
-544.794194472071,5098
-542.1727727539491,5102
-539.5520743866118,5183
-536.9320991905377,5035
-534.3128469861261,5194
-531.6943175936979,5132
-529.0765108334947,5156
-526.4594265256793,5287
-523.8430644903358,5416
-521.2274245474689,5412
-518.612506517005,5412
-515.9983102187913,5556
-513.3848354725959,5452
-510.77208209810846,5501
-508.16004991493924,5677
-505.5487387426199,5601
-502.9381484006032,5810
-500.3282787082628,5890
-497.71912948489364,5805
-495.1107005497117,5925
-492.5029917218539,5623
-489.8960028203786,5714
-487.28973366426493,5545
-484.68418407241325,5418
-482.07935386364494,5513
-479.47524285670266,5443
-476.87185087025,5454
-474.2691777228715,5466
-471.66722323307334,5427
-469.0659872192821,5480
-466.4654694998459,5517
-463.86566989303384,5617
-461.26658821703614,5594
-458.66822428996414,5522
-456.07057792985,5614
-453.4736489546475,5538
-450.877437182231,5453
-448.28194243039627,5477
-445.68716451686,5432
-443.09310325926003,5366
-440.49975847515555,5391
-437.9071299820263,5296
-435.31521759727354,5324
-432.72402113821954,5355
-430.13354042210767,5490
-427.5437752661022,5500
-424.95472548728867,5515
-422.36639090267386,5472
-419.7787713291855,5611
-417.1918665836721,5513
-414.60567648290385,5691
-412.0202008435715,5708
-409.4354394822874,5781
-406.8513922155845,5706
-404.26805885991723,5779
-401.685439231661,5794
-399.103533147112,5749
-396.522340422488,5578
-393.9418608739278,5493
-391.3620943174908,5322
-388.7830405691583,5159
-386.2046994448317,4973
-383.6270707603344,4523
-381.05015433141045,4147
-378.473949973725,3779
-375.8984575028645,3434
-373.32367673433623,2946
-370.74960748356875,2546
-368.1762495659117,2166
-365.60360279663576,1746
-363.03166699093265,1382
-360.4604419639154,1060
-357.8899275306178,904
-355.32012350599507,768
-352.7510297049233,742
-350.1826459421999,687
-347.61497203254316,664
-345.04800779059235,674
-342.4817530309082,614
-339.91620756797226,620
-337.35137121618743,756
-334.7872437898774,778
-332.22382510328725,764
-329.66111497058273,607
-327.09911320585127,610
-324.53781962310075,646
-321.9772340362607,671
-319.4173562591816,627
-316.8581861056348,559
-314.2997233893127,586
-311.7419679238294,603
-309.1849195227194,615
-306.62857799943856,666
-304.0729431673641,669
-301.51801483979375,668
-298.963792829947,711
-296.41027695096386,681
-293.85746701590574,718
-291.3053628377552,739
-288.7539642294155,701
-286.2032710037115,732
-283.65328297338897,795
-281.1039999511146,813
-278.5554217494762,794
-276.007548180983,633
-273.4603790580651,643
-270.9139141930734,746
-268.3681533982807,689
-265.8230964858798,657
-263.27874326798565,801
-260.7350935566336,829
-258.1921471637804,880
-255.6499039013039,791
-253.10836358100266,782
-250.56752601459698,820
-248.02739101372765,898
-245.48795838995704,876
-242.94922795476816,868
-240.41119951956557,820
-237.8738728956746,889
-235.33724789434166,834
-232.80132432673452,744
-230.2661020039418,705
-227.73158073697357,787
-225.19776033676033,931
-222.66464061415422,957
-220.1322213799284,861
-217.60050244477725,780
-215.06948361931552,767
-212.53916471408013,904
-210.00954553952818,967
-207.48062590603843,958
-204.9524056239104,1009
-202.4248845033651,1052
-199.8980623545441,987
-197.37193898751036,1006
-194.84651421224817,991
-192.32178783866232,1076
-189.79775967657952,993
-187.27442953574644,1145
-184.7517972258321,1361
-182.2298625564256,1313
-179.7086253370378,1212
-177.18808537710026,1105
-174.66824248596583,905
-172.14909647290835,1050
-169.6306471471229,1091
-167.11289431772548,1126
-164.59583779375328,1021
-162.07947738416453,1077
-159.5638128978386,1286
-157.04884414357605,1528
-154.53457093009854,1616
-152.02099306604828,1418
-149.50811035998936,1211
-146.99592262040665,1102
-144.48442965570587,1411
-141.97363127421409,1376
-139.46352728417958,1422
-136.95411749377126,1649
-134.44540171107985,1398
-131.93737974411636,1029
-129.43005140081357,1224
-126.92341648902493,1583
-124.41747481652521,1821
-121.91222619101006,1960
-119.40767042009657,2262
-116.90380731132257,2357
-114.40063667214702,2454
-111.8981583099503,2218
-109.3963720320337,2485
-106.89527764561933,3306
-104.39487495785067,5926
-101.89516377579241,9204
-99.39614390642998,14974
-96.89781515667039,18701
-94.40017733334128,22157
-91.90323024319173,26111
-89.40697369289148,24683
-86.91140748903172,17977
-84.41653143812482,12725
-81.92234534660395,7499
-79.42884902082358,10485
-76.93604226705907,23999
-74.4439248915071,43071
-71.95249670028534,57239
-69.46175749943245,58919
-66.97170709490854,52871
-64.48234529259423,43860
-61.99367189829195,32157
-59.50568671772464,22658
-57.01838955653636,18968
-54.53178022029283,21045
-52.045858514480074,21380
-49.560624244506016,20212
-47.07607721569923,20314
-44.59221723330904,18739
-42.10904410250669,18242
-39.62655762838392,17437
-37.14475761595372,15025
-34.66364387015028,13457
-32.18321619582866,11602
-29.70347439776515,11011
-27.224418280657005,10798
-24.74604764912317,13580
-22.26836230770266,24562
-19.7913620608565,54332
-17.315046712966478,65038
-14.83941606833514,65038
-12.36446993118659,65038
-9.89020810566592,65038
-7.416630395839093,65038
-4.94373660569363,65038
-2.471526539137585,65038
-6.821210263296962E-13,65038
2.47084320796705,65038
4.941003281093458,65038
7.410480415786196,65038
9.879274808531363,65038
12.347386655893956,65038
14.814816154518212,65038
17.28156350112681,65038
19.74762889252179,65038
22.21301252558385,26251
24.67771459727237,6129
27.141735304626195,4610
29.605074844762612,4629
32.06773341487792,5198
34.52971121224755,5085
36.99100843422559,4082
39.45162527824516,2915
41.91156194181792,2558
44.370818622535126,2999
46.82939551806646,2580
49.287292826160524,2831
51.74451074464503,4367
54.201049471426245,4646
56.65690920448981,3242
59.112090141899785,2222
61.56659248179983,2001
64.02041642241159,1988
66.4735621620365,2270
68.92602989905402,2037
71.37781983192338,2850
73.82893215918205,2766
76.27936707944684,2309
78.72912479141326,1882
81.17820549385567,2274
83.62660938562783,2918
86.07433666566146,2669
88.5213875329681,1902
90.96776218663751,1760
93.41346082583925,1674
95.85848364982041,1974
98.30283085790859,2295
100.7465026495089,1771
103.18949922410604,2041
105.63182078126385,2039
108.07346752062438,1723
110.51443964190923,1558
112.95473734491827,1286
115.39436082953114,1466
117.83331029570547,1323
120.27158594347827,1328
122.7091879729652,1577
125.1461165843615,1839
127.58237197794062,1582
130.01795435405518,1370
132.4528639131364,1450
134.88710085569494,1308
137.32066538231982,1159
139.75355769367923,1493
142.1857779905207,1788
144.61732647366978,1469
147.04820334403132,1115
149.47840880258934,1348
151.90794305040674,1687
154.33680628862487,2098
156.76499871846443,2731
159.19252054122433,2910
161.61937195828352,3147
164.04555317109896,3634
166.47106438120693,4348
168.89590579022217,4869
171.320077599839,5346
173.7435800118302,5773
176.16641322804742,6200
178.58857745042144,6479
181.01007288096173,6915
183.43089972175687,7014
185.85105817497413,7234
188.27054844285988,7648
190.6893707277394,8026
193.10752523201643,8406
195.5250121581745,8556
197.9418317087751,8688
200.3579840864594,8660
202.7734694939469,8893
205.18828813403627,9000
207.6024402096051,9243
210.01592592360964,9265
212.42874547908548,9257
214.84089907914665,9368
217.2523869269868,9327
219.66320922587727,9159
222.0733661791695,9389
224.48285799029293,9296
226.8916848627572,9350
229.29984700014882,9486
231.7073446061355,9654
234.11417788446204,9718
236.520347038953,9833
238.92585227351185,9801
241.33069379212054,9872
243.73487179884035,9830
246.1383864978112,9850
248.541238093252,9769
250.9434267894609,9784
253.34495279081432,9705
255.74581630176783,9680
258.1460175268563,9616
260.54555667069314,9631
262.9444339379703,9550
265.3426495334594,9550
267.7402036620107,9935
270.1370965285529,9892
272.53332833809407,9613
274.9288992957214,9354
277.32380960660055,9383
279.718059475976,9421
282.1116491091717,9538
284.5045787115897,9454
286.89684848871195,9453
289.2884586460981,9467
291.67940938938807,9448
294.0697009242996,9630
296.4593334566299,9552
298.84830719225477,9488
301.23662233712923,9494
303.6242790972866,9426
306.01127767884,9647
308.39761828798066,9436
310.78330113097934,9449
313.16832641418534,9512
315.5526943440269,9595
317.9364051270112,9390
320.3194589697242,9576
322.70185607883093,9482
325.0835966610754,9335
327.4646809232805,9272
329.8451090723478,9182
332.2248813152577,9240
334.6039978590701,9312
336.9824589109231,9280
339.36026467803447,9258
341.7374153677,9308
344.113911187295,9303
346.48975234427337,9407
348.8649390461686,9303
351.2394715005918,9311
353.61334991523415,9266
355.9865744978655,9233
358.35914545633375,9250
360.73106299856715,9480
363.10232733257146,9366
365.47293866643247,9398
367.84289720831396,9302
370.2122031664593,9363
372.5808567491905,9334
374.9488581649083,9187
377.31620762209275,9185
379.6829053293021,9357
382.0489514951745,9216
384.4143463284262,9220
386.7790900378528,9158
389.14318283232853,9213
391.50662492080653,9257
393.86941651231916,9204
396.23155781597745,9519
398.5930490409713,9417
400.9538903965696,9399
403.3140820921202,9345
405.6736243370498,9304
408.03251734086336,9280
410.3907613131465,9243
412.74835646356166,9183
415.10530300185144,9029
417.4616011378372,9179
419.81725108141893,9305
422.1722530425758,9284
424.5266072313656,9181
426.880313857925,9077
429.2333731324701,9315
431.58578526529516,9282
433.9375504667738,9367
436.2886689473588,9407
438.63914091758113,9393
440.9889665880513,9210
443.33814616945835,9183
445.68667987257015,9122
448.03456790823395,9035
450.3818104873759,8893
452.72840782100013,9013
455.07436012019105,9154
457.41966759611057,9115
459.7643304600007,9289
462.10834892318155,9215
464.4517231970525,9238
466.79445349309174,9289
469.1365400228566,9305
471.4779829979826,9348
473.81878263018564,9291
476.15893913125876,9153
478.4984527130747,9156
480.8373235875855,9260
483.17555196682144,9215
485.5131380628919,9336
487.8500820879857,9462
490.1863842543697,9556
492.52204477439034,9882
494.8570638604725,10056
497.1914417251204,10231
499.52517858091653,10296
501.85827464052306,10480
504.19073011668036,10589
506.5225452222086,10431
508.85372017000566,10591
511.18425517304956,10596
513.514150444396,10663
515.8434061971808,11263
518.1720226446176,12161
520.4999999999999,12495
522.8273384766991,12099
525.1540382881666,11855
527.480099647932,11244
529.8055227696037,10894
532.1303078668694,10310
534.454455153496,9989
536.777964843328,9772
539.1008371502907,9519
541.4230722883866,9547
543.744670471698,9486
546.0656319143858,9760
548.3859568306899,9641
550.7056454349294,9791
553.0246979415016,9729
555.3431145648834,9631
557.6608955196306,9657
559.978041020377,9506
562.2945512818363,9497
564.6104265188006,9568
566.9256669461412,9457
569.2402727788082,9583
571.5542442318302,9477
573.8675815203156,9663
576.1802848594508,9561
578.4923544645015,9574
580.8037905508126,9649
583.114593333807,9679
585.4247630289875,9566
587.7342998519354,9622
590.0432040183106,9713
592.3514757438526,9772
594.6591152443794,9942
596.9661227357875,9809
599.2724984340531,9596
601.578242555231,9666
603.8833553154542,9554
606.1878369309362,9615
608.4916876179676,9556
610.7949075929192,9643
613.0974970722403,9671
615.3994562724587,9569
617.7007854101818,9559
620.0014847020951,9694
622.3015543649641,9759
624.6009946156324,9550
626.8998056710224,9605
629.1979877481361,9627
631.4955410640538,9658
633.7924658359349,9591
636.0887622810175,9665
638.3844306166192,9634
640.6794710601358,9551
642.9738838290426,9594
645.2676691408932,9936
647.5608272133207,9789
649.853358264037,9764
652.1452625108324,9809
654.4365401715764,9786
656.7271914642178,9733
659.0172166067838,9729
661.3066158173809,9917
663.5953893141935,9715
665.8835373154867,9745
668.1710600396028,9879
670.4579577049639,9668
672.7442305300709,9772
675.0298787335033,9651
677.3149025339197,9794
679.599302150058,9798
681.8830778007342,9858
684.1662297048437,9842
686.4487580813608,9794
688.7306631493387,9895
691.0119451279091,9852
693.2926042362834,10021
695.5726406937516,9898
697.8520547196814,9776
700.1308465335215,9945
702.4090163547982,9770
704.6865644031171,9861
706.9634908981619,9729
709.2397960596965,9758
711.5154801075631,9774
713.7905432616823,9794
716.0649857420548,9823
718.3388077687592,9966
720.612009561953,9919
722.8845913418733,9851
725.1565533288352,9924
727.427895743234,9913
729.6986188055427,9927
731.9687227363137,9907
734.238207756178,9932
736.5070740858458,9910
738.7753219461066,9922
741.0429515578281,9885
743.3099631419569,9826
745.5763569195191,9722
747.8421331116193,9946
750.1072919394409,10009
752.3718336242467,9832
754.6357583873777,9745
756.8990664502545,10104
759.1617580343765,9870
761.423833361321,9826
763.6852926527457,9951
765.9461361303862,10010
768.206364016058,9787
770.4659765316536,10012
772.7249738991469,9833
774.9833563405886,9967
777.2411240781092,10019
779.4982773339183,9928
781.7548163303044,9960
784.010741289634,9996
786.2660524343538,9969
788.5207499869881,9653
790.7748341701416,10035
793.0283052064964,9871
795.2811633188143,10015
797.5334087299362,10050
799.7850416627813,10073
802.0360623403484,10063
804.2864709857143,10044
806.5362678220353,9910
808.7854530725468,9873
811.0340269605625,10004
813.2819897094754,9892
815.5293415427581,10074
817.77608268396,10173
820.0222133567116,10029
822.2677337847211,10071
824.5126441917765,10076
826.7569448017433,9923
829.0006358385675,9983
831.2437175262731,9856
833.4861900889629,9951
835.7280537508192,9937
837.9693087361026,10036
840.2099552691533,9996
842.4499935743896,9992
844.689423876309,10189
846.9282463994886,9993
849.1664613685833,9828
851.4040690083276,9948
853.6410695435349,10116
855.877463199097,10047
858.1132501999847,9954
860.3484307712487,10090
862.5830051380175,10288
864.8169735254988,10107
867.0503361589791,10239
869.2830932638243,10022
871.5152450654786,10247
873.7467917894654,10262
875.9777336613873,10061
878.2080709069252,10065
880.4378037518389,10173
882.666932421968,10199
884.8954571432301,10166
887.1233781416219,10001
889.3506956432192,10277
891.5774098741766,10260
893.803521060728,10165
896.0290294291852,10091
898.2539352059397,10215
900.4782386174619,10089
902.7019398903011,10151
904.925039251085,10127
907.147536926521,10042
909.3694331433943,10071
911.59072812857,10038
913.8114221089921,10010
916.0315153116827,9967
918.2510079637437,9992
920.4699002923547,10036
922.6881925247761,10021
924.905884888345,9939
927.1229776104793,9881
929.3394709186747,10038
931.555365040506,9954
933.7706602036275,10168
935.9853566357709,9984
938.1994545647489,10040
940.4129542184515,10280
942.6258558248488,9966
944.8381596119883,9937
947.0498658079974,9975
949.2609746410825,9990
951.4714863395287,10078
953.6814011316998,10178
955.8907192460387,10070
958.0994409110671,10220
960.3075663553858,10225
962.5150958076741,10259
964.7220294966913,10137
966.928367651274,10221
969.1341105003388,10205
971.3392582728806,10216
973.5438111979742,10242
975.747769504772,10288
977.9511334225061,10173
980.153903180487,9995
982.3560790081052,10099
984.5576611348289,10065
986.7586497902058,10081
988.9590452038618,10058
991.158847605503,10065
993.3580572249133,10058
995.5566742919558,10023
997.7546990365728,9894
999.952131688785,9942
1002.1489724786926,10050
1004.3452216364743,9940
1006.5408793923874,9805
1008.7359459767691,9716
1010.9304216200343,9978
1013.1243065526781,9918
1015.3176010052733,9982
1017.510305208472,9802
1019.7024193930064,9999
1021.8939437896848,10057
1024.0848786293977,9914
1026.2752241431122,9733
1028.4649805618747,9913
1030.6541481168115,9826
1032.842727039127,9902
1035.0307175601051,9713
1037.2181199111074,9752
1039.4049343235752,9874
1041.591161029029,9921
1043.7768002590683,9872
1045.9618522453698,9937
1048.1463172196918,9957
1050.3301954138697,9995
1052.513487059818,9941
1054.69619238953,9924
1056.8783116350783,10047
1059.0598450286152,9784
1061.2407928023704,9978
1063.4211551886528,9957
1065.6009324198508,10066
1067.780124728432,10070
1069.9587323469414,9906
1072.1367555080046,10010
1074.314194444325,9922
1076.4910493886855,9958
1078.667320573947,9824
1080.843008233051,9846
1083.0181125990161,9800
1085.1926339049414,9848
1087.3665723840027,9795
1089.5399282694575,9968
1091.7127017946405,9660
1093.8848931929647,9710
1096.0565026979243,9736
1098.2275305430899,9634
1100.3979769621128,9779
1102.567842188722,9681
1104.737126456726,9755
1106.9058300000124,9814
1109.0739530525475,9746
1111.2414958483764,9797
1113.4084586216231,9867
1115.5748416064907,9819
1117.7406450372605,9912
1119.9058691482942,9967
1122.0705141740304,9777
1124.2345803489884,9876
1126.3980679077658,9850
1128.5609770850388,10071
1130.7233081155623,9895
1132.8850612341707,9874
1135.0462366757774,9931
1137.2068346753745,10051
1139.3668554680326,9878
1141.526299288901,9844
1143.68516637321,9972
1145.8434569562655,10089
1148.001171273455,9853
1150.158309560244,9829
1152.3148720521767,9901
1154.470858984876,9878
1156.626270594044,9912
1158.7811071154629,9973
1160.9353687849912,10018
1163.089055838569,9917
1165.242168512213,9835
1167.3947070420209,10033
1169.5466716641677,10023
1171.6980626149075,9642
1173.8488801305748,9984
1175.9991244475814,9975
1178.1487958024186,9938
1180.2978944316555,9885
1182.4464205719428,9827
1184.5943744600072,9895
1186.7417563326567,9880
1188.8885664267755,9722
1191.0348049793297,9714
1193.1804722273619,9879
1195.325568407995,9807
1197.4700937584303,9840
1199.614048515948,9961
1201.7574329179074,9948
1203.900247201746,9978
1206.042491604982,9910
1208.1841663652099,10012
1210.3252717201053,9974
1212.465807907422,10165
1214.6057751649923,9943
1216.7451737307279,10187
1218.8840038426192,10048
1221.0222657387353,10021
1223.1599596572241,10007
1225.2970858363137,10085
1227.4336445143094,9963
1229.5696359295966,10288
1231.705060320639,10206
1233.8399179259786,9914
1235.9742089842384,9984
1238.107933734118,10096
1240.2410924143974,10162
1242.373685263935,10136
1244.5057125216676,9946
1246.6371744266116,10242
1248.7680712178621,10110
1250.898403134593,9903
1253.028170416058,10082
1255.1573733015875,10261
1257.2860120305932,9954
1259.4140868425648,10181
1261.54159797707,10148
1263.6685456737569,10078
1265.7949301723515,10037
1267.9207517126597,10185
1270.046010534565,10179
1272.1707068780306,10019
1274.2948409830983,10103
1276.4184130898889,10232
1278.541423438603,9917
1280.6638722695184,10214
1282.785759822993,10197
1284.9070863394636,10264
1287.0278520594447,10221
1289.1480572235314,10303
1291.2677020723963,10464
1293.3867868467923,10191
1295.5053117875495,10446
1297.623277135579,10325
1299.740683131868,10546
1301.8575300174857,10548
1303.973818033578,10342
1306.0895474213703,10372
1308.2047184221678,10355
1310.3193312773528,10500
1312.4333862283888,10403
1314.5468835168163,10504
1316.659823384255,10270
1318.7722060724045,10418
1320.8840318230418,10399
1322.9953008780249,10495
1325.1060134792888,10597
1327.2161698688478,10301
1329.3257702887959,10277
1331.4348149813054,10580
1333.5433041886276,10217
1335.6512381530933,10369
1337.7586171171101,10272
1339.8654413231675,10259
1341.9717110138317,10510
1344.0774264317488,10383
1346.1825878196432,10502
1348.2871954203192,10466
1350.3912494766587,10289
1352.4947502316231,10335
1354.5976979282532,10276
1356.7000928096686,10262
1358.8019351190665,10533
1360.9032250997243,10390
1363.0039629949988,10528
1365.1041490483235,10375
1367.2037835032133,10739
1369.3028666032606,10516
1371.401398592137,10586
1373.4993797135926,10474
1375.5968102114575,10399
1377.6936903296396,10651
1379.7900203121262,10546
1381.8858004029835,10704
1383.9810308463561,10763
1386.075711886469,10491
1388.1698437676241,10522
1390.2634267342032,10714
1392.356461030667,10587
1394.4489469015557,10704
1396.5408845914872,10565
1398.6322743451592,10705
1400.7231164073469,10611
1402.813411022907,10691
1404.903158436773,10708
1406.9923588939578,10672
1409.0810126395531,10644
1411.1691199187303,10598
1413.2566809767386,10549
1415.343696058907,10483
1417.4301654106425,10692
1419.5160892774315,10611
1421.6014679048399,10668
1423.6863015385125,10654
1425.7705904241707,10772
1427.8543348076178,10592
1429.9375349347342,10512
1432.0201910514802,10764
1434.102303403894,10726
1436.1838722380944,10867
1438.2648978002767,10802
1440.3453803367174,10955
1442.4253200937692,10883
1444.5047173178677,10830
1446.5835722555234,11008
1448.6618851533285,10886
1450.739656257952,10788
1452.8168858161434,11026
1454.8935740747306,10999
1456.96972128062,11064
1459.045327680797,11163
1461.120393522327,11150
1463.1949190523528,11066
1465.2689045180973,11383
1467.3423501668608,11391
1469.415256246024,11391
1471.4876230030463,11495
1473.559450685465,11371
1475.6307395408976,11245
1477.7014898170391,11366
1479.771701761665,11447
1481.8413756226287,11370
1483.9105116478618,11613
1485.9791100853772,11571
1488.0471711832643,11513
1490.1146951896926,11318
1492.1816823529098,11630
1494.2481329212433,11633
1496.3140471430984,11484
1498.3794252669609,11596
1500.4442675413939,11651
1502.5085742150404,11607
1504.572345536622,11653
1506.6355817549388,11733
1508.6982831188702,11824
1510.7604498773744,11626
1512.8220822794883,11844
1514.8831805743293,11766
1516.9437450110909,11842
1519.003775839048,11910
1521.0632733075522,11828
1523.1222376660367,11840
1525.1806691640113,11704
1527.2385680510652,12139
1529.2959345768668,11895
1531.3527689911643,11939
1533.4090715437833,12109
1535.4648424846291,12124
1537.5200820636855,12099
1539.5747905310159,12100
1541.6289681367616,12301
1543.6826151311434,12170
1545.7357317644614,12043
1547.7883182870937,12387
1549.8403749494987,12374
1551.8919020022113,12276
1553.9428996958477,12506
1555.9933682811015,12609
1558.0433080087469,12769
1560.0927191296346,12511
1562.1416018946961,12665
1564.1899565549415,12596
1566.2377833614592,12335
1568.2850825654164,12354
1570.3318544180606,12391
1572.3780991707158,12121
1574.423817074788,12147
1576.4690083817595,12022
1578.5136733431923,11922
1580.5578122107272,11953
1582.601425236085,11612
1584.6445126710646,11599
1586.6870747675434,11575
1588.7291117774776,11424
1590.7706239529034,11341
1592.8116115459347,11403
1594.8520748087658,11326
1596.8920139936686,11282
1598.9314293529933,11054
1600.9703211391711,11048
1603.008689604711,11128
1605.0465350022005,11026
1607.0838575843068,10997
1609.1206576037753,11151
1611.1569353134305,11081
1613.1926909661765,11137
1615.2279248149953,10893
1617.2626371129481,11085
1619.2968281131757,11012
1621.3304980688963,10877
1623.3636472334088,11045
1625.39627586009,10966
1627.428384202396,11091
1629.459972513861,10880
1631.4910410480993,10896
1633.5215900588028,10901
1635.551619799744,10949
1637.5811305247717,10927
1639.6101224878166,10917
1641.6385959428862,10787
1643.6665511440683,10852
1645.693988345528,10846
1647.7209078015112,10916
1649.7473097663405,10946
1651.7731944944203,10932
1653.7985622402307,10940
1655.823413258333,10886
1657.847747803366,10866
1659.8715661300494,10725
1661.8948684931793,10792
1663.9176551476316,10890
1665.9399263483624,10807
1667.9616823504057,10827
1669.982923408873,10730
1672.0036497789574,10686
1674.0238617159293,10718
1676.043559475138,10830
1678.0627433120121,10718
1680.081413482059,10753
1682.0995702408654,10887
1684.117213844096,10592
1686.134344547495,10843
1688.1509626068864,10634
1690.1670682781705,10756
1692.182661817329,10790
1694.1977434804217,10984
1696.2123135235875,10741
1698.226372203043,10769
1700.2399197750851,10792
1702.2529564960905,10787
1704.2654826225112,10959
1706.277498410882,10971
1708.2890041178139,10773
1710.2999999999988,10720
1712.3104863142066,10879
1714.3204633172854,10819
1716.329931266163,10809
1718.3388904178469,10842
1720.3473410294214,10825
1722.3552833580516,10827
1724.3627176609807,10838
1726.3696441955308,10956
1728.3760632191033,10833
1730.3819749891782,10915
1732.3873797633146,10749
1734.3922777991502,10515
1736.3966693544012,10770
1738.4005546868639,10759
1740.4039340544127,10882
1742.406807715001,10712
1744.4091759266616,10736
1746.4110389475054,10824
1748.4123970357223,10639
1750.413250449582,10834
1752.4135994474318,10792
1754.4134442876993,10937
1756.4127852288902,10766
1758.4116225295893,10731
1760.4099564484595,10692
1762.407787244244,10556
1764.405115175764,10772
1766.4019405019203,10785
1768.3982634816916,10635
1770.3940843741357,10622
1772.3894034383907,10721
1774.3842209336717,10805
1776.378537119274,10705
1778.372352254571,10659
1780.3656665990156,10741
1782.3584804121397,10784
1784.3507939535534,10857
1786.3426074829463,10706
1788.3339212600863,10847
1790.3247355448211,10706
1792.3150505970766,10842
1794.3048666768573,10932
1796.2941840442477,10761
1798.2830029594106,10749
1800.2713236825884,10689
1802.2591464741004,10868
1804.2464715943465,10716
1806.2332993038058,10900
1808.2196298630352,10933
1810.2054635326708,10973
1812.190800573428,10910
1814.175641246101,11014
1816.1599858115628,11145
1818.1438345307652,11034
1820.127187664738,11015
1822.1100454745924,10971
1824.092408221516,11043
1826.0742761667766,10878
1828.055649571721,10844
1830.0365286977735,11115
1832.0169138064398,10992
1833.9968051593014,10946
1835.9762030180214,10999
1837.9551076443408,10760
1839.9335193000788,11019
1841.9114382471344,10932
1843.888864747485,10993
1845.8657990631878,10961
1847.842241456378,10950
1849.8181921892697,10927
1851.7936515241558,10910
1853.7686197234098,10900
1855.7430970494815,10883
1857.7170837649014,10963
1859.6905801322787,10749
1861.6635864143004,11037
1863.6361028737338,11063
1865.608129773424,10943
1867.5796673762961,11047
1869.5507159453537,11088
1871.521275743678,11227
1873.4913470344313,11032
1875.4609300808534,11279
1877.4300251462632,11009
1879.3986324940588,10938
1881.366752387717,11426
1883.3343850907936,11030
1885.3015308669228,11225
1887.268189979819,11094
1889.2343626932739,11249
1891.2000492711595,11204
1893.1652499774254,11339
1895.1299650761011,11153
1897.0941948312952,11276
1899.0579395071945,11141
1901.0211993680641,11213
1902.98397467825,11033
1904.9462657021745,11253
1906.9080727043415,10975
1908.869395949332,11277
1910.8302357018065,11080
1912.790592226504,11149
1914.7504657882428,11335
1916.7098566519212,11316
1918.6687650825133,11294
1920.6271913450764,11216
1922.5851357047422,11081
1924.5425984267245,11418
1926.499579776314,11139
1928.4560800188833,10959
1930.4120994198802,11291
1932.367638244833,11204
1934.32269675935,11200
1936.2772752291175,11295
1938.231373919899,11334
1940.1849930975404,11342
1942.1381330279637,11284
1944.0907939771696,11209
1946.0429762112412,11115
1947.9946799963363,11189
1949.9459055986945,11150
1951.896653284633,11322
1953.8469233205478,11154
1955.7967159729142,11453
1957.7460315082863,11451
1959.6948701932974,11090
1961.6432322946594,11470
1963.5911180791632,11447
1965.5385278136787,11421
1967.4854617651545,11520
1969.4319202006182,11489
1971.377903387176,11435
1973.3234115920136,11172
1975.268445082395,11305
1977.2130041256642,11474
1979.1570889892423,11356
1981.1006999406304,11533
1983.04383724741,11236
1984.986501177238,11366
1986.928691997853,11247
1988.8704099770712,11443
1990.811655382789,11548
1992.7524284829801,11504
1994.692729545698,11371
1996.6325588390755,11289
1998.5719166313224,11309
2000.5108031907307,11340
2002.4492187856677,11513
2004.387163684583,11465
2006.3246381560011,11417
2008.2616424685298,11268
2010.1981768908527,11345
2012.1342416917332,11358
2014.069837140014,11597
2016.0049635046162,11311
2017.9396210545406,11277
2019.8738100588666,11463
2021.8075307867502,11355
2023.740783507431,11343
2025.6735684902228,11491
2027.6058860045214,11416
2029.5377363198004,11462
2031.4691197056118,11393
2033.4000364315875,11420
2035.3304867674374,11505
2037.260470982952,11428
2039.189989347998,11598
2041.1190421325232,11592
2043.047629606554,11561
2044.9757520401945,11522
2046.9034097036288,11476
2048.8306028671195,11514
2050.7573318010086,11502
2052.683596775716,11586
2054.609398061742,11486
2056.5347359296647,11480
2058.4596106501403,11623
2060.384022493906,11479
2062.3079717317764,11600
2064.231458634646,11535
2066.1544834734873,11443
2068.077046519352,11649
2069.99914804337,11745
2071.9207883167524,11569
2073.8419676107865,11606
2075.7626861968406,11656
2077.6829443463607,11940
2079.6027423308715,11818
2081.522080421977,11566
2083.440958891362,11762
2085.359378010786,11556
2087.2773380520907,11768
2089.194839287196,11666
2091.111881988101,11632
2093.0284664268825,11574
2094.9445928756973,11504
2096.86026160678,11746
2098.775472892446,11822
2100.690227005088,11510
2102.604524217178,11718
2104.5183648012676,11642
2106.431749029985,11807
2108.34467717604,11745
2110.2571495122206,11701
2112.169166311393,11722
2114.080727846503,11575
2115.9918343905747,11716
2117.902486216711,11631
2119.8126835980956,11486
2121.722426807987,11696
2123.6317161197285,11913
2125.5405518067364,11836
2127.448934142509,11762
2129.356863400624,11759
2131.264339854737,11910
2133.1713637785815,11987
2135.077935445972,11808
2136.9840551308002,12060
2138.889723107037,11913
2140.7949396487334,11911
2142.699705030018,11844
2144.6040195250994,11754
2146.507883408264,11843
2148.4112969538774,12048
2150.3142604363848,11940
2152.2167741303097,11919
2154.1188383102535,12102
2156.0204532508997,12025
2157.9216192270064,12055
2159.822336513414,12138
2161.7226053850413,12150
2163.622426116884,11995
2165.5217989840185,12031
2167.4207242616,12081
2169.319202224862,11900
2171.2172331491165,12081
2173.1148173097563,12015
2175.0119549822507,11925
2176.90864644215,11955
2178.8048919650823,12009
2180.7006918267534,12082
2182.596046302952,11989
2184.4909556695407,12051
2186.3854202024645,12172
2188.279440177746,12248
2190.173015871487,12083
2192.066147559868,11987
2193.958835519149,12286
2195.851080025667,12220
2197.7428813558417,12415
2199.6342397861667,12245
2201.5251555932186,12320
2203.415629053651,12282
2205.3056604441986,12319
2207.19525004167,12377
2209.084398122958,12231
2210.9731049650327,12285
2212.861370844941,12144
2214.749196039812,12611
2216.636580826851,12423
2218.523525483344,12253
2220.410030286655,12512
2222.296095514226,12479
2224.1817214435805,12371
2226.066908352319,12366
2227.951656518121,12310
2229.835966218746,12441
2231.71983773203,12453
2233.6032713358913,12300
2235.486267308324,12420
2237.3688259274036,12261
2239.2509474712824,12479
2241.132632218193,12487
2243.013880446447,12468
2244.8946924344323,12240
2246.7750684606203,12396
2248.6550088035574,12417
2250.534513741871,12381
2252.413583554265,12275
2254.292218519526,12160
2256.170418916517,12288
2258.0481850241786,12376
2259.925517121534,12464
2261.8024154876825,12312
2263.678880401803,12229
2265.5549121431536,12254
2267.430510991071,12341
2269.305677224971,12131
2271.180411124348,12273
2273.0547129687766,12256
2274.9285830379076,12313
2276.8020216114737,12448
2278.6750289692845,12405
2280.5476053912294,12537
2282.4197511572766,12384
2284.2914665474727,12507
2286.162751841943,12288
2288.0336073208937,12323
2289.904033264608,12361
2291.774029953448,12432
2293.6435976678554,12288
2295.5127366883517,12409
2297.381447295534,12567
2299.2497297700825,12376
2301.1175843927526,12501
2302.9850114443825,12466
2304.852011205885,12470
2306.7185839582553,12396
2308.5847299825664,12226
2310.4504495599676,12491
2312.3157429716925,12167
2314.1806104990483,12381
2316.0450524234247,12208
2317.9090690262888,12424
2319.772660589186,12579
2321.635827393742,12497
2323.498569721661,12626
2325.3608878547248,12448
2327.2227820747967,12477
2329.0842526638157,12344
2330.945299903803,12395
2332.805924076857,12517
2334.6661254651535,12388
2336.525904350951,12085
2338.3852610165827,12398
2340.244195744464,12433
2342.102708817088,12308
2343.9608005170253,12365
2345.8184711269287,12278
2347.675720929526,12432
2349.532550207628,12421
2351.38895924412,12490
2353.24494832197,12486
2355.100517724223,12368
2356.955667734004,12576
2358.810398634514,12425
2360.664710709037,12431
2362.5186042409337,12424
2364.3720795136437,12634
2366.225136810686,12582
2368.0777764156583,12584
2369.929998612237,12639
2371.7818036841777,12595
2373.633191915315,12425
2375.484163589562,12814
2377.3347189909114,12793
2379.184858403434,12505
2381.03458211128,12548
2382.8838903986775,12541
2384.732783549936,12566
2386.5812618494406,12587
2388.4293255816588,12674
2390.2769750311327,12722
2392.1242104824883,12504
2393.971032220427,12626
2395.8174405297295,12494
2397.6634356952563,12568
2399.509018001947,12621
2401.3541877348193,12662
2403.1989451789705,12649
2405.043290619576,12836
2406.8872243418905,12574
2408.730746631247,12715
2410.5738577730594,12795
2412.4165580528183,12670
2414.258847756095,12661
2416.100727168537,12547
2417.9421965758734,12463
2419.783256263912,12732
2421.623906518538,12542
2423.4641476257157,12567
2425.303979871491,12596
2427.143403541984,12645
2428.9824189233977,12428
2430.821026302012,12588
2432.6592259641866,12629
2434.497018196361,12607
2436.33440328505,12627
2438.171381516851,12837
2440.00795317844,12658
2441.844118556569,12704
2443.6798779380724,12772
2445.5152316098606,12721
2447.3501798589255,12734
2449.1847229723357,12688
2451.0188612372403,12870
2452.8525949408663,12494
2454.6859243705203,12698
2456.518849813587,12790
2458.3513715575314,12810
2460.183489889895,12758
2462.015205098301,12764
2463.8465174704493,12844
2465.67742729412,12659
2467.5079348571717,12730
2469.338040447542,12808
2471.1677443532476,12757
2472.9970468623833,12763
2474.825948263123,12579
2476.6544488437207,12933
2478.482548892508,12964
2480.310248697896,13024
2482.137548548374,12889
2483.9644487325118,12816
2485.790949538956,12984
2487.617051256433,12993
2489.44275417375,12935
2491.26805857979,12836
2493.0929647635157,12956
2494.917473013971,13037
2496.741583620276,12936
2498.5652968716304,13001
2500.3886130573137,12905
2502.2115324666834,12813
2504.0340553891765,13069
2505.856182114308,12992
2507.6779129316733,12802
2509.499248130945,13131
2511.3201880018764,13261
2513.140732834298,12981
2514.9608829181198,13081
2516.780638543331,12901
2518.6,12872
2520.418967578273,12859
2522.237541568376,12909
2524.0557222606144,13010
2525.8735099453706,13005
2527.6909049131086,13058
2529.507907454368,12984
2531.32451785977,13011
2533.140736420014,13049
2534.9565634258774,12938
2536.771999168218,13310
2538.5870439379714,13243
2540.4016980261526,13175
2542.2159617238544,13166
2544.02983532225,13345
2545.8433191125914,13334
2547.656413386209,13238
2549.4691184345115,13232
2551.2814345489874,13245
2553.093362021204,13050
2554.904901142808,13048
2556.716052205523,13358
2558.526815501153,13070
2560.3371913215824,13296
2562.147179958771,13276
2563.956781704761,13288
2565.7659968516705,13382
2567.5748256916986,13195
2569.3832685171224,13374
2571.1913256202984,13252
2572.9989972936614,13139
2574.806283829725,13176
2576.613185521084,13278
2578.4197026604074,13355
2580.2258355404483,13137
2582.031584454035,13044
2583.836949694077,13278
2585.6419315535613,13296
2587.4465303255533,13092
2589.2507463032002,13314
2591.0545797797245,13154
2592.8580310484303,13311
2594.6611004026995,13524
2596.463788135992,13423
2598.266094541849,13380
2600.0680199138874,13320
2601.869564545807,13307
2603.670728731383,13326
2605.4715127644704,13416
2607.2719169390048,13216
2609.071941548998,13402
2610.8715868885433,13296
2612.670853251811,13238
2614.469740933052,13283
2616.268250226594,13293
2618.0663814268455,13347
2619.864134828292,13535
2621.6615107255006,13416
2623.458509413115,13388
2625.2551311858597,13196
2627.0513763385347,13124
2628.8472451660223,13102
2630.6427379632833,13195
2632.4378550253564,13306
2634.232596647359,13165
2636.026963124488,13513
2637.8209547520187,13218
2639.6145718253065,13337
2641.407814639785,13359
2643.200683490966,13344
2644.9931786744414,13206
2646.7853004858807,13415
2648.577049221034,13241
2650.3684251757277,13390
2652.1594286458712,13439
2653.9500599274484,13047
2655.740319316525,13432
2657.5302071092437,13174
2659.3197236018286,13237
2661.10886909058,13247
2662.8976438718782,13195
2664.686048242183,13184
2666.4740824980327,13139
2668.2617469360443,13377
2670.0490418529134,13391
2671.8359675454153,13387
2673.622524310403,13444
2675.408712444811,13066
2677.1945322456495,13382
2678.979984010009,13231
2680.76506803506,13301
2682.5497846180497,13485
2684.334134056306,13175
2686.1181166472343,13146
2687.9017326883213,13332
2689.6849824771293,13413
2691.4678663113013,13242
2693.2503844885596,13299
2695.032537306705,13348
2696.8143250636167,13465
2698.5957480572542,13341
2700.3768065856534,13295
2702.1575009469316,13439
2703.937831439283,13255
2705.717798360982,13347
2707.4974020103837,13330
2709.276642685917,13245
2711.055520686095,13458
2712.834036309506,13261
2714.612189854819,13331
2716.389981620782,13289
2718.1674119062204,13161
2719.944481010041,13385
2721.721189231226,13263
2723.4975368688415,13267
2725.273524222027,13041
2727.0491515900053,13347
2728.824419272075,13261
2730.5993275676146,13354
2732.3738767760838,13327
2734.148067197016,13355
2735.921899130031,13295
2737.6953728748194,13432
2739.468488731156,13253
2741.2412469988926,13420
2743.0136479779617,13496
2744.785691968372,13322
2746.5573792702116,13440
2748.3287101836504,13601
2750.099685008934,13375
2751.870304046388,13382
2753.640567596418,13339
2755.4104759595057,13377
2757.1800294362156,13265
2758.949228327187,13430
2760.7180729331412,13369
2762.486563554877,13402
2764.254700493272,13399
2766.022484049284,13405
2767.789914523947,13383
2769.5569922183786,13442
2771.3237174337705,13463
2773.090090471394,13258
2774.8561116326036,13302
2776.6217812188274,13414
2778.3870995315756,13500
2780.1520668724356,13491
2781.9166835430747,13517
2783.6809498452394,13446
2785.444866080754,13514
2787.2084325515225,13425
2788.971649559527,13635
2790.73451740683,13544
2792.4970363955713,13557
2794.2592068279705,13568
2796.0210290063264,13659
2797.7825032330147,13607
2799.543629810493,13663
2801.304409041296,13412
2803.0648412280366,13589
2804.8249266734088,13651
2806.5846656801846,13626
2808.344058551212,13570
2810.1031055894246,13654
2811.8618070978273,13735
2813.6201633795085,13560
2815.378174737636,13624
2817.1358414754536,13891
2818.893163896285,13885
2820.6501423035334,13566
2822.4067770006814,13699
2824.1630682912883,13880
2825.9190164789957,13876
2827.6746218675207,13623
2829.429884760661,13748
2831.184805462294,13761
2832.9393842763743,13807
2834.693621506936,13600
2836.4475174580916,13530
2838.201072434034,13701
2839.954286739034,13756
2841.707160677441,13794
2843.459694553685,13662
2845.2118886722724,13770
2846.96374333779,13885
2848.7152588549034,13810
2850.4664355283567,13825
2852.217273662973,13986
2853.9677735636546,13819
2855.7179355353833,13835
2857.4677598832186,13714
2859.217246912299,13816
2860.9663969278427,13683
2862.715210235146,13874
2864.4636871395846,13683
2866.211827946614,13888
2867.9596329617652,13862
2869.7071024906536,13738
2871.4542368389684,13783
2873.20103631248,13627
2874.947501217038,13729
2876.6936318585695,13727
2878.4394285430812,13833
2880.1848915766604,13807
2881.9300212654707,13772
2883.6748179157553,13974
2885.4192818338374,13698
2887.1634133261173,13838
2888.907212699077,13888
2890.6506802592744,13776
2892.393816313348,13876
2894.1366211680142,13829
2895.8790951300693,14005
2897.621238506388,13906
2899.363051603925,13878
2901.1045347297118,14020
2902.8456881908596,13984
2904.58651229456,13935
2906.327007348081,13779
2908.067173658772,13793
2909.8070115340597,13718
2911.5465212814497,13548
2913.285703208527,13626
2915.0245576229563,13527
2916.7630848324807,13540
2918.5012851449196,13644
2920.2391588681758,13618
2921.976706310227,13699
2923.7139277791334,13821
2925.4508235830313,13958
2927.187394030137,13978
2928.923639428745,13866
2930.6595600872306,13992
2932.395156314046,14143
2934.1304284177218,14022
2935.8653767068713,13874
2937.6000014901815,13834
2939.3343030764227,14169
2941.068281774442,14256
2942.8019378931644,13944
2944.5352717415976,14186
2946.2682836288236,14009
2948.0009738640065,14154
2949.7333427563885,14075
2951.465390615289,13788
2953.1971177501086,14054
2954.9285244703265,13945
2956.6596110855,13937
2958.3903779052657,14001
2960.1208252393385,13943
2961.8509533975125,13989
2963.5807626896617,13899
2965.3102534257378,13963
2967.0394259157715,13852
2968.768280469873,14003
2970.496817398232,14069
2972.2250370111146,13884
2973.952939618869,14029
2975.6805255319196,14177
2977.4077950607707,14287
2979.134748516006,14426
2980.861386208289,14112
2982.587708448359,14037
2984.313715547037,14314
2986.039407815222,14295
2987.764785563891,14101
2989.489849104102,14223
2991.2145987469908,14268
2992.9390348037705,14081
2994.6631575857346,14180
2996.3869674042576,14172
2998.1104645707887,14102
2999.83364939686,13808
3001.5565221940783,13985
3003.2790832741334,14201
3005.0013329487924,14067
3006.7232715298996,14168
3008.4448993293804,14009
3010.166216659239,13943
3011.887223831558,14131
3013.607921158498,14035
3015.3283089522993,14121
3017.0483875252826,14233
3018.7681571898443,14049
3020.4876182584626,14033
3022.2067710436927,14070
3023.9256158581707,14344
3025.644153014609,14253
3027.362382825801,14274
3029.0803056046193,14418
3030.797921664012,14049
3032.5152313170106,14218
3034.2322348767225,14309
3035.9489326563353,14240
3037.665324969115,14207
3039.3814121284063,14055
3041.097194447633,14262
3042.812672240299,14201
3044.5278458199855,14468
3046.2427155003525,14349
3047.9572815951406,14304
3049.671544418167,14340
3051.38550428333,14056
3053.0991615046073,14239
3054.812516396051,14089
3056.5255692717974,14171
3058.2383204460575,14197
3059.9507702331257,13991
3061.662918947372,14099
3063.3747669032446,14313
3065.0863144152736,14277
3066.7975617980674,14410
3068.508509366309,14347
3070.219157434767,14310
3071.9295063182844,14337
3073.639556331785,14281
3075.3493077902704,14456
3077.058761008821,14491
3078.7679163025964,14147
3080.476773986837,14320
3082.1853343768594,14336
3083.89359778806,14397
3085.6015645359153,14373
3087.3092349359786,14264
3089.016609303884,14193
3090.7236879553434,14207
3092.4304712061476,14286
3094.136959372166,14397
3095.843152769349,14503
3097.5490517137237,14281
3099.2546565213966,14267
3100.959967508554,14436
3102.66498499146,14282
3104.3697092864577,14413
3106.0741407099695,14496
3107.778279578498,14226
3109.482126208622,14321
3111.1856809170004,14436
3112.8889440203716,14298
3114.5919158355528,14249
3116.294596679439,14610
3117.996986869006,14401
3119.6990867213062,14398
3121.4008965534726,14516
3123.102416682717,14531
3124.803647426329,14609
3126.5045891016784,14637
3128.205242026213,14360
3129.90560651746,14461
3131.605682893025,14557
3133.3054714705922,14555
3135.0049725679282,14461
3136.7041865028714,14535
3138.4031135933465,14525
3140.101754157353,14487
3141.800108512971,14530
3143.498176978357,14480
3145.1959598717494,14496
3146.8934575114636,14334
3148.5906702158954,14263
3150.2875983035183,14229
3151.9842420928853,14261
3153.680601902627,14338
3155.376678051456,14184
3157.07247085816,14168
3158.767980641609,14319
3160.463207720748,14376
3162.158152414606,14332
3163.8528150422862,14432
3165.5471959229726,14470
3167.2412953759303,14443
3168.9351137204976,14456
3170.628651276098,14596
3172.3219083622307,14545
3174.014885298474,14559
3175.707582404485,14751
3177.4000000000005,14558
3179.092138404835,14482
3180.7839979388846,14857
3182.47557892212,14742
3184.166881674594,14712
3185.8579065164386,14651
3187.5486537678626,14800
3189.2391237491547,14564
3190.9293167806827,14632
3192.6192331828934,14661
3194.3088732763117,14708
3195.998237381542,14598
3197.687325819268,14413
3199.376138910251,14726
3201.064676975334,14704
3202.7529403354347,14545
3204.4409293115523,14588
3206.1286442247647,14561
3207.816085396229,14414
3209.5032531471825,14333
3211.190147798936,14524
3212.8767696728846,14463
3214.5631190905015,14284
3216.2491963733373,14178
3217.9350018430214,14145
3219.6205358212637,14218
3221.305798629851,14224
3222.990790590651,14401
3224.6755120256103,14296
3226.359963256751,14338
3228.0441446061795,14245
3229.7280563960758,14517
3231.411698948703,14611
3233.0950725863995,14732
3234.778177631587,14648
3236.461014406761,14751
3238.1435832345005,14756
3239.8258844374595,14629
3241.507918338374,14643
3243.1896852600576,14864
3244.8711855254023,14416
3246.552419457381,14629
3248.233387379042,14589
3249.914089613516,14887
3251.59452648401,14756
3253.274698313813,14812
3254.95460542629,14657
3256.6342481448855,14610
3258.313626793125,14544
3259.9927416946084,14484
3261.6715931730196,14562
3263.3501815521176,14511
3265.0285071557437,14324
3266.706570307815,14622
3268.3843713323286,14493
3270.0619105533615,14532
3271.739188295068,14635
3273.4162048816834,14799
3275.0929606375184,14730
3276.769455886966,14711
3278.445690954498,14939
3280.1216661646613,14950
3281.797381842087,14797
3283.4728383114807,14994
3285.1480358976296,14926
3286.8229749253996,14667
3288.4976557197333,14648
3290.172078605655,14745
3291.846243908266,14415
3293.5201519527463,14342
3295.193803064357,14460
3296.8671975684374,14351
3298.5403357904024,14639
3300.21321805575,14680
3301.8858446900567,14637
3303.558216018975,14862
3305.23033236824,14768
3306.9021940636603,14964
3308.57380143113,14980
3310.2451547966184,14823
3311.916254486174,14901
3313.5871008259246,15002
3315.2576941420766,14764
3316.9280347609147,14826
3318.5981230088046,14708
3320.2679592121895,14511
3321.9375436975924,14736
3323.606876791612,14468
3325.27595882093,14660
3326.944790112305,14610
3328.6133709925753,14838
3330.2817017886573,14685
3331.949782827547,14838
3333.617614436319,14828
3335.2851969421245,14956
3336.952530672199,14921
3338.619615953853,15117
3340.286453114475,14996
3341.9530424815357,15073
3343.619384382583,15048
3345.2854791452437,15087
3346.951327097224,15028
3348.6169285663073,14935
3350.2822838803577,15018
3351.947393367319,15011
3353.61225735521,15203
3355.2768761721345,14990
3356.9412501462693,14924
3358.605379605873,14836
3360.2692648792827,15051
3361.9329062949146,15178
3363.596304181263,15111
