CollectionTime,7/11/2024 12:11:51 PM
ExposureUsed,3
CalibratedSpectrum
-962.7078968117929,572
-959.9714848408522,612
-957.2358232597828,584
-954.5009119013725,565
-951.7667505983302,570
-949.0333391832855,573
-946.3006774887896,595
-943.5687653473143,587
-940.837602591253,581
-938.1071890529199,584
-935.3775245645503,599
-932.6486089583007,620
-929.9204420662485,641
-927.1930237203925,602
-924.4663537526524,598
-921.7404319948689,563
-919.0152582788041,632
-916.2908324361409,654
-913.5671542984834,600
-910.8442236973568,606
-908.1220404642074,581
-905.4006044304027,614
-902.679915427231,605
-899.959973285902,605
-897.2407778375464,624
-894.5223289132158,588
-891.8046263438832,607
-889.0876699604426,568
-886.3714595937089,596
-883.6559950744183,601
-880.9412762332282,613
-878.2273029007168,556
-875.5140749073835,558
-872.8015920836489,602
-870.0898542598545,571
-867.3788612662631,590
-864.6686129330585,605
-861.9591090903457,620
-859.2503495681506,602
-856.5423341964203,584
-853.8350628050229,609
-851.1285352237478,551
-848.4227512823054,571
-845.7177108103272,573
-843.0134136373656,606
-840.3098595928943,652
-837.6070485063082,678
-834.9049802069229,645
-832.2036545239757,612
-829.5030712866244,617
-826.8032303239481,638
-824.1041314649472,606
-821.4057745385428,597
-818.7081593735775,571
-816.0112857988148,602
-813.3151536429393,584
-810.6197627345566,570
-807.9251129021936,545
-805.2312039742981,563
-802.5380357792392,595
-799.8456081453069,599
-797.1539209007124,604
-794.462973873588,638
-791.772766891987,631
-789.083299783884,623
-786.3945723771743,576
-783.7065844996748,615
-781.0193359791231,609
-778.3328266431781,629
-775.6470563194197,598
-772.9620248353489,595
-770.2777320183878,647
-767.5941776958798,594
-764.9113616950891,634
-762.2292838432011,642
-759.5479439673222,616
-756.8673418944801,600
-754.1874774516235,614
-751.5083504656222,610
-748.8299607632671,635
-746.15230817127,621
-743.475392516264,607
-740.7992136248035,648
-738.1237713233636,613
-735.4490654383407,606
-732.7750957960521,687
-730.1018622227365,662
-727.4293645445534,623
-724.7576025875837,613
-722.0865761778291,659
-719.4162851412126,668
-716.7467293035781,670
-714.0779084906909,654
-711.409822528237,640
-708.7424712418238,643
-706.0758544569796,641
-703.4099719991541,655
-700.7448236937178,706
-698.0804093659622,671
-695.4167288411002,690
-692.7537819442656,656
-690.0915685005134,655
-687.4300883348199,623
-684.7693412720819,651
-682.1093271371178,664
-679.4500457546669,644
-676.7914969493897,695
-674.1336805458676,655
-671.4765963686034,665
-668.8202442420206,745
-666.1646239904642,678
-663.5097354382001,717
-660.8555784094151,683
-658.2021527282176,663
-655.5494582186366,682
-652.8974947046223,682
-650.2462620100463,705
-647.5957599587009,716
-644.9459883742998,718
-642.2969470804776,698
-639.6486359007902,709
-637.0010546587141,743
-634.3542031776476,720
-631.7080812809096,682
-629.0626887917401,710
-626.4180255333008,725
-623.7740913286734,733
-621.1308860008619,694
-618.4884093727904,773
-615.8466612673046,726
-613.2056415071715,661
-610.5653499150785,723
-607.9257863136347,704
-605.28695052537,707
-602.6488423727357,707
-600.0114616781036,756
-597.3748082637674,754
-594.7388819519412,743
-592.1036825647604,840
-589.4692099242818,835
-586.8354638524829,769
-584.2024441712624,778
-581.5701507024403,747
-578.9385832677575,727
-576.3077416888759,744
-573.6776257873787,778
-571.0482353847704,719
-568.4195703024757,755
-565.7916303618415,735
-563.164415384135,750
-560.5379251905453,755
-557.9121596021815,691
-555.2871184400748,712
-552.6628015251767,754
-550.0392086783606,702
-547.4163397204204,750
-544.794194472071,741
-542.1727727539491,810
-539.5520743866118,867
-536.9320991905377,808
-534.3128469861261,844
-531.6943175936979,840
-529.0765108334947,874
-526.4594265256793,919
-523.8430644903358,986
-521.2274245474689,1121
-518.612506517005,1166
-515.9983102187913,1088
-513.3848354725959,1160
-510.77208209810846,1218
-508.16004991493924,1266
-505.5487387426199,1417
-502.9381484006032,1560
-500.3282787082628,1541
-497.71912948489364,1542
-495.1107005497117,1473
-492.5029917218539,1320
-489.8960028203786,1183
-487.28973366426493,1090
-484.68418407241325,1035
-482.07935386364494,1005
-479.47524285670266,938
-476.87185087025,965
-474.2691777228715,932
-471.66722323307334,960
-469.0659872192821,936
-466.4654694998459,945
-463.86566989303384,945
-461.26658821703614,975
-458.66822428996414,946
-456.07057792985,977
-453.4736489546475,960
-450.877437182231,907
-448.28194243039627,909
-445.68716451686,878
-443.09310325926003,874
-440.49975847515555,931
-437.9071299820263,873
-435.31521759727354,887
-432.72402113821954,991
-430.13354042210767,999
-427.5437752661022,955
-424.95472548728867,965
-422.36639090267386,946
-419.7787713291855,1111
-417.1918665836721,1146
-414.60567648290385,1056
-412.0202008435715,996
-409.4354394822874,1019
-406.8513922155845,1103
-404.26805885991723,1052
-401.685439231661,1064
-399.103533147112,1067
-396.522340422488,979
-393.9418608739278,954
-391.3620943174908,965
-388.7830405691583,956
-386.2046994448317,897
-383.6270707603344,890
-381.05015433141045,823
-378.473949973725,815
-375.8984575028645,781
-373.32367673433623,749
-370.74960748356875,714
-368.1762495659117,719
-365.60360279663576,670
-363.03166699093265,603
-360.4604419639154,580
-357.8899275306178,563
-355.32012350599507,543
-352.7510297049233,508
-350.1826459421999,483
-347.61497203254316,481
-345.04800779059235,516
-342.4817530309082,570
-339.91620756797226,560
-337.35137121618743,577
-334.7872437898774,651
-332.22382510328725,653
-329.66111497058273,567
-327.09911320585127,583
-324.53781962310075,614
-321.9772340362607,559
-319.4173562591816,539
-316.8581861056348,523
-314.2997233893127,505
-311.7419679238294,485
-309.1849195227194,488
-306.62857799943856,570
-304.0729431673641,646
-301.51801483979375,688
-298.963792829947,705
-296.41027695096386,633
-293.85746701590574,619
-291.3053628377552,620
-288.7539642294155,662
-286.2032710037115,657
-283.65328297338897,621
-281.1039999511146,665
-278.5554217494762,686
-276.007548180983,658
-273.4603790580651,590
-270.9139141930734,585
-268.3681533982807,558
-265.8230964858798,611
-263.27874326798565,728
-260.7350935566336,733
-258.1921471637804,742
-255.6499039013039,771
-253.10836358100266,737
-250.56752601459698,728
-248.02739101372765,699
-245.48795838995704,708
-242.94922795476816,693
-240.41119951956557,645
-237.8738728956746,679
-235.33724789434166,746
-232.80132432673452,656
-230.2661020039418,661
-227.73158073697357,711
-225.19776033676033,754
-222.66464061415422,800
-220.1322213799284,742
-217.60050244477725,706
-215.06948361931552,701
-212.53916471408013,701
-210.00954553952818,797
-207.48062590603843,883
-204.9524056239104,828
-202.4248845033651,879
-199.8980623545441,896
-197.37193898751036,857
-194.84651421224817,804
-192.32178783866232,793
-189.79775967657952,837
-187.27442953574644,831
-184.7517972258321,910
-182.2298625564256,963
-179.7086253370378,1012
-177.18808537710026,929
-174.66824248596583,809
-172.14909647290835,783
-169.6306471471229,893
-167.11289431772548,961
-164.59583779375328,875
-162.07947738416453,843
-159.5638128978386,930
-157.04884414357605,1050
-154.53457093009854,1115
-152.02099306604828,1056
-149.50811035998936,937
-146.99592262040665,859
-144.48442965570587,851
-141.97363127421409,1012
-139.46352728417958,1190
-136.95411749377126,1247
-134.44540171107985,1226
-131.93737974411636,1076
-129.43005140081357,1157
-126.92341648902493,1286
-124.41747481652521,1449
-121.91222619101006,1520
-119.40767042009657,1675
-116.90380731132257,1746
-114.40063667214702,1901
-111.8981583099503,1894
-109.3963720320337,1602
-106.89527764561933,1564
-104.39487495785067,2135
-101.89516377579241,2804
-99.39614390642998,2882
-96.89781515667039,2772
-94.40017733334128,2421
-91.90323024319173,3190
-89.40697369289148,6616
-86.91140748903172,10076
-84.41653143812482,9351
-81.92234534660395,7459
-79.42884902082358,5400
-76.93604226705907,7811
-74.4439248915071,16409
-71.95249670028534,28617
-69.46175749943245,34550
-66.97170709490854,35255
-64.48234529259423,30759
-61.99367189829195,27523
-59.50568671772464,21507
-57.01838955653636,17986
-54.53178022029283,16014
-52.045858514480074,17142
-49.560624244506016,17397
-47.07607721569923,16154
-44.59221723330904,16591
-42.10904410250669,15754
-39.62655762838392,11792
-37.14475761595372,11893
-34.66364387015028,12721
-32.18321619582866,11854
-29.70347439776515,10642
-27.224418280657005,10148
-24.74604764912317,10464
-22.26836230770266,16336
-19.7913620608565,34595
-17.315046712966478,63701
-14.83941606833514,65038
-12.36446993118659,65038
-9.89020810566592,65038
-7.416630395839093,65038
-4.94373660569363,65038
-2.471526539137585,65038
-6.821210263296962E-13,65038
2.47084320796705,65038
4.941003281093458,65038
7.410480415786196,65038
9.879274808531363,65038
12.347386655893956,65038
14.814816154518212,65038
17.28156350112681,65038
19.74762889252179,65038
22.21301252558385,65038
24.67771459727237,22552
27.141735304626195,5468
29.605074844762612,3335
32.06773341487792,3450
34.52971121224755,3333
36.99100843422559,3371
39.45162527824516,3230
41.91156194181792,2412
44.370818622535126,2082
46.82939551806646,1975
49.287292826160524,2210
51.74451074464503,3021
54.201049471426245,3691
56.65690920448981,3082
59.112090141899785,2219
61.56659248179983,1799
64.02041642241159,1627
66.4735621620365,1527
68.92602989905402,1459
71.37781983192338,1563
73.82893215918205,1750
76.27936707944684,1965
78.72912479141326,1808
81.17820549385567,1800
83.62660938562783,2049
86.07433666566146,2076
88.5213875329681,1558
90.96776218663751,1323
93.41346082583925,1154
95.85848364982041,1213
98.30283085790859,1359
100.7465026495089,1571
103.18949922410604,1591
105.63182078126385,1770
108.07346752062438,1916
110.51443964190923,1725
112.95473734491827,1592
115.39436082953114,1744
117.83331029570547,1483
120.27158594347827,1391
122.7091879729652,1509
125.1461165843615,1647
127.58237197794062,1474
130.01795435405518,1228
132.4528639131364,1144
134.88710085569494,1078
137.32066538231982,931
139.75355769367923,959
142.1857779905207,1057
144.61732647366978,1126
147.04820334403132,929
149.47840880258934,879
151.90794305040674,1103
154.33680628862487,1315
156.76499871846443,1532
159.19252054122433,1647
161.61937195828352,1597
164.04555317109896,1775
166.47106438120693,2016
168.89590579022217,2261
171.320077599839,2314
173.7435800118302,2288
176.16641322804742,2437
178.58857745042144,2529
181.01007288096173,2580
183.43089972175687,2441
185.85105817497413,2357
188.27054844285988,2318
190.6893707277394,2388
193.10752523201643,2545
195.5250121581745,2714
197.9418317087751,2712
200.3579840864594,2691
202.7734694939469,2682
205.18828813403627,2654
207.6024402096051,2784
210.01592592360964,2895
212.42874547908548,2760
214.84089907914665,2705
217.2523869269868,2767
219.66320922587727,2849
222.0733661791695,2728
224.48285799029293,2684
226.8916848627572,2678
229.29984700014882,2770
231.7073446061355,2795
234.11417788446204,2721
236.520347038953,2775
238.92585227351185,2883
241.33069379212054,2949
243.73487179884035,3040
246.1383864978112,3001
248.541238093252,2947
250.9434267894609,3087
253.34495279081432,3032
255.74581630176783,3042
258.1460175268563,3021
260.54555667069314,3014
262.9444339379703,3077
265.3426495334594,2994
267.7402036620107,2953
270.1370965285529,2962
272.53332833809407,2849
274.9288992957214,2647
277.32380960660055,2645
279.718059475976,2614
282.1116491091717,2639
284.5045787115897,2511
286.89684848871195,2598
289.2884586460981,2453
291.67940938938807,2576
294.0697009242996,2603
296.4593334566299,2479
298.84830719225477,2590
301.23662233712923,2478
303.6242790972866,2551
306.01127767884,2505
308.39761828798066,2527
310.78330113097934,2438
313.16832641418534,2464
315.5526943440269,2295
317.9364051270112,2291
320.3194589697242,2391
322.70185607883093,2285
325.0835966610754,2364
327.4646809232805,2271
329.8451090723478,2222
332.2248813152577,2215
334.6039978590701,2222
336.9824589109231,2145
339.36026467803447,2144
341.7374153677,2177
344.113911187295,2209
346.48975234427337,2258
348.8649390461686,2166
351.2394715005918,2173
353.61334991523415,2186
355.9865744978655,2025
358.35914545633375,2119
360.73106299856715,2146
363.10232733257146,2215
365.47293866643247,2079
367.84289720831396,2056
370.2122031664593,2040
372.5808567491905,2097
374.9488581649083,2032
377.31620762209275,2001
379.6829053293021,2022
382.0489514951745,1972
384.4143463284262,1927
386.7790900378528,2039
389.14318283232853,2118
391.50662492080653,2045
393.86941651231916,2230
396.23155781597745,2151
398.5930490409713,2088
400.9538903965696,2091
403.3140820921202,2103
405.6736243370498,2044
408.03251734086336,2059
410.3907613131465,1919
412.74835646356166,1976
415.10530300185144,1922
417.4616011378372,1925
419.81725108141893,1960
422.1722530425758,1965
424.5266072313656,1852
426.880313857925,1990
429.2333731324701,1956
431.58578526529516,1916
433.9375504667738,1904
436.2886689473588,1935
438.63914091758113,1914
440.9889665880513,1878
443.33814616945835,1944
445.68667987257015,1858
448.03456790823395,1875
450.3818104873759,1879
452.72840782100013,1890
455.07436012019105,1860
457.41966759611057,1847
459.7643304600007,1942
462.10834892318155,1922
464.4517231970525,1874
466.79445349309174,1872
469.1365400228566,1875
471.4779829979826,1903
473.81878263018564,1882
476.15893913125876,1909
478.4984527130747,1943
480.8373235875855,2006
483.17555196682144,2037
485.5131380628919,2087
487.8500820879857,2122
490.1863842543697,2284
492.52204477439034,2450
494.8570638604725,2578
497.1914417251204,2856
499.52517858091653,3127
501.85827464052306,3279
504.19073011668036,3287
506.5225452222086,3184
508.85372017000566,3230
511.18425517304956,3116
513.514150444396,3226
515.8434061971808,3915
518.1720226446176,4605
520.4999999999999,4660
522.8273384766991,4522
525.1540382881666,4229
527.480099647932,3754
529.8055227696037,3151
532.1303078668694,2504
534.454455153496,2211
536.777964843328,2105
539.1008371502907,2053
541.4230722883866,1924
543.744670471698,1913
546.0656319143858,1944
548.3859568306899,1961
550.7056454349294,1942
553.0246979415016,1888
555.3431145648834,1880
557.6608955196306,1838
559.978041020377,1843
562.2945512818363,1855
564.6104265188006,1949
566.9256669461412,1853
569.2402727788082,1883
571.5542442318302,1900
573.8675815203156,1967
576.1802848594508,1961
578.4923544645015,1933
580.8037905508126,1875
583.114593333807,1918
585.4247630289875,1917
587.7342998519354,1905
590.0432040183106,1896
592.3514757438526,1933
594.6591152443794,1867
596.9661227357875,1892
599.2724984340531,1901
601.578242555231,1892
603.8833553154542,1885
606.1878369309362,1811
608.4916876179676,1891
610.7949075929192,1888
613.0974970722403,1902
615.3994562724587,1899
617.7007854101818,1903
620.0014847020951,1911
622.3015543649641,1855
624.6009946156324,1964
626.8998056710224,1897
629.1979877481361,1859
631.4955410640538,1849
633.7924658359349,1894
636.0887622810175,1886
638.3844306166192,1946
640.6794710601358,1927
642.9738838290426,1947
645.2676691408932,1899
647.5608272133207,1918
649.853358264037,2073
652.1452625108324,1891
654.4365401715764,1994
656.7271914642178,1930
659.0172166067838,1946
661.3066158173809,1972
663.5953893141935,2026
665.8835373154867,1928
668.1710600396028,1936
670.4579577049639,1963
672.7442305300709,1937
675.0298787335033,1943
677.3149025339197,1880
679.599302150058,1871
681.8830778007342,1874
684.1662297048437,1945
686.4487580813608,1966
688.7306631493387,1983
691.0119451279091,1968
693.2926042362834,1969
695.5726406937516,1959
697.8520547196814,1870
700.1308465335215,1948
702.4090163547982,1996
704.6865644031171,1960
706.9634908981619,1937
709.2397960596965,1942
711.5154801075631,1932
713.7905432616823,1918
716.0649857420548,1879
718.3388077687592,1945
720.612009561953,1864
722.8845913418733,1918
725.1565533288352,1999
727.427895743234,1930
729.6986188055427,2028
731.9687227363137,1949
734.238207756178,2020
736.5070740858458,1890
738.7753219461066,1841
741.0429515578281,1944
743.3099631419569,1952
745.5763569195191,1970
747.8421331116193,1919
750.1072919394409,1859
752.3718336242467,1976
754.6357583873777,1981
756.8990664502545,1901
759.1617580343765,1900
761.423833361321,1925
763.6852926527457,1912
765.9461361303862,1986
768.206364016058,1993
770.4659765316536,2015
772.7249738991469,2014
774.9833563405886,1998
777.2411240781092,1991
779.4982773339183,1960
781.7548163303044,2036
784.010741289634,2030
786.2660524343538,2086
788.5207499869881,1988
790.7748341701416,1977
793.0283052064964,1931
795.2811633188143,1903
797.5334087299362,2019
799.7850416627813,2018
802.0360623403484,1915
804.2864709857143,1964
806.5362678220353,1914
808.7854530725468,1971
811.0340269605625,1947
813.2819897094754,1946
815.5293415427581,2006
817.77608268396,1969
820.0222133567116,2043
822.2677337847211,1978
824.5126441917765,2016
826.7569448017433,1993
829.0006358385675,1915
831.2437175262731,1974
833.4861900889629,1996
835.7280537508192,2028
837.9693087361026,2022
840.2099552691533,1999
842.4499935743896,1984
844.689423876309,1974
846.9282463994886,1910
849.1664613685833,1920
851.4040690083276,1934
853.6410695435349,1965
855.877463199097,1959
858.1132501999847,2036
860.3484307712487,2003
862.5830051380175,2001
864.8169735254988,1986
867.0503361589791,2022
869.2830932638243,2078
871.5152450654786,2084
873.7467917894654,1962
875.9777336613873,1946
878.2080709069252,2071
880.4378037518389,2011
882.666932421968,2016
884.8954571432301,2036
887.1233781416219,2072
889.3506956432192,2025
891.5774098741766,2020
893.803521060728,1988
896.0290294291852,1974
898.2539352059397,1981
900.4782386174619,1960
902.7019398903011,2060
904.925039251085,2090
907.147536926521,2110
909.3694331433943,2006
911.59072812857,2037
913.8114221089921,2040
916.0315153116827,1930
918.2510079637437,2026
920.4699002923547,1981
922.6881925247761,1876
924.905884888345,2026
927.1229776104793,1975
929.3394709186747,1959
931.555365040506,1947
933.7706602036275,1965
935.9853566357709,1976
938.1994545647489,1983
940.4129542184515,2003
942.6258558248488,1969
944.8381596119883,2008
947.0498658079974,1973
949.2609746410825,1911
951.4714863395287,1965
953.6814011316998,1965
955.8907192460387,1962
958.0994409110671,1926
960.3075663553858,1928
962.5150958076741,1947
964.7220294966913,1889
966.928367651274,1939
969.1341105003388,1900
971.3392582728806,1851
973.5438111979742,1909
975.747769504772,1876
977.9511334225061,1880
980.153903180487,1860
982.3560790081052,1822
984.5576611348289,1809
986.7586497902058,1844
988.9590452038618,1864
991.158847605503,1798
993.3580572249133,1839
995.5566742919558,1862
997.7546990365728,1850
999.952131688785,1734
1002.1489724786926,1656
1004.3452216364743,1707
1006.5408793923874,1700
1008.7359459767691,1649
1010.9304216200343,1627
1013.1243065526781,1698
1015.3176010052733,1665
1017.510305208472,1600
1019.7024193930064,1640
1021.8939437896848,1730
1024.0848786293977,1633
1026.2752241431122,1602
1028.4649805618747,1556
1030.6541481168115,1663
1032.842727039127,1650
1035.0307175601051,1621
1037.2181199111074,1534
1039.4049343235752,1580
1041.591161029029,1616
1043.7768002590683,1647
1045.9618522453698,1624
1048.1463172196918,1599
1050.3301954138697,1540
1052.513487059818,1622
1054.69619238953,1552
1056.8783116350783,1585
1059.0598450286152,1494
1061.2407928023704,1535
1063.4211551886528,1539
1065.6009324198508,1594
1067.780124728432,1551
1069.9587323469414,1591
1072.1367555080046,1565
1074.314194444325,1536
1076.4910493886855,1605
1078.667320573947,1547
1080.843008233051,1528
1083.0181125990161,1513
1085.1926339049414,1514
1087.3665723840027,1540
1089.5399282694575,1530
1091.7127017946405,1519
1093.8848931929647,1469
1096.0565026979243,1540
1098.2275305430899,1558
1100.3979769621128,1464
1102.567842188722,1490
1104.737126456726,1548
1106.9058300000124,1476
1109.0739530525475,1463
1111.2414958483764,1559
1113.4084586216231,1498
1115.5748416064907,1471
1117.7406450372605,1487
1119.9058691482942,1501
1122.0705141740304,1467
1124.2345803489884,1500
1126.3980679077658,1521
1128.5609770850388,1504
1130.7233081155623,1539
1132.8850612341707,1502
1135.0462366757774,1483
1137.2068346753745,1480
1139.3668554680326,1497
1141.526299288901,1470
1143.68516637321,1454
1145.8434569562655,1463
1148.001171273455,1439
1150.158309560244,1439
1152.3148720521767,1439
1154.470858984876,1479
1156.626270594044,1395
1158.7811071154629,1424
1160.9353687849912,1380
1163.089055838569,1404
1165.242168512213,1421
1167.3947070420209,1455
1169.5466716641677,1373
1171.6980626149075,1399
1173.8488801305748,1396
1175.9991244475814,1411
1178.1487958024186,1446
1180.2978944316555,1477
1182.4464205719428,1457
1184.5943744600072,1483
1186.7417563326567,1461
1188.8885664267755,1403
1191.0348049793297,1426
1193.1804722273619,1394
1195.325568407995,1420
1197.4700937584303,1468
1199.614048515948,1479
1201.7574329179074,1469
1203.900247201746,1402
1206.042491604982,1457
1208.1841663652099,1430
1210.3252717201053,1487
1212.465807907422,1407
1214.6057751649923,1470
1216.7451737307279,1358
1218.8840038426192,1456
1221.0222657387353,1473
1223.1599596572241,1429
1225.2970858363137,1463
1227.4336445143094,1446
1229.5696359295966,1477
1231.705060320639,1471
1233.8399179259786,1495
1235.9742089842384,1517
1238.107933734118,1532
1240.2410924143974,1529
1242.373685263935,1474
1244.5057125216676,1503
1246.6371744266116,1492
1248.7680712178621,1522
1250.898403134593,1517
1253.028170416058,1490
1255.1573733015875,1515
1257.2860120305932,1493
1259.4140868425648,1487
1261.54159797707,1450
1263.6685456737569,1501
1265.7949301723515,1459
1267.9207517126597,1489
1270.046010534565,1574
1272.1707068780306,1530
1274.2948409830983,1514
1276.4184130898889,1472
1278.541423438603,1546
1280.6638722695184,1532
1282.785759822993,1486
1284.9070863394636,1526
1287.0278520594447,1534
1289.1480572235314,1529
1291.2677020723963,1512
1293.3867868467923,1524
1295.5053117875495,1591
1297.623277135579,1628
1299.740683131868,1583
1301.8575300174857,1579
1303.973818033578,1604
1306.0895474213703,1650
1308.2047184221678,1633
1310.3193312773528,1595
1312.4333862283888,1520
1314.5468835168163,1644
1316.659823384255,1554
1318.7722060724045,1573
1320.8840318230418,1688
1322.9953008780249,1551
1325.1060134792888,1635
1327.2161698688478,1624
1329.3257702887959,1592
1331.4348149813054,1663
1333.5433041886276,1617
1335.6512381530933,1669
1337.7586171171101,1584
1339.8654413231675,1610
1341.9717110138317,1591
1344.0774264317488,1618
1346.1825878196432,1645
1348.2871954203192,1599
1350.3912494766587,1607
1352.4947502316231,1592
1354.5976979282532,1587
1356.7000928096686,1566
1358.8019351190665,1597
1360.9032250997243,1597
1363.0039629949988,1566
1365.1041490483235,1568
1367.2037835032133,1607
1369.3028666032606,1547
1371.401398592137,1566
1373.4993797135926,1581
1375.5968102114575,1563
1377.6936903296396,1511
1379.7900203121262,1658
1381.8858004029835,1610
1383.9810308463561,1589
1386.075711886469,1567
1388.1698437676241,1571
1390.2634267342032,1589
1392.356461030667,1626
1394.4489469015557,1606
1396.5408845914872,1649
1398.6322743451592,1653
1400.7231164073469,1601
1402.813411022907,1687
1404.903158436773,1638
1406.9923588939578,1639
1409.0810126395531,1663
1411.1691199187303,1646
1413.2566809767386,1629
1415.343696058907,1619
1417.4301654106425,1666
1419.5160892774315,1686
1421.6014679048399,1716
1423.6863015385125,1766
1425.7705904241707,1723
1427.8543348076178,1713
1429.9375349347342,1702
1432.0201910514802,1745
1434.102303403894,1775
1436.1838722380944,1805
1438.2648978002767,1856
1440.3453803367174,1783
1442.4253200937692,1805
1444.5047173178677,1759
1446.5835722555234,1790
1448.6618851533285,1921
1450.739656257952,1893
1452.8168858161434,1852
1454.8935740747306,1907
1456.96972128062,1938
1459.045327680797,1986
1461.120393522327,1984
1463.1949190523528,2024
1465.2689045180973,1975
1467.3423501668608,2083
1469.415256246024,2107
1471.4876230030463,2105
1473.559450685465,2136
1475.6307395408976,2150
1477.7014898170391,2192
1479.771701761665,2232
1481.8413756226287,2271
1483.9105116478618,2273
1485.9791100853772,2303
1488.0471711832643,2380
1490.1146951896926,2352
1492.1816823529098,2321
1494.2481329212433,2418
1496.3140471430984,2454
1498.3794252669609,2432
1500.4442675413939,2452
1502.5085742150404,2454
1504.572345536622,2492
1506.6355817549388,2501
1508.6982831188702,2578
1510.7604498773744,2621
1512.8220822794883,2557
1514.8831805743293,2535
1516.9437450110909,2568
1519.003775839048,2589
1521.0632733075522,2629
1523.1222376660367,2601
1525.1806691640113,2628
1527.2385680510652,2698
1529.2959345768668,2609
1531.3527689911643,2726
1533.4090715437833,2692
1535.4648424846291,2804
1537.5200820636855,2788
1539.5747905310159,2895
1541.6289681367616,2834
1543.6826151311434,2887
1545.7357317644614,2863
1547.7883182870937,2917
1549.8403749494987,2892
1551.8919020022113,3035
1553.9428996958477,2980
1555.9933682811015,3037
1558.0433080087469,3024
1560.0927191296346,3073
1562.1416018946961,3202
1564.1899565549415,3109
1566.2377833614592,3167
1568.2850825654164,3079
1570.3318544180606,3075
1572.3780991707158,2935
1574.423817074788,2811
1576.4690083817595,2801
1578.5136733431923,2686
1580.5578122107272,2630
1582.601425236085,2556
1584.6445126710646,2424
1586.6870747675434,2247
1588.7291117774776,2162
1590.7706239529034,2126
1592.8116115459347,2154
1594.8520748087658,2062
1596.8920139936686,2046
1598.9314293529933,1985
1600.9703211391711,1916
1603.008689604711,1889
1605.0465350022005,1839
1607.0838575843068,1769
1609.1206576037753,1789
1611.1569353134305,1779
1613.1926909661765,1733
1615.2279248149953,1624
1617.2626371129481,1678
1619.2968281131757,1662
1621.3304980688963,1649
1623.3636472334088,1618
1625.39627586009,1654
1627.428384202396,1593
1629.459972513861,1630
1631.4910410480993,1585
1633.5215900588028,1575
1635.551619799744,1524
1637.5811305247717,1618
1639.6101224878166,1565
1641.6385959428862,1570
1643.6665511440683,1588
1645.693988345528,1598
1647.7209078015112,1578
1649.7473097663405,1576
1651.7731944944203,1579
1653.7985622402307,1527
1655.823413258333,1540
1657.847747803366,1542
1659.8715661300494,1562
1661.8948684931793,1504
1663.9176551476316,1540
1665.9399263483624,1498
1667.9616823504057,1503
1669.982923408873,1515
1672.0036497789574,1509
1674.0238617159293,1530
1676.043559475138,1520
1678.0627433120121,1515
1680.081413482059,1488
1682.0995702408654,1503
1684.117213844096,1497
1686.134344547495,1549
1688.1509626068864,1474
1690.1670682781705,1515
1692.182661817329,1464
1694.1977434804217,1481
1696.2123135235875,1525
1698.226372203043,1507
1700.2399197750851,1458
1702.2529564960905,1485
1704.2654826225112,1516
1706.277498410882,1426
1708.2890041178139,1479
1710.2999999999988,1483
1712.3104863142066,1459
1714.3204633172854,1486
1716.329931266163,1506
1718.3388904178469,1476
1720.3473410294214,1498
1722.3552833580516,1480
1724.3627176609807,1472
1726.3696441955308,1452
1728.3760632191033,1476
1730.3819749891782,1526
1732.3873797633146,1435
1734.3922777991502,1484
1736.3966693544012,1403
1738.4005546868639,1427
1740.4039340544127,1415
1742.406807715001,1484
1744.4091759266616,1456
1746.4110389475054,1426
1748.4123970357223,1436
1750.413250449582,1398
1752.4135994474318,1430
1754.4134442876993,1475
1756.4127852288902,1472
1758.4116225295893,1386
1760.4099564484595,1400
1762.407787244244,1425
1764.405115175764,1420
1766.4019405019203,1437
1768.3982634816916,1487
1770.3940843741357,1373
1772.3894034383907,1410
1774.3842209336717,1391
1776.378537119274,1412
1778.372352254571,1399
1780.3656665990156,1436
1782.3584804121397,1414
1784.3507939535534,1366
1786.3426074829463,1372
1788.3339212600863,1380
1790.3247355448211,1349
1792.3150505970766,1336
1794.3048666768573,1349
1796.2941840442477,1374
1798.2830029594106,1379
1800.2713236825884,1453
1802.2591464741004,1344
1804.2464715943465,1405
1806.2332993038058,1431
1808.2196298630352,1424
1810.2054635326708,1387
1812.190800573428,1377
1814.175641246101,1415
1816.1599858115628,1347
1818.1438345307652,1347
1820.127187664738,1411
1822.1100454745924,1409
1824.092408221516,1357
1826.0742761667766,1346
1828.055649571721,1383
1830.0365286977735,1360
1832.0169138064398,1384
1833.9968051593014,1374
1835.9762030180214,1365
1837.9551076443408,1415
1839.9335193000788,1429
1841.9114382471344,1387
1843.888864747485,1370
1845.8657990631878,1383
1847.842241456378,1380
1849.8181921892697,1365
1851.7936515241558,1387
1853.7686197234098,1349
1855.7430970494815,1360
1857.7170837649014,1376
1859.6905801322787,1368
1861.6635864143004,1369
1863.6361028737338,1313
1865.608129773424,1388
1867.5796673762961,1364
1869.5507159453537,1380
1871.521275743678,1432
1873.4913470344313,1368
1875.4609300808534,1407
1877.4300251462632,1352
1879.3986324940588,1379
1881.366752387717,1371
1883.3343850907936,1372
1885.3015308669228,1395
1887.268189979819,1405
1889.2343626932739,1394
1891.2000492711595,1443
1893.1652499774254,1402
1895.1299650761011,1416
1897.0941948312952,1440
1899.0579395071945,1424
1901.0211993680641,1429
1902.98397467825,1465
1904.9462657021745,1457
1906.9080727043415,1444
1908.869395949332,1449
1910.8302357018065,1458
1912.790592226504,1377
1914.7504657882428,1407
1916.7098566519212,1399
1918.6687650825133,1394
1920.6271913450764,1373
1922.5851357047422,1400
1924.5425984267245,1376
1926.499579776314,1462
1928.4560800188833,1409
1930.4120994198802,1416
1932.367638244833,1452
1934.32269675935,1440
1936.2772752291175,1456
1938.231373919899,1456
1940.1849930975404,1389
1942.1381330279637,1410
1944.0907939771696,1359
1946.0429762112412,1382
1947.9946799963363,1376
1949.9459055986945,1410
1951.896653284633,1396
1953.8469233205478,1446
1955.7967159729142,1387
1957.7460315082863,1415
1959.6948701932974,1341
1961.6432322946594,1418
1963.5911180791632,1428
1965.5385278136787,1414
1967.4854617651545,1379
1969.4319202006182,1391
1971.377903387176,1386
1973.3234115920136,1391
1975.268445082395,1415
1977.2130041256642,1395
1979.1570889892423,1405
1981.1006999406304,1507
1983.04383724741,1381
1984.986501177238,1405
1986.928691997853,1392
1988.8704099770712,1393
1990.811655382789,1409
1992.7524284829801,1349
1994.692729545698,1381
1996.6325588390755,1366
1998.5719166313224,1333
2000.5108031907307,1390
2002.4492187856677,1387
2004.387163684583,1439
2006.3246381560011,1413
2008.2616424685298,1417
2010.1981768908527,1387
2012.1342416917332,1369
2014.069837140014,1389
2016.0049635046162,1409
2017.9396210545406,1348
2019.8738100588666,1350
2021.8075307867502,1427
2023.740783507431,1355
2025.6735684902228,1332
2027.6058860045214,1363
2029.5377363198004,1392
2031.4691197056118,1446
2033.4000364315875,1386
2035.3304867674374,1362
2037.260470982952,1316
2039.189989347998,1392
2041.1190421325232,1439
2043.047629606554,1425
2044.9757520401945,1377
2046.9034097036288,1366
2048.8306028671195,1370
2050.7573318010086,1402
2052.683596775716,1351
2054.609398061742,1390
2056.5347359296647,1386
2058.4596106501403,1290
2060.384022493906,1343
2062.3079717317764,1370
2064.231458634646,1334
2066.1544834734873,1324
2068.077046519352,1323
2069.99914804337,1298
2071.9207883167524,1313
2073.8419676107865,1338
2075.7626861968406,1329
2077.6829443463607,1382
2079.6027423308715,1335
2081.522080421977,1355
2083.440958891362,1364
2085.359378010786,1350
2087.2773380520907,1377
2089.194839287196,1364
2091.111881988101,1295
2093.0284664268825,1371
2094.9445928756973,1344
2096.86026160678,1321
2098.775472892446,1317
2100.690227005088,1370
2102.604524217178,1365
2104.5183648012676,1355
2106.431749029985,1344
2108.34467717604,1335
2110.2571495122206,1378
2112.169166311393,1370
2114.080727846503,1360
2115.9918343905747,1345
2117.902486216711,1366
2119.8126835980956,1345
2121.722426807987,1330
2123.6317161197285,1345
2125.5405518067364,1339
2127.448934142509,1385
2129.356863400624,1308
2131.264339854737,1322
2133.1713637785815,1381
2135.077935445972,1402
2136.9840551308002,1393
2138.889723107037,1301
2140.7949396487334,1403
2142.699705030018,1364
2144.6040195250994,1344
2146.507883408264,1376
2148.4112969538774,1373
2150.3142604363848,1364
2152.2167741303097,1364
2154.1188383102535,1363
2156.0204532508997,1307
2157.9216192270064,1348
2159.822336513414,1353
2161.7226053850413,1360
2163.622426116884,1391
2165.5217989840185,1411
2167.4207242616,1353
2169.319202224862,1374
2171.2172331491165,1400
2173.1148173097563,1367
2175.0119549822507,1370
2176.90864644215,1336
2178.8048919650823,1385
2180.7006918267534,1393
2182.596046302952,1300
2184.4909556695407,1375
2186.3854202024645,1351
2188.279440177746,1362
2190.173015871487,1372
2192.066147559868,1388
2193.958835519149,1385
2195.851080025667,1380
2197.7428813558417,1398
2199.6342397861667,1423
2201.5251555932186,1422
2203.415629053651,1426
2205.3056604441986,1397
2207.19525004167,1472
2209.084398122958,1395
2210.9731049650327,1433
2212.861370844941,1462
2214.749196039812,1433
2216.636580826851,1455
2218.523525483344,1504
2220.410030286655,1419
2222.296095514226,1448
2224.1817214435805,1398
2226.066908352319,1442
2227.951656518121,1437
2229.835966218746,1391
2231.71983773203,1441
2233.6032713358913,1463
2235.486267308324,1460
2237.3688259274036,1424
2239.2509474712824,1495
2241.132632218193,1467
2243.013880446447,1447
2244.8946924344323,1472
2246.7750684606203,1422
2248.6550088035574,1458
2250.534513741871,1436
2252.413583554265,1411
2254.292218519526,1466
2256.170418916517,1376
2258.0481850241786,1414
2259.925517121534,1459
2261.8024154876825,1436
2263.678880401803,1347
2265.5549121431536,1422
2267.430510991071,1419
2269.305677224971,1427
2271.180411124348,1426
2273.0547129687766,1402
2274.9285830379076,1430
2276.8020216114737,1412
2278.6750289692845,1407
2280.5476053912294,1463
2282.4197511572766,1460
2284.2914665474727,1399
2286.162751841943,1438
2288.0336073208937,1475
2289.904033264608,1462
2291.774029953448,1436
2293.6435976678554,1431
2295.5127366883517,1423
2297.381447295534,1368
2299.2497297700825,1382
2301.1175843927526,1344
2302.9850114443825,1291
2304.852011205885,1303
2306.7185839582553,1271
2308.5847299825664,1280
2310.4504495599676,1259
2312.3157429716925,1287
2314.1806104990483,1256
2316.0450524234247,1268
2317.9090690262888,1236
2319.772660589186,1258
2321.635827393742,1301
2323.498569721661,1274
2325.3608878547248,1257
2327.2227820747967,1233
2329.0842526638157,1198
2330.945299903803,1201
2332.805924076857,1256
2334.6661254651535,1242
2336.525904350951,1186
2338.3852610165827,1295
2340.244195744464,1262
2342.102708817088,1258
2343.9608005170253,1190
2345.8184711269287,1242
2347.675720929526,1261
2349.532550207628,1246
2351.38895924412,1221
2353.24494832197,1205
2355.100517724223,1216
2356.955667734004,1203
2358.810398634514,1232
2360.664710709037,1291
2362.5186042409337,1250
2364.3720795136437,1227
2366.225136810686,1263
2368.0777764156583,1292
2369.929998612237,1258
2371.7818036841777,1241
2373.633191915315,1252
2375.484163589562,1260
2377.3347189909114,1265
2379.184858403434,1325
2381.03458211128,1301
2382.8838903986775,1258
2384.732783549936,1312
2386.5812618494406,1260
2388.4293255816588,1258
2390.2769750311327,1281
2392.1242104824883,1278
2393.971032220427,1282
2395.8174405297295,1275
2397.6634356952563,1273
2399.509018001947,1264
2401.3541877348193,1263
2403.1989451789705,1310
2405.043290619576,1236
2406.8872243418905,1242
2408.730746631247,1243
2410.5738577730594,1283
2412.4165580528183,1289
2414.258847756095,1248
2416.100727168537,1239
2417.9421965758734,1235
2419.783256263912,1252
2421.623906518538,1201
2423.4641476257157,1255
2425.303979871491,1346
2427.143403541984,1272
2428.9824189233977,1270
2430.821026302012,1271
2432.6592259641866,1285
2434.497018196361,1289
2436.33440328505,1226
2438.171381516851,1239
2440.00795317844,1345
2441.844118556569,1283
2443.6798779380724,1330
2445.5152316098606,1320
2447.3501798589255,1267
2449.1847229723357,1250
2451.0188612372403,1298
2452.8525949408663,1315
2454.6859243705203,1237
2456.518849813587,1243
2458.3513715575314,1243
2460.183489889895,1251
2462.015205098301,1288
2463.8465174704493,1251
2465.67742729412,1270
2467.5079348571717,1242
2469.338040447542,1242
2471.1677443532476,1293
2472.9970468623833,1280
2474.825948263123,1305
2476.6544488437207,1248
2478.482548892508,1250
2480.310248697896,1312
2482.137548548374,1281
2483.9644487325118,1307
2485.790949538956,1287
2487.617051256433,1324
2489.44275417375,1287
2491.26805857979,1276
2493.0929647635157,1337
2494.917473013971,1322
2496.741583620276,1322
2498.5652968716304,1345
2500.3886130573137,1294
2502.2115324666834,1397
2504.0340553891765,1322
2505.856182114308,1302
2507.6779129316733,1321
2509.499248130945,1315
2511.3201880018764,1274
2513.140732834298,1346
2514.9608829181198,1323
2516.780638543331,1349
2518.6,1331
2520.418967578273,1294
2522.237541568376,1362
2524.0557222606144,1319
2525.8735099453706,1293
2527.6909049131086,1306
2529.507907454368,1293
2531.32451785977,1363
2533.140736420014,1353
2534.9565634258774,1364
2536.771999168218,1418
2538.5870439379714,1384
2540.4016980261526,1377
2542.2159617238544,1413
2544.02983532225,1425
2545.8433191125914,1406
2547.656413386209,1395
2549.4691184345115,1391
2551.2814345489874,1424
2553.093362021204,1449
2554.904901142808,1418
2556.716052205523,1444
2558.526815501153,1492
2560.3371913215824,1493
2562.147179958771,1495
2563.956781704761,1439
2565.7659968516705,1461
2567.5748256916986,1521
2569.3832685171224,1515
2571.1913256202984,1488
2572.9989972936614,1482
2574.806283829725,1529
2576.613185521084,1475
2578.4197026604074,1528
2580.2258355404483,1586
2582.031584454035,1540
2583.836949694077,1600
2585.6419315535613,1536
2587.4465303255533,1537
2589.2507463032002,1629
2591.0545797797245,1560
2592.8580310484303,1581
2594.6611004026995,1538
2596.463788135992,1545
2598.266094541849,1578
2600.0680199138874,1577
2601.869564545807,1579
2603.670728731383,1568
2605.4715127644704,1568
2607.2719169390048,1540
2609.071941548998,1546
2610.8715868885433,1493
2612.670853251811,1618
2614.469740933052,1603
2616.268250226594,1525
2618.0663814268455,1506
2619.864134828292,1565
2621.6615107255006,1510
2623.458509413115,1545
2625.2551311858597,1501
2627.0513763385347,1554
2628.8472451660223,1521
2630.6427379632833,1533
2632.4378550253564,1521
2634.232596647359,1519
2636.026963124488,1571
2637.8209547520187,1527
2639.6145718253065,1519
2641.407814639785,1479
2643.200683490966,1362
2644.9931786744414,1465
2646.7853004858807,1520
2648.577049221034,1469
2650.3684251757277,1422
2652.1594286458712,1420
2653.9500599274484,1429
2655.740319316525,1419
2657.5302071092437,1406
2659.3197236018286,1433
2661.10886909058,1401
2662.8976438718782,1346
2664.686048242183,1366
2666.4740824980327,1344
2668.2617469360443,1415
2670.0490418529134,1380
2671.8359675454153,1363
2673.622524310403,1378
2675.408712444811,1325
2677.1945322456495,1381
2678.979984010009,1355
2680.76506803506,1309
2682.5497846180497,1302
2684.334134056306,1361
2686.1181166472343,1359
2687.9017326883213,1310
2689.6849824771293,1312
2691.4678663113013,1313
2693.2503844885596,1315
2695.032537306705,1318
2696.8143250636167,1314
2698.5957480572542,1282
2700.3768065856534,1323
2702.1575009469316,1300
2703.937831439283,1319
2705.717798360982,1212
2707.4974020103837,1269
2709.276642685917,1333
2711.055520686095,1284
2712.834036309506,1282
2714.612189854819,1272
2716.389981620782,1277
2718.1674119062204,1312
2719.944481010041,1268
2721.721189231226,1277
2723.4975368688415,1256
2725.273524222027,1300
2727.0491515900053,1306
2728.824419272075,1326
2730.5993275676146,1293
2732.3738767760838,1253
2734.148067197016,1232
2735.921899130031,1230
2737.6953728748194,1244
2739.468488731156,1257
2741.2412469988926,1251
2743.0136479779617,1211
2744.785691968372,1272
2746.5573792702116,1249
2748.3287101836504,1267
2750.099685008934,1177
2751.870304046388,1298
2753.640567596418,1222
2755.4104759595057,1217
2757.1800294362156,1238
2758.949228327187,1255
2760.7180729331412,1272
2762.486563554877,1251
2764.254700493272,1247
2766.022484049284,1212
2767.789914523947,1254
2769.5569922183786,1204
2771.3237174337705,1220
2773.090090471394,1260
2774.8561116326036,1280
2776.6217812188274,1188
2778.3870995315756,1215
2780.1520668724356,1182
2781.9166835430747,1235
2783.6809498452394,1257
2785.444866080754,1238
2787.2084325515225,1195
2788.971649559527,1249
2790.73451740683,1264
2792.4970363955713,1228
2794.2592068279705,1251
2796.0210290063264,1257
2797.7825032330147,1274
2799.543629810493,1161
2801.304409041296,1272
2803.0648412280366,1217
2804.8249266734088,1213
2806.5846656801846,1234
2808.344058551212,1212
2810.1031055894246,1223
2811.8618070978273,1240
2813.6201633795085,1255
2815.378174737636,1278
2817.1358414754536,1269
2818.893163896285,1255
2820.6501423035334,1254
2822.4067770006814,1226
2824.1630682912883,1217
2825.9190164789957,1272
2827.6746218675207,1241
2829.429884760661,1293
2831.184805462294,1286
2832.9393842763743,1222
2834.693621506936,1231
2836.4475174580916,1233
2838.201072434034,1221
2839.954286739034,1255
2841.707160677441,1255
2843.459694553685,1234
2845.2118886722724,1252
2846.96374333779,1275
2848.7152588549034,1228
2850.4664355283567,1210
2852.217273662973,1220
2853.9677735636546,1284
2855.7179355353833,1215
2857.4677598832186,1265
2859.217246912299,1263
2860.9663969278427,1254
2862.715210235146,1258
2864.4636871395846,1244
2866.211827946614,1214
2867.9596329617652,1226
2869.7071024906536,1207
2871.4542368389684,1211
2873.20103631248,1265
2874.947501217038,1177
2876.6936318585695,1203
2878.4394285430812,1266
2880.1848915766604,1184
2881.9300212654707,1303
2883.6748179157553,1223
2885.4192818338374,1224
2887.1634133261173,1270
2888.907212699077,1246
2890.6506802592744,1206
2892.393816313348,1290
2894.1366211680142,1209
2895.8790951300693,1249
2897.621238506388,1211
2899.363051603925,1287
2901.1045347297118,1271
2902.8456881908596,1212
2904.58651229456,1215
2906.327007348081,1194
2908.067173658772,1266
2909.8070115340597,1228
2911.5465212814497,1235
2913.285703208527,1227
2915.0245576229563,1240
2916.7630848324807,1208
2918.5012851449196,1209
2920.2391588681758,1239
2921.976706310227,1277
2923.7139277791334,1218
2925.4508235830313,1199
2927.187394030137,1283
2928.923639428745,1245
2930.6595600872306,1260
2932.395156314046,1263
2934.1304284177218,1220
2935.8653767068713,1240
2937.6000014901815,1213
2939.3343030764227,1223
2941.068281774442,1251
2942.8019378931644,1248
2944.5352717415976,1263
2946.2682836288236,1264
2948.0009738640065,1251
2949.7333427563885,1242
2951.465390615289,1269
2953.1971177501086,1242
2954.9285244703265,1275
2956.6596110855,1209
2958.3903779052657,1193
2960.1208252393385,1230
2961.8509533975125,1208
2963.5807626896617,1229
2965.3102534257378,1219
2967.0394259157715,1237
2968.768280469873,1188
2970.496817398232,1293
2972.2250370111146,1241
2973.952939618869,1223
2975.6805255319196,1198
2977.4077950607707,1294
2979.134748516006,1245
2980.861386208289,1248
2982.587708448359,1252
2984.313715547037,1281
2986.039407815222,1268
2987.764785563891,1261
2989.489849104102,1239
2991.2145987469908,1217
2992.9390348037705,1270
2994.6631575857346,1244
2996.3869674042576,1253
2998.1104645707887,1258
2999.83364939686,1206
3001.5565221940783,1213
3003.2790832741334,1232
3005.0013329487924,1242
3006.7232715298996,1196
3008.4448993293804,1229
3010.166216659239,1237
3011.887223831558,1254
3013.607921158498,1175
3015.3283089522993,1185
3017.0483875252826,1226
3018.7681571898443,1224
3020.4876182584626,1238
3022.2067710436927,1267
3023.9256158581707,1263
3025.644153014609,1267
3027.362382825801,1263
3029.0803056046193,1238
3030.797921664012,1224
3032.5152313170106,1234
3034.2322348767225,1225
3035.9489326563353,1244
3037.665324969115,1215
3039.3814121284063,1239
3041.097194447633,1232
3042.812672240299,1216
3044.5278458199855,1215
3046.2427155003525,1191
3047.9572815951406,1232
3049.671544418167,1219
3051.38550428333,1247
3053.0991615046073,1228
3054.812516396051,1279
3056.5255692717974,1253
3058.2383204460575,1238
3059.9507702331257,1219
3061.662918947372,1216
3063.3747669032446,1212
3065.0863144152736,1206
3066.7975617980674,1242
3068.508509366309,1251
3070.219157434767,1258
3071.9295063182844,1223
3073.639556331785,1215
3075.3493077902704,1192
3077.058761008821,1213
3078.7679163025964,1221
3080.476773986837,1222
3082.1853343768594,1218
3083.89359778806,1219
3085.6015645359153,1232
3087.3092349359786,1261
3089.016609303884,1260
3090.7236879553434,1221
3092.4304712061476,1267
3094.136959372166,1282
3095.843152769349,1244
3097.5490517137237,1264
3099.2546565213966,1235
3100.959967508554,1304
3102.66498499146,1193
3104.3697092864577,1236
3106.0741407099695,1213
3107.778279578498,1192
3109.482126208622,1194
3111.1856809170004,1228
3112.8889440203716,1206
3114.5919158355528,1246
3116.294596679439,1245
3117.996986869006,1189
3119.6990867213062,1260
3121.4008965534726,1300
3123.102416682717,1244
3124.803647426329,1228
3126.5045891016784,1278
3128.205242026213,1238
3129.90560651746,1286
3131.605682893025,1251
3133.3054714705922,1248
3135.0049725679282,1273
3136.7041865028714,1232
3138.4031135933465,1242
3140.101754157353,1244
3141.800108512971,1205
3143.498176978357,1189
3145.1959598717494,1256
3146.8934575114636,1204
3148.5906702158954,1220
3150.2875983035183,1208
3151.9842420928853,1149
3153.680601902627,1202
3155.376678051456,1181
3157.07247085816,1248
3158.767980641609,1206
3160.463207720748,1253
3162.158152414606,1201
3163.8528150422862,1206
3165.5471959229726,1214
3167.2412953759303,1241
3168.9351137204976,1220
3170.628651276098,1232
3172.3219083622307,1235
3174.014885298474,1241
3175.707582404485,1199
3177.4000000000005,1202
3179.092138404835,1223
3180.7839979388846,1232
3182.47557892212,1255
3184.166881674594,1204
3185.8579065164386,1250
3187.5486537678626,1230
3189.2391237491547,1212
3190.9293167806827,1183
3192.6192331828934,1166
3194.3088732763117,1209
3195.998237381542,1231
3197.687325819268,1194
3199.376138910251,1166
3201.064676975334,1218
3202.7529403354347,1160
3204.4409293115523,1225
3206.1286442247647,1154
3207.816085396229,1196
3209.5032531471825,1187
3211.190147798936,1243
3212.8767696728846,1217
3214.5631190905015,1201
3216.2491963733373,1219
3217.9350018430214,1240
3219.6205358212637,1181
3221.305798629851,1212
3222.990790590651,1187
3224.6755120256103,1172
3226.359963256751,1190
3228.0441446061795,1212
3229.7280563960758,1188
3231.411698948703,1228
3233.0950725863995,1258
3234.778177631587,1222
3236.461014406761,1203
3238.1435832345005,1203
3239.8258844374595,1187
3241.507918338374,1182
3243.1896852600576,1188
3244.8711855254023,1212
3246.552419457381,1225
3248.233387379042,1250
3249.914089613516,1194
3251.59452648401,1282
3253.274698313813,1247
3254.95460542629,1216
3256.6342481448855,1199
3258.313626793125,1170
3259.9927416946084,1200
3261.6715931730196,1178
3263.3501815521176,1173
3265.0285071557437,1164
3266.706570307815,1197
3268.3843713323286,1207
3270.0619105533615,1142
3271.739188295068,1182
3273.4162048816834,1234
3275.0929606375184,1229
3276.769455886966,1187
3278.445690954498,1235
3280.1216661646613,1215
3281.797381842087,1261
3283.4728383114807,1159
3285.1480358976296,1160
3286.8229749253996,1243
3288.4976557197333,1171
3290.172078605655,1186
3291.846243908266,1208
3293.5201519527463,1158
3295.193803064357,1184
3296.8671975684374,1186
3298.5403357904024,1235
3300.21321805575,1192
3301.8858446900567,1183
3303.558216018975,1219
3305.23033236824,1213
3306.9021940636603,1188
3308.57380143113,1199
3310.2451547966184,1165
3311.916254486174,1219
3313.5871008259246,1204
3315.2576941420766,1174
3316.9280347609147,1216
3318.5981230088046,1183
3320.2679592121895,1202
3321.9375436975924,1182
3323.606876791612,1117
3325.27595882093,1180
3326.944790112305,1204
3328.6133709925753,1202
3330.2817017886573,1182
3331.949782827547,1179
3333.617614436319,1226
3335.2851969421245,1180
3336.952530672199,1198
3338.619615953853,1240
3340.286453114475,1240
3341.9530424815357,1194
3343.619384382583,1238
3345.2854791452437,1240
3346.951327097224,1218
3348.6169285663073,1229
3350.2822838803577,1219
3351.947393367319,1244
3353.61225735521,1223
3355.2768761721345,1181
3356.9412501462693,1175
3358.605379605873,1202
3360.2692648792827,1217
3361.9329062949146,1218
3363.596304181263,1201
