CollectionTime,7/11/2024 2:07:22 PM
ExposureUsed,3
CalibratedSpectrum
-962.7078968117929,460
-959.9714848408522,436
-957.2358232597828,513
-954.5009119013725,464
-951.7667505983302,473
-949.0333391832855,484
-946.3006774887896,465
-943.5687653473143,497
-940.837602591253,489
-938.1071890529199,492
-935.3775245645503,481
-932.6486089583007,470
-929.9204420662485,494
-927.1930237203925,502
-924.4663537526524,480
-921.7404319948689,472
-919.0152582788041,505
-916.2908324361409,563
-913.5671542984834,523
-910.8442236973568,473
-908.1220404642074,482
-905.4006044304027,533
-902.679915427231,523
-899.959973285902,480
-897.2407778375464,473
-894.5223289132158,466
-891.8046263438832,480
-889.0876699604426,460
-886.3714595937089,479
-883.6559950744183,479
-880.9412762332282,479
-878.2273029007168,470
-875.5140749073835,486
-872.8015920836489,470
-870.0898542598545,460
-867.3788612662631,461
-864.6686129330585,494
-861.9591090903457,476
-859.2503495681506,498
-856.5423341964203,470
-853.8350628050229,490
-851.1285352237478,466
-848.4227512823054,463
-845.7177108103272,482
-843.0134136373656,493
-840.3098595928943,502
-837.6070485063082,529
-834.9049802069229,487
-832.2036545239757,486
-829.5030712866244,465
-826.8032303239481,520
-824.1041314649472,506
-821.4057745385428,494
-818.7081593735775,489
-816.0112857988148,466
-813.3151536429393,490
-810.6197627345566,510
-807.9251129021936,481
-805.2312039742981,481
-802.5380357792392,479
-799.8456081453069,511
-797.1539209007124,501
-794.462973873588,532
-791.772766891987,560
-789.083299783884,521
-786.3945723771743,507
-783.7065844996748,473
-781.0193359791231,481
-778.3328266431781,485
-775.6470563194197,461
-772.9620248353489,493
-770.2777320183878,469
-767.5941776958798,482
-764.9113616950891,513
-762.2292838432011,507
-759.5479439673222,478
-756.8673418944801,461
-754.1874774516235,492
-751.5083504656222,506
-748.8299607632671,549
-746.15230817127,521
-743.475392516264,529
-740.7992136248035,513
-738.1237713233636,525
-735.4490654383407,512
-732.7750957960521,536
-730.1018622227365,540
-727.4293645445534,515
-724.7576025875837,517
-722.0865761778291,528
-719.4162851412126,527
-716.7467293035781,545
-714.0779084906909,533
-711.409822528237,517
-708.7424712418238,521
-706.0758544569796,526
-703.4099719991541,518
-700.7448236937178,531
-698.0804093659622,555
-695.4167288411002,538
-692.7537819442656,540
-690.0915685005134,528
-687.4300883348199,511
-684.7693412720819,542
-682.1093271371178,515
-679.4500457546669,543
-676.7914969493897,531
-674.1336805458676,500
-671.4765963686034,529
-668.8202442420206,533
-666.1646239904642,534
-663.5097354382001,509
-660.8555784094151,522
-658.2021527282176,539
-655.5494582186366,522
-652.8974947046223,526
-650.2462620100463,550
-647.5957599587009,554
-644.9459883742998,578
-642.2969470804776,533
-639.6486359007902,572
-637.0010546587141,609
-634.3542031776476,577
-631.7080812809096,568
-629.0626887917401,595
-626.4180255333008,562
-623.7740913286734,611
-621.1308860008619,644
-618.4884093727904,575
-615.8466612673046,580
-613.2056415071715,558
-610.5653499150785,577
-607.9257863136347,628
-605.28695052537,613
-602.6488423727357,585
-600.0114616781036,612
-597.3748082637674,621
-594.7388819519412,635
-592.1036825647604,670
-589.4692099242818,683
-586.8354638524829,630
-584.2024441712624,648
-581.5701507024403,644
-578.9385832677575,608
-576.3077416888759,644
-573.6776257873787,636
-571.0482353847704,589
-568.4195703024757,581
-565.7916303618415,597
-563.164415384135,612
-560.5379251905453,609
-557.9121596021815,619
-555.2871184400748,650
-552.6628015251767,653
-550.0392086783606,662
-547.4163397204204,616
-544.794194472071,582
-542.1727727539491,629
-539.5520743866118,651
-536.9320991905377,712
-534.3128469861261,744
-531.6943175936979,724
-529.0765108334947,747
-526.4594265256793,779
-523.8430644903358,869
-521.2274245474689,954
-518.612506517005,1037
-515.9983102187913,1018
-513.3848354725959,1125
-510.77208209810846,1318
-508.16004991493924,1553
-505.5487387426199,1755
-502.9381484006032,1693
-500.3282787082628,1684
-497.71912948489364,1468
-495.1107005497117,1321
-492.5029917218539,1117
-489.8960028203786,943
-487.28973366426493,843
-484.68418407241325,833
-482.07935386364494,792
-479.47524285670266,768
-476.87185087025,761
-474.2691777228715,789
-471.66722323307334,791
-469.0659872192821,767
-466.4654694998459,773
-463.86566989303384,763
-461.26658821703614,777
-458.66822428996414,700
-456.07057792985,736
-453.4736489546475,782
-450.877437182231,749
-448.28194243039627,753
-445.68716451686,751
-443.09310325926003,767
-440.49975847515555,733
-437.9071299820263,744
-435.31521759727354,796
-432.72402113821954,787
-430.13354042210767,788
-427.5437752661022,720
-424.95472548728867,802
-422.36639090267386,809
-419.7787713291855,852
-417.1918665836721,892
-414.60567648290385,846
-412.0202008435715,837
-409.4354394822874,877
-406.8513922155845,874
-404.26805885991723,818
-401.685439231661,886
-399.103533147112,886
-396.522340422488,853
-393.9418608739278,831
-391.3620943174908,851
-388.7830405691583,824
-386.2046994448317,768
-383.6270707603344,747
-381.05015433141045,720
-378.473949973725,744
-375.8984575028645,726
-373.32367673433623,674
-370.74960748356875,654
-368.1762495659117,663
-365.60360279663576,614
-363.03166699093265,554
-360.4604419639154,572
-357.8899275306178,527
-355.32012350599507,521
-352.7510297049233,498
-350.1826459421999,477
-347.61497203254316,484
-345.04800779059235,507
-342.4817530309082,535
-339.91620756797226,562
-337.35137121618743,553
-334.7872437898774,578
-332.22382510328725,545
-329.66111497058273,522
-327.09911320585127,458
-324.53781962310075,508
-321.9772340362607,566
-319.4173562591816,524
-316.8581861056348,505
-314.2997233893127,514
-311.7419679238294,502
-309.1849195227194,570
-306.62857799943856,623
-304.0729431673641,558
-301.51801483979375,521
-298.963792829947,549
-296.41027695096386,589
-293.85746701590574,674
-291.3053628377552,677
-288.7539642294155,594
-286.2032710037115,572
-283.65328297338897,553
-281.1039999511146,580
-278.5554217494762,675
-276.007548180983,628
-273.4603790580651,584
-270.9139141930734,560
-268.3681533982807,577
-265.8230964858798,647
-263.27874326798565,640
-260.7350935566336,687
-258.1921471637804,668
-255.6499039013039,675
-253.10836358100266,759
-250.56752601459698,693
-248.02739101372765,677
-245.48795838995704,715
-242.94922795476816,683
-240.41119951956557,706
-237.8738728956746,738
-235.33724789434166,712
-232.80132432673452,673
-230.2661020039418,675
-227.73158073697357,701
-225.19776033676033,716
-222.66464061415422,673
-220.1322213799284,680
-217.60050244477725,650
-215.06948361931552,632
-212.53916471408013,776
-210.00954553952818,804
-207.48062590603843,716
-204.9524056239104,756
-202.4248845033651,830
-199.8980623545441,915
-197.37193898751036,799
-194.84651421224817,795
-192.32178783866232,845
-189.79775967657952,883
-187.27442953574644,994
-184.7517972258321,957
-182.2298625564256,876
-179.7086253370378,855
-177.18808537710026,807
-174.66824248596583,829
-172.14909647290835,854
-169.6306471471229,887
-167.11289431772548,921
-164.59583779375328,936
-162.07947738416453,994
-159.5638128978386,986
-157.04884414357605,1035
-154.53457093009854,1106
-152.02099306604828,939
-149.50811035998936,954
-146.99592262040665,1002
-144.48442965570587,1004
-141.97363127421409,973
-139.46352728417958,973
-136.95411749377126,1009
-134.44540171107985,1054
-131.93737974411636,989
-129.43005140081357,1004
-126.92341648902493,1451
-124.41747481652521,1721
-121.91222619101006,2006
-119.40767042009657,2309
-116.90380731132257,2657
-114.40063667214702,2924
-111.8981583099503,2784
-109.3963720320337,2089
-106.89527764561933,1778
-104.39487495785067,1773
-101.89516377579241,2798
-99.39614390642998,4216
-96.89781515667039,4692
-94.40017733334128,4397
-91.90323024319173,3623
-89.40697369289148,4146
-86.91140748903172,6887
-84.41653143812482,8239
-81.92234534660395,6283
-79.42884902082358,5351
-76.93604226705907,8681
-74.4439248915071,17860
-71.95249670028534,27541
-69.46175749943245,33237
-66.97170709490854,31004
-64.48234529259423,23722
-61.99367189829195,17206
-59.50568671772464,14030
-57.01838955653636,11174
-54.53178022029283,8212
-52.045858514480074,8821
-49.560624244506016,9316
-47.07607721569923,8987
-44.59221723330904,9481
-42.10904410250669,10398
-39.62655762838392,10209
-37.14475761595372,9779
-34.66364387015028,10468
-32.18321619582866,11433
-29.70347439776515,11908
-27.224418280657005,12278
-24.74604764912317,14166
-22.26836230770266,18249
-19.7913620608565,28531
-17.315046712966478,50300
-14.83941606833514,65037
-12.36446993118659,65037
-9.89020810566592,65037
-7.416630395839093,65037
-4.94373660569363,65037
-2.471526539137585,65037
-6.821210263296962E-13,65037
2.47084320796705,65037
4.941003281093458,65037
7.410480415786196,65037
9.879274808531363,65037
12.347386655893956,65037
14.814816154518212,65037
17.28156350112681,65037
19.74762889252179,65037
22.21301252558385,65037
24.67771459727237,21124
27.141735304626195,4520
29.605074844762612,3196
32.06773341487792,3295
34.52971121224755,2848
36.99100843422559,2873
39.45162527824516,2792
41.91156194181792,2330
44.370818622535126,2290
46.82939551806646,1828
49.287292826160524,1956
51.74451074464503,2126
54.201049471426245,2546
56.65690920448981,1899
59.112090141899785,1570
61.56659248179983,1595
64.02041642241159,1376
66.4735621620365,1442
68.92602989905402,1504
71.37781983192338,1515
73.82893215918205,1729
76.27936707944684,1739
78.72912479141326,1631
81.17820549385567,1506
83.62660938562783,1515
86.07433666566146,1471
88.5213875329681,1139
90.96776218663751,950
93.41346082583925,1034
95.85848364982041,1325
98.30283085790859,1509
100.7465026495089,1462
103.18949922410604,1278
105.63182078126385,1069
108.07346752062438,1200
110.51443964190923,1252
112.95473734491827,1119
115.39436082953114,1018
117.83331029570547,1147
120.27158594347827,1259
122.7091879729652,1482
125.1461165843615,1517
127.58237197794062,1203
130.01795435405518,1066
132.4528639131364,1091
134.88710085569494,1186
137.32066538231982,1193
139.75355769367923,1059
142.1857779905207,976
144.61732647366978,824
147.04820334403132,796
149.47840880258934,888
151.90794305040674,951
154.33680628862487,1186
156.76499871846443,1428
159.19252054122433,1467
161.61937195828352,1453
164.04555317109896,1518
166.47106438120693,1543
168.89590579022217,1653
171.320077599839,1817
173.7435800118302,1825
176.16641322804742,1860
178.58857745042144,1925
181.01007288096173,2138
183.43089972175687,2117
185.85105817497413,1962
188.27054844285988,1997
190.6893707277394,1947
193.10752523201643,2049
195.5250121581745,2229
197.9418317087751,2343
200.3579840864594,2221
202.7734694939469,2055
205.18828813403627,2026
207.6024402096051,2176
210.01592592360964,2261
212.42874547908548,2374
214.84089907914665,2233
217.2523869269868,2122
219.66320922587727,2147
222.0733661791695,2143
224.48285799029293,2267
226.8916848627572,2216
229.29984700014882,2229
231.7073446061355,2117
234.11417788446204,2165
236.520347038953,2093
238.92585227351185,2133
241.33069379212054,2184
243.73487179884035,2226
246.1383864978112,2282
248.541238093252,2228
250.9434267894609,2237
253.34495279081432,2244
255.74581630176783,2210
258.1460175268563,2164
260.54555667069314,2211
262.9444339379703,2156
265.3426495334594,2244
267.7402036620107,2315
270.1370965285529,2248
272.53332833809407,2235
274.9288992957214,2176
277.32380960660055,2138
279.718059475976,2171
282.1116491091717,2201
284.5045787115897,2252
286.89684848871195,2211
289.2884586460981,2152
291.67940938938807,2144
294.0697009242996,2244
296.4593334566299,2199
298.84830719225477,2256
301.23662233712923,2228
303.6242790972866,2245
306.01127767884,2158
308.39761828798066,2145
310.78330113097934,2187
313.16832641418534,2080
315.5526943440269,2091
317.9364051270112,2078
320.3194589697242,2055
322.70185607883093,2045
325.0835966610754,2055
327.4646809232805,2062
329.8451090723478,2029
332.2248813152577,2042
334.6039978590701,1992
336.9824589109231,1995
339.36026467803447,1958
341.7374153677,1928
344.113911187295,1893
346.48975234427337,1891
348.8649390461686,1974
351.2394715005918,1865
353.61334991523415,1967
355.9865744978655,1804
358.35914545633375,1883
360.73106299856715,1910
363.10232733257146,1948
365.47293866643247,1838
367.84289720831396,1899
370.2122031664593,1868
372.5808567491905,1869
374.9488581649083,1822
377.31620762209275,1793
379.6829053293021,1859
382.0489514951745,1814
384.4143463284262,1772
386.7790900378528,1795
389.14318283232853,1870
391.50662492080653,1787
393.86941651231916,1804
396.23155781597745,1806
398.5930490409713,1779
400.9538903965696,1728
403.3140820921202,1794
405.6736243370498,1747
408.03251734086336,1764
410.3907613131465,1776
412.74835646356166,1782
415.10530300185144,1693
417.4616011378372,1717
419.81725108141893,1710
422.1722530425758,1716
424.5266072313656,1748
426.880313857925,1745
429.2333731324701,1735
431.58578526529516,1728
433.9375504667738,1720
436.2886689473588,1633
438.63914091758113,1671
440.9889665880513,1673
443.33814616945835,1646
445.68667987257015,1695
448.03456790823395,1625
450.3818104873759,1641
452.72840782100013,1650
455.07436012019105,1686
457.41966759611057,1628
459.7643304600007,1676
462.10834892318155,1651
464.4517231970525,1655
466.79445349309174,1672
469.1365400228566,1670
471.4779829979826,1661
473.81878263018564,1710
476.15893913125876,1722
478.4984527130747,1780
480.8373235875855,1728
483.17555196682144,1807
485.5131380628919,1805
487.8500820879857,1917
490.1863842543697,1916
492.52204477439034,2100
494.8570638604725,2290
497.1914417251204,2409
499.52517858091653,2819
501.85827464052306,3239
504.19073011668036,3739
506.5225452222086,3878
508.85372017000566,4052
511.18425517304956,3994
513.514150444396,3840
515.8434061971808,4222
518.1720226446176,4705
520.4999999999999,4725
522.8273384766991,4392
525.1540382881666,3927
527.480099647932,3575
529.8055227696037,2964
532.1303078668694,2429
534.454455153496,2047
536.777964843328,1949
539.1008371502907,1894
541.4230722883866,1792
543.744670471698,1806
546.0656319143858,1837
548.3859568306899,1839
550.7056454349294,1715
553.0246979415016,1776
555.3431145648834,1730
557.6608955196306,1792
559.978041020377,1762
562.2945512818363,1691
564.6104265188006,1754
566.9256669461412,1694
569.2402727788082,1702
571.5542442318302,1772
573.8675815203156,1767
576.1802848594508,1822
578.4923544645015,1772
580.8037905508126,1813
583.114593333807,1789
585.4247630289875,1788
587.7342998519354,1716
590.0432040183106,1677
592.3514757438526,1735
594.6591152443794,1692
596.9661227357875,1759
599.2724984340531,1752
601.578242555231,1786
603.8833553154542,1809
606.1878369309362,1782
608.4916876179676,1817
610.7949075929192,1862
613.0974970722403,1744
615.3994562724587,1796
617.7007854101818,1687
620.0014847020951,1779
622.3015543649641,1737
624.6009946156324,1747
626.8998056710224,1727
629.1979877481361,1743
631.4955410640538,1681
633.7924658359349,1735
636.0887622810175,1780
638.3844306166192,1768
640.6794710601358,1731
642.9738838290426,1799
645.2676691408932,1747
647.5608272133207,1720
649.853358264037,1797
652.1452625108324,1785
654.4365401715764,1775
656.7271914642178,1765
659.0172166067838,1785
661.3066158173809,1779
663.5953893141935,1791
665.8835373154867,1849
668.1710600396028,1802
670.4579577049639,1778
672.7442305300709,1723
675.0298787335033,1852
677.3149025339197,1780
679.599302150058,1721
681.8830778007342,1799
684.1662297048437,1753
686.4487580813608,1825
688.7306631493387,1784
691.0119451279091,1802
693.2926042362834,1815
695.5726406937516,1823
697.8520547196814,1828
700.1308465335215,1783
702.4090163547982,1736
704.6865644031171,1808
706.9634908981619,1725
709.2397960596965,1851
711.5154801075631,1778
713.7905432616823,1763
716.0649857420548,1774
718.3388077687592,1748
720.612009561953,1862
722.8845913418733,1743
725.1565533288352,1764
727.427895743234,1773
729.6986188055427,1808
731.9687227363137,1778
734.238207756178,1727
736.5070740858458,1884
738.7753219461066,1825
741.0429515578281,1793
743.3099631419569,1795
745.5763569195191,1756
747.8421331116193,1747
750.1072919394409,1822
752.3718336242467,1791
754.6357583873777,1855
756.8990664502545,1851
759.1617580343765,1830
761.423833361321,1754
763.6852926527457,1814
765.9461361303862,1829
768.206364016058,1872
770.4659765316536,1847
772.7249738991469,1908
774.9833563405886,1789
777.2411240781092,1833
779.4982773339183,1820
781.7548163303044,1853
784.010741289634,1808
786.2660524343538,1908
788.5207499869881,1824
790.7748341701416,1890
793.0283052064964,1831
795.2811633188143,1869
797.5334087299362,1865
799.7850416627813,1831
802.0360623403484,1842
804.2864709857143,1768
806.5362678220353,1870
808.7854530725468,1928
811.0340269605625,1861
813.2819897094754,1814
815.5293415427581,1753
817.77608268396,1939
820.0222133567116,1860
822.2677337847211,1791
824.5126441917765,1827
826.7569448017433,1842
829.0006358385675,1802
831.2437175262731,1756
833.4861900889629,1816
835.7280537508192,1858
837.9693087361026,1720
840.2099552691533,1777
842.4499935743896,1844
844.689423876309,1784
846.9282463994886,1799
849.1664613685833,1883
851.4040690083276,1857
853.6410695435349,1778
855.877463199097,1805
858.1132501999847,1794
860.3484307712487,1837
862.5830051380175,1839
864.8169735254988,1806
867.0503361589791,1817
869.2830932638243,1763
871.5152450654786,1770
873.7467917894654,1838
875.9777336613873,1835
878.2080709069252,1857
880.4378037518389,1846
882.666932421968,1840
884.8954571432301,1875
887.1233781416219,1785
889.3506956432192,1883
891.5774098741766,1792
893.803521060728,1845
896.0290294291852,1798
898.2539352059397,1796
900.4782386174619,1883
902.7019398903011,1811
904.925039251085,1855
907.147536926521,1840
909.3694331433943,1895
911.59072812857,1753
913.8114221089921,1830
916.0315153116827,1857
918.2510079637437,1832
920.4699002923547,1799
922.6881925247761,1800
924.905884888345,1728
927.1229776104793,1776
929.3394709186747,1793
931.555365040506,1825
933.7706602036275,1802
935.9853566357709,1769
938.1994545647489,1791
940.4129542184515,1792
942.6258558248488,1814
944.8381596119883,1846
947.0498658079974,1770
949.2609746410825,1747
951.4714863395287,1742
953.6814011316998,1770
955.8907192460387,1809
958.0994409110671,1797
960.3075663553858,1750
962.5150958076741,1768
964.7220294966913,1720
966.928367651274,1803
969.1341105003388,1705
971.3392582728806,1694
973.5438111979742,1669
975.747769504772,1751
977.9511334225061,1675
980.153903180487,1718
982.3560790081052,1657
984.5576611348289,1614
986.7586497902058,1683
988.9590452038618,1665
991.158847605503,1692
993.3580572249133,1625
995.5566742919558,1548
997.7546990365728,1638
999.952131688785,1539
1002.1489724786926,1566
1004.3452216364743,1505
1006.5408793923874,1542
1008.7359459767691,1484
1010.9304216200343,1503
1013.1243065526781,1544
1015.3176010052733,1497
1017.510305208472,1507
1019.7024193930064,1475
1021.8939437896848,1466
1024.0848786293977,1503
1026.2752241431122,1441
1028.4649805618747,1495
1030.6541481168115,1388
1032.842727039127,1432
1035.0307175601051,1384
1037.2181199111074,1403
1039.4049343235752,1387
1041.591161029029,1445
1043.7768002590683,1402
1045.9618522453698,1446
1048.1463172196918,1415
1050.3301954138697,1449
1052.513487059818,1410
1054.69619238953,1429
1056.8783116350783,1374
1059.0598450286152,1395
1061.2407928023704,1406
1063.4211551886528,1335
1065.6009324198508,1337
1067.780124728432,1368
1069.9587323469414,1360
1072.1367555080046,1323
1074.314194444325,1333
1076.4910493886855,1362
1078.667320573947,1387
1080.843008233051,1350
1083.0181125990161,1339
1085.1926339049414,1357
1087.3665723840027,1293
1089.5399282694575,1296
1091.7127017946405,1330
1093.8848931929647,1326
1096.0565026979243,1274
1098.2275305430899,1319
1100.3979769621128,1327
1102.567842188722,1337
1104.737126456726,1296
1106.9058300000124,1329
1109.0739530525475,1297
1111.2414958483764,1338
1113.4084586216231,1310
1115.5748416064907,1358
1117.7406450372605,1279
1119.9058691482942,1333
1122.0705141740304,1325
1124.2345803489884,1348
1126.3980679077658,1340
1128.5609770850388,1314
1130.7233081155623,1286
1132.8850612341707,1337
1135.0462366757774,1281
1137.2068346753745,1329
1139.3668554680326,1318
1141.526299288901,1242
1143.68516637321,1247
1145.8434569562655,1301
1148.001171273455,1293
1150.158309560244,1320
1152.3148720521767,1286
1154.470858984876,1197
1156.626270594044,1247
1158.7811071154629,1249
1160.9353687849912,1276
1163.089055838569,1280
1165.242168512213,1268
1167.3947070420209,1270
1169.5466716641677,1267
1171.6980626149075,1246
1173.8488801305748,1300
1175.9991244475814,1263
1178.1487958024186,1272
1180.2978944316555,1288
1182.4464205719428,1275
1184.5943744600072,1216
1186.7417563326567,1207
1188.8885664267755,1193
1191.0348049793297,1244
1193.1804722273619,1266
1195.325568407995,1277
1197.4700937584303,1250
1199.614048515948,1307
1201.7574329179074,1285
1203.900247201746,1238
1206.042491604982,1268
1208.1841663652099,1219
1210.3252717201053,1239
1212.465807907422,1247
1214.6057751649923,1295
1216.7451737307279,1249
1218.8840038426192,1294
1221.0222657387353,1221
1223.1599596572241,1286
1225.2970858363137,1208
1227.4336445143094,1239
1229.5696359295966,1302
1231.705060320639,1298
1233.8399179259786,1263
1235.9742089842384,1390
1238.107933734118,1308
1240.2410924143974,1286
1242.373685263935,1258
1244.5057125216676,1298
1246.6371744266116,1259
1248.7680712178621,1275
1250.898403134593,1272
1253.028170416058,1258
1255.1573733015875,1290
1257.2860120305932,1233
1259.4140868425648,1304
1261.54159797707,1333
1263.6685456737569,1305
1265.7949301723515,1233
1267.9207517126597,1264
1270.046010534565,1321
1272.1707068780306,1279
1274.2948409830983,1251
1276.4184130898889,1249
1278.541423438603,1279
1280.6638722695184,1377
1282.785759822993,1250
1284.9070863394636,1256
1287.0278520594447,1309
1289.1480572235314,1304
1291.2677020723963,1319
1293.3867868467923,1340
1295.5053117875495,1283
1297.623277135579,1284
1299.740683131868,1326
1301.8575300174857,1240
1303.973818033578,1297
1306.0895474213703,1341
1308.2047184221678,1333
1310.3193312773528,1314
1312.4333862283888,1269
1314.5468835168163,1369
1316.659823384255,1335
1318.7722060724045,1303
1320.8840318230418,1266
1322.9953008780249,1254
1325.1060134792888,1312
1327.2161698688478,1305
1329.3257702887959,1353
1331.4348149813054,1345
1333.5433041886276,1338
1335.6512381530933,1386
1337.7586171171101,1280
1339.8654413231675,1310
1341.9717110138317,1300
1344.0774264317488,1247
1346.1825878196432,1260
1348.2871954203192,1355
1350.3912494766587,1302
1352.4947502316231,1284
1354.5976979282532,1309
1356.7000928096686,1315
1358.8019351190665,1274
1360.9032250997243,1342
1363.0039629949988,1314
1365.1041490483235,1298
1367.2037835032133,1304
1369.3028666032606,1342
1371.401398592137,1306
1373.4993797135926,1374
1375.5968102114575,1349
1377.6936903296396,1326
1379.7900203121262,1318
1381.8858004029835,1315
1383.9810308463561,1332
1386.075711886469,1263
1388.1698437676241,1256
1390.2634267342032,1282
1392.356461030667,1276
1394.4489469015557,1320
1396.5408845914872,1298
1398.6322743451592,1371
1400.7231164073469,1293
1402.813411022907,1326
1404.903158436773,1363
1406.9923588939578,1345
1409.0810126395531,1379
1411.1691199187303,1331
1413.2566809767386,1344
1415.343696058907,1322
1417.4301654106425,1345
1419.5160892774315,1413
1421.6014679048399,1318
1423.6863015385125,1361
1425.7705904241707,1352
1427.8543348076178,1353
1429.9375349347342,1351
1432.0201910514802,1313
1434.102303403894,1308
1436.1838722380944,1317
1438.2648978002767,1370
1440.3453803367174,1308
1442.4253200937692,1343
1444.5047173178677,1318
1446.5835722555234,1337
1448.6618851533285,1333
1450.739656257952,1341
1452.8168858161434,1363
1454.8935740747306,1360
1456.96972128062,1357
1459.045327680797,1399
1461.120393522327,1400
1463.1949190523528,1394
1465.2689045180973,1351
1467.3423501668608,1365
1469.415256246024,1420
1471.4876230030463,1374
1473.559450685465,1376
1475.6307395408976,1370
1477.7014898170391,1485
1479.771701761665,1387
1481.8413756226287,1420
1483.9105116478618,1349
1485.9791100853772,1362
1488.0471711832643,1422
1490.1146951896926,1399
1492.1816823529098,1405
1494.2481329212433,1392
1496.3140471430984,1374
1498.3794252669609,1396
1500.4442675413939,1441
1502.5085742150404,1386
1504.572345536622,1395
1506.6355817549388,1424
1508.6982831188702,1439
1510.7604498773744,1373
1512.8220822794883,1397
1514.8831805743293,1352
1516.9437450110909,1404
1519.003775839048,1407
1521.0632733075522,1440
1523.1222376660367,1377
1525.1806691640113,1382
1527.2385680510652,1419
1529.2959345768668,1396
1531.3527689911643,1369
1533.4090715437833,1492
1535.4648424846291,1464
1537.5200820636855,1468
1539.5747905310159,1501
1541.6289681367616,1482
1543.6826151311434,1438
1545.7357317644614,1479
1547.7883182870937,1410
1549.8403749494987,1440
1551.8919020022113,1509
1553.9428996958477,1519
1555.9933682811015,1379
1558.0433080087469,1524
1560.0927191296346,1474
1562.1416018946961,1432
1564.1899565549415,1563
1566.2377833614592,1487
1568.2850825654164,1512
1570.3318544180606,1462
1572.3780991707158,1483
1574.423817074788,1514
1576.4690083817595,1556
1578.5136733431923,1471
1580.5578122107272,1505
1582.601425236085,1466
1584.6445126710646,1398
1586.6870747675434,1374
1588.7291117774776,1452
1590.7706239529034,1523
1592.8116115459347,1403
1594.8520748087658,1441
1596.8920139936686,1391
1598.9314293529933,1360
1600.9703211391711,1369
1603.008689604711,1360
1605.0465350022005,1377
1607.0838575843068,1355
1609.1206576037753,1402
1611.1569353134305,1416
1613.1926909661765,1386
1615.2279248149953,1376
1617.2626371129481,1374
1619.2968281131757,1366
1621.3304980688963,1319
1623.3636472334088,1366
1625.39627586009,1333
1627.428384202396,1321
1629.459972513861,1348
1631.4910410480993,1393
1633.5215900588028,1325
1635.551619799744,1368
1637.5811305247717,1269
1639.6101224878166,1390
1641.6385959428862,1285
1643.6665511440683,1299
1645.693988345528,1322
1647.7209078015112,1404
1649.7473097663405,1335
1651.7731944944203,1363
1653.7985622402307,1339
1655.823413258333,1310
1657.847747803366,1331
1659.8715661300494,1320
1661.8948684931793,1312
1663.9176551476316,1277
1665.9399263483624,1361
1667.9616823504057,1319
1669.982923408873,1303
1672.0036497789574,1354
1674.0238617159293,1276
1676.043559475138,1298
1678.0627433120121,1354
1680.081413482059,1270
1682.0995702408654,1312
1684.117213844096,1286
1686.134344547495,1339
1688.1509626068864,1298
1690.1670682781705,1316
1692.182661817329,1335
1694.1977434804217,1313
1696.2123135235875,1359
1698.226372203043,1310
1700.2399197750851,1356
1702.2529564960905,1376
1704.2654826225112,1355
1706.277498410882,1391
1708.2890041178139,1359
1710.2999999999988,1333
1712.3104863142066,1304
1714.3204633172854,1350
1716.329931266163,1369
1718.3388904178469,1376
1720.3473410294214,1313
1722.3552833580516,1363
1724.3627176609807,1366
1726.3696441955308,1367
1728.3760632191033,1338
1730.3819749891782,1350
1732.3873797633146,1293
1734.3922777991502,1304
1736.3966693544012,1342
1738.4005546868639,1325
1740.4039340544127,1347
1742.406807715001,1336
1744.4091759266616,1297
1746.4110389475054,1295
1748.4123970357223,1329
1750.413250449582,1312
1752.4135994474318,1321
1754.4134442876993,1361
1756.4127852288902,1313
1758.4116225295893,1281
1760.4099564484595,1289
1762.407787244244,1313
1764.405115175764,1340
1766.4019405019203,1358
1768.3982634816916,1367
1770.3940843741357,1285
1772.3894034383907,1353
1774.3842209336717,1252
1776.378537119274,1327
1778.372352254571,1267
1780.3656665990156,1281
1782.3584804121397,1295
1784.3507939535534,1300
1786.3426074829463,1319
1788.3339212600863,1357
1790.3247355448211,1285
1792.3150505970766,1339
1794.3048666768573,1314
1796.2941840442477,1296
1798.2830029594106,1251
1800.2713236825884,1305
1802.2591464741004,1286
1804.2464715943465,1350
1806.2332993038058,1358
1808.2196298630352,1315
1810.2054635326708,1340
1812.190800573428,1278
1814.175641246101,1345
1816.1599858115628,1340
1818.1438345307652,1280
1820.127187664738,1289
1822.1100454745924,1297
1824.092408221516,1314
1826.0742761667766,1340
1828.055649571721,1330
1830.0365286977735,1341
1832.0169138064398,1305
1833.9968051593014,1291
1835.9762030180214,1257
1837.9551076443408,1309
1839.9335193000788,1259
1841.9114382471344,1256
1843.888864747485,1354
1845.8657990631878,1320
1847.842241456378,1284
1849.8181921892697,1292
1851.7936515241558,1272
1853.7686197234098,1264
1855.7430970494815,1310
1857.7170837649014,1283
1859.6905801322787,1293
1861.6635864143004,1306
1863.6361028737338,1276
1865.608129773424,1337
1867.5796673762961,1256
1869.5507159453537,1310
1871.521275743678,1304
1873.4913470344313,1331
1875.4609300808534,1326
1877.4300251462632,1299
1879.3986324940588,1297
1881.366752387717,1325
1883.3343850907936,1330
1885.3015308669228,1293
1887.268189979819,1285
1889.2343626932739,1311
1891.2000492711595,1268
1893.1652499774254,1324
1895.1299650761011,1310
1897.0941948312952,1323
1899.0579395071945,1311
1901.0211993680641,1376
1902.98397467825,1349
1904.9462657021745,1321
1906.9080727043415,1305
1908.869395949332,1292
1910.8302357018065,1299
1912.790592226504,1293
1914.7504657882428,1331
1916.7098566519212,1308
1918.6687650825133,1316
1920.6271913450764,1296
1922.5851357047422,1273
1924.5425984267245,1266
1926.499579776314,1336
1928.4560800188833,1330
1930.4120994198802,1311
1932.367638244833,1280
1934.32269675935,1314
1936.2772752291175,1281
1938.231373919899,1326
1940.1849930975404,1329
1942.1381330279637,1296
1944.0907939771696,1300
1946.0429762112412,1261
1947.9946799963363,1266
1949.9459055986945,1266
1951.896653284633,1317
1953.8469233205478,1305
1955.7967159729142,1293
1957.7460315082863,1341
1959.6948701932974,1285
1961.6432322946594,1341
1963.5911180791632,1269
1965.5385278136787,1282
1967.4854617651545,1291
1969.4319202006182,1271
1971.377903387176,1317
1973.3234115920136,1273
1975.268445082395,1317
1977.2130041256642,1305
1979.1570889892423,1306
1981.1006999406304,1270
1983.04383724741,1317
1984.986501177238,1336
1986.928691997853,1370
1988.8704099770712,1274
1990.811655382789,1333
1992.7524284829801,1277
1994.692729545698,1319
1996.6325588390755,1295
1998.5719166313224,1314
2000.5108031907307,1301
2002.4492187856677,1305
2004.387163684583,1262
2006.3246381560011,1275
2008.2616424685298,1276
2010.1981768908527,1290
2012.1342416917332,1312
2014.069837140014,1301
2016.0049635046162,1321
2017.9396210545406,1307
2019.8738100588666,1279
2021.8075307867502,1269
2023.740783507431,1341
2025.6735684902228,1266
2027.6058860045214,1283
2029.5377363198004,1332
2031.4691197056118,1340
2033.4000364315875,1215
2035.3304867674374,1267
2037.260470982952,1319
2039.189989347998,1345
2041.1190421325232,1316
2043.047629606554,1283
2044.9757520401945,1293
2046.9034097036288,1334
2048.8306028671195,1289
2050.7573318010086,1279
2052.683596775716,1243
2054.609398061742,1232
2056.5347359296647,1321
2058.4596106501403,1301
2060.384022493906,1317
2062.3079717317764,1252
2064.231458634646,1293
2066.1544834734873,1289
2068.077046519352,1241
2069.99914804337,1263
2071.9207883167524,1284
2073.8419676107865,1302
2075.7626861968406,1295
2077.6829443463607,1303
2079.6027423308715,1298
2081.522080421977,1258
2083.440958891362,1253
2085.359378010786,1247
2087.2773380520907,1260
2089.194839287196,1270
2091.111881988101,1283
2093.0284664268825,1261
2094.9445928756973,1272
2096.86026160678,1291
2098.775472892446,1275
2100.690227005088,1261
2102.604524217178,1291
2104.5183648012676,1323
2106.431749029985,1263
2108.34467717604,1303
2110.2571495122206,1310
2112.169166311393,1275
2114.080727846503,1326
2115.9918343905747,1290
2117.902486216711,1324
2119.8126835980956,1257
2121.722426807987,1311
2123.6317161197285,1290
2125.5405518067364,1366
2127.448934142509,1312
2129.356863400624,1296
2131.264339854737,1305
2133.1713637785815,1343
2135.077935445972,1312
2136.9840551308002,1294
2138.889723107037,1342
2140.7949396487334,1275
2142.699705030018,1323
2144.6040195250994,1307
2146.507883408264,1285
2148.4112969538774,1349
2150.3142604363848,1314
2152.2167741303097,1313
2154.1188383102535,1328
2156.0204532508997,1338
2157.9216192270064,1295
2159.822336513414,1402
2161.7226053850413,1283
2163.622426116884,1352
2165.5217989840185,1331
2167.4207242616,1365
2169.319202224862,1323
2171.2172331491165,1335
2173.1148173097563,1333
2175.0119549822507,1352
2176.90864644215,1368
2178.8048919650823,1299
2180.7006918267534,1342
2182.596046302952,1409
2184.4909556695407,1433
2186.3854202024645,1341
2188.279440177746,1392
2190.173015871487,1376
2192.066147559868,1303
2193.958835519149,1357
2195.851080025667,1442
2197.7428813558417,1381
2199.6342397861667,1332
2201.5251555932186,1381
2203.415629053651,1365
2205.3056604441986,1460
2207.19525004167,1428
2209.084398122958,1433
2210.9731049650327,1430
2212.861370844941,1421
2214.749196039812,1393
2216.636580826851,1385
2218.523525483344,1396
2220.410030286655,1432
2222.296095514226,1370
2224.1817214435805,1407
2226.066908352319,1356
2227.951656518121,1441
2229.835966218746,1377
2231.71983773203,1401
2233.6032713358913,1441
2235.486267308324,1422
2237.3688259274036,1440
2239.2509474712824,1345
2241.132632218193,1394
2243.013880446447,1408
2244.8946924344323,1434
2246.7750684606203,1434
2248.6550088035574,1364
2250.534513741871,1510
2252.413583554265,1485
2254.292218519526,1410
2256.170418916517,1390
2258.0481850241786,1392
2259.925517121534,1371
2261.8024154876825,1424
2263.678880401803,1462
2265.5549121431536,1447
2267.430510991071,1429
2269.305677224971,1431
2271.180411124348,1406
2273.0547129687766,1397
2274.9285830379076,1363
2276.8020216114737,1427
2278.6750289692845,1394
2280.5476053912294,1353
2282.4197511572766,1398
2284.2914665474727,1453
2286.162751841943,1467
2288.0336073208937,1421
2289.904033264608,1433
2291.774029953448,1419
2293.6435976678554,1470
2295.5127366883517,1361
2297.381447295534,1385
2299.2497297700825,1288
2301.1175843927526,1264
2302.9850114443825,1247
2304.852011205885,1195
2306.7185839582553,1198
2308.5847299825664,1221
2310.4504495599676,1273
2312.3157429716925,1161
2314.1806104990483,1173
2316.0450524234247,1172
2317.9090690262888,1171
2319.772660589186,1174
2321.635827393742,1146
2323.498569721661,1202
2325.3608878547248,1176
2327.2227820747967,1174
2329.0842526638157,1157
2330.945299903803,1190
2332.805924076857,1185
2334.6661254651535,1174
2336.525904350951,1159
2338.3852610165827,1135
2340.244195744464,1102
2342.102708817088,1166
2343.9608005170253,1160
2345.8184711269287,1160
2347.675720929526,1179
2349.532550207628,1146
2351.38895924412,1186
2353.24494832197,1123
2355.100517724223,1153
2356.955667734004,1155
2358.810398634514,1172
2360.664710709037,1141
2362.5186042409337,1172
2364.3720795136437,1141
2366.225136810686,1197
2368.0777764156583,1180
2369.929998612237,1136
2371.7818036841777,1127
2373.633191915315,1214
2375.484163589562,1134
2377.3347189909114,1150
2379.184858403434,1109
2381.03458211128,1101
2382.8838903986775,1163
2384.732783549936,1131
2386.5812618494406,1116
2388.4293255816588,1181
2390.2769750311327,1149
2392.1242104824883,1165
2393.971032220427,1118
2395.8174405297295,1111
2397.6634356952563,1114
2399.509018001947,1135
2401.3541877348193,1133
2403.1989451789705,1169
2405.043290619576,1139
2406.8872243418905,1145
2408.730746631247,1143
2410.5738577730594,1155
2412.4165580528183,1160
2414.258847756095,1141
2416.100727168537,1122
2417.9421965758734,1174
2419.783256263912,1138
2421.623906518538,1133
2423.4641476257157,1164
2425.303979871491,1149
2427.143403541984,1106
2428.9824189233977,1118
2430.821026302012,1190
2432.6592259641866,1147
2434.497018196361,1172
2436.33440328505,1171
2438.171381516851,1192
2440.00795317844,1088
2441.844118556569,1161
2443.6798779380724,1176
2445.5152316098606,1161
2447.3501798589255,1123
2449.1847229723357,1157
2451.0188612372403,1179
2452.8525949408663,1169
2454.6859243705203,1144
2456.518849813587,1133
2458.3513715575314,1138
2460.183489889895,1130
2462.015205098301,1151
2463.8465174704493,1137
2465.67742729412,1179
2467.5079348571717,1158
2469.338040447542,1126
2471.1677443532476,1162
2472.9970468623833,1180
2474.825948263123,1143
2476.6544488437207,1173
2478.482548892508,1169
2480.310248697896,1204
2482.137548548374,1170
2483.9644487325118,1197
2485.790949538956,1157
2487.617051256433,1165
2489.44275417375,1136
2491.26805857979,1191
2493.0929647635157,1168
2494.917473013971,1162
2496.741583620276,1150
2498.5652968716304,1180
2500.3886130573137,1115
2502.2115324666834,1162
2504.0340553891765,1182
2505.856182114308,1225
2507.6779129316733,1167
2509.499248130945,1152
2511.3201880018764,1122
2513.140732834298,1152
2514.9608829181198,1147
2516.780638543331,1173
2518.6,1124
2520.418967578273,1148
2522.237541568376,1115
2524.0557222606144,1163
2525.8735099453706,1128
2527.6909049131086,1169
2529.507907454368,1097
2531.32451785977,1157
2533.140736420014,1192
2534.9565634258774,1155
2536.771999168218,1193
2538.5870439379714,1145
2540.4016980261526,1190
2542.2159617238544,1233
2544.02983532225,1154
2545.8433191125914,1208
2547.656413386209,1114
2549.4691184345115,1170
2551.2814345489874,1229
2553.093362021204,1137
2554.904901142808,1196
2556.716052205523,1184
2558.526815501153,1207
2560.3371913215824,1197
2562.147179958771,1142
2563.956781704761,1199
2565.7659968516705,1212
2567.5748256916986,1211
2569.3832685171224,1207
2571.1913256202984,1185
2572.9989972936614,1171
2574.806283829725,1178
2576.613185521084,1166
2578.4197026604074,1170
2580.2258355404483,1253
2582.031584454035,1201
2583.836949694077,1215
2585.6419315535613,1186
2587.4465303255533,1177
2589.2507463032002,1206
2591.0545797797245,1195
2592.8580310484303,1216
2594.6611004026995,1182
2596.463788135992,1200
2598.266094541849,1186
2600.0680199138874,1189
2601.869564545807,1207
2603.670728731383,1208
2605.4715127644704,1170
2607.2719169390048,1230
2609.071941548998,1184
2610.8715868885433,1191
2612.670853251811,1185
2614.469740933052,1189
2616.268250226594,1174
2618.0663814268455,1193
2619.864134828292,1202
2621.6615107255006,1204
2623.458509413115,1248
2625.2551311858597,1153
2627.0513763385347,1205
2628.8472451660223,1205
2630.6427379632833,1162
2632.4378550253564,1197
2634.232596647359,1181
2636.026963124488,1184
2637.8209547520187,1163
2639.6145718253065,1188
2641.407814639785,1204
2643.200683490966,1201
2644.9931786744414,1183
2646.7853004858807,1207
2648.577049221034,1209
2650.3684251757277,1129
2652.1594286458712,1157
2653.9500599274484,1234
2655.740319316525,1185
2657.5302071092437,1142
2659.3197236018286,1151
2661.10886909058,1154
2662.8976438718782,1181
2664.686048242183,1148
2666.4740824980327,1170
2668.2617469360443,1150
2670.0490418529134,1136
2671.8359675454153,1154
2673.622524310403,1182
2675.408712444811,1155
2677.1945322456495,1177
2678.979984010009,1222
2680.76506803506,1134
2682.5497846180497,1120
2684.334134056306,1180
2686.1181166472343,1112
2687.9017326883213,1161
2689.6849824771293,1183
2691.4678663113013,1159
2693.2503844885596,1162
2695.032537306705,1141
2696.8143250636167,1134
2698.5957480572542,1171
2700.3768065856534,1180
2702.1575009469316,1194
2703.937831439283,1098
2705.717798360982,1145
2707.4974020103837,1158
2709.276642685917,1187
2711.055520686095,1132
2712.834036309506,1149
2714.612189854819,1191
2716.389981620782,1135
2718.1674119062204,1166
2719.944481010041,1158
2721.721189231226,1141
2723.4975368688415,1195
2725.273524222027,1128
2727.0491515900053,1147
2728.824419272075,1116
2730.5993275676146,1151
2732.3738767760838,1122
2734.148067197016,1138
2735.921899130031,1126
2737.6953728748194,1124
2739.468488731156,1164
2741.2412469988926,1132
2743.0136479779617,1193
2744.785691968372,1151
2746.5573792702116,1153
2748.3287101836504,1210
2750.099685008934,1165
2751.870304046388,1115
2753.640567596418,1131
2755.4104759595057,1075
2757.1800294362156,1142
2758.949228327187,1148
2760.7180729331412,1188
2762.486563554877,1150
2764.254700493272,1206
2766.022484049284,1142
2767.789914523947,1151
2769.5569922183786,1159
2771.3237174337705,1125
2773.090090471394,1146
2774.8561116326036,1151
2776.6217812188274,1117
2778.3870995315756,1147
2780.1520668724356,1188
2781.9166835430747,1154
2783.6809498452394,1122
2785.444866080754,1106
2787.2084325515225,1138
2788.971649559527,1113
2790.73451740683,1148
2792.4970363955713,1152
2794.2592068279705,1146
2796.0210290063264,1166
2797.7825032330147,1146
2799.543629810493,1166
2801.304409041296,1156
2803.0648412280366,1154
2804.8249266734088,1171
2806.5846656801846,1204
2808.344058551212,1203
2810.1031055894246,1139
2811.8618070978273,1176
2813.6201633795085,1165
2815.378174737636,1183
2817.1358414754536,1135
2818.893163896285,1151
2820.6501423035334,1157
2822.4067770006814,1182
2824.1630682912883,1177
2825.9190164789957,1065
2827.6746218675207,1153
2829.429884760661,1229
2831.184805462294,1101
2832.9393842763743,1220
2834.693621506936,1192
2836.4475174580916,1203
2838.201072434034,1155
2839.954286739034,1172
2841.707160677441,1188
2843.459694553685,1174
2845.2118886722724,1139
2846.96374333779,1119
2848.7152588549034,1138
2850.4664355283567,1160
2852.217273662973,1159
2853.9677735636546,1201
2855.7179355353833,1159
2857.4677598832186,1202
2859.217246912299,1166
2860.9663969278427,1183
2862.715210235146,1143
2864.4636871395846,1124
2866.211827946614,1174
2867.9596329617652,1128
2869.7071024906536,1123
2871.4542368389684,1137
2873.20103631248,1140
2874.947501217038,1178
2876.6936318585695,1134
2878.4394285430812,1136
2880.1848915766604,1183
2881.9300212654707,1169
2883.6748179157553,1157
2885.4192818338374,1138
2887.1634133261173,1173
2888.907212699077,1159
2890.6506802592744,1205
2892.393816313348,1159
2894.1366211680142,1224
2895.8790951300693,1194
2897.621238506388,1172
2899.363051603925,1217
2901.1045347297118,1147
2902.8456881908596,1160
2904.58651229456,1147
2906.327007348081,1102
2908.067173658772,1122
2909.8070115340597,1226
2911.5465212814497,1172
2913.285703208527,1175
2915.0245576229563,1163
2916.7630848324807,1067
2918.5012851449196,1133
2920.2391588681758,1167
2921.976706310227,1193
2923.7139277791334,1163
2925.4508235830313,1153
2927.187394030137,1154
2928.923639428745,1147
2930.6595600872306,1177
2932.395156314046,1199
2934.1304284177218,1230
2935.8653767068713,1188
2937.6000014901815,1163
2939.3343030764227,1119
2941.068281774442,1190
2942.8019378931644,1171
2944.5352717415976,1211
2946.2682836288236,1168
2948.0009738640065,1205
2949.7333427563885,1172
2951.465390615289,1183
2953.1971177501086,1179
2954.9285244703265,1211
2956.6596110855,1187
2958.3903779052657,1212
2960.1208252393385,1138
2961.8509533975125,1145
2963.5807626896617,1151
2965.3102534257378,1152
2967.0394259157715,1153
2968.768280469873,1126
2970.496817398232,1178
2972.2250370111146,1189
2973.952939618869,1182
2975.6805255319196,1127
2977.4077950607707,1200
2979.134748516006,1224
2980.861386208289,1166
2982.587708448359,1149
2984.313715547037,1184
2986.039407815222,1131
2987.764785563891,1124
2989.489849104102,1177
2991.2145987469908,1178
2992.9390348037705,1144
2994.6631575857346,1180
2996.3869674042576,1140
2998.1104645707887,1137
2999.83364939686,1141
3001.5565221940783,1199
3003.2790832741334,1186
3005.0013329487924,1177
3006.7232715298996,1096
3008.4448993293804,1089
3010.166216659239,1197
3011.887223831558,1108
3013.607921158498,1155
3015.3283089522993,1095
3017.0483875252826,1170
3018.7681571898443,1175
3020.4876182584626,1178
3022.2067710436927,1148
3023.9256158581707,1159
3025.644153014609,1119
3027.362382825801,1153
3029.0803056046193,1155
3030.797921664012,1152
3032.5152313170106,1102
3034.2322348767225,1138
3035.9489326563353,1158
3037.665324969115,1113
3039.3814121284063,1166
3041.097194447633,1130
3042.812672240299,1148
3044.5278458199855,1110
3046.2427155003525,1188
3047.9572815951406,1189
3049.671544418167,1138
3051.38550428333,1182
3053.0991615046073,1127
3054.812516396051,1162
3056.5255692717974,1173
3058.2383204460575,1065
3059.9507702331257,1133
3061.662918947372,1128
3063.3747669032446,1154
3065.0863144152736,1114
3066.7975617980674,1180
3068.508509366309,1152
3070.219157434767,1142
3071.9295063182844,1132
3073.639556331785,1135
3075.3493077902704,1086
3077.058761008821,1158
3078.7679163025964,1177
3080.476773986837,1111
3082.1853343768594,1145
3083.89359778806,1143
3085.6015645359153,1166
3087.3092349359786,1151
3089.016609303884,1198
3090.7236879553434,1152
3092.4304712061476,1138
3094.136959372166,1122
3095.843152769349,1153
3097.5490517137237,1183
3099.2546565213966,1097
3100.959967508554,1139
3102.66498499146,1129
3104.3697092864577,1149
3106.0741407099695,1133
3107.778279578498,1116
3109.482126208622,1201
3111.1856809170004,1148
3112.8889440203716,1168
3114.5919158355528,1145
3116.294596679439,1170
3117.996986869006,1140
3119.6990867213062,1156
3121.4008965534726,1163
3123.102416682717,1150
3124.803647426329,1164
3126.5045891016784,1171
3128.205242026213,1192
3129.90560651746,1121
3131.605682893025,1109
3133.3054714705922,1166
3135.0049725679282,1170
3136.7041865028714,1200
3138.4031135933465,1131
3140.101754157353,1177
3141.800108512971,1142
3143.498176978357,1160
3145.1959598717494,1149
3146.8934575114636,1174
3148.5906702158954,1069
3150.2875983035183,1122
3151.9842420928853,1148
3153.680601902627,1186
3155.376678051456,1149
3157.07247085816,1146
3158.767980641609,1162
3160.463207720748,1128
3162.158152414606,1165
3163.8528150422862,1165
3165.5471959229726,1138
3167.2412953759303,1152
3168.9351137204976,1157
3170.628651276098,1120
3172.3219083622307,1104
3174.014885298474,1185
3175.707582404485,1129
3177.4000000000005,1152
3179.092138404835,1166
3180.7839979388846,1174
3182.47557892212,1105
3184.166881674594,1199
3185.8579065164386,1176
3187.5486537678626,1168
3189.2391237491547,1184
3190.9293167806827,1148
3192.6192331828934,1159
3194.3088732763117,1125
3195.998237381542,1141
3197.687325819268,1143
3199.376138910251,1090
3201.064676975334,1132
3202.7529403354347,1142
3204.4409293115523,1159
3206.1286442247647,1132
3207.816085396229,1129
3209.5032531471825,1179
3211.190147798936,1166
3212.8767696728846,1139
3214.5631190905015,1121
3216.2491963733373,1116
3217.9350018430214,1182
3219.6205358212637,1078
3221.305798629851,1148
3222.990790590651,1123
3224.6755120256103,1081
3226.359963256751,1113
3228.0441446061795,1141
3229.7280563960758,1118
3231.411698948703,1111
3233.0950725863995,1157
3234.778177631587,1154
3236.461014406761,1129
3238.1435832345005,1107
3239.8258844374595,1176
3241.507918338374,1127
3243.1896852600576,1116
3244.8711855254023,1135
3246.552419457381,1110
3248.233387379042,1077
3249.914089613516,1142
3251.59452648401,1200
3253.274698313813,1185
3254.95460542629,1174
3256.6342481448855,1147
3258.313626793125,1152
3259.9927416946084,1100
3261.6715931730196,1125
3263.3501815521176,1219
3265.0285071557437,1098
3266.706570307815,1115
3268.3843713323286,1099
3270.0619105533615,1110
3271.739188295068,1179
3273.4162048816834,1171
3275.0929606375184,1119
3276.769455886966,1121
3278.445690954498,1167
3280.1216661646613,1117
3281.797381842087,1163
3283.4728383114807,1138
3285.1480358976296,1182
3286.8229749253996,1201
3288.4976557197333,1164
3290.172078605655,1155
3291.846243908266,1105
3293.5201519527463,1140
3295.193803064357,1130
3296.8671975684374,1150
3298.5403357904024,1176
3300.21321805575,1091
3301.8858446900567,1141
3303.558216018975,1143
3305.23033236824,1162
3306.9021940636603,1121
3308.57380143113,1162
3310.2451547966184,1180
3311.916254486174,1136
3313.5871008259246,1162
3315.2576941420766,1144
3316.9280347609147,1117
3318.5981230088046,1143
3320.2679592121895,1112
3321.9375436975924,1154
3323.606876791612,1108
3325.27595882093,1118
3326.944790112305,1107
3328.6133709925753,1156
3330.2817017886573,1126
3331.949782827547,1140
3333.617614436319,1144
3335.2851969421245,1161
3336.952530672199,1091
3338.619615953853,1123
3340.286453114475,1150
3341.9530424815357,1155
3343.619384382583,1183
3345.2854791452437,1153
3346.951327097224,1167
3348.6169285663073,1079
3350.2822838803577,1119
3351.947393367319,1123
3353.61225735521,1121
3355.2768761721345,1120
3356.9412501462693,1169
3358.605379605873,1186
3360.2692648792827,1156
3361.9329062949146,1128
3363.596304181263,1117
