CollectionTime,7/11/2024 2:07:35 PM
ExposureUsed,3
CalibratedSpectrum
-962.7078968117929,452
-959.9714848408522,480
-957.2358232597828,453
-954.5009119013725,475
-951.7667505983302,483
-949.0333391832855,477
-946.3006774887896,466
-943.5687653473143,485
-940.837602591253,505
-938.1071890529199,490
-935.3775245645503,466
-932.6486089583007,490
-929.9204420662485,494
-927.1930237203925,510
-924.4663537526524,469
-921.7404319948689,491
-919.0152582788041,504
-916.2908324361409,531
-913.5671542984834,522
-910.8442236973568,478
-908.1220404642074,480
-905.4006044304027,516
-902.679915427231,501
-899.959973285902,456
-897.2407778375464,465
-894.5223289132158,454
-891.8046263438832,458
-889.0876699604426,467
-886.3714595937089,465
-883.6559950744183,461
-880.9412762332282,459
-878.2273029007168,475
-875.5140749073835,474
-872.8015920836489,501
-870.0898542598545,483
-867.3788612662631,473
-864.6686129330585,497
-861.9591090903457,496
-859.2503495681506,475
-856.5423341964203,479
-853.8350628050229,476
-851.1285352237478,485
-848.4227512823054,500
-845.7177108103272,493
-843.0134136373656,497
-840.3098595928943,484
-837.6070485063082,487
-834.9049802069229,503
-832.2036545239757,495
-829.5030712866244,483
-826.8032303239481,516
-824.1041314649472,493
-821.4057745385428,492
-818.7081593735775,513
-816.0112857988148,516
-813.3151536429393,468
-810.6197627345566,500
-807.9251129021936,473
-805.2312039742981,504
-802.5380357792392,505
-799.8456081453069,511
-797.1539209007124,493
-794.462973873588,529
-791.772766891987,516
-789.083299783884,494
-786.3945723771743,464
-783.7065844996748,481
-781.0193359791231,500
-778.3328266431781,510
-775.6470563194197,513
-772.9620248353489,501
-770.2777320183878,472
-767.5941776958798,526
-764.9113616950891,533
-762.2292838432011,521
-759.5479439673222,497
-756.8673418944801,484
-754.1874774516235,492
-751.5083504656222,519
-748.8299607632671,512
-746.15230817127,542
-743.475392516264,526
-740.7992136248035,499
-738.1237713233636,510
-735.4490654383407,547
-732.7750957960521,547
-730.1018622227365,520
-727.4293645445534,525
-724.7576025875837,517
-722.0865761778291,504
-719.4162851412126,522
-716.7467293035781,515
-714.0779084906909,524
-711.409822528237,536
-708.7424712418238,504
-706.0758544569796,522
-703.4099719991541,543
-700.7448236937178,566
-698.0804093659622,557
-695.4167288411002,534
-692.7537819442656,545
-690.0915685005134,540
-687.4300883348199,504
-684.7693412720819,532
-682.1093271371178,531
-679.4500457546669,534
-676.7914969493897,541
-674.1336805458676,502
-671.4765963686034,544
-668.8202442420206,550
-666.1646239904642,525
-663.5097354382001,556
-660.8555784094151,554
-658.2021527282176,551
-655.5494582186366,536
-652.8974947046223,540
-650.2462620100463,585
-647.5957599587009,573
-644.9459883742998,559
-642.2969470804776,548
-639.6486359007902,581
-637.0010546587141,601
-634.3542031776476,584
-631.7080812809096,555
-629.0626887917401,578
-626.4180255333008,568
-623.7740913286734,587
-621.1308860008619,608
-618.4884093727904,590
-615.8466612673046,556
-613.2056415071715,567
-610.5653499150785,565
-607.9257863136347,599
-605.28695052537,604
-602.6488423727357,599
-600.0114616781036,569
-597.3748082637674,589
-594.7388819519412,572
-592.1036825647604,626
-589.4692099242818,678
-586.8354638524829,646
-584.2024441712624,589
-581.5701507024403,620
-578.9385832677575,597
-576.3077416888759,612
-573.6776257873787,612
-571.0482353847704,575
-568.4195703024757,592
-565.7916303618415,610
-563.164415384135,634
-560.5379251905453,585
-557.9121596021815,617
-555.2871184400748,594
-552.6628015251767,593
-550.0392086783606,619
-547.4163397204204,641
-544.794194472071,624
-542.1727727539491,651
-539.5520743866118,651
-536.9320991905377,727
-534.3128469861261,703
-531.6943175936979,734
-529.0765108334947,733
-526.4594265256793,743
-523.8430644903358,890
-521.2274245474689,980
-518.612506517005,1062
-515.9983102187913,1037
-513.3848354725959,1094
-510.77208209810846,1285
-508.16004991493924,1403
-505.5487387426199,1606
-502.9381484006032,1620
-500.3282787082628,1474
-497.71912948489364,1497
-495.1107005497117,1322
-492.5029917218539,1080
-489.8960028203786,953
-487.28973366426493,862
-484.68418407241325,813
-482.07935386364494,782
-479.47524285670266,784
-476.87185087025,771
-474.2691777228715,830
-471.66722323307334,804
-469.0659872192821,816
-466.4654694998459,815
-463.86566989303384,783
-461.26658821703614,771
-458.66822428996414,753
-456.07057792985,771
-453.4736489546475,763
-450.877437182231,772
-448.28194243039627,738
-445.68716451686,763
-443.09310325926003,736
-440.49975847515555,766
-437.9071299820263,761
-435.31521759727354,768
-432.72402113821954,793
-430.13354042210767,787
-427.5437752661022,787
-424.95472548728867,813
-422.36639090267386,784
-419.7787713291855,795
-417.1918665836721,883
-414.60567648290385,854
-412.0202008435715,820
-409.4354394822874,819
-406.8513922155845,847
-404.26805885991723,895
-401.685439231661,886
-399.103533147112,871
-396.522340422488,819
-393.9418608739278,801
-391.3620943174908,782
-388.7830405691583,795
-386.2046994448317,794
-383.6270707603344,774
-381.05015433141045,725
-378.473949973725,711
-375.8984575028645,685
-373.32367673433623,642
-370.74960748356875,662
-368.1762495659117,639
-365.60360279663576,578
-363.03166699093265,548
-360.4604419639154,534
-357.8899275306178,531
-355.32012350599507,513
-352.7510297049233,521
-350.1826459421999,458
-347.61497203254316,490
-345.04800779059235,536
-342.4817530309082,521
-339.91620756797226,520
-337.35137121618743,548
-334.7872437898774,537
-332.22382510328725,543
-329.66111497058273,525
-327.09911320585127,472
-324.53781962310075,497
-321.9772340362607,490
-319.4173562591816,468
-316.8581861056348,494
-314.2997233893127,537
-311.7419679238294,510
-309.1849195227194,595
-306.62857799943856,541
-304.0729431673641,545
-301.51801483979375,562
-298.963792829947,544
-296.41027695096386,633
-293.85746701590574,647
-291.3053628377552,612
-288.7539642294155,638
-286.2032710037115,561
-283.65328297338897,570
-281.1039999511146,639
-278.5554217494762,725
-276.007548180983,681
-273.4603790580651,559
-270.9139141930734,612
-268.3681533982807,591
-265.8230964858798,593
-263.27874326798565,627
-260.7350935566336,642
-258.1921471637804,627
-255.6499039013039,680
-253.10836358100266,670
-250.56752601459698,636
-248.02739101372765,632
-245.48795838995704,667
-242.94922795476816,687
-240.41119951956557,683
-237.8738728956746,706
-235.33724789434166,689
-232.80132432673452,686
-230.2661020039418,623
-227.73158073697357,693
-225.19776033676033,842
-222.66464061415422,854
-220.1322213799284,781
-217.60050244477725,682
-215.06948361931552,691
-212.53916471408013,740
-210.00954553952818,821
-207.48062590603843,749
-204.9524056239104,771
-202.4248845033651,812
-199.8980623545441,847
-197.37193898751036,873
-194.84651421224817,863
-192.32178783866232,786
-189.79775967657952,865
-187.27442953574644,840
-184.7517972258321,866
-182.2298625564256,870
-179.7086253370378,888
-177.18808537710026,847
-174.66824248596583,957
-172.14909647290835,931
-169.6306471471229,961
-167.11289431772548,972
-164.59583779375328,1076
-162.07947738416453,997
-159.5638128978386,974
-157.04884414357605,1053
-154.53457093009854,1242
-152.02099306604828,1194
-149.50811035998936,1105
-146.99592262040665,1094
-144.48442965570587,1098
-141.97363127421409,1081
-139.46352728417958,1048
-136.95411749377126,1057
-134.44540171107985,1006
-131.93737974411636,1012
-129.43005140081357,1125
-126.92341648902493,1577
-124.41747481652521,1779
-121.91222619101006,1970
-119.40767042009657,2231
-116.90380731132257,2769
-114.40063667214702,2861
-111.8981583099503,2672
-109.3963720320337,2025
-106.89527764561933,1756
-104.39487495785067,1807
-101.89516377579241,3150
-99.39614390642998,4366
-96.89781515667039,5329
-94.40017733334128,4803
-91.90323024319173,3967
-89.40697369289148,4116
-86.91140748903172,7001
-84.41653143812482,8229
-81.92234534660395,6542
-79.42884902082358,5543
-76.93604226705907,9852
-74.4439248915071,19485
-71.95249670028534,30403
-69.46175749943245,36496
-66.97170709490854,33564
-64.48234529259423,25958
-61.99367189829195,19050
-59.50568671772464,15921
-57.01838955653636,12901
-54.53178022029283,10318
-52.045858514480074,10137
-49.560624244506016,12397
-47.07607721569923,14362
-44.59221723330904,15190
-42.10904410250669,13838
-39.62655762838392,12784
-37.14475761595372,12392
-34.66364387015028,14160
-32.18321619582866,18198
-29.70347439776515,20502
-27.224418280657005,23146
-24.74604764912317,25451
-22.26836230770266,29365
-19.7913620608565,41651
-17.315046712966478,65037
-14.83941606833514,65037
-12.36446993118659,65037
-9.89020810566592,65037
-7.416630395839093,65037
-4.94373660569363,65037
-2.471526539137585,65037
-6.821210263296962E-13,65037
2.47084320796705,65037
4.941003281093458,65037
7.410480415786196,65037
9.879274808531363,65037
12.347386655893956,65037
14.814816154518212,65037
17.28156350112681,65037
19.74762889252179,65037
22.21301252558385,65037
24.67771459727237,20918
27.141735304626195,4751
29.605074844762612,3959
32.06773341487792,3029
34.52971121224755,2840
36.99100843422559,3504
39.45162527824516,2714
41.91156194181792,1961
44.370818622535126,1890
46.82939551806646,1727
49.287292826160524,2088
51.74451074464503,2917
54.201049471426245,2541
56.65690920448981,1678
59.112090141899785,1765
61.56659248179983,1676
64.02041642241159,1576
66.4735621620365,1335
68.92602989905402,1273
71.37781983192338,1378
73.82893215918205,1650
76.27936707944684,1682
78.72912479141326,1433
81.17820549385567,1387
83.62660938562783,1520
86.07433666566146,1533
88.5213875329681,1147
90.96776218663751,1179
93.41346082583925,1188
95.85848364982041,1351
98.30283085790859,1435
100.7465026495089,1354
103.18949922410604,1272
105.63182078126385,1133
108.07346752062438,1160
110.51443964190923,1179
112.95473734491827,954
115.39436082953114,1019
117.83331029570547,1078
120.27158594347827,1193
122.7091879729652,1505
125.1461165843615,1269
127.58237197794062,1094
130.01795435405518,969
132.4528639131364,1035
134.88710085569494,1177
137.32066538231982,1365
139.75355769367923,1196
142.1857779905207,1044
144.61732647366978,927
147.04820334403132,886
149.47840880258934,943
151.90794305040674,1021
154.33680628862487,1147
156.76499871846443,1338
159.19252054122433,1330
161.61937195828352,1407
164.04555317109896,1448
166.47106438120693,1481
168.89590579022217,1659
171.320077599839,1818
173.7435800118302,2025
176.16641322804742,2089
178.58857745042144,1935
181.01007288096173,2061
183.43089972175687,2099
185.85105817497413,1919
188.27054844285988,2046
190.6893707277394,2036
193.10752523201643,2078
195.5250121581745,2122
197.9418317087751,2154
200.3579840864594,2129
202.7734694939469,2202
205.18828813403627,2189
207.6024402096051,2172
210.01592592360964,2265
212.42874547908548,2347
214.84089907914665,2225
217.2523869269868,2193
219.66320922587727,2190
222.0733661791695,2224
224.48285799029293,2248
226.8916848627572,2207
229.29984700014882,2292
231.7073446061355,2246
234.11417788446204,2150
236.520347038953,2283
238.92585227351185,2193
241.33069379212054,2290
243.73487179884035,2334
246.1383864978112,2297
248.541238093252,2212
250.9434267894609,2233
253.34495279081432,2223
255.74581630176783,2089
258.1460175268563,2184
260.54555667069314,2266
262.9444339379703,2175
265.3426495334594,2179
267.7402036620107,2288
270.1370965285529,2233
272.53332833809407,2314
274.9288992957214,2189
277.32380960660055,2211
279.718059475976,2156
282.1116491091717,2209
284.5045787115897,2204
286.89684848871195,2088
289.2884586460981,2235
291.67940938938807,2225
294.0697009242996,2193
296.4593334566299,2226
298.84830719225477,2210
301.23662233712923,2096
303.6242790972866,2120
306.01127767884,2084
308.39761828798066,2085
310.78330113097934,2148
313.16832641418534,2061
315.5526943440269,2092
317.9364051270112,2033
320.3194589697242,2011
322.70185607883093,2022
325.0835966610754,2000
327.4646809232805,1972
329.8451090723478,2017
332.2248813152577,2036
334.6039978590701,1969
336.9824589109231,1961
339.36026467803447,1923
341.7374153677,1871
344.113911187295,1877
346.48975234427337,1888
348.8649390461686,1825
351.2394715005918,1936
353.61334991523415,1960
355.9865744978655,1901
358.35914545633375,1882
360.73106299856715,1929
363.10232733257146,1905
365.47293866643247,1848
367.84289720831396,1833
370.2122031664593,1809
372.5808567491905,1881
374.9488581649083,1860
377.31620762209275,1773
379.6829053293021,1763
382.0489514951745,1727
384.4143463284262,1756
386.7790900378528,1737
389.14318283232853,1786
391.50662492080653,1801
393.86941651231916,1710
396.23155781597745,1753
398.5930490409713,1766
400.9538903965696,1824
403.3140820921202,1829
405.6736243370498,1805
408.03251734086336,1680
410.3907613131465,1766
412.74835646356166,1716
415.10530300185144,1687
417.4616011378372,1695
419.81725108141893,1701
422.1722530425758,1739
424.5266072313656,1702
426.880313857925,1683
429.2333731324701,1694
431.58578526529516,1751
433.9375504667738,1747
436.2886689473588,1710
438.63914091758113,1720
440.9889665880513,1672
443.33814616945835,1672
445.68667987257015,1710
448.03456790823395,1669
450.3818104873759,1702
452.72840782100013,1637
455.07436012019105,1616
457.41966759611057,1698
459.7643304600007,1614
462.10834892318155,1653
464.4517231970525,1631
466.79445349309174,1646
469.1365400228566,1657
471.4779829979826,1694
473.81878263018564,1684
476.15893913125876,1628
478.4984527130747,1754
480.8373235875855,1761
483.17555196682144,1722
485.5131380628919,1852
487.8500820879857,1855
490.1863842543697,1933
492.52204477439034,1958
494.8570638604725,2289
497.1914417251204,2400
499.52517858091653,2796
501.85827464052306,3222
504.19073011668036,3564
506.5225452222086,3772
508.85372017000566,3775
511.18425517304956,3878
513.514150444396,3727
515.8434061971808,4109
518.1720226446176,4448
520.4999999999999,4684
522.8273384766991,4397
525.1540382881666,3915
527.480099647932,3417
529.8055227696037,2978
532.1303078668694,2392
534.454455153496,2050
536.777964843328,1821
539.1008371502907,1896
541.4230722883866,1741
543.744670471698,1776
546.0656319143858,1736
548.3859568306899,1753
550.7056454349294,1720
553.0246979415016,1693
555.3431145648834,1697
557.6608955196306,1754
559.978041020377,1732
562.2945512818363,1670
564.6104265188006,1720
566.9256669461412,1769
569.2402727788082,1759
571.5542442318302,1715
573.8675815203156,1693
576.1802848594508,1743
578.4923544645015,1777
580.8037905508126,1829
583.114593333807,1792
585.4247630289875,1744
587.7342998519354,1665
590.0432040183106,1735
592.3514757438526,1737
594.6591152443794,1762
596.9661227357875,1705
599.2724984340531,1753
601.578242555231,1760
603.8833553154542,1754
606.1878369309362,1775
608.4916876179676,1737
610.7949075929192,1766
613.0974970722403,1743
615.3994562724587,1763
617.7007854101818,1727
620.0014847020951,1705
622.3015543649641,1748
624.6009946156324,1772
626.8998056710224,1800
629.1979877481361,1696
631.4955410640538,1757
633.7924658359349,1691
636.0887622810175,1744
638.3844306166192,1652
640.6794710601358,1725
642.9738838290426,1801
645.2676691408932,1800
647.5608272133207,1754
649.853358264037,1775
652.1452625108324,1773
654.4365401715764,1769
656.7271914642178,1707
659.0172166067838,1824
661.3066158173809,1694
663.5953893141935,1687
665.8835373154867,1763
668.1710600396028,1795
670.4579577049639,1767
672.7442305300709,1759
675.0298787335033,1698
677.3149025339197,1781
679.599302150058,1773
681.8830778007342,1743
684.1662297048437,1741
686.4487580813608,1756
688.7306631493387,1793
691.0119451279091,1822
693.2926042362834,1722
695.5726406937516,1801
697.8520547196814,1755
700.1308465335215,1810
702.4090163547982,1718
704.6865644031171,1696
706.9634908981619,1702
709.2397960596965,1817
711.5154801075631,1766
713.7905432616823,1767
716.0649857420548,1771
718.3388077687592,1751
720.612009561953,1785
722.8845913418733,1787
725.1565533288352,1870
727.427895743234,1848
729.6986188055427,1757
731.9687227363137,1768
734.238207756178,1763
736.5070740858458,1685
738.7753219461066,1771
741.0429515578281,1740
743.3099631419569,1749
745.5763569195191,1825
747.8421331116193,1833
750.1072919394409,1829
752.3718336242467,1736
754.6357583873777,1681
756.8990664502545,1743
759.1617580343765,1732
761.423833361321,1810
763.6852926527457,1750
765.9461361303862,1780
768.206364016058,1816
770.4659765316536,1783
772.7249738991469,1840
774.9833563405886,1868
777.2411240781092,1845
779.4982773339183,1817
781.7548163303044,1878
784.010741289634,1769
786.2660524343538,1872
788.5207499869881,1841
790.7748341701416,1856
793.0283052064964,1846
795.2811633188143,1830
797.5334087299362,1804
799.7850416627813,1839
802.0360623403484,1832
804.2864709857143,1810
806.5362678220353,1832
808.7854530725468,1863
811.0340269605625,1774
813.2819897094754,1784
815.5293415427581,1725
817.77608268396,1819
820.0222133567116,1859
822.2677337847211,1829
824.5126441917765,1833
826.7569448017433,1806
829.0006358385675,1803
831.2437175262731,1837
833.4861900889629,1798
835.7280537508192,1822
837.9693087361026,1829
840.2099552691533,1805
842.4499935743896,1791
844.689423876309,1835
846.9282463994886,1824
849.1664613685833,1905
851.4040690083276,1813
853.6410695435349,1841
855.877463199097,1786
858.1132501999847,1805
860.3484307712487,1827
862.5830051380175,1776
864.8169735254988,1834
867.0503361589791,1828
869.2830932638243,1804
871.5152450654786,1776
873.7467917894654,1819
875.9777336613873,1839
878.2080709069252,1845
880.4378037518389,1873
882.666932421968,1844
884.8954571432301,1820
887.1233781416219,1869
889.3506956432192,1859
891.5774098741766,1886
893.803521060728,1865
896.0290294291852,1850
898.2539352059397,1843
900.4782386174619,1834
902.7019398903011,1821
904.925039251085,1826
907.147536926521,1741
909.3694331433943,1828
911.59072812857,1874
913.8114221089921,1848
916.0315153116827,1795
918.2510079637437,1828
920.4699002923547,1794
922.6881925247761,1766
924.905884888345,1762
927.1229776104793,1825
929.3394709186747,1779
931.555365040506,1782
933.7706602036275,1777
935.9853566357709,1774
938.1994545647489,1793
940.4129542184515,1783
942.6258558248488,1786
944.8381596119883,1851
947.0498658079974,1786
949.2609746410825,1699
951.4714863395287,1703
953.6814011316998,1757
955.8907192460387,1788
958.0994409110671,1811
960.3075663553858,1755
962.5150958076741,1727
964.7220294966913,1703
966.928367651274,1723
969.1341105003388,1774
971.3392582728806,1690
973.5438111979742,1712
975.747769504772,1695
977.9511334225061,1642
980.153903180487,1661
982.3560790081052,1711
984.5576611348289,1645
986.7586497902058,1673
988.9590452038618,1616
991.158847605503,1610
993.3580572249133,1613
995.5566742919558,1663
997.7546990365728,1617
999.952131688785,1588
1002.1489724786926,1516
1004.3452216364743,1550
1006.5408793923874,1509
1008.7359459767691,1476
1010.9304216200343,1510
1013.1243065526781,1449
1015.3176010052733,1486
1017.510305208472,1468
1019.7024193930064,1454
1021.8939437896848,1423
1024.0848786293977,1474
1026.2752241431122,1407
1028.4649805618747,1464
1030.6541481168115,1508
1032.842727039127,1458
1035.0307175601051,1456
1037.2181199111074,1409
1039.4049343235752,1387
1041.591161029029,1361
1043.7768002590683,1350
1045.9618522453698,1436
1048.1463172196918,1370
1050.3301954138697,1357
1052.513487059818,1426
1054.69619238953,1360
1056.8783116350783,1353
1059.0598450286152,1339
1061.2407928023704,1385
1063.4211551886528,1364
1065.6009324198508,1377
1067.780124728432,1383
1069.9587323469414,1334
1072.1367555080046,1368
1074.314194444325,1368
1076.4910493886855,1394
1078.667320573947,1387
1080.843008233051,1368
1083.0181125990161,1333
1085.1926339049414,1299
1087.3665723840027,1339
1089.5399282694575,1383
1091.7127017946405,1307
1093.8848931929647,1349
1096.0565026979243,1297
1098.2275305430899,1310
1100.3979769621128,1388
1102.567842188722,1352
1104.737126456726,1323
1106.9058300000124,1247
1109.0739530525475,1314
1111.2414958483764,1291
1113.4084586216231,1313
1115.5748416064907,1303
1117.7406450372605,1264
1119.9058691482942,1307
1122.0705141740304,1332
1124.2345803489884,1321
1126.3980679077658,1289
1128.5609770850388,1290
1130.7233081155623,1317
1132.8850612341707,1262
1135.0462366757774,1249
1137.2068346753745,1299
1139.3668554680326,1297
1141.526299288901,1273
1143.68516637321,1272
1145.8434569562655,1283
1148.001171273455,1244
1150.158309560244,1224
1152.3148720521767,1263
1154.470858984876,1308
1156.626270594044,1239
1158.7811071154629,1290
1160.9353687849912,1248
1163.089055838569,1290
1165.242168512213,1244
1167.3947070420209,1237
1169.5466716641677,1279
1171.6980626149075,1198
1173.8488801305748,1224
1175.9991244475814,1253
1178.1487958024186,1242
1180.2978944316555,1205
1182.4464205719428,1254
1184.5943744600072,1290
1186.7417563326567,1264
1188.8885664267755,1194
1191.0348049793297,1233
1193.1804722273619,1263
1195.325568407995,1258
1197.4700937584303,1263
1199.614048515948,1260
1201.7574329179074,1233
1203.900247201746,1259
1206.042491604982,1220
1208.1841663652099,1311
1210.3252717201053,1267
1212.465807907422,1260
1214.6057751649923,1290
1216.7451737307279,1294
1218.8840038426192,1283
1221.0222657387353,1294
1223.1599596572241,1235
1225.2970858363137,1313
1227.4336445143094,1277
1229.5696359295966,1283
1231.705060320639,1284
1233.8399179259786,1266
1235.9742089842384,1275
1238.107933734118,1261
1240.2410924143974,1282
1242.373685263935,1254
1244.5057125216676,1292
1246.6371744266116,1244
1248.7680712178621,1260
1250.898403134593,1265
1253.028170416058,1297
1255.1573733015875,1347
1257.2860120305932,1291
1259.4140868425648,1252
1261.54159797707,1270
1263.6685456737569,1287
1265.7949301723515,1250
1267.9207517126597,1344
1270.046010534565,1321
1272.1707068780306,1288
1274.2948409830983,1262
1276.4184130898889,1302
1278.541423438603,1276
1280.6638722695184,1313
1282.785759822993,1324
1284.9070863394636,1324
1287.0278520594447,1382
1289.1480572235314,1294
1291.2677020723963,1311
1293.3867868467923,1308
1295.5053117875495,1301
1297.623277135579,1271
1299.740683131868,1299
1301.8575300174857,1281
1303.973818033578,1349
1306.0895474213703,1357
1308.2047184221678,1331
1310.3193312773528,1336
1312.4333862283888,1319
1314.5468835168163,1294
1316.659823384255,1362
1318.7722060724045,1362
1320.8840318230418,1331
1322.9953008780249,1364
1325.1060134792888,1359
1327.2161698688478,1307
1329.3257702887959,1278
1331.4348149813054,1385
1333.5433041886276,1344
1335.6512381530933,1293
1337.7586171171101,1325
1339.8654413231675,1231
1341.9717110138317,1312
1344.0774264317488,1269
1346.1825878196432,1260
1348.2871954203192,1278
1350.3912494766587,1305
1352.4947502316231,1236
1354.5976979282532,1300
1356.7000928096686,1313
1358.8019351190665,1313
1360.9032250997243,1328
1363.0039629949988,1318
1365.1041490483235,1290
1367.2037835032133,1302
1369.3028666032606,1272
1371.401398592137,1302
1373.4993797135926,1356
1375.5968102114575,1305
1377.6936903296396,1256
1379.7900203121262,1306
1381.8858004029835,1252
1383.9810308463561,1270
1386.075711886469,1324
1388.1698437676241,1258
1390.2634267342032,1240
1392.356461030667,1303
1394.4489469015557,1337
1396.5408845914872,1325
1398.6322743451592,1360
1400.7231164073469,1325
1402.813411022907,1291
1404.903158436773,1338
1406.9923588939578,1379
1409.0810126395531,1321
1411.1691199187303,1328
1413.2566809767386,1333
1415.343696058907,1328
1417.4301654106425,1328
1419.5160892774315,1369
1421.6014679048399,1315
1423.6863015385125,1350
1425.7705904241707,1381
1427.8543348076178,1358
1429.9375349347342,1372
1432.0201910514802,1336
1434.102303403894,1325
1436.1838722380944,1366
1438.2648978002767,1384
1440.3453803367174,1337
1442.4253200937692,1336
1444.5047173178677,1369
1446.5835722555234,1362
1448.6618851533285,1362
1450.739656257952,1357
1452.8168858161434,1354
1454.8935740747306,1382
1456.96972128062,1352
1459.045327680797,1431
1461.120393522327,1353
1463.1949190523528,1320
1465.2689045180973,1339
1467.3423501668608,1403
1469.415256246024,1399
1471.4876230030463,1460
1473.559450685465,1376
1475.6307395408976,1405
1477.7014898170391,1385
1479.771701761665,1422
1481.8413756226287,1419
1483.9105116478618,1457
1485.9791100853772,1452
1488.0471711832643,1429
1490.1146951896926,1394
1492.1816823529098,1403
1494.2481329212433,1359
1496.3140471430984,1369
1498.3794252669609,1461
1500.4442675413939,1415
1502.5085742150404,1402
1504.572345536622,1394
1506.6355817549388,1412
1508.6982831188702,1418
1510.7604498773744,1409
1512.8220822794883,1451
1514.8831805743293,1375
1516.9437450110909,1455
1519.003775839048,1405
1521.0632733075522,1427
1523.1222376660367,1437
1525.1806691640113,1430
1527.2385680510652,1473
1529.2959345768668,1481
1531.3527689911643,1480
1533.4090715437833,1437
1535.4648424846291,1419
1537.5200820636855,1510
1539.5747905310159,1511
1541.6289681367616,1428
1543.6826151311434,1482
1545.7357317644614,1451
1547.7883182870937,1461
1549.8403749494987,1433
1551.8919020022113,1497
1553.9428996958477,1479
1555.9933682811015,1553
1558.0433080087469,1470
1560.0927191296346,1473
1562.1416018946961,1521
1564.1899565549415,1525
1566.2377833614592,1487
1568.2850825654164,1534
1570.3318544180606,1559
1572.3780991707158,1572
1574.423817074788,1516
1576.4690083817595,1562
1578.5136733431923,1553
1580.5578122107272,1526
1582.601425236085,1546
1584.6445126710646,1468
1586.6870747675434,1502
1588.7291117774776,1433
1590.7706239529034,1460
1592.8116115459347,1482
1594.8520748087658,1489
1596.8920139936686,1413
1598.9314293529933,1415
1600.9703211391711,1452
1603.008689604711,1356
1605.0465350022005,1412
1607.0838575843068,1369
1609.1206576037753,1379
1611.1569353134305,1414
1613.1926909661765,1382
1615.2279248149953,1425
1617.2626371129481,1430
1619.2968281131757,1372
1621.3304980688963,1413
1623.3636472334088,1381
1625.39627586009,1349
1627.428384202396,1325
1629.459972513861,1294
1631.4910410480993,1298
1633.5215900588028,1351
1635.551619799744,1317
1637.5811305247717,1346
1639.6101224878166,1337
1641.6385959428862,1237
1643.6665511440683,1304
1645.693988345528,1271
1647.7209078015112,1317
1649.7473097663405,1301
1651.7731944944203,1305
1653.7985622402307,1297
1655.823413258333,1311
1657.847747803366,1387
1659.8715661300494,1323
1661.8948684931793,1336
1663.9176551476316,1340
1665.9399263483624,1294
1667.9616823504057,1331
1669.982923408873,1312
1672.0036497789574,1313
1674.0238617159293,1312
1676.043559475138,1297
1678.0627433120121,1276
1680.081413482059,1369
1682.0995702408654,1265
1684.117213844096,1285
1686.134344547495,1312
1688.1509626068864,1290
1690.1670682781705,1274
1692.182661817329,1278
1694.1977434804217,1294
1696.2123135235875,1303
1698.226372203043,1300
1700.2399197750851,1329
1702.2529564960905,1376
1704.2654826225112,1343
1706.277498410882,1266
1708.2890041178139,1315
1710.2999999999988,1253
1712.3104863142066,1289
1714.3204633172854,1298
1716.329931266163,1315
1718.3388904178469,1241
1720.3473410294214,1325
1722.3552833580516,1300
1724.3627176609807,1313
1726.3696441955308,1295
1728.3760632191033,1307
1730.3819749891782,1295
1732.3873797633146,1283
1734.3922777991502,1336
1736.3966693544012,1293
1738.4005546868639,1345
1740.4039340544127,1280
1742.406807715001,1265
1744.4091759266616,1287
1746.4110389475054,1314
1748.4123970357223,1328
1750.413250449582,1296
1752.4135994474318,1302
1754.4134442876993,1270
1756.4127852288902,1261
1758.4116225295893,1276
1760.4099564484595,1294
1762.407787244244,1337
1764.405115175764,1313
1766.4019405019203,1332
1768.3982634816916,1289
1770.3940843741357,1280
1772.3894034383907,1242
1774.3842209336717,1249
1776.378537119274,1313
1778.372352254571,1260
1780.3656665990156,1254
1782.3584804121397,1257
1784.3507939535534,1262
1786.3426074829463,1289
1788.3339212600863,1303
1790.3247355448211,1317
1792.3150505970766,1295
1794.3048666768573,1263
1796.2941840442477,1275
1798.2830029594106,1296
1800.2713236825884,1273
1802.2591464741004,1218
1804.2464715943465,1256
1806.2332993038058,1270
1808.2196298630352,1258
1810.2054635326708,1262
1812.190800573428,1301
1814.175641246101,1277
1816.1599858115628,1263
1818.1438345307652,1279
1820.127187664738,1227
1822.1100454745924,1289
1824.092408221516,1263
1826.0742761667766,1291
1828.055649571721,1308
1830.0365286977735,1294
1832.0169138064398,1302
1833.9968051593014,1307
1835.9762030180214,1321
1837.9551076443408,1280
1839.9335193000788,1240
1841.9114382471344,1300
1843.888864747485,1287
1845.8657990631878,1278
1847.842241456378,1260
1849.8181921892697,1296
1851.7936515241558,1253
1853.7686197234098,1280
1855.7430970494815,1259
1857.7170837649014,1254
1859.6905801322787,1295
1861.6635864143004,1229
1863.6361028737338,1287
1865.608129773424,1304
1867.5796673762961,1299
1869.5507159453537,1324
1871.521275743678,1289
1873.4913470344313,1281
1875.4609300808534,1271
1877.4300251462632,1310
1879.3986324940588,1317
1881.366752387717,1245
1883.3343850907936,1294
1885.3015308669228,1300
1887.268189979819,1295
1889.2343626932739,1266
1891.2000492711595,1256
1893.1652499774254,1280
1895.1299650761011,1294
1897.0941948312952,1302
1899.0579395071945,1308
1901.0211993680641,1305
1902.98397467825,1267
1904.9462657021745,1348
1906.9080727043415,1311
1908.869395949332,1280
1910.8302357018065,1313
1912.790592226504,1266
1914.7504657882428,1287
1916.7098566519212,1279
1918.6687650825133,1281
1920.6271913450764,1313
1922.5851357047422,1291
1924.5425984267245,1273
1926.499579776314,1325
1928.4560800188833,1245
1930.4120994198802,1289
1932.367638244833,1256
1934.32269675935,1292
1936.2772752291175,1235
1938.231373919899,1300
1940.1849930975404,1313
1942.1381330279637,1272
1944.0907939771696,1301
1946.0429762112412,1278
1947.9946799963363,1268
1949.9459055986945,1252
1951.896653284633,1291
1953.8469233205478,1273
1955.7967159729142,1243
1957.7460315082863,1275
1959.6948701932974,1269
1961.6432322946594,1245
1963.5911180791632,1293
1965.5385278136787,1287
1967.4854617651545,1276
1969.4319202006182,1287
1971.377903387176,1265
1973.3234115920136,1288
1975.268445082395,1292
1977.2130041256642,1305
1979.1570889892423,1286
1981.1006999406304,1264
1983.04383724741,1242
1984.986501177238,1283
1986.928691997853,1240
1988.8704099770712,1298
1990.811655382789,1304
1992.7524284829801,1295
1994.692729545698,1302
1996.6325588390755,1273
1998.5719166313224,1288
2000.5108031907307,1242
2002.4492187856677,1304
2004.387163684583,1304
2006.3246381560011,1303
2008.2616424685298,1273
2010.1981768908527,1262
2012.1342416917332,1310
2014.069837140014,1272
2016.0049635046162,1279
2017.9396210545406,1244
2019.8738100588666,1272
2021.8075307867502,1331
2023.740783507431,1247
2025.6735684902228,1257
2027.6058860045214,1245
2029.5377363198004,1291
2031.4691197056118,1297
2033.4000364315875,1267
2035.3304867674374,1265
2037.260470982952,1226
2039.189989347998,1298
2041.1190421325232,1263
2043.047629606554,1279
2044.9757520401945,1232
2046.9034097036288,1303
2048.8306028671195,1269
2050.7573318010086,1327
2052.683596775716,1252
2054.609398061742,1259
2056.5347359296647,1264
2058.4596106501403,1218
2060.384022493906,1291
2062.3079717317764,1287
2064.231458634646,1275
2066.1544834734873,1256
2068.077046519352,1270
2069.99914804337,1287
2071.9207883167524,1303
2073.8419676107865,1263
2075.7626861968406,1264
2077.6829443463607,1310
2079.6027423308715,1294
2081.522080421977,1284
2083.440958891362,1298
2085.359378010786,1289
2087.2773380520907,1244
2089.194839287196,1264
2091.111881988101,1261
2093.0284664268825,1258
2094.9445928756973,1262
2096.86026160678,1283
2098.775472892446,1279
2100.690227005088,1305
2102.604524217178,1272
2104.5183648012676,1228
2106.431749029985,1339
2108.34467717604,1295
2110.2571495122206,1237
2112.169166311393,1344
2114.080727846503,1293
2115.9918343905747,1268
2117.902486216711,1291
2119.8126835980956,1289
2121.722426807987,1279
2123.6317161197285,1342
2125.5405518067364,1322
2127.448934142509,1321
2129.356863400624,1312
2131.264339854737,1277
2133.1713637785815,1325
2135.077935445972,1338
2136.9840551308002,1318
2138.889723107037,1316
2140.7949396487334,1340
2142.699705030018,1298
2144.6040195250994,1295
2146.507883408264,1321
2148.4112969538774,1363
2150.3142604363848,1350
2152.2167741303097,1341
2154.1188383102535,1387
2156.0204532508997,1347
2157.9216192270064,1285
2159.822336513414,1349
2161.7226053850413,1332
2163.622426116884,1342
2165.5217989840185,1358
2167.4207242616,1322
2169.319202224862,1335
2171.2172331491165,1329
2173.1148173097563,1317
2175.0119549822507,1356
2176.90864644215,1307
2178.8048919650823,1344
2180.7006918267534,1395
2182.596046302952,1343
2184.4909556695407,1382
2186.3854202024645,1365
2188.279440177746,1355
2190.173015871487,1278
2192.066147559868,1328
2193.958835519149,1301
2195.851080025667,1363
2197.7428813558417,1402
2199.6342397861667,1369
2201.5251555932186,1396
2203.415629053651,1359
2205.3056604441986,1388
2207.19525004167,1379
2209.084398122958,1385
2210.9731049650327,1426
2212.861370844941,1405
2214.749196039812,1374
2216.636580826851,1359
2218.523525483344,1372
2220.410030286655,1426
2222.296095514226,1368
2224.1817214435805,1445
2226.066908352319,1484
2227.951656518121,1420
2229.835966218746,1359
2231.71983773203,1385
2233.6032713358913,1417
2235.486267308324,1362
2237.3688259274036,1372
2239.2509474712824,1357
2241.132632218193,1381
2243.013880446447,1426
2244.8946924344323,1390
2246.7750684606203,1378
2248.6550088035574,1413
2250.534513741871,1356
2252.413583554265,1356
2254.292218519526,1420
2256.170418916517,1368
2258.0481850241786,1394
2259.925517121534,1366
2261.8024154876825,1363
2263.678880401803,1428
2265.5549121431536,1423
2267.430510991071,1385
2269.305677224971,1382
2271.180411124348,1368
2273.0547129687766,1305
2274.9285830379076,1317
2276.8020216114737,1386
2278.6750289692845,1395
2280.5476053912294,1343
2282.4197511572766,1400
2284.2914665474727,1412
2286.162751841943,1439
2288.0336073208937,1393
2289.904033264608,1372
2291.774029953448,1432
2293.6435976678554,1415
2295.5127366883517,1314
2297.381447295534,1353
2299.2497297700825,1342
2301.1175843927526,1237
2302.9850114443825,1238
2304.852011205885,1215
2306.7185839582553,1210
2308.5847299825664,1197
2310.4504495599676,1171
2312.3157429716925,1132
2314.1806104990483,1192
2316.0450524234247,1166
2317.9090690262888,1178
2319.772660589186,1193
2321.635827393742,1149
2323.498569721661,1155
2325.3608878547248,1170
2327.2227820747967,1152
2329.0842526638157,1134
2330.945299903803,1173
2332.805924076857,1116
2334.6661254651535,1152
2336.525904350951,1192
2338.3852610165827,1192
2340.244195744464,1098
2342.102708817088,1129
2343.9608005170253,1161
2345.8184711269287,1203
2347.675720929526,1180
2349.532550207628,1164
2351.38895924412,1150
2353.24494832197,1103
2355.100517724223,1116
2356.955667734004,1150
2358.810398634514,1186
2360.664710709037,1113
2362.5186042409337,1182
2364.3720795136437,1152
2366.225136810686,1140
2368.0777764156583,1105
2369.929998612237,1178
2371.7818036841777,1130
2373.633191915315,1168
2375.484163589562,1162
2377.3347189909114,1148
2379.184858403434,1149
2381.03458211128,1154
2382.8838903986775,1141
2384.732783549936,1153
2386.5812618494406,1090
2388.4293255816588,1166
2390.2769750311327,1148
2392.1242104824883,1151
2393.971032220427,1168
2395.8174405297295,1185
2397.6634356952563,1118
2399.509018001947,1150
2401.3541877348193,1158
2403.1989451789705,1155
2405.043290619576,1129
2406.8872243418905,1145
2408.730746631247,1115
2410.5738577730594,1123
2412.4165580528183,1155
2414.258847756095,1185
2416.100727168537,1128
2417.9421965758734,1135
2419.783256263912,1140
2421.623906518538,1179
2423.4641476257157,1153
2425.303979871491,1192
2427.143403541984,1138
2428.9824189233977,1124
2430.821026302012,1169
2432.6592259641866,1172
2434.497018196361,1116
2436.33440328505,1156
2438.171381516851,1116
2440.00795317844,1155
2441.844118556569,1148
2443.6798779380724,1139
2445.5152316098606,1124
2447.3501798589255,1121
2449.1847229723357,1132
2451.0188612372403,1132
2452.8525949408663,1134
2454.6859243705203,1150
2456.518849813587,1167
2458.3513715575314,1214
2460.183489889895,1141
2462.015205098301,1121
2463.8465174704493,1119
2465.67742729412,1141
2467.5079348571717,1124
2469.338040447542,1131
2471.1677443532476,1140
2472.9970468623833,1102
2474.825948263123,1161
2476.6544488437207,1165
2478.482548892508,1137
2480.310248697896,1154
2482.137548548374,1122
2483.9644487325118,1140
2485.790949538956,1166
2487.617051256433,1122
2489.44275417375,1153
2491.26805857979,1148
2493.0929647635157,1133
2494.917473013971,1097
2496.741583620276,1130
2498.5652968716304,1166
2500.3886130573137,1167
2502.2115324666834,1191
2504.0340553891765,1194
2505.856182114308,1215
2507.6779129316733,1212
2509.499248130945,1217
2511.3201880018764,1134
2513.140732834298,1153
2514.9608829181198,1162
2516.780638543331,1093
2518.6,1199
2520.418967578273,1200
2522.237541568376,1112
2524.0557222606144,1178
2525.8735099453706,1173
2527.6909049131086,1144
2529.507907454368,1157
2531.32451785977,1184
2533.140736420014,1164
2534.9565634258774,1165
2536.771999168218,1162
2538.5870439379714,1142
2540.4016980261526,1172
2542.2159617238544,1161
2544.02983532225,1147
2545.8433191125914,1225
2547.656413386209,1162
2549.4691184345115,1192
2551.2814345489874,1127
2553.093362021204,1238
2554.904901142808,1153
2556.716052205523,1222
2558.526815501153,1193
2560.3371913215824,1171
2562.147179958771,1215
2563.956781704761,1192
2565.7659968516705,1143
2567.5748256916986,1221
2569.3832685171224,1201
2571.1913256202984,1248
2572.9989972936614,1209
2574.806283829725,1194
2576.613185521084,1198
2578.4197026604074,1226
2580.2258355404483,1194
2582.031584454035,1227
2583.836949694077,1173
2585.6419315535613,1223
2587.4465303255533,1210
2589.2507463032002,1183
2591.0545797797245,1230
2592.8580310484303,1263
2594.6611004026995,1253
2596.463788135992,1227
2598.266094541849,1226
2600.0680199138874,1193
2601.869564545807,1234
2603.670728731383,1169
2605.4715127644704,1164
2607.2719169390048,1108
2609.071941548998,1192
2610.8715868885433,1229
2612.670853251811,1162
2614.469740933052,1221
2616.268250226594,1213
2618.0663814268455,1191
2619.864134828292,1226
2621.6615107255006,1206
2623.458509413115,1157
2625.2551311858597,1160
2627.0513763385347,1178
2628.8472451660223,1169
2630.6427379632833,1205
2632.4378550253564,1156
2634.232596647359,1166
2636.026963124488,1180
2637.8209547520187,1135
2639.6145718253065,1187
2641.407814639785,1240
2643.200683490966,1189
2644.9931786744414,1203
2646.7853004858807,1234
2648.577049221034,1208
2650.3684251757277,1201
2652.1594286458712,1186
2653.9500599274484,1191
2655.740319316525,1130
2657.5302071092437,1165
2659.3197236018286,1151
2661.10886909058,1221
2662.8976438718782,1172
2664.686048242183,1164
2666.4740824980327,1179
2668.2617469360443,1204
2670.0490418529134,1171
2671.8359675454153,1152
2673.622524310403,1180
2675.408712444811,1234
2677.1945322456495,1149
2678.979984010009,1197
2680.76506803506,1147
2682.5497846180497,1155
2684.334134056306,1132
2686.1181166472343,1118
2687.9017326883213,1149
2689.6849824771293,1124
2691.4678663113013,1167
2693.2503844885596,1149
2695.032537306705,1172
2696.8143250636167,1113
2698.5957480572542,1179
2700.3768065856534,1146
2702.1575009469316,1120
2703.937831439283,1141
2705.717798360982,1132
2707.4974020103837,1118
2709.276642685917,1149
2711.055520686095,1149
2712.834036309506,1126
2714.612189854819,1115
2716.389981620782,1177
2718.1674119062204,1225
2719.944481010041,1123
2721.721189231226,1145
2723.4975368688415,1184
2725.273524222027,1157
2727.0491515900053,1193
2728.824419272075,1132
2730.5993275676146,1123
2732.3738767760838,1153
2734.148067197016,1133
2735.921899130031,1128
2737.6953728748194,1139
2739.468488731156,1136
2741.2412469988926,1145
2743.0136479779617,1115
2744.785691968372,1148
2746.5573792702116,1162
2748.3287101836504,1121
2750.099685008934,1098
2751.870304046388,1151
2753.640567596418,1150
2755.4104759595057,1190
2757.1800294362156,1125
2758.949228327187,1145
2760.7180729331412,1193
2762.486563554877,1150
2764.254700493272,1154
2766.022484049284,1225
2767.789914523947,1179
2769.5569922183786,1140
2771.3237174337705,1119
2773.090090471394,1121
2774.8561116326036,1123
2776.6217812188274,1138
2778.3870995315756,1120
2780.1520668724356,1110
2781.9166835430747,1125
2783.6809498452394,1165
2785.444866080754,1208
2787.2084325515225,1184
2788.971649559527,1125
2790.73451740683,1140
2792.4970363955713,1166
2794.2592068279705,1104
2796.0210290063264,1166
2797.7825032330147,1134
2799.543629810493,1204
2801.304409041296,1170
2803.0648412280366,1162
2804.8249266734088,1158
2806.5846656801846,1155
2808.344058551212,1187
2810.1031055894246,1209
2811.8618070978273,1156
2813.6201633795085,1164
2815.378174737636,1154
2817.1358414754536,1118
2818.893163896285,1163
2820.6501423035334,1204
2822.4067770006814,1190
2824.1630682912883,1136
2825.9190164789957,1154
2827.6746218675207,1176
2829.429884760661,1134
2831.184805462294,1185
2832.9393842763743,1118
2834.693621506936,1122
2836.4475174580916,1185
2838.201072434034,1167
2839.954286739034,1148
2841.707160677441,1177
2843.459694553685,1193
2845.2118886722724,1137
2846.96374333779,1199
2848.7152588549034,1216
2850.4664355283567,1147
2852.217273662973,1201
2853.9677735636546,1127
2855.7179355353833,1145
2857.4677598832186,1164
2859.217246912299,1185
2860.9663969278427,1165
2862.715210235146,1164
2864.4636871395846,1169
2866.211827946614,1153
2867.9596329617652,1148
2869.7071024906536,1203
2871.4542368389684,1174
2873.20103631248,1172
2874.947501217038,1113
2876.6936318585695,1146
2878.4394285430812,1177
2880.1848915766604,1201
2881.9300212654707,1193
2883.6748179157553,1119
2885.4192818338374,1082
2887.1634133261173,1134
2888.907212699077,1159
2890.6506802592744,1153
2892.393816313348,1158
2894.1366211680142,1170
2895.8790951300693,1164
2897.621238506388,1200
2899.363051603925,1163
2901.1045347297118,1133
2902.8456881908596,1161
2904.58651229456,1161
2906.327007348081,1165
2908.067173658772,1172
2909.8070115340597,1092
2911.5465212814497,1144
2913.285703208527,1211
2915.0245576229563,1150
2916.7630848324807,1164
2918.5012851449196,1171
2920.2391588681758,1131
2921.976706310227,1184
2923.7139277791334,1152
2925.4508235830313,1130
2927.187394030137,1175
2928.923639428745,1148
2930.6595600872306,1167
2932.395156314046,1210
2934.1304284177218,1194
2935.8653767068713,1178
2937.6000014901815,1176
2939.3343030764227,1179
2941.068281774442,1159
2942.8019378931644,1169
2944.5352717415976,1137
2946.2682836288236,1159
2948.0009738640065,1193
2949.7333427563885,1220
2951.465390615289,1192
2953.1971177501086,1145
2954.9285244703265,1126
2956.6596110855,1162
2958.3903779052657,1164
2960.1208252393385,1154
2961.8509533975125,1155
2963.5807626896617,1129
2965.3102534257378,1174
2967.0394259157715,1166
2968.768280469873,1112
2970.496817398232,1156
2972.2250370111146,1160
2973.952939618869,1173
2975.6805255319196,1164
2977.4077950607707,1145
2979.134748516006,1189
2980.861386208289,1184
2982.587708448359,1145
2984.313715547037,1133
2986.039407815222,1168
2987.764785563891,1137
2989.489849104102,1132
2991.2145987469908,1156
2992.9390348037705,1188
2994.6631575857346,1169
2996.3869674042576,1181
2998.1104645707887,1118
2999.83364939686,1157
3001.5565221940783,1153
3003.2790832741334,1135
3005.0013329487924,1105
3006.7232715298996,1159
3008.4448993293804,1142
3010.166216659239,1109
3011.887223831558,1162
3013.607921158498,1088
3015.3283089522993,1137
3017.0483875252826,1096
3018.7681571898443,1151
3020.4876182584626,1142
3022.2067710436927,1113
3023.9256158581707,1145
3025.644153014609,1130
3027.362382825801,1158
3029.0803056046193,1147
3030.797921664012,1110
3032.5152313170106,1117
3034.2322348767225,1149
3035.9489326563353,1107
3037.665324969115,1133
3039.3814121284063,1143
3041.097194447633,1147
3042.812672240299,1097
3044.5278458199855,1150
3046.2427155003525,1119
3047.9572815951406,1158
3049.671544418167,1173
3051.38550428333,1141
3053.0991615046073,1152
3054.812516396051,1163
3056.5255692717974,1126
3058.2383204460575,1186
3059.9507702331257,1123
3061.662918947372,1127
3063.3747669032446,1131
3065.0863144152736,1148
3066.7975617980674,1141
3068.508509366309,1131
3070.219157434767,1145
3071.9295063182844,1148
3073.639556331785,1088
3075.3493077902704,1168
3077.058761008821,1161
3078.7679163025964,1145
3080.476773986837,1071
3082.1853343768594,1132
3083.89359778806,1160
3085.6015645359153,1163
3087.3092349359786,1152
3089.016609303884,1112
3090.7236879553434,1153
3092.4304712061476,1133
3094.136959372166,1108
3095.843152769349,1154
3097.5490517137237,1142
3099.2546565213966,1149
3100.959967508554,1126
3102.66498499146,1127
3104.3697092864577,1151
3106.0741407099695,1122
3107.778279578498,1128
3109.482126208622,1149
3111.1856809170004,1123
3112.8889440203716,1206
3114.5919158355528,1163
3116.294596679439,1135
3117.996986869006,1169
3119.6990867213062,1130
3121.4008965534726,1129
3123.102416682717,1156
3124.803647426329,1145
3126.5045891016784,1185
3128.205242026213,1131
3129.90560651746,1159
3131.605682893025,1136
3133.3054714705922,1186
3135.0049725679282,1206
3136.7041865028714,1152
3138.4031135933465,1175
3140.101754157353,1172
3141.800108512971,1108
3143.498176978357,1166
3145.1959598717494,1147
3146.8934575114636,1120
3148.5906702158954,1158
3150.2875983035183,1127
3151.9842420928853,1136
3153.680601902627,1228
3155.376678051456,1106
3157.07247085816,1109
3158.767980641609,1166
3160.463207720748,1161
3162.158152414606,1177
3163.8528150422862,1126
3165.5471959229726,1157
3167.2412953759303,1146
3168.9351137204976,1159
3170.628651276098,1173
3172.3219083622307,1123
3174.014885298474,1141
3175.707582404485,1134
3177.4000000000005,1125
3179.092138404835,1137
3180.7839979388846,1146
3182.47557892212,1171
3184.166881674594,1141
3185.8579065164386,1151
3187.5486537678626,1172
3189.2391237491547,1234
3190.9293167806827,1158
3192.6192331828934,1185
3194.3088732763117,1116
3195.998237381542,1142
3197.687325819268,1140
3199.376138910251,1172
3201.064676975334,1164
3202.7529403354347,1121
3204.4409293115523,1170
3206.1286442247647,1163
3207.816085396229,1136
3209.5032531471825,1144
3211.190147798936,1152
3212.8767696728846,1131
3214.5631190905015,1073
3216.2491963733373,1094
3217.9350018430214,1153
3219.6205358212637,1127
3221.305798629851,1131
3222.990790590651,1124
3224.6755120256103,1132
3226.359963256751,1154
3228.0441446061795,1125
3229.7280563960758,1136
3231.411698948703,1141
3233.0950725863995,1100
3234.778177631587,1144
3236.461014406761,1118
3238.1435832345005,1118
3239.8258844374595,1102
3241.507918338374,1156
3243.1896852600576,1176
3244.8711855254023,1172
3246.552419457381,1092
3248.233387379042,1134
3249.914089613516,1164
3251.59452648401,1179
3253.274698313813,1155
3254.95460542629,1144
3256.6342481448855,1112
3258.313626793125,1109
3259.9927416946084,1197
3261.6715931730196,1071
3263.3501815521176,1093
3265.0285071557437,1079
3266.706570307815,1065
3268.3843713323286,1125
3270.0619105533615,1093
3271.739188295068,1133
3273.4162048816834,1147
3275.0929606375184,1113
3276.769455886966,1115
3278.445690954498,1136
3280.1216661646613,1142
3281.797381842087,1121
3283.4728383114807,1156
3285.1480358976296,1157
3286.8229749253996,1085
3288.4976557197333,1161
3290.172078605655,1178
3291.846243908266,1102
3293.5201519527463,1146
3295.193803064357,1135
3296.8671975684374,1172
3298.5403357904024,1133
3300.21321805575,1133
3301.8858446900567,1086
3303.558216018975,1189
3305.23033236824,1179
3306.9021940636603,1137
3308.57380143113,1169
3310.2451547966184,1174
3311.916254486174,1149
3313.5871008259246,1143
3315.2576941420766,1132
3316.9280347609147,1145
3318.5981230088046,1126
3320.2679592121895,1115
3321.9375436975924,1099
3323.606876791612,1116
3325.27595882093,1129
3326.944790112305,1078
3328.6133709925753,1129
3330.2817017886573,1164
3331.949782827547,1184
3333.617614436319,1101
3335.2851969421245,1124
3336.952530672199,1119
3338.619615953853,1135
3340.286453114475,1138
3341.9530424815357,1111
3343.619384382583,1165
3345.2854791452437,1136
3346.951327097224,1111
3348.6169285663073,1092
3350.2822838803577,1154
3351.947393367319,1165
3353.61225735521,1166
3355.2768761721345,1145
3356.9412501462693,1102
3358.605379605873,1134
3360.2692648792827,1152
3361.9329062949146,1154
3363.596304181263,1096
