CollectionTime,7/11/2024 2:11:43 PM
ExposureUsed,3
CalibratedSpectrum
-962.7078968117929,426
-959.9714848408522,427
-957.2358232597828,415
-954.5009119013725,429
-951.7667505983302,428
-949.0333391832855,447
-946.3006774887896,429
-943.5687653473143,437
-940.837602591253,437
-938.1071890529199,414
-935.3775245645503,421
-932.6486089583007,420
-929.9204420662485,427
-927.1930237203925,419
-924.4663537526524,436
-921.7404319948689,452
-919.0152582788041,423
-916.2908324361409,465
-913.5671542984834,454
-910.8442236973568,441
-908.1220404642074,431
-905.4006044304027,440
-902.679915427231,425
-899.959973285902,429
-897.2407778375464,423
-894.5223289132158,447
-891.8046263438832,430
-889.0876699604426,431
-886.3714595937089,427
-883.6559950744183,408
-880.9412762332282,405
-878.2273029007168,423
-875.5140749073835,422
-872.8015920836489,412
-870.0898542598545,432
-867.3788612662631,423
-864.6686129330585,455
-861.9591090903457,454
-859.2503495681506,441
-856.5423341964203,423
-853.8350628050229,440
-851.1285352237478,446
-848.4227512823054,432
-845.7177108103272,439
-843.0134136373656,436
-840.3098595928943,442
-837.6070485063082,444
-834.9049802069229,467
-832.2036545239757,432
-829.5030712866244,444
-826.8032303239481,434
-824.1041314649472,423
-821.4057745385428,445
-818.7081593735775,444
-816.0112857988148,431
-813.3151536429393,421
-810.6197627345566,424
-807.9251129021936,442
-805.2312039742981,449
-802.5380357792392,446
-799.8456081453069,445
-797.1539209007124,427
-794.462973873588,436
-791.772766891987,451
-789.083299783884,429
-786.3945723771743,447
-783.7065844996748,468
-781.0193359791231,427
-778.3328266431781,456
-775.6470563194197,453
-772.9620248353489,446
-770.2777320183878,462
-767.5941776958798,423
-764.9113616950891,448
-762.2292838432011,460
-759.5479439673222,441
-756.8673418944801,457
-754.1874774516235,432
-751.5083504656222,442
-748.8299607632671,429
-746.15230817127,456
-743.475392516264,465
-740.7992136248035,480
-738.1237713233636,488
-735.4490654383407,480
-732.7750957960521,471
-730.1018622227365,490
-727.4293645445534,467
-724.7576025875837,451
-722.0865761778291,467
-719.4162851412126,474
-716.7467293035781,462
-714.0779084906909,486
-711.409822528237,487
-708.7424712418238,472
-706.0758544569796,469
-703.4099719991541,470
-700.7448236937178,459
-698.0804093659622,480
-695.4167288411002,490
-692.7537819442656,469
-690.0915685005134,479
-687.4300883348199,468
-684.7693412720819,451
-682.1093271371178,481
-679.4500457546669,495
-676.7914969493897,487
-674.1336805458676,471
-671.4765963686034,479
-668.8202442420206,467
-666.1646239904642,501
-663.5097354382001,496
-660.8555784094151,494
-658.2021527282176,470
-655.5494582186366,495
-652.8974947046223,488
-650.2462620100463,482
-647.5957599587009,489
-644.9459883742998,514
-642.2969470804776,537
-639.6486359007902,503
-637.0010546587141,501
-634.3542031776476,507
-631.7080812809096,519
-629.0626887917401,500
-626.4180255333008,510
-623.7740913286734,528
-621.1308860008619,499
-618.4884093727904,521
-615.8466612673046,515
-613.2056415071715,509
-610.5653499150785,522
-607.9257863136347,510
-605.28695052537,501
-602.6488423727357,505
-600.0114616781036,497
-597.3748082637674,508
-594.7388819519412,495
-592.1036825647604,493
-589.4692099242818,510
-586.8354638524829,519
-584.2024441712624,507
-581.5701507024403,499
-578.9385832677575,525
-576.3077416888759,528
-573.6776257873787,530
-571.0482353847704,522
-568.4195703024757,519
-565.7916303618415,506
-563.164415384135,510
-560.5379251905453,527
-557.9121596021815,516
-555.2871184400748,535
-552.6628015251767,509
-550.0392086783606,521
-547.4163397204204,531
-544.794194472071,528
-542.1727727539491,540
-539.5520743866118,540
-536.9320991905377,554
-534.3128469861261,579
-531.6943175936979,553
-529.0765108334947,599
-526.4594265256793,612
-523.8430644903358,683
-521.2274245474689,732
-518.612506517005,808
-515.9983102187913,762
-513.3848354725959,745
-510.77208209810846,814
-508.16004991493924,894
-505.5487387426199,899
-502.9381484006032,867
-500.3282787082628,905
-497.71912948489364,810
-495.1107005497117,770
-492.5029917218539,710
-489.8960028203786,661
-487.28973366426493,641
-484.68418407241325,622
-482.07935386364494,601
-479.47524285670266,637
-476.87185087025,597
-474.2691777228715,656
-471.66722323307334,643
-469.0659872192821,630
-466.4654694998459,631
-463.86566989303384,633
-461.26658821703614,628
-458.66822428996414,637
-456.07057792985,643
-453.4736489546475,643
-450.877437182231,635
-448.28194243039627,647
-445.68716451686,657
-443.09310325926003,623
-440.49975847515555,627
-437.9071299820263,620
-435.31521759727354,618
-432.72402113821954,658
-430.13354042210767,656
-427.5437752661022,665
-424.95472548728867,622
-422.36639090267386,642
-419.7787713291855,652
-417.1918665836721,668
-414.60567648290385,668
-412.0202008435715,657
-409.4354394822874,691
-406.8513922155845,668
-404.26805885991723,684
-401.685439231661,654
-399.103533147112,668
-396.522340422488,679
-393.9418608739278,642
-391.3620943174908,661
-388.7830405691583,628
-386.2046994448317,648
-383.6270707603344,633
-381.05015433141045,600
-378.473949973725,594
-375.8984575028645,550
-373.32367673433623,515
-370.74960748356875,481
-368.1762495659117,478
-365.60360279663576,462
-363.03166699093265,454
-360.4604419639154,433
-357.8899275306178,411
-355.32012350599507,411
-352.7510297049233,417
-350.1826459421999,419
-347.61497203254316,393
-345.04800779059235,391
-342.4817530309082,396
-339.91620756797226,392
-337.35137121618743,413
-334.7872437898774,385
-332.22382510328725,400
-329.66111497058273,384
-327.09911320585127,391
-324.53781962310075,409
-321.9772340362607,395
-319.4173562591816,386
-316.8581861056348,397
-314.2997233893127,384
-311.7419679238294,405
-309.1849195227194,409
-306.62857799943856,414
-304.0729431673641,387
-301.51801483979375,402
-298.963792829947,402
-296.41027695096386,407
-293.85746701590574,415
-291.3053628377552,436
-288.7539642294155,449
-286.2032710037115,429
-283.65328297338897,408
-281.1039999511146,397
-278.5554217494762,424
-276.007548180983,433
-273.4603790580651,442
-270.9139141930734,434
-268.3681533982807,435
-265.8230964858798,445
-263.27874326798565,406
-260.7350935566336,414
-258.1921471637804,448
-255.6499039013039,442
-253.10836358100266,465
-250.56752601459698,436
-248.02739101372765,479
-245.48795838995704,491
-242.94922795476816,484
-240.41119951956557,440
-237.8738728956746,471
-235.33724789434166,477
-232.80132432673452,502
-230.2661020039418,448
-227.73158073697357,513
-225.19776033676033,537
-222.66464061415422,551
-220.1322213799284,477
-217.60050244477725,476
-215.06948361931552,478
-212.53916471408013,504
-210.00954553952818,514
-207.48062590603843,504
-204.9524056239104,498
-202.4248845033651,526
-199.8980623545441,492
-197.37193898751036,489
-194.84651421224817,496
-192.32178783866232,527
-189.79775967657952,520
-187.27442953574644,586
-184.7517972258321,572
-182.2298625564256,548
-179.7086253370378,532
-177.18808537710026,521
-174.66824248596583,521
-172.14909647290835,555
-169.6306471471229,549
-167.11289431772548,581
-164.59583779375328,572
-162.07947738416453,574
-159.5638128978386,573
-157.04884414357605,615
-154.53457093009854,666
-152.02099306604828,639
-149.50811035998936,585
-146.99592262040665,601
-144.48442965570587,606
-141.97363127421409,648
-139.46352728417958,755
-136.95411749377126,764
-134.44540171107985,704
-131.93737974411636,633
-129.43005140081357,616
-126.92341648902493,670
-124.41747481652521,754
-121.91222619101006,859
-119.40767042009657,968
-116.90380731132257,1006
-114.40063667214702,945
-111.8981583099503,994
-109.3963720320337,1000
-106.89527764561933,938
-104.39487495785067,923
-101.89516377579241,1034
-99.39614390642998,1412
-96.89781515667039,1946
-94.40017733334128,2353
-91.90323024319173,2451
-89.40697369289148,2359
-86.91140748903172,2336
-84.41653143812482,1706
-81.92234534660395,1205
-79.42884902082358,1098
-76.93604226705907,1619
-74.4439248915071,2797
-71.95249670028534,4045
-69.46175749943245,5167
-66.97170709490854,5461
-64.48234529259423,4816
-61.99367189829195,4869
-59.50568671772464,4954
-57.01838955653636,4399
-54.53178022029283,3811
-52.045858514480074,3899
-49.560624244506016,4334
-47.07607721569923,4880
-44.59221723330904,5459
-42.10904410250669,6335
-39.62655762838392,6220
-37.14475761595372,6683
-34.66364387015028,8451
-32.18321619582866,11254
-29.70347439776515,13166
-27.224418280657005,15361
-24.74604764912317,16659
-22.26836230770266,17284
-19.7913620608565,19519
-17.315046712966478,25569
-14.83941606833514,29758
-12.36446993118659,38065
-9.89020810566592,65039
-7.416630395839093,65039
-4.94373660569363,65039
-2.471526539137585,65039
-6.821210263296962E-13,65039
2.47084320796705,65039
4.941003281093458,65039
7.410480415786196,65039
9.879274808531363,65039
12.347386655893956,65039
14.814816154518212,65039
17.28156350112681,65039
19.74762889252179,65039
22.21301252558385,23387
24.67771459727237,3181
27.141735304626195,1535
29.605074844762612,1380
32.06773341487792,1393
34.52971121224755,1161
36.99100843422559,1069
39.45162527824516,1050
41.91156194181792,984
44.370818622535126,938
46.82939551806646,949
49.287292826160524,1000
51.74451074464503,950
54.201049471426245,925
56.65690920448981,819
59.112090141899785,805
61.56659248179983,826
64.02041642241159,835
66.4735621620365,751
68.92602989905402,710
71.37781983192338,807
73.82893215918205,841
76.27936707944684,795
78.72912479141326,726
81.17820549385567,752
83.62660938562783,746
86.07433666566146,793
88.5213875329681,688
90.96776218663751,641
93.41346082583925,669
95.85848364982041,663
98.30283085790859,674
100.7465026495089,681
103.18949922410604,671
105.63182078126385,632
108.07346752062438,595
110.51443964190923,629
112.95473734491827,602
115.39436082953114,649
117.83331029570547,637
120.27158594347827,642
122.7091879729652,662
125.1461165843615,633
127.58237197794062,640
130.01795435405518,624
132.4528639131364,640
134.88710085569494,610
137.32066538231982,633
139.75355769367923,584
142.1857779905207,603
144.61732647366978,563
147.04820334403132,592
149.47840880258934,679
151.90794305040674,662
154.33680628862487,715
156.76499871846443,812
159.19252054122433,920
161.61937195828352,931
164.04555317109896,978
166.47106438120693,1090
168.89590579022217,1236
171.320077599839,1269
173.7435800118302,1337
176.16641322804742,1355
178.58857745042144,1403
181.01007288096173,1422
183.43089972175687,1444
185.85105817497413,1496
188.27054844285988,1502
190.6893707277394,1552
193.10752523201643,1489
195.5250121581745,1509
197.9418317087751,1539
200.3579840864594,1532
202.7734694939469,1560
205.18828813403627,1574
207.6024402096051,1686
210.01592592360964,1695
212.42874547908548,1724
214.84089907914665,1669
217.2523869269868,1655
219.66320922587727,1750
222.0733661791695,1676
224.48285799029293,1634
226.8916848627572,1661
229.29984700014882,1740
231.7073446061355,1741
234.11417788446204,1666
236.520347038953,1705
238.92585227351185,1776
241.33069379212054,1786
243.73487179884035,1759
246.1383864978112,1799
248.541238093252,1740
250.9434267894609,1804
253.34495279081432,1828
255.74581630176783,1778
258.1460175268563,1846
260.54555667069314,1807
262.9444339379703,1908
265.3426495334594,1830
267.7402036620107,1799
270.1370965285529,1822
272.53332833809407,1722
274.9288992957214,1675
277.32380960660055,1716
279.718059475976,1654
282.1116491091717,1656
284.5045787115897,1664
286.89684848871195,1600
289.2884586460981,1598
291.67940938938807,1590
294.0697009242996,1658
296.4593334566299,1707
298.84830719225477,1636
301.23662233712923,1652
303.6242790972866,1618
306.01127767884,1633
308.39761828798066,1635
310.78330113097934,1625
313.16832641418534,1665
315.5526943440269,1515
317.9364051270112,1496
320.3194589697242,1563
322.70185607883093,1538
325.0835966610754,1547
327.4646809232805,1478
329.8451090723478,1532
332.2248813152577,1551
334.6039978590701,1537
336.9824589109231,1549
339.36026467803447,1548
341.7374153677,1488
344.113911187295,1436
346.48975234427337,1448
348.8649390461686,1485
351.2394715005918,1413
353.61334991523415,1450
355.9865744978655,1411
358.35914545633375,1444
360.73106299856715,1484
363.10232733257146,1494
365.47293866643247,1413
367.84289720831396,1394
370.2122031664593,1381
372.5808567491905,1399
374.9488581649083,1383
377.31620762209275,1421
379.6829053293021,1412
382.0489514951745,1392
384.4143463284262,1329
386.7790900378528,1354
389.14318283232853,1362
391.50662492080653,1331
393.86941651231916,1341
396.23155781597745,1390
398.5930490409713,1384
400.9538903965696,1315
403.3140820921202,1364
405.6736243370498,1392
408.03251734086336,1367
410.3907613131465,1342
412.74835646356166,1323
415.10530300185144,1382
417.4616011378372,1322
419.81725108141893,1388
422.1722530425758,1363
424.5266072313656,1291
426.880313857925,1400
429.2333731324701,1340
431.58578526529516,1308
433.9375504667738,1333
436.2886689473588,1319
438.63914091758113,1339
440.9889665880513,1293
443.33814616945835,1314
445.68667987257015,1273
448.03456790823395,1292
450.3818104873759,1271
452.72840782100013,1330
455.07436012019105,1319
457.41966759611057,1262
459.7643304600007,1259
462.10834892318155,1280
464.4517231970525,1251
466.79445349309174,1283
469.1365400228566,1260
471.4779829979826,1270
473.81878263018564,1314
476.15893913125876,1252
478.4984527130747,1239
480.8373235875855,1367
483.17555196682144,1344
485.5131380628919,1369
487.8500820879857,1346
490.1863842543697,1356
492.52204477439034,1433
494.8570638604725,1408
497.1914417251204,1579
499.52517858091653,1662
501.85827464052306,1842
504.19073011668036,1903
506.5225452222086,2135
508.85372017000566,2097
511.18425517304956,2187
513.514150444396,2245
515.8434061971808,2695
518.1720226446176,3128
520.4999999999999,3243
522.8273384766991,3236
525.1540382881666,2917
527.480099647932,2563
529.8055227696037,2132
532.1303078668694,1746
534.454455153496,1480
536.777964843328,1438
539.1008371502907,1389
541.4230722883866,1325
543.744670471698,1402
546.0656319143858,1394
548.3859568306899,1348
550.7056454349294,1323
553.0246979415016,1370
555.3431145648834,1336
557.6608955196306,1311
559.978041020377,1275
562.2945512818363,1291
564.6104265188006,1314
566.9256669461412,1295
569.2402727788082,1272
571.5542442318302,1312
573.8675815203156,1268
576.1802848594508,1300
578.4923544645015,1355
580.8037905508126,1347
583.114593333807,1337
585.4247630289875,1325
587.7342998519354,1347
590.0432040183106,1319
592.3514757438526,1344
594.6591152443794,1314
596.9661227357875,1302
599.2724984340531,1309
601.578242555231,1334
603.8833553154542,1376
606.1878369309362,1304
608.4916876179676,1324
610.7949075929192,1301
613.0974970722403,1323
615.3994562724587,1318
617.7007854101818,1329
620.0014847020951,1381
622.3015543649641,1295
624.6009946156324,1353
626.8998056710224,1300
629.1979877481361,1410
631.4955410640538,1353
633.7924658359349,1307
636.0887622810175,1358
638.3844306166192,1359
640.6794710601358,1314
642.9738838290426,1402
645.2676691408932,1402
647.5608272133207,1327
649.853358264037,1318
652.1452625108324,1350
654.4365401715764,1333
656.7271914642178,1426
659.0172166067838,1322
661.3066158173809,1327
663.5953893141935,1362
665.8835373154867,1398
668.1710600396028,1396
670.4579577049639,1327
672.7442305300709,1411
675.0298787335033,1351
677.3149025339197,1409
679.599302150058,1416
681.8830778007342,1344
684.1662297048437,1378
686.4487580813608,1394
688.7306631493387,1376
691.0119451279091,1408
693.2926042362834,1416
695.5726406937516,1347
697.8520547196814,1351
700.1308465335215,1357
702.4090163547982,1366
704.6865644031171,1393
706.9634908981619,1376
709.2397960596965,1416
711.5154801075631,1433
713.7905432616823,1329
716.0649857420548,1325
718.3388077687592,1319
720.612009561953,1363
722.8845913418733,1277
725.1565533288352,1400
727.427895743234,1364
729.6986188055427,1374
731.9687227363137,1384
734.238207756178,1370
736.5070740858458,1322
738.7753219461066,1322
741.0429515578281,1372
743.3099631419569,1334
745.5763569195191,1364
747.8421331116193,1345
750.1072919394409,1327
752.3718336242467,1361
754.6357583873777,1326
756.8990664502545,1317
759.1617580343765,1399
761.423833361321,1369
763.6852926527457,1358
765.9461361303862,1356
768.206364016058,1333
770.4659765316536,1360
772.7249738991469,1361
774.9833563405886,1384
777.2411240781092,1397
779.4982773339183,1327
781.7548163303044,1370
784.010741289634,1380
786.2660524343538,1430
788.5207499869881,1436
790.7748341701416,1390
793.0283052064964,1443
795.2811633188143,1436
797.5334087299362,1383
799.7850416627813,1412
802.0360623403484,1425
804.2864709857143,1406
806.5362678220353,1384
808.7854530725468,1435
811.0340269605625,1454
813.2819897094754,1391
815.5293415427581,1387
817.77608268396,1455
820.0222133567116,1424
822.2677337847211,1427
824.5126441917765,1409
826.7569448017433,1351
829.0006358385675,1416
831.2437175262731,1392
833.4861900889629,1435
835.7280537508192,1362
837.9693087361026,1392
840.2099552691533,1378
842.4499935743896,1421
844.689423876309,1409
846.9282463994886,1397
849.1664613685833,1406
851.4040690083276,1369
853.6410695435349,1366
855.877463199097,1480
858.1132501999847,1390
860.3484307712487,1360
862.5830051380175,1437
864.8169735254988,1375
867.0503361589791,1410
869.2830932638243,1425
871.5152450654786,1450
873.7467917894654,1364
875.9777336613873,1462
878.2080709069252,1406
880.4378037518389,1389
882.666932421968,1386
884.8954571432301,1426
887.1233781416219,1351
889.3506956432192,1421
891.5774098741766,1390
893.803521060728,1439
896.0290294291852,1445
898.2539352059397,1429
900.4782386174619,1433
902.7019398903011,1347
904.925039251085,1347
907.147536926521,1392
909.3694331433943,1441
911.59072812857,1420
913.8114221089921,1338
916.0315153116827,1353
918.2510079637437,1349
920.4699002923547,1398
922.6881925247761,1387
924.905884888345,1371
927.1229776104793,1351
929.3394709186747,1348
931.555365040506,1307
933.7706602036275,1427
935.9853566357709,1305
938.1994545647489,1348
940.4129542184515,1374
942.6258558248488,1353
944.8381596119883,1356
947.0498658079974,1303
949.2609746410825,1322
951.4714863395287,1364
953.6814011316998,1355
955.8907192460387,1400
958.0994409110671,1373
960.3075663553858,1332
962.5150958076741,1335
964.7220294966913,1317
966.928367651274,1383
969.1341105003388,1319
971.3392582728806,1291
973.5438111979742,1338
975.747769504772,1332
977.9511334225061,1299
980.153903180487,1304
982.3560790081052,1262
984.5576611348289,1342
986.7586497902058,1317
988.9590452038618,1300
991.158847605503,1279
993.3580572249133,1260
995.5566742919558,1287
997.7546990365728,1266
999.952131688785,1207
1002.1489724786926,1244
1004.3452216364743,1209
1006.5408793923874,1189
1008.7359459767691,1242
1010.9304216200343,1223
1013.1243065526781,1214
1015.3176010052733,1210
1017.510305208472,1241
1019.7024193930064,1128
1021.8939437896848,1135
1024.0848786293977,1205
1026.2752241431122,1134
1028.4649805618747,1108
1030.6541481168115,1181
1032.842727039127,1167
1035.0307175601051,1132
1037.2181199111074,1175
1039.4049343235752,1171
1041.591161029029,1179
1043.7768002590683,1171
1045.9618522453698,1106
1048.1463172196918,1162
1050.3301954138697,1116
1052.513487059818,1117
1054.69619238953,1127
1056.8783116350783,1138
1059.0598450286152,1170
1061.2407928023704,1126
1063.4211551886528,1071
1065.6009324198508,1152
1067.780124728432,1150
1069.9587323469414,1134
1072.1367555080046,1125
1074.314194444325,1149
1076.4910493886855,1166
1078.667320573947,1101
1080.843008233051,1112
1083.0181125990161,1067
1085.1926339049414,1131
1087.3665723840027,1093
1089.5399282694575,1121
1091.7127017946405,1086
1093.8848931929647,1127
1096.0565026979243,1088
1098.2275305430899,1094
1100.3979769621128,1088
1102.567842188722,1114
1104.737126456726,1081
1106.9058300000124,1113
1109.0739530525475,1081
1111.2414958483764,1104
1113.4084586216231,1094
1115.5748416064907,1046
1117.7406450372605,1093
1119.9058691482942,1126
1122.0705141740304,1089
1124.2345803489884,1119
1126.3980679077658,1035
1128.5609770850388,1112
1130.7233081155623,1081
1132.8850612341707,1068
1135.0462366757774,1074
1137.2068346753745,1086
1139.3668554680326,1010
1141.526299288901,1091
1143.68516637321,1067
1145.8434569562655,1047
1148.001171273455,1069
1150.158309560244,1011
1152.3148720521767,1067
1154.470858984876,1047
1156.626270594044,1071
1158.7811071154629,1048
1160.9353687849912,1031
1163.089055838569,1069
1165.242168512213,1049
1167.3947070420209,1052
1169.5466716641677,1019
1171.6980626149075,1011
1173.8488801305748,1035
1175.9991244475814,1071
1178.1487958024186,1033
1180.2978944316555,1058
1182.4464205719428,989
1184.5943744600072,1063
1186.7417563326567,989
1188.8885664267755,1098
1191.0348049793297,1076
1193.1804722273619,1035
1195.325568407995,1054
1197.4700937584303,1053
1199.614048515948,1028
1201.7574329179074,1069
1203.900247201746,1036
1206.042491604982,1080
1208.1841663652099,1035
1210.3252717201053,1057
1212.465807907422,1017
1214.6057751649923,999
1216.7451737307279,1066
1218.8840038426192,1038
1221.0222657387353,1032
1223.1599596572241,1085
1225.2970858363137,1047
1227.4336445143094,1050
1229.5696359295966,1099
1231.705060320639,1039
1233.8399179259786,1065
1235.9742089842384,1054
1238.107933734118,1078
1240.2410924143974,1089
1242.373685263935,1060
1244.5057125216676,1119
1246.6371744266116,1054
1248.7680712178621,1096
1250.898403134593,1096
1253.028170416058,1107
1255.1573733015875,1092
1257.2860120305932,1112
1259.4140868425648,1096
1261.54159797707,1090
1263.6685456737569,1133
1265.7949301723515,1103
1267.9207517126597,1108
1270.046010534565,1123
1272.1707068780306,1088
1274.2948409830983,1115
1276.4184130898889,1091
1278.541423438603,1072
1280.6638722695184,1160
1282.785759822993,1158
1284.9070863394636,1096
1287.0278520594447,1176
1289.1480572235314,1176
1291.2677020723963,1179
1293.3867868467923,1128
1295.5053117875495,1170
1297.623277135579,1166
1299.740683131868,1159
1301.8575300174857,1254
1303.973818033578,1227
1306.0895474213703,1241
1308.2047184221678,1166
1310.3193312773528,1197
1312.4333862283888,1242
1314.5468835168163,1223
1316.659823384255,1237
1318.7722060724045,1255
1320.8840318230418,1220
1322.9953008780249,1251
1325.1060134792888,1251
1327.2161698688478,1245
1329.3257702887959,1230
1331.4348149813054,1211
1333.5433041886276,1206
1335.6512381530933,1274
1337.7586171171101,1255
1339.8654413231675,1203
1341.9717110138317,1255
1344.0774264317488,1287
1346.1825878196432,1243
1348.2871954203192,1166
1350.3912494766587,1200
1352.4947502316231,1218
1354.5976979282532,1224
1356.7000928096686,1198
1358.8019351190665,1185
1360.9032250997243,1175
1363.0039629949988,1240
1365.1041490483235,1150
1367.2037835032133,1161
1369.3028666032606,1146
1371.401398592137,1173
1373.4993797135926,1145
1375.5968102114575,1153
1377.6936903296396,1181
1379.7900203121262,1202
1381.8858004029835,1112
1383.9810308463561,1177
1386.075711886469,1178
1388.1698437676241,1178
1390.2634267342032,1186
1392.356461030667,1136
1394.4489469015557,1145
1396.5408845914872,1164
1398.6322743451592,1197
1400.7231164073469,1196
1402.813411022907,1172
1404.903158436773,1225
1406.9923588939578,1171
1409.0810126395531,1202
1411.1691199187303,1220
1413.2566809767386,1181
1415.343696058907,1139
1417.4301654106425,1160
1419.5160892774315,1118
1421.6014679048399,1189
1423.6863015385125,1138
1425.7705904241707,1195
1427.8543348076178,1143
1429.9375349347342,1225
1432.0201910514802,1191
1434.102303403894,1210
1436.1838722380944,1195
1438.2648978002767,1218
1440.3453803367174,1232
1442.4253200937692,1153
1444.5047173178677,1222
1446.5835722555234,1260
1448.6618851533285,1198
1450.739656257952,1231
1452.8168858161434,1264
1454.8935740747306,1278
1456.96972128062,1308
1459.045327680797,1272
1461.120393522327,1326
1463.1949190523528,1314
1465.2689045180973,1335
1467.3423501668608,1311
1469.415256246024,1334
1471.4876230030463,1338
1473.559450685465,1348
1475.6307395408976,1347
1477.7014898170391,1349
1479.771701761665,1391
1481.8413756226287,1396
1483.9105116478618,1401
1485.9791100853772,1408
1488.0471711832643,1397
1490.1146951896926,1418
1492.1816823529098,1401
1494.2481329212433,1421
1496.3140471430984,1422
1498.3794252669609,1415
1500.4442675413939,1489
1502.5085742150404,1469
1504.572345536622,1475
1506.6355817549388,1465
1508.6982831188702,1479
1510.7604498773744,1462
1512.8220822794883,1487
1514.8831805743293,1505
1516.9437450110909,1475
1519.003775839048,1487
1521.0632733075522,1569
1523.1222376660367,1468
1525.1806691640113,1527
1527.2385680510652,1537
1529.2959345768668,1586
1531.3527689911643,1573
1533.4090715437833,1620
1535.4648424846291,1581
1537.5200820636855,1546
1539.5747905310159,1628
1541.6289681367616,1659
1543.6826151311434,1674
1545.7357317644614,1745
1547.7883182870937,1763
1549.8403749494987,1763
1551.8919020022113,1749
1553.9428996958477,1787
1555.9933682811015,1787
1558.0433080087469,1790
1560.0927191296346,1842
1562.1416018946961,1891
1564.1899565549415,1870
1566.2377833614592,1869
1568.2850825654164,1870
1570.3318544180606,1867
1572.3780991707158,1867
1574.423817074788,1806
1576.4690083817595,1819
1578.5136733431923,1671
1580.5578122107272,1683
1582.601425236085,1680
1584.6445126710646,1668
1586.6870747675434,1610
1588.7291117774776,1594
1590.7706239529034,1531
1592.8116115459347,1489
1594.8520748087658,1438
1596.8920139936686,1460
1598.9314293529933,1445
1600.9703211391711,1382
1603.008689604711,1430
1605.0465350022005,1312
1607.0838575843068,1319
1609.1206576037753,1335
1611.1569353134305,1283
1613.1926909661765,1342
1615.2279248149953,1287
1617.2626371129481,1272
1619.2968281131757,1216
1621.3304980688963,1201
1623.3636472334088,1227
1625.39627586009,1197
1627.428384202396,1128
1629.459972513861,1141
1631.4910410480993,1140
1633.5215900588028,1161
1635.551619799744,1160
1637.5811305247717,1160
1639.6101224878166,1085
1641.6385959428862,1121
1643.6665511440683,1102
1645.693988345528,1103
1647.7209078015112,1083
1649.7473097663405,1103
1651.7731944944203,1097
1653.7985622402307,1088
1655.823413258333,1105
1657.847747803366,1093
1659.8715661300494,1149
1661.8948684931793,1092
1663.9176551476316,1078
1665.9399263483624,1123
1667.9616823504057,1067
1669.982923408873,1074
1672.0036497789574,1057
1674.0238617159293,1063
1676.043559475138,1123
1678.0627433120121,1078
1680.081413482059,1100
1682.0995702408654,1114
1684.117213844096,1100
1686.134344547495,1123
1688.1509626068864,1111
1690.1670682781705,1104
1692.182661817329,1073
1694.1977434804217,1107
1696.2123135235875,1069
1698.226372203043,1036
1700.2399197750851,1083
1702.2529564960905,1105
1704.2654826225112,1110
1706.277498410882,1059
1708.2890041178139,1079
1710.2999999999988,1087
1712.3104863142066,1059
1714.3204633172854,1067
1716.329931266163,1091
1718.3388904178469,1099
1720.3473410294214,1076
1722.3552833580516,1091
1724.3627176609807,1062
1726.3696441955308,1100
1728.3760632191033,1070
1730.3819749891782,1051
1732.3873797633146,1092
1734.3922777991502,1070
1736.3966693544012,1059
1738.4005546868639,1077
1740.4039340544127,1056
1742.406807715001,1097
1744.4091759266616,1086
1746.4110389475054,1026
1748.4123970357223,1112
1750.413250449582,1032
1752.4135994474318,1051
1754.4134442876993,1090
1756.4127852288902,1052
1758.4116225295893,1049
1760.4099564484595,1077
1762.407787244244,1053
1764.405115175764,1044
1766.4019405019203,1017
1768.3982634816916,1066
1770.3940843741357,1042
1772.3894034383907,1037
1774.3842209336717,1038
1776.378537119274,1015
1778.372352254571,1071
1780.3656665990156,1058
1782.3584804121397,1016
1784.3507939535534,986
1786.3426074829463,1023
1788.3339212600863,1007
1790.3247355448211,1018
1792.3150505970766,1014
1794.3048666768573,999
1796.2941840442477,1054
1798.2830029594106,1027
1800.2713236825884,1016
1802.2591464741004,1058
1804.2464715943465,1037
1806.2332993038058,1053
1808.2196298630352,1023
1810.2054635326708,1037
1812.190800573428,1068
1814.175641246101,1008
1816.1599858115628,1036
1818.1438345307652,1048
1820.127187664738,1065
1822.1100454745924,1005
1824.092408221516,978
1826.0742761667766,1012
1828.055649571721,1018
1830.0365286977735,1044
1832.0169138064398,1013
1833.9968051593014,1031
1835.9762030180214,1037
1837.9551076443408,989
1839.9335193000788,998
1841.9114382471344,1000
1843.888864747485,1020
1845.8657990631878,983
1847.842241456378,1022
1849.8181921892697,1042
1851.7936515241558,1003
1853.7686197234098,1015
1855.7430970494815,1007
1857.7170837649014,1008
1859.6905801322787,1051
1861.6635864143004,1053
1863.6361028737338,1069
1865.608129773424,1062
1867.5796673762961,1042
1869.5507159453537,1009
1871.521275743678,1019
1873.4913470344313,1006
1875.4609300808534,1007
1877.4300251462632,1072
1879.3986324940588,1020
1881.366752387717,1068
1883.3343850907936,1053
1885.3015308669228,1015
1887.268189979819,1012
1889.2343626932739,1051
1891.2000492711595,1068
1893.1652499774254,1063
1895.1299650761011,1075
1897.0941948312952,1058
1899.0579395071945,1078
1901.0211993680641,1039
1902.98397467825,1077
1904.9462657021745,1052
1906.9080727043415,1073
1908.869395949332,1099
1910.8302357018065,1023
1912.790592226504,1052
1914.7504657882428,1005
1916.7098566519212,1049
1918.6687650825133,1031
1920.6271913450764,1098
1922.5851357047422,995
1924.5425984267245,1053
1926.499579776314,1053
1928.4560800188833,1056
1930.4120994198802,1065
1932.367638244833,1093
1934.32269675935,1097
1936.2772752291175,1039
1938.231373919899,1021
1940.1849930975404,1016
1942.1381330279637,1026
1944.0907939771696,1031
1946.0429762112412,1091
1947.9946799963363,1051
1949.9459055986945,1091
1951.896653284633,1066
1953.8469233205478,1101
1955.7967159729142,1001
1957.7460315082863,1050
1959.6948701932974,1044
1961.6432322946594,1004
1963.5911180791632,1029
1965.5385278136787,1042
1967.4854617651545,994
1969.4319202006182,1000
1971.377903387176,1023
1973.3234115920136,1036
1975.268445082395,1073
1977.2130041256642,1009
1979.1570889892423,1037
1981.1006999406304,1026
1983.04383724741,1080
1984.986501177238,1006
1986.928691997853,1094
1988.8704099770712,1023
1990.811655382789,1006
1992.7524284829801,1046
1994.692729545698,994
1996.6325588390755,1027
1998.5719166313224,1075
2000.5108031907307,1039
2002.4492187856677,1026
2004.387163684583,980
2006.3246381560011,1039
2008.2616424685298,1037
2010.1981768908527,1057
2012.1342416917332,1044
2014.069837140014,1045
2016.0049635046162,1007
2017.9396210545406,1016
2019.8738100588666,1003
2021.8075307867502,978
2023.740783507431,989
2025.6735684902228,993
2027.6058860045214,982
2029.5377363198004,990
2031.4691197056118,1000
2033.4000364315875,1041
2035.3304867674374,996
2037.260470982952,1035
2039.189989347998,979
2041.1190421325232,1016
2043.047629606554,1034
2044.9757520401945,997
2046.9034097036288,994
2048.8306028671195,1065
2050.7573318010086,990
2052.683596775716,999
2054.609398061742,1016
2056.5347359296647,959
2058.4596106501403,993
2060.384022493906,997
2062.3079717317764,1022
2064.231458634646,1042
2066.1544834734873,1008
2068.077046519352,1009
2069.99914804337,1035
2071.9207883167524,1001
2073.8419676107865,1017
2075.7626861968406,980
2077.6829443463607,957
2079.6027423308715,1027
2081.522080421977,1035
2083.440958891362,1025
2085.359378010786,1055
2087.2773380520907,1011
2089.194839287196,1036
2091.111881988101,992
2093.0284664268825,1022
2094.9445928756973,1004
2096.86026160678,1001
2098.775472892446,1068
2100.690227005088,980
2102.604524217178,1027
2104.5183648012676,968
2106.431749029985,987
2108.34467717604,994
2110.2571495122206,970
2112.169166311393,962
2114.080727846503,1010
2115.9918343905747,1005
2117.902486216711,999
2119.8126835980956,972
2121.722426807987,1022
2123.6317161197285,1007
2125.5405518067364,975
2127.448934142509,974
2129.356863400624,1008
2131.264339854737,1020
2133.1713637785815,1000
2135.077935445972,980
2136.9840551308002,1039
2138.889723107037,995
2140.7949396487334,1025
2142.699705030018,984
2144.6040195250994,1011
2146.507883408264,1004
2148.4112969538774,1019
2150.3142604363848,1015
2152.2167741303097,1078
2154.1188383102535,1050
2156.0204532508997,1021
2157.9216192270064,1020
2159.822336513414,1017
2161.7226053850413,1032
2163.622426116884,1048
2165.5217989840185,1067
2167.4207242616,1008
2169.319202224862,1079
2171.2172331491165,1049
2173.1148173097563,1042
2175.0119549822507,1029
2176.90864644215,1042
2178.8048919650823,1021
2180.7006918267534,1050
2182.596046302952,1037
2184.4909556695407,1057
2186.3854202024645,1049
2188.279440177746,1064
2190.173015871487,1036
2192.066147559868,1035
2193.958835519149,1018
2195.851080025667,1060
2197.7428813558417,1027
2199.6342397861667,1052
2201.5251555932186,1048
2203.415629053651,1027
2205.3056604441986,1046
2207.19525004167,1036
2209.084398122958,1052
2210.9731049650327,1051
2212.861370844941,1009
2214.749196039812,1027
2216.636580826851,1100
2218.523525483344,1064
2220.410030286655,1073
2222.296095514226,1040
2224.1817214435805,1047
2226.066908352319,1056
2227.951656518121,987
2229.835966218746,1053
2231.71983773203,1071
2233.6032713358913,1072
2235.486267308324,1074
2237.3688259274036,1036
2239.2509474712824,1017
2241.132632218193,1045
2243.013880446447,1035
2244.8946924344323,1048
2246.7750684606203,1064
2248.6550088035574,1039
2250.534513741871,1064
2252.413583554265,1112
2254.292218519526,1098
2256.170418916517,1030
2258.0481850241786,1065
2259.925517121534,1068
2261.8024154876825,1068
2263.678880401803,1098
2265.5549121431536,1067
2267.430510991071,1091
2269.305677224971,1033
2271.180411124348,1079
2273.0547129687766,1060
2274.9285830379076,986
2276.8020216114737,1013
2278.6750289692845,1045
2280.5476053912294,1028
2282.4197511572766,1068
2284.2914665474727,1032
2286.162751841943,1053
2288.0336073208937,1079
2289.904033264608,1088
2291.774029953448,1100
2293.6435976678554,1059
2295.5127366883517,1023
2297.381447295534,984
2299.2497297700825,1015
2301.1175843927526,1007
2302.9850114443825,973
2304.852011205885,931
2306.7185839582553,962
2308.5847299825664,942
2310.4504495599676,974
2312.3157429716925,951
2314.1806104990483,953
2316.0450524234247,953
2317.9090690262888,954
2319.772660589186,962
2321.635827393742,1005
2323.498569721661,991
2325.3608878547248,952
2327.2227820747967,967
2329.0842526638157,956
2330.945299903803,990
2332.805924076857,925
2334.6661254651535,956
2336.525904350951,961
2338.3852610165827,990
2340.244195744464,914
2342.102708817088,945
2343.9608005170253,982
2345.8184711269287,949
2347.675720929526,975
2349.532550207628,938
2351.38895924412,958
2353.24494832197,980
2355.100517724223,968
2356.955667734004,960
2358.810398634514,1000
2360.664710709037,986
2362.5186042409337,971
2364.3720795136437,962
2366.225136810686,1013
2368.0777764156583,974
2369.929998612237,959
2371.7818036841777,971
2373.633191915315,944
2375.484163589562,951
2377.3347189909114,931
2379.184858403434,978
2381.03458211128,974
2382.8838903986775,989
2384.732783549936,1002
2386.5812618494406,941
2388.4293255816588,985
2390.2769750311327,950
2392.1242104824883,949
2393.971032220427,981
2395.8174405297295,1017
2397.6634356952563,1015
2399.509018001947,980
2401.3541877348193,988
2403.1989451789705,979
2405.043290619576,979
2406.8872243418905,953
2408.730746631247,985
2410.5738577730594,983
2412.4165580528183,970
2414.258847756095,1031
2416.100727168537,969
2417.9421965758734,971
2419.783256263912,957
2421.623906518538,1020
2423.4641476257157,940
2425.303979871491,940
2427.143403541984,983
2428.9824189233977,987
2430.821026302012,978
2432.6592259641866,1003
2434.497018196361,996
2436.33440328505,1011
2438.171381516851,1005
2440.00795317844,978
2441.844118556569,950
2443.6798779380724,977
2445.5152316098606,995
2447.3501798589255,1015
2449.1847229723357,957
2451.0188612372403,947
2452.8525949408663,1004
2454.6859243705203,991
2456.518849813587,945
2458.3513715575314,970
2460.183489889895,967
2462.015205098301,978
2463.8465174704493,994
2465.67742729412,935
2467.5079348571717,1038
2469.338040447542,974
2471.1677443532476,977
2472.9970468623833,999
2474.825948263123,982
2476.6544488437207,996
2478.482548892508,1007
2480.310248697896,996
2482.137548548374,980
2483.9644487325118,1001
2485.790949538956,989
2487.617051256433,984
2489.44275417375,991
2491.26805857979,1020
2493.0929647635157,993
2494.917473013971,995
2496.741583620276,990
2498.5652968716304,1005
2500.3886130573137,1008
2502.2115324666834,1007
2504.0340553891765,1025
2505.856182114308,1009
2507.6779129316733,1065
2509.499248130945,1026
2511.3201880018764,1030
2513.140732834298,1063
2514.9608829181198,1059
2516.780638543331,1030
2518.6,1011
2520.418967578273,1011
2522.237541568376,1070
2524.0557222606144,1074
2525.8735099453706,1018
2527.6909049131086,1024
2529.507907454368,1004
2531.32451785977,1012
2533.140736420014,1053
2534.9565634258774,1072
2536.771999168218,1074
2538.5870439379714,1068
2540.4016980261526,1057
2542.2159617238544,1071
2544.02983532225,1073
2545.8433191125914,1066
2547.656413386209,1101
2549.4691184345115,1066
2551.2814345489874,1080
2553.093362021204,1088
2554.904901142808,1101
2556.716052205523,1097
2558.526815501153,1093
2560.3371913215824,1114
2562.147179958771,1072
2563.956781704761,1117
2565.7659968516705,1067
2567.5748256916986,1064
2569.3832685171224,1120
2571.1913256202984,1175
2572.9989972936614,1124
2574.806283829725,1169
2576.613185521084,1100
2578.4197026604074,1129
2580.2258355404483,1158
2582.031584454035,1165
2583.836949694077,1136
2585.6419315535613,1117
2587.4465303255533,1123
2589.2507463032002,1101
2591.0545797797245,1074
2592.8580310484303,1160
2594.6611004026995,1106
2596.463788135992,1144
2598.266094541849,1120
2600.0680199138874,1186
2601.869564545807,1140
2603.670728731383,1099
2605.4715127644704,1162
2607.2719169390048,1149
2609.071941548998,1122
2610.8715868885433,1147
2612.670853251811,1090
2614.469740933052,1142
2616.268250226594,1099
2618.0663814268455,1113
2619.864134828292,1112
2621.6615107255006,1143
2623.458509413115,1115
2625.2551311858597,1166
2627.0513763385347,1092
2628.8472451660223,1125
2630.6427379632833,1096
2632.4378550253564,1143
2634.232596647359,1127
2636.026963124488,1101
2637.8209547520187,1135
2639.6145718253065,1053
2641.407814639785,1142
2643.200683490966,1069
2644.9931786744414,1123
2646.7853004858807,1112
2648.577049221034,1122
2650.3684251757277,1075
2652.1594286458712,1117
2653.9500599274484,1091
2655.740319316525,1007
2657.5302071092437,1067
2659.3197236018286,1118
2661.10886909058,1094
2662.8976438718782,1032
2664.686048242183,1089
2666.4740824980327,1029
2668.2617469360443,1050
2670.0490418529134,1031
2671.8359675454153,1018
2673.622524310403,1094
2675.408712444811,1058
2677.1945322456495,1042
2678.979984010009,1023
2680.76506803506,1074
2682.5497846180497,1013
2684.334134056306,993
2686.1181166472343,1014
2687.9017326883213,1025
2689.6849824771293,1040
2691.4678663113013,1003
2693.2503844885596,1015
2695.032537306705,1035
2696.8143250636167,981
2698.5957480572542,990
2700.3768065856534,1007
2702.1575009469316,1019
2703.937831439283,994
2705.717798360982,980
2707.4974020103837,962
2709.276642685917,943
2711.055520686095,987
2712.834036309506,1014
2714.612189854819,1000
2716.389981620782,999
2718.1674119062204,994
2719.944481010041,1015
2721.721189231226,999
2723.4975368688415,982
2725.273524222027,968
2727.0491515900053,979
2728.824419272075,977
2730.5993275676146,961
2732.3738767760838,993
2734.148067197016,926
2735.921899130031,983
2737.6953728748194,975
2739.468488731156,974
2741.2412469988926,977
2743.0136479779617,995
2744.785691968372,974
2746.5573792702116,974
2748.3287101836504,956
2750.099685008934,905
2751.870304046388,981
2753.640567596418,985
2755.4104759595057,996
2757.1800294362156,995
2758.949228327187,969
2760.7180729331412,1018
2762.486563554877,988
2764.254700493272,995
2766.022484049284,984
2767.789914523947,976
2769.5569922183786,944
2771.3237174337705,983
2773.090090471394,923
2774.8561116326036,938
2776.6217812188274,973
2778.3870995315756,935
2780.1520668724356,904
2781.9166835430747,964
2783.6809498452394,995
2785.444866080754,981
2787.2084325515225,943
2788.971649559527,944
2790.73451740683,972
2792.4970363955713,962
2794.2592068279705,957
2796.0210290063264,945
2797.7825032330147,954
2799.543629810493,956
2801.304409041296,962
2803.0648412280366,912
2804.8249266734088,983
2806.5846656801846,960
2808.344058551212,922
2810.1031055894246,959
2811.8618070978273,976
2813.6201633795085,954
2815.378174737636,932
2817.1358414754536,954
2818.893163896285,942
2820.6501423035334,962
2822.4067770006814,954
2824.1630682912883,928
2825.9190164789957,944
2827.6746218675207,983
2829.429884760661,947
2831.184805462294,958
2832.9393842763743,951
2834.693621506936,974
2836.4475174580916,989
2838.201072434034,962
2839.954286739034,991
2841.707160677441,931
2843.459694553685,982
2845.2118886722724,958
2846.96374333779,948
2848.7152588549034,935
2850.4664355283567,984
2852.217273662973,1017
2853.9677735636546,985
2855.7179355353833,950
2857.4677598832186,963
2859.217246912299,984
2860.9663969278427,976
2862.715210235146,941
2864.4636871395846,988
2866.211827946614,963
2867.9596329617652,1006
2869.7071024906536,939
2871.4542368389684,969
2873.20103631248,962
2874.947501217038,915
2876.6936318585695,999
2878.4394285430812,941
2880.1848915766604,973
2881.9300212654707,949
2883.6748179157553,944
2885.4192818338374,953
2887.1634133261173,980
2888.907212699077,987
2890.6506802592744,997
2892.393816313348,941
2894.1366211680142,962
2895.8790951300693,955
2897.621238506388,927
2899.363051603925,944
2901.1045347297118,990
2902.8456881908596,1008
2904.58651229456,941
2906.327007348081,971
2908.067173658772,955
2909.8070115340597,971
2911.5465212814497,935
2913.285703208527,992
2915.0245576229563,1007
2916.7630848324807,970
2918.5012851449196,941
2920.2391588681758,930
2921.976706310227,976
2923.7139277791334,912
2925.4508235830313,921
2927.187394030137,931
2928.923639428745,893
2930.6595600872306,924
2932.395156314046,983
2934.1304284177218,985
2935.8653767068713,974
2937.6000014901815,1000
2939.3343030764227,954
2941.068281774442,1022
2942.8019378931644,1007
2944.5352717415976,952
2946.2682836288236,952
2948.0009738640065,993
2949.7333427563885,960
2951.465390615289,939
2953.1971177501086,933
2954.9285244703265,941
2956.6596110855,960
2958.3903779052657,977
2960.1208252393385,980
2961.8509533975125,958
2963.5807626896617,951
2965.3102534257378,943
2967.0394259157715,964
2968.768280469873,901
2970.496817398232,968
2972.2250370111146,972
2973.952939618869,945
2975.6805255319196,931
2977.4077950607707,1003
2979.134748516006,941
2980.861386208289,999
2982.587708448359,907
2984.313715547037,931
2986.039407815222,939
2987.764785563891,958
2989.489849104102,993
2991.2145987469908,959
2992.9390348037705,942
2994.6631575857346,945
2996.3869674042576,933
2998.1104645707887,987
2999.83364939686,901
3001.5565221940783,931
3003.2790832741334,1009
3005.0013329487924,895
3006.7232715298996,963
3008.4448993293804,905
3010.166216659239,935
3011.887223831558,925
3013.607921158498,921
3015.3283089522993,931
3017.0483875252826,948
3018.7681571898443,940
3020.4876182584626,941
3022.2067710436927,959
3023.9256158581707,913
3025.644153014609,910
3027.362382825801,914
3029.0803056046193,935
3030.797921664012,944
3032.5152313170106,915
3034.2322348767225,885
3035.9489326563353,935
3037.665324969115,945
3039.3814121284063,970
3041.097194447633,962
3042.812672240299,987
3044.5278458199855,931
3046.2427155003525,939
3047.9572815951406,936
3049.671544418167,912
3051.38550428333,904
3053.0991615046073,954
3054.812516396051,922
3056.5255692717974,963
3058.2383204460575,898
3059.9507702331257,938
3061.662918947372,957
3063.3747669032446,926
3065.0863144152736,927
3066.7975617980674,979
3068.508509366309,901
3070.219157434767,935
3071.9295063182844,971
3073.639556331785,962
3075.3493077902704,986
3077.058761008821,959
3078.7679163025964,933
3080.476773986837,943
3082.1853343768594,926
3083.89359778806,963
3085.6015645359153,970
3087.3092349359786,953
3089.016609303884,906
3090.7236879553434,948
3092.4304712061476,964
3094.136959372166,946
3095.843152769349,942
3097.5490517137237,953
3099.2546565213966,908
3100.959967508554,931
3102.66498499146,942
3104.3697092864577,943
3106.0741407099695,954
3107.778279578498,885
3109.482126208622,925
3111.1856809170004,966
3112.8889440203716,932
3114.5919158355528,954
3116.294596679439,962
3117.996986869006,973
3119.6990867213062,956
3121.4008965534726,958
3123.102416682717,1001
3124.803647426329,933
3126.5045891016784,951
3128.205242026213,967
3129.90560651746,956
3131.605682893025,924
3133.3054714705922,966
3135.0049725679282,967
3136.7041865028714,950
3138.4031135933465,932
3140.101754157353,979
3141.800108512971,947
3143.498176978357,963
3145.1959598717494,958
3146.8934575114636,943
3148.5906702158954,936
3150.2875983035183,977
3151.9842420928853,929
3153.680601902627,923
3155.376678051456,908
3157.07247085816,937
3158.767980641609,938
3160.463207720748,960
3162.158152414606,923
3163.8528150422862,977
3165.5471959229726,933
3167.2412953759303,956
3168.9351137204976,961
3170.628651276098,936
3172.3219083622307,941
3174.014885298474,988
3175.707582404485,945
3177.4000000000005,974
3179.092138404835,981
3180.7839979388846,934
3182.47557892212,914
3184.166881674594,965
3185.8579065164386,933
3187.5486537678626,974
3189.2391237491547,904
3190.9293167806827,944
3192.6192331828934,963
3194.3088732763117,903
3195.998237381542,979
3197.687325819268,994
3199.376138910251,992
3201.064676975334,947
3202.7529403354347,958
3204.4409293115523,907
3206.1286442247647,956
3207.816085396229,944
3209.5032531471825,937
3211.190147798936,932
3212.8767696728846,916
3214.5631190905015,886
3216.2491963733373,879
3217.9350018430214,945
3219.6205358212637,969
3221.305798629851,905
3222.990790590651,924
3224.6755120256103,892
3226.359963256751,924
3228.0441446061795,934
3229.7280563960758,885
3231.411698948703,900
3233.0950725863995,939
3234.778177631587,970
3236.461014406761,949
3238.1435832345005,898
3239.8258844374595,934
3241.507918338374,975
3243.1896852600576,985
3244.8711855254023,929
3246.552419457381,957
3248.233387379042,964
3249.914089613516,957
3251.59452648401,961
3253.274698313813,932
3254.95460542629,931
3256.6342481448855,936
3258.313626793125,932
3259.9927416946084,945
3261.6715931730196,877
3263.3501815521176,923
3265.0285071557437,931
3266.706570307815,916
3268.3843713323286,899
3270.0619105533615,917
3271.739188295068,941
3273.4162048816834,931
3275.0929606375184,956
3276.769455886966,919
3278.445690954498,936
3280.1216661646613,910
3281.797381842087,907
3283.4728383114807,964
3285.1480358976296,925
3286.8229749253996,933
3288.4976557197333,902
3290.172078605655,907
3291.846243908266,920
3293.5201519527463,932
3295.193803064357,952
3296.8671975684374,891
3298.5403357904024,925
3300.21321805575,924
3301.8858446900567,895
3303.558216018975,931
3305.23033236824,933
3306.9021940636603,907
3308.57380143113,928
3310.2451547966184,936
3311.916254486174,1009
3313.5871008259246,902
3315.2576941420766,915
3316.9280347609147,940
3318.5981230088046,903
3320.2679592121895,926
3321.9375436975924,925
3323.606876791612,905
3325.27595882093,922
3326.944790112305,907
3328.6133709925753,898
3330.2817017886573,872
3331.949782827547,905
3333.617614436319,895
3335.2851969421245,928
3336.952530672199,950
3338.619615953853,928
3340.286453114475,929
3341.9530424815357,991
3343.619384382583,932
3345.2854791452437,953
3346.951327097224,962
3348.6169285663073,955
3350.2822838803577,887
3351.947393367319,865
3353.61225735521,928
3355.2768761721345,910
3356.9412501462693,916
3358.605379605873,932
3360.2692648792827,942
3361.9329062949146,930
3363.596304181263,890
