CollectionTime,7/11/2024 2:12:09 PM
ExposureUsed,3
CalibratedSpectrum
-962.7078968117929,410
-959.9714848408522,435
-957.2358232597828,423
-954.5009119013725,435
-951.7667505983302,420
-949.0333391832855,413
-946.3006774887896,422
-943.5687653473143,440
-940.837602591253,429
-938.1071890529199,428
-935.3775245645503,418
-932.6486089583007,421
-929.9204420662485,421
-927.1930237203925,424
-924.4663537526524,423
-921.7404319948689,431
-919.0152582788041,423
-916.2908324361409,463
-913.5671542984834,444
-910.8442236973568,440
-908.1220404642074,467
-905.4006044304027,426
-902.679915427231,444
-899.959973285902,436
-897.2407778375464,421
-894.5223289132158,419
-891.8046263438832,415
-889.0876699604426,430
-886.3714595937089,445
-883.6559950744183,419
-880.9412762332282,433
-878.2273029007168,430
-875.5140749073835,401
-872.8015920836489,413
-870.0898542598545,424
-867.3788612662631,440
-864.6686129330585,432
-861.9591090903457,435
-859.2503495681506,459
-856.5423341964203,421
-853.8350628050229,429
-851.1285352237478,443
-848.4227512823054,444
-845.7177108103272,448
-843.0134136373656,430
-840.3098595928943,437
-837.6070485063082,445
-834.9049802069229,446
-832.2036545239757,451
-829.5030712866244,435
-826.8032303239481,412
-824.1041314649472,408
-821.4057745385428,414
-818.7081593735775,434
-816.0112857988148,434
-813.3151536429393,449
-810.6197627345566,433
-807.9251129021936,438
-805.2312039742981,438
-802.5380357792392,443
-799.8456081453069,440
-797.1539209007124,434
-794.462973873588,452
-791.772766891987,461
-789.083299783884,434
-786.3945723771743,437
-783.7065844996748,439
-781.0193359791231,470
-778.3328266431781,471
-775.6470563194197,452
-772.9620248353489,446
-770.2777320183878,439
-767.5941776958798,420
-764.9113616950891,448
-762.2292838432011,464
-759.5479439673222,449
-756.8673418944801,470
-754.1874774516235,446
-751.5083504656222,440
-748.8299607632671,450
-746.15230817127,460
-743.475392516264,466
-740.7992136248035,479
-738.1237713233636,445
-735.4490654383407,440
-732.7750957960521,470
-730.1018622227365,461
-727.4293645445534,469
-724.7576025875837,460
-722.0865761778291,450
-719.4162851412126,467
-716.7467293035781,467
-714.0779084906909,471
-711.409822528237,465
-708.7424712418238,452
-706.0758544569796,472
-703.4099719991541,471
-700.7448236937178,457
-698.0804093659622,470
-695.4167288411002,502
-692.7537819442656,491
-690.0915685005134,469
-687.4300883348199,473
-684.7693412720819,483
-682.1093271371178,485
-679.4500457546669,470
-676.7914969493897,487
-674.1336805458676,490
-671.4765963686034,466
-668.8202442420206,506
-666.1646239904642,494
-663.5097354382001,497
-660.8555784094151,492
-658.2021527282176,481
-655.5494582186366,481
-652.8974947046223,475
-650.2462620100463,479
-647.5957599587009,514
-644.9459883742998,516
-642.2969470804776,487
-639.6486359007902,503
-637.0010546587141,498
-634.3542031776476,500
-631.7080812809096,486
-629.0626887917401,520
-626.4180255333008,494
-623.7740913286734,490
-621.1308860008619,484
-618.4884093727904,492
-615.8466612673046,519
-613.2056415071715,477
-610.5653499150785,488
-607.9257863136347,500
-605.28695052537,511
-602.6488423727357,508
-600.0114616781036,493
-597.3748082637674,509
-594.7388819519412,529
-592.1036825647604,532
-589.4692099242818,509
-586.8354638524829,523
-584.2024441712624,507
-581.5701507024403,528
-578.9385832677575,545
-576.3077416888759,522
-573.6776257873787,536
-571.0482353847704,531
-568.4195703024757,540
-565.7916303618415,537
-563.164415384135,552
-560.5379251905453,542
-557.9121596021815,526
-555.2871184400748,515
-552.6628015251767,547
-550.0392086783606,545
-547.4163397204204,529
-544.794194472071,523
-542.1727727539491,551
-539.5520743866118,526
-536.9320991905377,539
-534.3128469861261,563
-531.6943175936979,588
-529.0765108334947,566
-526.4594265256793,635
-523.8430644903358,674
-521.2274245474689,731
-518.612506517005,773
-515.9983102187913,729
-513.3848354725959,784
-510.77208209810846,817
-508.16004991493924,857
-505.5487387426199,860
-502.9381484006032,910
-500.3282787082628,856
-497.71912948489364,775
-495.1107005497117,763
-492.5029917218539,699
-489.8960028203786,682
-487.28973366426493,661
-484.68418407241325,631
-482.07935386364494,589
-479.47524285670266,606
-476.87185087025,593
-474.2691777228715,624
-471.66722323307334,633
-469.0659872192821,645
-466.4654694998459,627
-463.86566989303384,617
-461.26658821703614,653
-458.66822428996414,657
-456.07057792985,620
-453.4736489546475,616
-450.877437182231,635
-448.28194243039627,660
-445.68716451686,628
-443.09310325926003,638
-440.49975847515555,631
-437.9071299820263,616
-435.31521759727354,656
-432.72402113821954,611
-430.13354042210767,636
-427.5437752661022,659
-424.95472548728867,625
-422.36639090267386,644
-419.7787713291855,665
-417.1918665836721,725
-414.60567648290385,677
-412.0202008435715,627
-409.4354394822874,661
-406.8513922155845,695
-404.26805885991723,690
-401.685439231661,664
-399.103533147112,688
-396.522340422488,683
-393.9418608739278,650
-391.3620943174908,700
-388.7830405691583,633
-386.2046994448317,632
-383.6270707603344,600
-381.05015433141045,577
-378.473949973725,570
-375.8984575028645,578
-373.32367673433623,513
-370.74960748356875,491
-368.1762495659117,519
-365.60360279663576,476
-363.03166699093265,459
-360.4604419639154,456
-357.8899275306178,409
-355.32012350599507,412
-352.7510297049233,420
-350.1826459421999,409
-347.61497203254316,412
-345.04800779059235,381
-342.4817530309082,408
-339.91620756797226,396
-337.35137121618743,399
-334.7872437898774,399
-332.22382510328725,396
-329.66111497058273,389
-327.09911320585127,388
-324.53781962310075,409
-321.9772340362607,388
-319.4173562591816,400
-316.8581861056348,373
-314.2997233893127,386
-311.7419679238294,403
-309.1849195227194,407
-306.62857799943856,425
-304.0729431673641,412
-301.51801483979375,417
-298.963792829947,405
-296.41027695096386,407
-293.85746701590574,446
-291.3053628377552,443
-288.7539642294155,434
-286.2032710037115,419
-283.65328297338897,419
-281.1039999511146,399
-278.5554217494762,417
-276.007548180983,443
-273.4603790580651,432
-270.9139141930734,443
-268.3681533982807,443
-265.8230964858798,433
-263.27874326798565,456
-260.7350935566336,447
-258.1921471637804,434
-255.6499039013039,429
-253.10836358100266,460
-250.56752601459698,482
-248.02739101372765,478
-245.48795838995704,467
-242.94922795476816,482
-240.41119951956557,441
-237.8738728956746,464
-235.33724789434166,478
-232.80132432673452,475
-230.2661020039418,478
-227.73158073697357,502
-225.19776033676033,513
-222.66464061415422,529
-220.1322213799284,486
-217.60050244477725,472
-215.06948361931552,495
-212.53916471408013,518
-210.00954553952818,542
-207.48062590603843,504
-204.9524056239104,502
-202.4248845033651,489
-199.8980623545441,505
-197.37193898751036,543
-194.84651421224817,563
-192.32178783866232,552
-189.79775967657952,550
-187.27442953574644,579
-184.7517972258321,546
-182.2298625564256,536
-179.7086253370378,539
-177.18808537710026,521
-174.66824248596583,547
-172.14909647290835,565
-169.6306471471229,573
-167.11289431772548,559
-164.59583779375328,583
-162.07947738416453,567
-159.5638128978386,594
-157.04884414357605,621
-154.53457093009854,644
-152.02099306604828,606
-149.50811035998936,535
-146.99592262040665,582
-144.48442965570587,585
-141.97363127421409,705
-139.46352728417958,718
-136.95411749377126,758
-134.44540171107985,726
-131.93737974411636,720
-129.43005140081357,690
-126.92341648902493,660
-124.41747481652521,708
-121.91222619101006,850
-119.40767042009657,945
-116.90380731132257,970
-114.40063667214702,982
-111.8981583099503,1003
-109.3963720320337,1076
-106.89527764561933,1110
-104.39487495785067,1076
-101.89516377579241,1198
-99.39614390642998,1597
-96.89781515667039,2253
-94.40017733334128,2732
-91.90323024319173,2782
-89.40697369289148,2479
-86.91140748903172,2233
-84.41653143812482,1541
-81.92234534660395,1060
-79.42884902082358,1046
-76.93604226705907,1655
-74.4439248915071,2734
-71.95249670028534,3886
-69.46175749943245,4811
-66.97170709490854,5078
-64.48234529259423,4577
-61.99367189829195,4728
-59.50568671772464,4838
-57.01838955653636,4482
-54.53178022029283,3822
-52.045858514480074,4026
-49.560624244506016,4773
-47.07607721569923,5083
-44.59221723330904,5781
-42.10904410250669,6228
-39.62655762838392,5925
-37.14475761595372,6356
-34.66364387015028,8054
-32.18321619582866,10282
-29.70347439776515,12032
-27.224418280657005,14298
-24.74604764912317,15829
-22.26836230770266,16886
-19.7913620608565,20098
-17.315046712966478,27112
-14.83941606833514,32319
-12.36446993118659,42212
-9.89020810566592,65040
-7.416630395839093,65040
-4.94373660569363,65040
-2.471526539137585,65040
-6.821210263296962E-13,65040
2.47084320796705,65040
4.941003281093458,65040
7.410480415786196,65040
9.879274808531363,65040
12.347386655893956,65040
14.814816154518212,65040
17.28156350112681,65040
19.74762889252179,65040
22.21301252558385,65040
24.67771459727237,17543
27.141735304626195,2605
29.605074844762612,1608
32.06773341487792,1561
34.52971121224755,1342
36.99100843422559,1155
39.45162527824516,1074
41.91156194181792,1025
44.370818622535126,1119
46.82939551806646,1171
49.287292826160524,1071
51.74451074464503,967
54.201049471426245,882
56.65690920448981,866
59.112090141899785,952
61.56659248179983,950
64.02041642241159,912
66.4735621620365,806
68.92602989905402,746
71.37781983192338,875
73.82893215918205,901
76.27936707944684,841
78.72912479141326,781
81.17820549385567,788
83.62660938562783,811
86.07433666566146,793
88.5213875329681,684
90.96776218663751,710
93.41346082583925,690
95.85848364982041,701
98.30283085790859,732
100.7465026495089,704
103.18949922410604,672
105.63182078126385,620
108.07346752062438,608
110.51443964190923,663
112.95473734491827,687
115.39436082953114,690
117.83331029570547,644
120.27158594347827,626
122.7091879729652,661
125.1461165843615,677
127.58237197794062,683
130.01795435405518,658
132.4528639131364,626
134.88710085569494,595
137.32066538231982,587
139.75355769367923,649
142.1857779905207,613
144.61732647366978,592
147.04820334403132,612
149.47840880258934,672
151.90794305040674,664
154.33680628862487,724
156.76499871846443,812
159.19252054122433,889
161.61937195828352,939
164.04555317109896,1001
166.47106438120693,1088
168.89590579022217,1242
171.320077599839,1260
173.7435800118302,1264
176.16641322804742,1310
178.58857745042144,1349
181.01007288096173,1358
183.43089972175687,1456
185.85105817497413,1476
188.27054844285988,1410
190.6893707277394,1476
193.10752523201643,1524
195.5250121581745,1558
197.9418317087751,1502
200.3579840864594,1560
202.7734694939469,1560
205.18828813403627,1654
207.6024402096051,1680
210.01592592360964,1682
212.42874547908548,1639
214.84089907914665,1688
217.2523869269868,1669
219.66320922587727,1665
222.0733661791695,1630
224.48285799029293,1701
226.8916848627572,1654
229.29984700014882,1692
231.7073446061355,1682
234.11417788446204,1677
236.520347038953,1731
238.92585227351185,1749
241.33069379212054,1767
243.73487179884035,1766
246.1383864978112,1745
248.541238093252,1799
250.9434267894609,1823
253.34495279081432,1870
255.74581630176783,1765
258.1460175268563,1755
260.54555667069314,1795
262.9444339379703,1856
265.3426495334594,1768
267.7402036620107,1773
270.1370965285529,1776
272.53332833809407,1773
274.9288992957214,1656
277.32380960660055,1666
279.718059475976,1660
282.1116491091717,1664
284.5045787115897,1645
286.89684848871195,1636
289.2884586460981,1636
291.67940938938807,1601
294.0697009242996,1658
296.4593334566299,1702
298.84830719225477,1626
301.23662233712923,1632
303.6242790972866,1686
306.01127767884,1561
308.39761828798066,1564
310.78330113097934,1561
313.16832641418534,1585
315.5526943440269,1526
317.9364051270112,1507
320.3194589697242,1496
322.70185607883093,1461
325.0835966610754,1534
327.4646809232805,1461
329.8451090723478,1495
332.2248813152577,1479
334.6039978590701,1490
336.9824589109231,1469
339.36026467803447,1436
341.7374153677,1449
344.113911187295,1463
346.48975234427337,1446
348.8649390461686,1456
351.2394715005918,1435
353.61334991523415,1427
355.9865744978655,1414
358.35914545633375,1469
360.73106299856715,1447
363.10232733257146,1432
365.47293866643247,1414
367.84289720831396,1339
370.2122031664593,1386
372.5808567491905,1351
374.9488581649083,1407
377.31620762209275,1385
379.6829053293021,1381
382.0489514951745,1332
384.4143463284262,1357
386.7790900378528,1340
389.14318283232853,1332
391.50662492080653,1417
393.86941651231916,1370
396.23155781597745,1332
398.5930490409713,1339
400.9538903965696,1353
403.3140820921202,1298
405.6736243370498,1349
408.03251734086336,1393
410.3907613131465,1350
412.74835646356166,1362
415.10530300185144,1360
417.4616011378372,1324
419.81725108141893,1262
422.1722530425758,1264
424.5266072313656,1309
426.880313857925,1317
429.2333731324701,1315
431.58578526529516,1301
433.9375504667738,1301
436.2886689473588,1290
438.63914091758113,1276
440.9889665880513,1281
443.33814616945835,1324
445.68667987257015,1298
448.03456790823395,1305
450.3818104873759,1303
452.72840782100013,1287
455.07436012019105,1271
457.41966759611057,1260
459.7643304600007,1293
462.10834892318155,1291
464.4517231970525,1286
466.79445349309174,1277
469.1365400228566,1329
471.4779829979826,1287
473.81878263018564,1253
476.15893913125876,1281
478.4984527130747,1247
480.8373235875855,1277
483.17555196682144,1293
485.5131380628919,1331
487.8500820879857,1333
490.1863842543697,1333
492.52204477439034,1356
494.8570638604725,1426
497.1914417251204,1526
499.52517858091653,1685
501.85827464052306,1763
504.19073011668036,1872
506.5225452222086,1985
508.85372017000566,2065
511.18425517304956,2072
513.514150444396,2153
515.8434061971808,2523
518.1720226446176,3080
520.4999999999999,3193
522.8273384766991,3080
525.1540382881666,2814
527.480099647932,2572
529.8055227696037,2092
532.1303078668694,1715
534.454455153496,1476
536.777964843328,1475
539.1008371502907,1338
541.4230722883866,1355
543.744670471698,1286
546.0656319143858,1302
548.3859568306899,1277
550.7056454349294,1338
553.0246979415016,1354
555.3431145648834,1357
557.6608955196306,1316
559.978041020377,1285
562.2945512818363,1292
564.6104265188006,1208
566.9256669461412,1319
569.2402727788082,1270
571.5542442318302,1293
573.8675815203156,1324
576.1802848594508,1357
578.4923544645015,1267
580.8037905508126,1284
583.114593333807,1274
585.4247630289875,1313
587.7342998519354,1294
590.0432040183106,1275
592.3514757438526,1241
594.6591152443794,1307
596.9661227357875,1261
599.2724984340531,1359
601.578242555231,1297
603.8833553154542,1277
606.1878369309362,1265
608.4916876179676,1263
610.7949075929192,1259
613.0974970722403,1257
615.3994562724587,1310
617.7007854101818,1258
620.0014847020951,1296
622.3015543649641,1286
624.6009946156324,1265
626.8998056710224,1297
629.1979877481361,1271
631.4955410640538,1286
633.7924658359349,1296
636.0887622810175,1309
638.3844306166192,1342
640.6794710601358,1292
642.9738838290426,1344
645.2676691408932,1329
647.5608272133207,1343
649.853358264037,1281
652.1452625108324,1300
654.4365401715764,1359
656.7271914642178,1283
659.0172166067838,1360
661.3066158173809,1349
663.5953893141935,1344
665.8835373154867,1308
668.1710600396028,1386
670.4579577049639,1314
672.7442305300709,1373
675.0298787335033,1427
677.3149025339197,1356
679.599302150058,1358
681.8830778007342,1374
684.1662297048437,1339
686.4487580813608,1340
688.7306631493387,1375
691.0119451279091,1388
693.2926042362834,1383
695.5726406937516,1363
697.8520547196814,1346
700.1308465335215,1309
702.4090163547982,1284
704.6865644031171,1336
706.9634908981619,1289
709.2397960596965,1357
711.5154801075631,1290
713.7905432616823,1336
716.0649857420548,1301
718.3388077687592,1310
720.612009561953,1351
722.8845913418733,1312
725.1565533288352,1334
727.427895743234,1332
729.6986188055427,1378
731.9687227363137,1291
734.238207756178,1340
736.5070740858458,1302
738.7753219461066,1323
741.0429515578281,1277
743.3099631419569,1398
745.5763569195191,1335
747.8421331116193,1345
750.1072919394409,1356
752.3718336242467,1299
754.6357583873777,1354
756.8990664502545,1336
759.1617580343765,1326
761.423833361321,1364
763.6852926527457,1372
765.9461361303862,1364
768.206364016058,1269
770.4659765316536,1347
772.7249738991469,1256
774.9833563405886,1369
777.2411240781092,1400
779.4982773339183,1381
781.7548163303044,1415
784.010741289634,1414
786.2660524343538,1412
788.5207499869881,1414
790.7748341701416,1416
793.0283052064964,1396
795.2811633188143,1384
797.5334087299362,1368
799.7850416627813,1380
802.0360623403484,1370
804.2864709857143,1399
806.5362678220353,1361
808.7854530725468,1363
811.0340269605625,1345
813.2819897094754,1413
815.5293415427581,1369
817.77608268396,1436
820.0222133567116,1412
822.2677337847211,1365
824.5126441917765,1411
826.7569448017433,1414
829.0006358385675,1385
831.2437175262731,1359
833.4861900889629,1370
835.7280537508192,1333
837.9693087361026,1348
840.2099552691533,1341
842.4499935743896,1316
844.689423876309,1278
846.9282463994886,1356
849.1664613685833,1356
851.4040690083276,1367
853.6410695435349,1360
855.877463199097,1342
858.1132501999847,1416
860.3484307712487,1370
862.5830051380175,1384
864.8169735254988,1393
867.0503361589791,1367
869.2830932638243,1407
871.5152450654786,1377
873.7467917894654,1393
875.9777336613873,1369
878.2080709069252,1396
880.4378037518389,1388
882.666932421968,1385
884.8954571432301,1342
887.1233781416219,1397
889.3506956432192,1388
891.5774098741766,1427
893.803521060728,1394
896.0290294291852,1356
898.2539352059397,1380
900.4782386174619,1375
902.7019398903011,1310
904.925039251085,1387
907.147536926521,1362
909.3694331433943,1436
911.59072812857,1319
913.8114221089921,1337
916.0315153116827,1362
918.2510079637437,1298
920.4699002923547,1335
922.6881925247761,1298
924.905884888345,1323
927.1229776104793,1308
929.3394709186747,1241
931.555365040506,1360
933.7706602036275,1329
935.9853566357709,1344
938.1994545647489,1319
940.4129542184515,1354
942.6258558248488,1342
944.8381596119883,1312
947.0498658079974,1324
949.2609746410825,1275
951.4714863395287,1374
953.6814011316998,1376
955.8907192460387,1337
958.0994409110671,1321
960.3075663553858,1346
962.5150958076741,1328
964.7220294966913,1252
966.928367651274,1284
969.1341105003388,1330
971.3392582728806,1298
973.5438111979742,1267
975.747769504772,1334
977.9511334225061,1321
980.153903180487,1258
982.3560790081052,1242
984.5576611348289,1297
986.7586497902058,1290
988.9590452038618,1283
991.158847605503,1224
993.3580572249133,1274
995.5566742919558,1268
997.7546990365728,1228
999.952131688785,1236
1002.1489724786926,1182
1004.3452216364743,1234
1006.5408793923874,1201
1008.7359459767691,1168
1010.9304216200343,1154
1013.1243065526781,1165
1015.3176010052733,1193
1017.510305208472,1134
1019.7024193930064,1180
1021.8939437896848,1141
1024.0848786293977,1152
1026.2752241431122,1192
1028.4649805618747,1154
1030.6541481168115,1085
1032.842727039127,1125
1035.0307175601051,1136
1037.2181199111074,1153
1039.4049343235752,1134
1041.591161029029,1091
1043.7768002590683,1100
1045.9618522453698,1068
1048.1463172196918,1085
1050.3301954138697,1091
1052.513487059818,1151
1054.69619238953,1097
1056.8783116350783,1102
1059.0598450286152,1086
1061.2407928023704,1095
1063.4211551886528,1121
1065.6009324198508,1154
1067.780124728432,1098
1069.9587323469414,1127
1072.1367555080046,1125
1074.314194444325,1097
1076.4910493886855,1159
1078.667320573947,1112
1080.843008233051,1069
1083.0181125990161,1081
1085.1926339049414,1090
1087.3665723840027,1076
1089.5399282694575,1094
1091.7127017946405,1091
1093.8848931929647,1108
1096.0565026979243,1078
1098.2275305430899,1053
1100.3979769621128,1091
1102.567842188722,1066
1104.737126456726,1065
1106.9058300000124,1102
1109.0739530525475,1057
1111.2414958483764,1067
1113.4084586216231,1034
1115.5748416064907,1066
1117.7406450372605,1089
1119.9058691482942,1083
1122.0705141740304,1050
1124.2345803489884,1085
1126.3980679077658,1048
1128.5609770850388,1037
1130.7233081155623,1003
1132.8850612341707,1054
1135.0462366757774,1048
1137.2068346753745,1041
1139.3668554680326,1061
1141.526299288901,1059
1143.68516637321,1044
1145.8434569562655,1072
1148.001171273455,1046
1150.158309560244,1036
1152.3148720521767,1035
1154.470858984876,1051
1156.626270594044,1028
1158.7811071154629,1082
1160.9353687849912,1056
1163.089055838569,990
1165.242168512213,1072
1167.3947070420209,1021
1169.5466716641677,1043
1171.6980626149075,994
1173.8488801305748,1015
1175.9991244475814,1004
1178.1487958024186,1000
1180.2978944316555,1071
1182.4464205719428,1031
1184.5943744600072,1010
1186.7417563326567,1008
1188.8885664267755,982
1191.0348049793297,1015
1193.1804722273619,1028
1195.325568407995,1023
1197.4700937584303,1041
1199.614048515948,1029
1201.7574329179074,1055
1203.900247201746,1047
1206.042491604982,1028
1208.1841663652099,970
1210.3252717201053,1032
1212.465807907422,1042
1214.6057751649923,1032
1216.7451737307279,1055
1218.8840038426192,1012
1221.0222657387353,995
1223.1599596572241,1025
1225.2970858363137,1079
1227.4336445143094,1036
1229.5696359295966,1049
1231.705060320639,1033
1233.8399179259786,1026
1235.9742089842384,1018
1238.107933734118,1091
1240.2410924143974,1045
1242.373685263935,1052
1244.5057125216676,1070
1246.6371744266116,1067
1248.7680712178621,1035
1250.898403134593,1022
1253.028170416058,1019
1255.1573733015875,1087
1257.2860120305932,1085
1259.4140868425648,1053
1261.54159797707,1078
1263.6685456737569,1065
1265.7949301723515,1067
1267.9207517126597,1070
1270.046010534565,1120
1272.1707068780306,1103
1274.2948409830983,1084
1276.4184130898889,1086
1278.541423438603,1064
1280.6638722695184,1135
1282.785759822993,1083
1284.9070863394636,1135
1287.0278520594447,1113
1289.1480572235314,1084
1291.2677020723963,1124
1293.3867868467923,1156
1295.5053117875495,1127
1297.623277135579,1170
1299.740683131868,1129
1301.8575300174857,1230
1303.973818033578,1176
1306.0895474213703,1180
1308.2047184221678,1237
1310.3193312773528,1237
1312.4333862283888,1178
1314.5468835168163,1170
1316.659823384255,1239
1318.7722060724045,1224
1320.8840318230418,1229
1322.9953008780249,1221
1325.1060134792888,1232
1327.2161698688478,1239
1329.3257702887959,1263
1331.4348149813054,1229
1333.5433041886276,1186
1335.6512381530933,1215
1337.7586171171101,1220
1339.8654413231675,1227
1341.9717110138317,1179
1344.0774264317488,1210
1346.1825878196432,1210
1348.2871954203192,1232
1350.3912494766587,1195
1352.4947502316231,1203
1354.5976979282532,1167
1356.7000928096686,1154
1358.8019351190665,1195
1360.9032250997243,1148
1363.0039629949988,1134
1365.1041490483235,1158
1367.2037835032133,1144
1369.3028666032606,1146
1371.401398592137,1182
1373.4993797135926,1136
1375.5968102114575,1113
1377.6936903296396,1164
1379.7900203121262,1153
1381.8858004029835,1137
1383.9810308463561,1195
1386.075711886469,1152
1388.1698437676241,1156
1390.2634267342032,1201
1392.356461030667,1143
1394.4489469015557,1196
1396.5408845914872,1199
1398.6322743451592,1073
1400.7231164073469,1160
1402.813411022907,1110
1404.903158436773,1205
1406.9923588939578,1179
1409.0810126395531,1194
1411.1691199187303,1173
1413.2566809767386,1167
1415.343696058907,1144
1417.4301654106425,1140
1419.5160892774315,1140
1421.6014679048399,1122
1423.6863015385125,1161
1425.7705904241707,1155
1427.8543348076178,1217
1429.9375349347342,1165
1432.0201910514802,1143
1434.102303403894,1202
1436.1838722380944,1195
1438.2648978002767,1153
1440.3453803367174,1218
1442.4253200937692,1217
1444.5047173178677,1196
1446.5835722555234,1159
1448.6618851533285,1265
1450.739656257952,1191
1452.8168858161434,1228
1454.8935740747306,1260
1456.96972128062,1204
1459.045327680797,1244
1461.120393522327,1304
1463.1949190523528,1241
1465.2689045180973,1274
1467.3423501668608,1311
1469.415256246024,1348
1471.4876230030463,1336
1473.559450685465,1361
1475.6307395408976,1314
1477.7014898170391,1337
1479.771701761665,1375
1481.8413756226287,1348
1483.9105116478618,1363
1485.9791100853772,1356
1488.0471711832643,1388
1490.1146951896926,1434
1492.1816823529098,1388
1494.2481329212433,1422
1496.3140471430984,1421
1498.3794252669609,1410
1500.4442675413939,1405
1502.5085742150404,1451
1504.572345536622,1406
1506.6355817549388,1430
1508.6982831188702,1432
1510.7604498773744,1456
1512.8220822794883,1454
1514.8831805743293,1496
1516.9437450110909,1507
1519.003775839048,1548
1521.0632733075522,1486
1523.1222376660367,1526
1525.1806691640113,1571
1527.2385680510652,1570
1529.2959345768668,1567
1531.3527689911643,1531
1533.4090715437833,1551
1535.4648424846291,1631
1537.5200820636855,1606
1539.5747905310159,1583
1541.6289681367616,1613
1543.6826151311434,1631
1545.7357317644614,1751
1547.7883182870937,1690
1549.8403749494987,1760
1551.8919020022113,1690
1553.9428996958477,1803
1555.9933682811015,1799
1558.0433080087469,1830
1560.0927191296346,1836
1562.1416018946961,1837
1564.1899565549415,1901
1566.2377833614592,1817
1568.2850825654164,1821
1570.3318544180606,1830
1572.3780991707158,1869
1574.423817074788,1794
1576.4690083817595,1800
1578.5136733431923,1757
1580.5578122107272,1678
1582.601425236085,1627
1584.6445126710646,1621
1586.6870747675434,1542
1588.7291117774776,1587
1590.7706239529034,1488
1592.8116115459347,1536
1594.8520748087658,1480
1596.8920139936686,1394
1598.9314293529933,1350
1600.9703211391711,1373
1603.008689604711,1380
1605.0465350022005,1316
1607.0838575843068,1345
1609.1206576037753,1314
1611.1569353134305,1281
1613.1926909661765,1236
1615.2279248149953,1256
1617.2626371129481,1177
1619.2968281131757,1225
1621.3304980688963,1188
1623.3636472334088,1171
1625.39627586009,1163
1627.428384202396,1151
1629.459972513861,1165
1631.4910410480993,1132
1633.5215900588028,1162
1635.551619799744,1123
1637.5811305247717,1108
1639.6101224878166,1092
1641.6385959428862,1146
1643.6665511440683,1142
1645.693988345528,1085
1647.7209078015112,1117
1649.7473097663405,1099
1651.7731944944203,1077
1653.7985622402307,1078
1655.823413258333,1039
1657.847747803366,1083
1659.8715661300494,1080
1661.8948684931793,1079
1663.9176551476316,1073
1665.9399263483624,1036
1667.9616823504057,1059
1669.982923408873,1061
1672.0036497789574,1069
1674.0238617159293,1067
1676.043559475138,1067
1678.0627433120121,1067
1680.081413482059,1088
1682.0995702408654,1061
1684.117213844096,1109
1686.134344547495,1071
1688.1509626068864,1079
1690.1670682781705,1076
1692.182661817329,1057
1694.1977434804217,1093
1696.2123135235875,1061
1698.226372203043,1056
1700.2399197750851,1034
1702.2529564960905,1102
1704.2654826225112,1096
1706.277498410882,1056
1708.2890041178139,1096
1710.2999999999988,1067
1712.3104863142066,1103
1714.3204633172854,1117
1716.329931266163,1072
1718.3388904178469,1109
1720.3473410294214,1044
1722.3552833580516,1048
1724.3627176609807,1055
1726.3696441955308,1068
1728.3760632191033,1044
1730.3819749891782,1020
1732.3873797633146,1031
1734.3922777991502,1063
1736.3966693544012,1023
1738.4005546868639,1084
1740.4039340544127,1050
1742.406807715001,991
1744.4091759266616,1033
1746.4110389475054,999
1748.4123970357223,1020
1750.413250449582,1073
1752.4135994474318,1045
1754.4134442876993,1051
1756.4127852288902,1004
1758.4116225295893,1030
1760.4099564484595,1043
1762.407787244244,1016
1764.405115175764,1020
1766.4019405019203,1077
1768.3982634816916,1062
1770.3940843741357,1076
1772.3894034383907,1041
1774.3842209336717,1025
1776.378537119274,1004
1778.372352254571,1032
1780.3656665990156,1054
1782.3584804121397,1055
1784.3507939535534,1005
1786.3426074829463,982
1788.3339212600863,997
1790.3247355448211,989
1792.3150505970766,1040
1794.3048666768573,1021
1796.2941840442477,1026
1798.2830029594106,1018
1800.2713236825884,1006
1802.2591464741004,1008
1804.2464715943465,1015
1806.2332993038058,1044
1808.2196298630352,1066
1810.2054635326708,1064
1812.190800573428,995
1814.175641246101,1043
1816.1599858115628,1032
1818.1438345307652,1036
1820.127187664738,1041
1822.1100454745924,1032
1824.092408221516,1014
1826.0742761667766,1003
1828.055649571721,1003
1830.0365286977735,1047
1832.0169138064398,1022
1833.9968051593014,1007
1835.9762030180214,1039
1837.9551076443408,1022
1839.9335193000788,1010
1841.9114382471344,994
1843.888864747485,1023
1845.8657990631878,1008
1847.842241456378,1032
1849.8181921892697,1032
1851.7936515241558,971
1853.7686197234098,1017
1855.7430970494815,1005
1857.7170837649014,1027
1859.6905801322787,997
1861.6635864143004,1043
1863.6361028737338,1027
1865.608129773424,1015
1867.5796673762961,1076
1869.5507159453537,1042
1871.521275743678,1017
1873.4913470344313,1064
1875.4609300808534,1042
1877.4300251462632,1029
1879.3986324940588,1011
1881.366752387717,1061
1883.3343850907936,1002
1885.3015308669228,1085
1887.268189979819,1025
1889.2343626932739,1034
1891.2000492711595,1049
1893.1652499774254,1036
1895.1299650761011,1041
1897.0941948312952,1052
1899.0579395071945,1033
1901.0211993680641,1048
1902.98397467825,1080
1904.9462657021745,1052
1906.9080727043415,1069
1908.869395949332,1071
1910.8302357018065,1041
1912.790592226504,1025
1914.7504657882428,1021
1916.7098566519212,1022
1918.6687650825133,1082
1920.6271913450764,1040
1922.5851357047422,1044
1924.5425984267245,1039
1926.499579776314,1050
1928.4560800188833,1035
1930.4120994198802,1039
1932.367638244833,1018
1934.32269675935,1072
1936.2772752291175,1050
1938.231373919899,1056
1940.1849930975404,1066
1942.1381330279637,1049
1944.0907939771696,1052
1946.0429762112412,1005
1947.9946799963363,1050
1949.9459055986945,1052
1951.896653284633,1027
1953.8469233205478,1073
1955.7967159729142,1031
1957.7460315082863,1016
1959.6948701932974,1009
1961.6432322946594,1037
1963.5911180791632,1025
1965.5385278136787,1069
1967.4854617651545,1025
1969.4319202006182,1044
1971.377903387176,1052
1973.3234115920136,1051
1975.268445082395,1021
1977.2130041256642,1049
1979.1570889892423,1039
1981.1006999406304,948
1983.04383724741,1020
1984.986501177238,1016
1986.928691997853,1016
1988.8704099770712,1011
1990.811655382789,1041
1992.7524284829801,1026
1994.692729545698,994
1996.6325588390755,1038
1998.5719166313224,1034
2000.5108031907307,1050
2002.4492187856677,1017
2004.387163684583,982
2006.3246381560011,991
2008.2616424685298,1034
2010.1981768908527,1033
2012.1342416917332,1042
2014.069837140014,976
2016.0049635046162,991
2017.9396210545406,1029
2019.8738100588666,985
2021.8075307867502,976
2023.740783507431,979
2025.6735684902228,998
2027.6058860045214,1019
2029.5377363198004,999
2031.4691197056118,1011
2033.4000364315875,974
2035.3304867674374,1037
2037.260470982952,1007
2039.189989347998,999
2041.1190421325232,998
2043.047629606554,999
2044.9757520401945,1006
2046.9034097036288,999
2048.8306028671195,998
2050.7573318010086,987
2052.683596775716,1033
2054.609398061742,1011
2056.5347359296647,997
2058.4596106501403,977
2060.384022493906,996
2062.3079717317764,1016
2064.231458634646,996
2066.1544834734873,1029
2068.077046519352,991
2069.99914804337,1066
2071.9207883167524,1008
2073.8419676107865,990
2075.7626861968406,1011
2077.6829443463607,1023
2079.6027423308715,988
2081.522080421977,1002
2083.440958891362,995
2085.359378010786,993
2087.2773380520907,1018
2089.194839287196,967
2091.111881988101,1019
2093.0284664268825,1018
2094.9445928756973,1026
2096.86026160678,1027
2098.775472892446,1038
2100.690227005088,1005
2102.604524217178,1023
2104.5183648012676,1022
2106.431749029985,1020
2108.34467717604,1050
2110.2571495122206,981
2112.169166311393,1015
2114.080727846503,985
2115.9918343905747,1027
2117.902486216711,1019
2119.8126835980956,1046
2121.722426807987,1008
2123.6317161197285,993
2125.5405518067364,1035
2127.448934142509,1028
2129.356863400624,1032
2131.264339854737,1040
2133.1713637785815,1020
2135.077935445972,1028
2136.9840551308002,1034
2138.889723107037,977
2140.7949396487334,1015
2142.699705030018,991
2144.6040195250994,1022
2146.507883408264,1041
2148.4112969538774,1025
2150.3142604363848,1024
2152.2167741303097,1015
2154.1188383102535,1015
2156.0204532508997,987
2157.9216192270064,963
2159.822336513414,1019
2161.7226053850413,1006
2163.622426116884,1048
2165.5217989840185,1076
2167.4207242616,1019
2169.319202224862,996
2171.2172331491165,985
2173.1148173097563,1041
2175.0119549822507,1017
2176.90864644215,994
2178.8048919650823,1034
2180.7006918267534,1012
2182.596046302952,1033
2184.4909556695407,992
2186.3854202024645,1070
2188.279440177746,1049
2190.173015871487,1037
2192.066147559868,1014
2193.958835519149,997
2195.851080025667,1040
2197.7428813558417,1055
2199.6342397861667,1028
2201.5251555932186,1030
2203.415629053651,1032
2205.3056604441986,1056
2207.19525004167,1052
2209.084398122958,1067
2210.9731049650327,1043
2212.861370844941,1064
2214.749196039812,1071
2216.636580826851,1021
2218.523525483344,1052
2220.410030286655,1055
2222.296095514226,995
2224.1817214435805,1064
2226.066908352319,1053
2227.951656518121,1038
2229.835966218746,1085
2231.71983773203,1051
2233.6032713358913,1069
2235.486267308324,1024
2237.3688259274036,1055
2239.2509474712824,1039
2241.132632218193,1049
2243.013880446447,1029
2244.8946924344323,1048
2246.7750684606203,1031
2248.6550088035574,1075
2250.534513741871,1031
2252.413583554265,1035
2254.292218519526,983
2256.170418916517,1017
2258.0481850241786,1027
2259.925517121534,1025
2261.8024154876825,1042
2263.678880401803,1077
2265.5549121431536,1038
2267.430510991071,1020
2269.305677224971,1071
2271.180411124348,1029
2273.0547129687766,1039
2274.9285830379076,1086
2276.8020216114737,1024
2278.6750289692845,1012
2280.5476053912294,1042
2282.4197511572766,1103
2284.2914665474727,1069
2286.162751841943,1076
2288.0336073208937,1003
2289.904033264608,1088
2291.774029953448,1068
2293.6435976678554,1051
2295.5127366883517,1068
2297.381447295534,1074
2299.2497297700825,1104
2301.1175843927526,1003
2302.9850114443825,1008
2304.852011205885,984
2306.7185839582553,956
2308.5847299825664,932
2310.4504495599676,965
2312.3157429716925,947
2314.1806104990483,968
2316.0450524234247,981
2317.9090690262888,962
2319.772660589186,928
2321.635827393742,928
2323.498569721661,964
2325.3608878547248,955
2327.2227820747967,942
2329.0842526638157,954
2330.945299903803,952
2332.805924076857,937
2334.6661254651535,953
2336.525904350951,943
2338.3852610165827,966
2340.244195744464,969
2342.102708817088,960
2343.9608005170253,942
2345.8184711269287,926
2347.675720929526,989
2349.532550207628,953
2351.38895924412,917
2353.24494832197,969
2355.100517724223,947
2356.955667734004,933
2358.810398634514,997
2360.664710709037,963
2362.5186042409337,995
2364.3720795136437,955
2366.225136810686,907
2368.0777764156583,953
2369.929998612237,961
2371.7818036841777,992
2373.633191915315,952
2375.484163589562,964
2377.3347189909114,968
2379.184858403434,987
2381.03458211128,998
2382.8838903986775,982
2384.732783549936,975
2386.5812618494406,959
2388.4293255816588,1003
2390.2769750311327,980
2392.1242104824883,920
2393.971032220427,952
2395.8174405297295,956
2397.6634356952563,945
2399.509018001947,965
2401.3541877348193,954
2403.1989451789705,999
2405.043290619576,1023
2406.8872243418905,979
2408.730746631247,960
2410.5738577730594,948
2412.4165580528183,919
2414.258847756095,974
2416.100727168537,960
2417.9421965758734,995
2419.783256263912,930
2421.623906518538,992
2423.4641476257157,1003
2425.303979871491,1000
2427.143403541984,999
2428.9824189233977,953
2430.821026302012,989
2432.6592259641866,951
2434.497018196361,989
2436.33440328505,980
2438.171381516851,959
2440.00795317844,1022
2441.844118556569,960
2443.6798779380724,1006
2445.5152316098606,986
2447.3501798589255,950
2449.1847229723357,952
2451.0188612372403,975
2452.8525949408663,1003
2454.6859243705203,960
2456.518849813587,991
2458.3513715575314,1024
2460.183489889895,1031
2462.015205098301,996
2463.8465174704493,968
2465.67742729412,971
2467.5079348571717,975
2469.338040447542,994
2471.1677443532476,993
2472.9970468623833,989
2474.825948263123,978
2476.6544488437207,992
2478.482548892508,986
2480.310248697896,947
2482.137548548374,957
2483.9644487325118,968
2485.790949538956,953
2487.617051256433,1011
2489.44275417375,978
2491.26805857979,1061
2493.0929647635157,992
2494.917473013971,953
2496.741583620276,997
2498.5652968716304,978
2500.3886130573137,997
2502.2115324666834,1060
2504.0340553891765,1029
2505.856182114308,1008
2507.6779129316733,1043
2509.499248130945,1007
2511.3201880018764,958
2513.140732834298,997
2514.9608829181198,991
2516.780638543331,1002
2518.6,1034
2520.418967578273,1028
2522.237541568376,1015
2524.0557222606144,1003
2525.8735099453706,1012
2527.6909049131086,1090
2529.507907454368,1036
2531.32451785977,986
2533.140736420014,1099
2534.9565634258774,1048
2536.771999168218,1036
2538.5870439379714,1020
2540.4016980261526,1105
2542.2159617238544,1085
2544.02983532225,1088
2545.8433191125914,1052
2547.656413386209,1051
2549.4691184345115,1099
2551.2814345489874,1055
2553.093362021204,1072
2554.904901142808,1060
2556.716052205523,1099
2558.526815501153,1079
2560.3371913215824,1086
2562.147179958771,1116
2563.956781704761,1110
2565.7659968516705,1068
2567.5748256916986,1108
2569.3832685171224,1114
2571.1913256202984,1110
2572.9989972936614,1108
2574.806283829725,1056
2576.613185521084,1101
2578.4197026604074,1082
2580.2258355404483,1168
2582.031584454035,1096
2583.836949694077,1085
2585.6419315535613,1169
2587.4465303255533,1113
2589.2507463032002,1139
2591.0545797797245,1107
2592.8580310484303,1132
2594.6611004026995,1143
2596.463788135992,1146
2598.266094541849,1165
2600.0680199138874,1096
2601.869564545807,1133
2603.670728731383,1140
2605.4715127644704,1149
2607.2719169390048,1126
2609.071941548998,1130
2610.8715868885433,1175
2612.670853251811,1159
2614.469740933052,1154
2616.268250226594,1139
2618.0663814268455,1080
2619.864134828292,1096
2621.6615107255006,1129
2623.458509413115,1142
2625.2551311858597,1122
2627.0513763385347,1099
2628.8472451660223,1152
2630.6427379632833,1120
2632.4378550253564,1141
2634.232596647359,1107
2636.026963124488,1159
2637.8209547520187,1113
2639.6145718253065,1064
2641.407814639785,1089
2643.200683490966,1078
2644.9931786744414,1158
2646.7853004858807,1108
2648.577049221034,1100
2650.3684251757277,1117
2652.1594286458712,1042
2653.9500599274484,1035
2655.740319316525,1037
2657.5302071092437,1088
2659.3197236018286,1092
2661.10886909058,1085
2662.8976438718782,1057
2664.686048242183,1066
2666.4740824980327,1034
2668.2617469360443,1043
2670.0490418529134,1052
2671.8359675454153,1056
2673.622524310403,1083
2675.408712444811,1034
2677.1945322456495,1037
2678.979984010009,1032
2680.76506803506,1014
2682.5497846180497,989
2684.334134056306,1007
2686.1181166472343,998
2687.9017326883213,1008
2689.6849824771293,1025
2691.4678663113013,974
2693.2503844885596,991
2695.032537306705,1016
2696.8143250636167,964
2698.5957480572542,1024
2700.3768065856534,1003
2702.1575009469316,1021
2703.937831439283,984
2705.717798360982,952
2707.4974020103837,956
2709.276642685917,950
2711.055520686095,970
2712.834036309506,972
2714.612189854819,997
2716.389981620782,956
2718.1674119062204,994
2719.944481010041,1010
2721.721189231226,969
2723.4975368688415,973
2725.273524222027,984
2727.0491515900053,927
2728.824419272075,958
2730.5993275676146,980
2732.3738767760838,1001
2734.148067197016,997
2735.921899130031,981
2737.6953728748194,944
2739.468488731156,973
2741.2412469988926,955
2743.0136479779617,963
2744.785691968372,988
2746.5573792702116,954
2748.3287101836504,1005
2750.099685008934,974
2751.870304046388,975
2753.640567596418,954
2755.4104759595057,931
2757.1800294362156,993
2758.949228327187,934
2760.7180729331412,964
2762.486563554877,954
2764.254700493272,981
2766.022484049284,945
2767.789914523947,983
2769.5569922183786,955
2771.3237174337705,977
2773.090090471394,964
2774.8561116326036,949
2776.6217812188274,990
2778.3870995315756,978
2780.1520668724356,952
2781.9166835430747,924
2783.6809498452394,920
2785.444866080754,985
2787.2084325515225,930
2788.971649559527,951
2790.73451740683,925
2792.4970363955713,984
2794.2592068279705,927
2796.0210290063264,930
2797.7825032330147,980
2799.543629810493,924
2801.304409041296,959
2803.0648412280366,966
2804.8249266734088,945
2806.5846656801846,1006
2808.344058551212,928
2810.1031055894246,956
2811.8618070978273,991
2813.6201633795085,938
2815.378174737636,905
2817.1358414754536,955
2818.893163896285,960
2820.6501423035334,972
2822.4067770006814,941
2824.1630682912883,962
2825.9190164789957,938
2827.6746218675207,941
2829.429884760661,948
2831.184805462294,966
2832.9393842763743,949
2834.693621506936,956
2836.4475174580916,958
2838.201072434034,994
2839.954286739034,995
2841.707160677441,921
2843.459694553685,941
2845.2118886722724,971
2846.96374333779,961
2848.7152588549034,950
2850.4664355283567,969
2852.217273662973,927
2853.9677735636546,972
2855.7179355353833,966
2857.4677598832186,983
2859.217246912299,969
2860.9663969278427,949
2862.715210235146,942
2864.4636871395846,941
2866.211827946614,940
2867.9596329617652,973
2869.7071024906536,964
2871.4542368389684,985
2873.20103631248,961
2874.947501217038,943
2876.6936318585695,949
2878.4394285430812,974
2880.1848915766604,960
2881.9300212654707,917
2883.6748179157553,972
2885.4192818338374,973
2887.1634133261173,952
2888.907212699077,983
2890.6506802592744,917
2892.393816313348,970
2894.1366211680142,1005
2895.8790951300693,956
2897.621238506388,930
2899.363051603925,940
2901.1045347297118,958
2902.8456881908596,955
2904.58651229456,959
2906.327007348081,939
2908.067173658772,985
2909.8070115340597,1002
2911.5465212814497,979
2913.285703208527,959
2915.0245576229563,987
2916.7630848324807,969
2918.5012851449196,956
2920.2391588681758,974
2921.976706310227,922
2923.7139277791334,969
2925.4508235830313,963
2927.187394030137,916
2928.923639428745,978
2930.6595600872306,1002
2932.395156314046,959
2934.1304284177218,958
2935.8653767068713,994
2937.6000014901815,936
2939.3343030764227,953
2941.068281774442,921
2942.8019378931644,933
2944.5352717415976,942
2946.2682836288236,988
2948.0009738640065,946
2949.7333427563885,939
2951.465390615289,926
2953.1971177501086,968
2954.9285244703265,977
2956.6596110855,923
2958.3903779052657,920
2960.1208252393385,949
2961.8509533975125,931
2963.5807626896617,990
2965.3102534257378,906
2967.0394259157715,915
2968.768280469873,952
2970.496817398232,932
2972.2250370111146,957
2973.952939618869,941
2975.6805255319196,922
2977.4077950607707,977
2979.134748516006,960
2980.861386208289,936
2982.587708448359,956
2984.313715547037,914
2986.039407815222,945
2987.764785563891,977
2989.489849104102,913
2991.2145987469908,943
2992.9390348037705,923
2994.6631575857346,930
2996.3869674042576,922
2998.1104645707887,915
2999.83364939686,978
3001.5565221940783,931
3003.2790832741334,963
3005.0013329487924,947
3006.7232715298996,948
3008.4448993293804,918
3010.166216659239,912
3011.887223831558,915
3013.607921158498,912
3015.3283089522993,911
3017.0483875252826,949
3018.7681571898443,941
3020.4876182584626,1000
3022.2067710436927,927
3023.9256158581707,974
3025.644153014609,965
3027.362382825801,943
3029.0803056046193,902
3030.797921664012,938
3032.5152313170106,907
3034.2322348767225,927
3035.9489326563353,951
3037.665324969115,918
3039.3814121284063,916
3041.097194447633,928
3042.812672240299,939
3044.5278458199855,953
3046.2427155003525,947
3047.9572815951406,938
3049.671544418167,956
3051.38550428333,911
3053.0991615046073,936
3054.812516396051,961
3056.5255692717974,930
3058.2383204460575,940
3059.9507702331257,943
3061.662918947372,904
3063.3747669032446,962
3065.0863144152736,928
3066.7975617980674,907
3068.508509366309,933
3070.219157434767,956
3071.9295063182844,961
3073.639556331785,908
3075.3493077902704,934
3077.058761008821,910
3078.7679163025964,933
3080.476773986837,932
3082.1853343768594,893
3083.89359778806,928
3085.6015645359153,967
3087.3092349359786,974
3089.016609303884,946
3090.7236879553434,952
3092.4304712061476,945
3094.136959372166,931
3095.843152769349,926
3097.5490517137237,950
3099.2546565213966,926
3100.959967508554,944
3102.66498499146,918
3104.3697092864577,961
3106.0741407099695,970
3107.778279578498,945
3109.482126208622,909
3111.1856809170004,952
3112.8889440203716,909
3114.5919158355528,947
3116.294596679439,938
3117.996986869006,920
3119.6990867213062,944
3121.4008965534726,946
3123.102416682717,927
3124.803647426329,925
3126.5045891016784,966
3128.205242026213,949
3129.90560651746,938
3131.605682893025,948
3133.3054714705922,905
3135.0049725679282,924
3136.7041865028714,948
3138.4031135933465,938
3140.101754157353,944
3141.800108512971,942
3143.498176978357,946
3145.1959598717494,939
3146.8934575114636,926
3148.5906702158954,960
3150.2875983035183,911
3151.9842420928853,952
3153.680601902627,955
3155.376678051456,926
3157.07247085816,927
3158.767980641609,954
3160.463207720748,932
3162.158152414606,917
3163.8528150422862,904
3165.5471959229726,934
3167.2412953759303,947
3168.9351137204976,893
3170.628651276098,923
3172.3219083622307,947
3174.014885298474,953
3175.707582404485,973
3177.4000000000005,918
3179.092138404835,918
3180.7839979388846,960
3182.47557892212,944
3184.166881674594,931
3185.8579065164386,973
3187.5486537678626,974
3189.2391237491547,925
3190.9293167806827,890
3192.6192331828934,914
3194.3088732763117,923
3195.998237381542,940
3197.687325819268,873
3199.376138910251,928
3201.064676975334,954
3202.7529403354347,925
3204.4409293115523,912
3206.1286442247647,947
3207.816085396229,911
3209.5032531471825,926
3211.190147798936,911
3212.8767696728846,883
3214.5631190905015,923
3216.2491963733373,923
3217.9350018430214,933
3219.6205358212637,931
3221.305798629851,889
3222.990790590651,918
3224.6755120256103,915
3226.359963256751,891
3228.0441446061795,903
3229.7280563960758,916
3231.411698948703,921
3233.0950725863995,936
3234.778177631587,888
3236.461014406761,965
3238.1435832345005,941
3239.8258844374595,934
3241.507918338374,947
3243.1896852600576,963
3244.8711855254023,921
3246.552419457381,869
3248.233387379042,921
3249.914089613516,907
3251.59452648401,952
3253.274698313813,891
3254.95460542629,968
3256.6342481448855,949
3258.313626793125,983
3259.9927416946084,928
3261.6715931730196,924
3263.3501815521176,926
3265.0285071557437,917
3266.706570307815,925
3268.3843713323286,911
3270.0619105533615,882
3271.739188295068,888
3273.4162048816834,963
3275.0929606375184,956
3276.769455886966,901
3278.445690954498,913
3280.1216661646613,932
3281.797381842087,963
3283.4728383114807,879
3285.1480358976296,961
3286.8229749253996,930
3288.4976557197333,936
3290.172078605655,895
3291.846243908266,931
3293.5201519527463,921
3295.193803064357,912
3296.8671975684374,946
3298.5403357904024,944
3300.21321805575,954
3301.8858446900567,957
3303.558216018975,893
3305.23033236824,956
3306.9021940636603,945
3308.57380143113,943
3310.2451547966184,948
3311.916254486174,925
3313.5871008259246,913
3315.2576941420766,898
3316.9280347609147,929
3318.5981230088046,952
3320.2679592121895,918
3321.9375436975924,911
3323.606876791612,892
3325.27595882093,896
3326.944790112305,918
3328.6133709925753,931
3330.2817017886573,886
3331.949782827547,935
3333.617614436319,929
3335.2851969421245,932
3336.952530672199,933
3338.619615953853,912
3340.286453114475,911
3341.9530424815357,946
3343.619384382583,925
3345.2854791452437,951
3346.951327097224,911
3348.6169285663073,913
3350.2822838803577,874
3351.947393367319,925
3353.61225735521,963
3355.2768761721345,945
3356.9412501462693,928
3358.605379605873,921
3360.2692648792827,877
3361.9329062949146,916
3363.596304181263,907
