CollectionTime,7/11/2024 2:08:15 PM
ExposureUsed,3
CalibratedSpectrum
-962.7078968117929,436
-959.9714848408522,440
-957.2358232597828,468
-954.5009119013725,491
-951.7667505983302,479
-949.0333391832855,492
-946.3006774887896,480
-943.5687653473143,476
-940.837602591253,480
-938.1071890529199,472
-935.3775245645503,464
-932.6486089583007,478
-929.9204420662485,496
-927.1930237203925,473
-924.4663537526524,461
-921.7404319948689,472
-919.0152582788041,473
-916.2908324361409,514
-913.5671542984834,488
-910.8442236973568,474
-908.1220404642074,463
-905.4006044304027,464
-902.679915427231,466
-899.959973285902,476
-897.2407778375464,464
-894.5223289132158,472
-891.8046263438832,466
-889.0876699604426,445
-886.3714595937089,470
-883.6559950744183,464
-880.9412762332282,460
-878.2273029007168,478
-875.5140749073835,476
-872.8015920836489,458
-870.0898542598545,457
-867.3788612662631,461
-864.6686129330585,479
-861.9591090903457,478
-859.2503495681506,457
-856.5423341964203,459
-853.8350628050229,480
-851.1285352237478,483
-848.4227512823054,475
-845.7177108103272,487
-843.0134136373656,485
-840.3098595928943,448
-837.6070485063082,476
-834.9049802069229,492
-832.2036545239757,474
-829.5030712866244,472
-826.8032303239481,490
-824.1041314649472,471
-821.4057745385428,483
-818.7081593735775,505
-816.0112857988148,505
-813.3151536429393,488
-810.6197627345566,486
-807.9251129021936,474
-805.2312039742981,467
-802.5380357792392,482
-799.8456081453069,508
-797.1539209007124,499
-794.462973873588,491
-791.772766891987,484
-789.083299783884,484
-786.3945723771743,514
-783.7065844996748,484
-781.0193359791231,478
-778.3328266431781,536
-775.6470563194197,485
-772.9620248353489,481
-770.2777320183878,482
-767.5941776958798,474
-764.9113616950891,515
-762.2292838432011,484
-759.5479439673222,508
-756.8673418944801,485
-754.1874774516235,486
-751.5083504656222,525
-748.8299607632671,508
-746.15230817127,483
-743.475392516264,540
-740.7992136248035,504
-738.1237713233636,481
-735.4490654383407,491
-732.7750957960521,499
-730.1018622227365,533
-727.4293645445534,519
-724.7576025875837,498
-722.0865761778291,516
-719.4162851412126,519
-716.7467293035781,509
-714.0779084906909,500
-711.409822528237,496
-708.7424712418238,494
-706.0758544569796,525
-703.4099719991541,543
-700.7448236937178,526
-698.0804093659622,534
-695.4167288411002,498
-692.7537819442656,530
-690.0915685005134,530
-687.4300883348199,514
-684.7693412720819,512
-682.1093271371178,526
-679.4500457546669,542
-676.7914969493897,526
-674.1336805458676,528
-671.4765963686034,535
-668.8202442420206,537
-666.1646239904642,527
-663.5097354382001,524
-660.8555784094151,524
-658.2021527282176,538
-655.5494582186366,520
-652.8974947046223,554
-650.2462620100463,535
-647.5957599587009,564
-644.9459883742998,570
-642.2969470804776,581
-639.6486359007902,578
-637.0010546587141,593
-634.3542031776476,539
-631.7080812809096,543
-629.0626887917401,556
-626.4180255333008,557
-623.7740913286734,589
-621.1308860008619,585
-618.4884093727904,569
-615.8466612673046,554
-613.2056415071715,572
-610.5653499150785,533
-607.9257863136347,568
-605.28695052537,580
-602.6488423727357,555
-600.0114616781036,542
-597.3748082637674,542
-594.7388819519412,526
-592.1036825647604,613
-589.4692099242818,641
-586.8354638524829,579
-584.2024441712624,562
-581.5701507024403,591
-578.9385832677575,587
-576.3077416888759,599
-573.6776257873787,574
-571.0482353847704,539
-568.4195703024757,597
-565.7916303618415,593
-563.164415384135,600
-560.5379251905453,556
-557.9121596021815,598
-555.2871184400748,586
-552.6628015251767,608
-550.0392086783606,607
-547.4163397204204,609
-544.794194472071,622
-542.1727727539491,621
-539.5520743866118,615
-536.9320991905377,661
-534.3128469861261,643
-531.6943175936979,673
-529.0765108334947,681
-526.4594265256793,711
-523.8430644903358,795
-521.2274245474689,920
-518.612506517005,918
-515.9983102187913,929
-513.3848354725959,979
-510.77208209810846,1005
-508.16004991493924,1200
-505.5487387426199,1288
-502.9381484006032,1302
-500.3282787082628,1303
-497.71912948489364,1185
-495.1107005497117,1092
-492.5029917218539,953
-489.8960028203786,840
-487.28973366426493,737
-484.68418407241325,735
-482.07935386364494,746
-479.47524285670266,736
-476.87185087025,717
-474.2691777228715,738
-471.66722323307334,729
-469.0659872192821,716
-466.4654694998459,739
-463.86566989303384,736
-461.26658821703614,724
-458.66822428996414,768
-456.07057792985,760
-453.4736489546475,734
-450.877437182231,706
-448.28194243039627,732
-445.68716451686,718
-443.09310325926003,738
-440.49975847515555,689
-437.9071299820263,721
-435.31521759727354,704
-432.72402113821954,747
-430.13354042210767,738
-427.5437752661022,790
-424.95472548728867,731
-422.36639090267386,764
-419.7787713291855,779
-417.1918665836721,794
-414.60567648290385,804
-412.0202008435715,757
-409.4354394822874,817
-406.8513922155845,822
-404.26805885991723,826
-401.685439231661,821
-399.103533147112,797
-396.522340422488,767
-393.9418608739278,807
-391.3620943174908,776
-388.7830405691583,740
-386.2046994448317,691
-383.6270707603344,693
-381.05015433141045,673
-378.473949973725,634
-375.8984575028645,631
-373.32367673433623,578
-370.74960748356875,552
-368.1762495659117,552
-365.60360279663576,525
-363.03166699093265,481
-360.4604419639154,479
-357.8899275306178,470
-355.32012350599507,482
-352.7510297049233,464
-350.1826459421999,438
-347.61497203254316,433
-345.04800779059235,432
-342.4817530309082,461
-339.91620756797226,450
-337.35137121618743,442
-334.7872437898774,474
-332.22382510328725,473
-329.66111497058273,485
-327.09911320585127,439
-324.53781962310075,460
-321.9772340362607,442
-319.4173562591816,451
-316.8581861056348,442
-314.2997233893127,422
-311.7419679238294,456
-309.1849195227194,502
-306.62857799943856,488
-304.0729431673641,493
-301.51801483979375,494
-298.963792829947,469
-296.41027695096386,467
-293.85746701590574,538
-291.3053628377552,502
-288.7539642294155,514
-286.2032710037115,490
-283.65328297338897,504
-281.1039999511146,522
-278.5554217494762,551
-276.007548180983,537
-273.4603790580651,530
-270.9139141930734,532
-268.3681533982807,516
-265.8230964858798,505
-263.27874326798565,529
-260.7350935566336,539
-258.1921471637804,553
-255.6499039013039,570
-253.10836358100266,547
-250.56752601459698,497
-248.02739101372765,526
-245.48795838995704,531
-242.94922795476816,590
-240.41119951956557,586
-237.8738728956746,566
-235.33724789434166,580
-232.80132432673452,525
-230.2661020039418,537
-227.73158073697357,593
-225.19776033676033,689
-222.66464061415422,669
-220.1322213799284,676
-217.60050244477725,635
-215.06948361931552,600
-212.53916471408013,626
-210.00954553952818,645
-207.48062590603843,619
-204.9524056239104,575
-202.4248845033651,641
-199.8980623545441,651
-197.37193898751036,681
-194.84651421224817,701
-192.32178783866232,711
-189.79775967657952,697
-187.27442953574644,736
-184.7517972258321,707
-182.2298625564256,696
-179.7086253370378,646
-177.18808537710026,663
-174.66824248596583,711
-172.14909647290835,736
-169.6306471471229,740
-167.11289431772548,732
-164.59583779375328,842
-162.07947738416453,777
-159.5638128978386,707
-157.04884414357605,765
-154.53457093009854,893
-152.02099306604828,845
-149.50811035998936,803
-146.99592262040665,785
-144.48442965570587,741
-141.97363127421409,777
-139.46352728417958,819
-136.95411749377126,826
-134.44540171107985,765
-131.93737974411636,753
-129.43005140081357,861
-126.92341648902493,1084
-124.41747481652521,1209
-121.91222619101006,1350
-119.40767042009657,1731
-116.90380731132257,2026
-114.40063667214702,2256
-111.8981583099503,2092
-109.3963720320337,1660
-106.89527764561933,1437
-104.39487495785067,1314
-101.89516377579241,2061
-99.39614390642998,3073
-96.89781515667039,3866
-94.40017733334128,3595
-91.90323024319173,3126
-89.40697369289148,3045
-86.91140748903172,4445
-84.41653143812482,5316
-81.92234534660395,4260
-79.42884902082358,3753
-76.93604226705907,5540
-74.4439248915071,10687
-71.95249670028534,16903
-69.46175749943245,20298
-66.97170709490854,19141
-64.48234529259423,15259
-61.99367189829195,11803
-59.50568671772464,10466
-57.01838955653636,8862
-54.53178022029283,7606
-52.045858514480074,8305
-49.560624244506016,10858
-47.07607721569923,12854
-44.59221723330904,13837
-42.10904410250669,12407
-39.62655762838392,10876
-37.14475761595372,10033
-34.66364387015028,11082
-32.18321619582866,13588
-29.70347439776515,15679
-27.224418280657005,17892
-24.74604764912317,19712
-22.26836230770266,21677
-19.7913620608565,27225
-17.315046712966478,41145
-14.83941606833514,55460
-12.36446993118659,65038
-9.89020810566592,65038
-7.416630395839093,65038
-4.94373660569363,65038
-2.471526539137585,65038
-6.821210263296962E-13,65038
2.47084320796705,65038
4.941003281093458,65038
7.410480415786196,65038
9.879274808531363,65038
12.347386655893956,65038
14.814816154518212,65038
17.28156350112681,65038
19.74762889252179,65038
22.21301252558385,65038
24.67771459727237,18347
27.141735304626195,3758
29.605074844762612,2822
32.06773341487792,2162
34.52971121224755,2145
36.99100843422559,2376
39.45162527824516,1889
41.91156194181792,1513
44.370818622535126,1613
46.82939551806646,1387
49.287292826160524,1614
51.74451074464503,1939
54.201049471426245,1668
56.65690920448981,1328
59.112090141899785,1326
61.56659248179983,1247
64.02041642241159,1125
66.4735621620365,1012
68.92602989905402,906
71.37781983192338,1027
73.82893215918205,1106
76.27936707944684,1305
78.72912479141326,1111
81.17820549385567,1071
83.62660938562783,1128
86.07433666566146,1122
88.5213875329681,877
90.96776218663751,942
93.41346082583925,984
95.85848364982041,1029
98.30283085790859,1025
100.7465026495089,1007
103.18949922410604,954
105.63182078126385,904
108.07346752062438,911
110.51443964190923,909
112.95473734491827,773
115.39436082953114,784
117.83331029570547,832
120.27158594347827,874
122.7091879729652,1145
125.1461165843615,957
127.58237197794062,837
130.01795435405518,875
132.4528639131364,829
134.88710085569494,887
137.32066538231982,975
139.75355769367923,854
142.1857779905207,742
144.61732647366978,720
147.04820334403132,735
149.47840880258934,754
151.90794305040674,817
154.33680628862487,891
156.76499871846443,1067
159.19252054122433,1110
161.61937195828352,1239
164.04555317109896,1264
166.47106438120693,1351
168.89590579022217,1431
171.320077599839,1567
173.7435800118302,1755
176.16641322804742,1826
178.58857745042144,1716
181.01007288096173,1805
183.43089972175687,1791
185.85105817497413,1716
188.27054844285988,1797
190.6893707277394,1816
193.10752523201643,1816
195.5250121581745,1912
197.9418317087751,1935
200.3579840864594,1966
202.7734694939469,1990
205.18828813403627,1927
207.6024402096051,2009
210.01592592360964,2062
212.42874547908548,2040
214.84089907914665,2162
217.2523869269868,2053
219.66320922587727,1964
222.0733661791695,2028
224.48285799029293,1985
226.8916848627572,2012
229.29984700014882,2080
231.7073446061355,2042
234.11417788446204,1969
236.520347038953,1968
238.92585227351185,2046
241.33069379212054,2132
243.73487179884035,2262
246.1383864978112,2121
248.541238093252,2117
250.9434267894609,2162
253.34495279081432,2134
255.74581630176783,2183
258.1460175268563,2100
260.54555667069314,2182
262.9444339379703,2156
265.3426495334594,2183
267.7402036620107,2199
270.1370965285529,2174
272.53332833809407,2161
274.9288992957214,1993
277.32380960660055,2056
279.718059475976,2055
282.1116491091717,2059
284.5045787115897,2022
286.89684848871195,1945
289.2884586460981,1923
291.67940938938807,1971
294.0697009242996,2060
296.4593334566299,2098
298.84830719225477,2017
301.23662233712923,2027
303.6242790972866,1986
306.01127767884,2017
308.39761828798066,1941
310.78330113097934,1948
313.16832641418534,1935
315.5526943440269,1834
317.9364051270112,1901
320.3194589697242,1868
322.70185607883093,1782
325.0835966610754,1865
327.4646809232805,1820
329.8451090723478,1899
332.2248813152577,1782
334.6039978590701,1884
336.9824589109231,1775
339.36026467803447,1728
341.7374153677,1764
344.113911187295,1683
346.48975234427337,1784
348.8649390461686,1754
351.2394715005918,1718
353.61334991523415,1772
355.9865744978655,1773
358.35914545633375,1752
360.73106299856715,1722
363.10232733257146,1724
365.47293866643247,1700
367.84289720831396,1611
370.2122031664593,1656
372.5808567491905,1727
374.9488581649083,1641
377.31620762209275,1658
379.6829053293021,1614
382.0489514951745,1594
384.4143463284262,1649
386.7790900378528,1640
389.14318283232853,1678
391.50662492080653,1626
393.86941651231916,1687
396.23155781597745,1627
398.5930490409713,1583
400.9538903965696,1742
403.3140820921202,1668
405.6736243370498,1597
408.03251734086336,1596
410.3907613131465,1621
412.74835646356166,1579
415.10530300185144,1543
417.4616011378372,1611
419.81725108141893,1597
422.1722530425758,1589
424.5266072313656,1587
426.880313857925,1612
429.2333731324701,1613
431.58578526529516,1599
433.9375504667738,1571
436.2886689473588,1560
438.63914091758113,1590
440.9889665880513,1552
443.33814616945835,1565
445.68667987257015,1557
448.03456790823395,1618
450.3818104873759,1514
452.72840782100013,1495
455.07436012019105,1536
457.41966759611057,1603
459.7643304600007,1549
462.10834892318155,1526
464.4517231970525,1539
466.79445349309174,1578
469.1365400228566,1527
471.4779829979826,1570
473.81878263018564,1509
476.15893913125876,1501
478.4984527130747,1555
480.8373235875855,1611
483.17555196682144,1630
485.5131380628919,1651
487.8500820879857,1642
490.1863842543697,1679
492.52204477439034,1761
494.8570638604725,1961
497.1914417251204,2123
499.52517858091653,2430
501.85827464052306,2663
504.19073011668036,2856
506.5225452222086,3067
508.85372017000566,2987
511.18425517304956,2930
513.514150444396,3002
515.8434061971808,3397
518.1720226446176,4025
520.4999999999999,4081
522.8273384766991,3919
525.1540382881666,3462
527.480099647932,3098
529.8055227696037,2588
532.1303078668694,2093
534.454455153496,1770
536.777964843328,1687
539.1008371502907,1681
541.4230722883866,1580
543.744670471698,1574
546.0656319143858,1617
548.3859568306899,1607
550.7056454349294,1574
553.0246979415016,1470
555.3431145648834,1574
557.6608955196306,1515
559.978041020377,1571
562.2945512818363,1521
564.6104265188006,1472
566.9256669461412,1546
569.2402727788082,1542
571.5542442318302,1533
573.8675815203156,1565
576.1802848594508,1553
578.4923544645015,1568
580.8037905508126,1606
583.114593333807,1605
585.4247630289875,1571
587.7342998519354,1532
590.0432040183106,1497
592.3514757438526,1525
594.6591152443794,1540
596.9661227357875,1643
599.2724984340531,1612
601.578242555231,1534
603.8833553154542,1570
606.1878369309362,1607
608.4916876179676,1570
610.7949075929192,1527
613.0974970722403,1587
615.3994562724587,1663
617.7007854101818,1583
620.0014847020951,1605
622.3015543649641,1547
624.6009946156324,1550
626.8998056710224,1523
629.1979877481361,1553
631.4955410640538,1565
633.7924658359349,1587
636.0887622810175,1546
638.3844306166192,1556
640.6794710601358,1581
642.9738838290426,1577
645.2676691408932,1598
647.5608272133207,1597
649.853358264037,1572
652.1452625108324,1623
654.4365401715764,1546
656.7271914642178,1656
659.0172166067838,1615
661.3066158173809,1572
663.5953893141935,1569
665.8835373154867,1572
668.1710600396028,1633
670.4579577049639,1597
672.7442305300709,1553
675.0298787335033,1606
677.3149025339197,1617
679.599302150058,1595
681.8830778007342,1544
684.1662297048437,1572
686.4487580813608,1537
688.7306631493387,1599
691.0119451279091,1544
693.2926042362834,1509
695.5726406937516,1596
697.8520547196814,1590
700.1308465335215,1594
702.4090163547982,1572
704.6865644031171,1560
706.9634908981619,1531
709.2397960596965,1556
711.5154801075631,1602
713.7905432616823,1611
716.0649857420548,1579
718.3388077687592,1531
720.612009561953,1551
722.8845913418733,1579
725.1565533288352,1577
727.427895743234,1533
729.6986188055427,1599
731.9687227363137,1599
734.238207756178,1560
736.5070740858458,1558
738.7753219461066,1544
741.0429515578281,1513
743.3099631419569,1540
745.5763569195191,1577
747.8421331116193,1618
750.1072919394409,1600
752.3718336242467,1590
754.6357583873777,1649
756.8990664502545,1543
759.1617580343765,1515
761.423833361321,1574
763.6852926527457,1579
765.9461361303862,1635
768.206364016058,1629
770.4659765316536,1635
772.7249738991469,1608
774.9833563405886,1623
777.2411240781092,1625
779.4982773339183,1571
781.7548163303044,1597
784.010741289634,1645
786.2660524343538,1695
788.5207499869881,1648
790.7748341701416,1666
793.0283052064964,1658
795.2811633188143,1648
797.5334087299362,1600
799.7850416627813,1655
802.0360623403484,1594
804.2864709857143,1583
806.5362678220353,1641
808.7854530725468,1573
811.0340269605625,1614
813.2819897094754,1632
815.5293415427581,1646
817.77608268396,1654
820.0222133567116,1609
822.2677337847211,1592
824.5126441917765,1662
826.7569448017433,1614
829.0006358385675,1665
831.2437175262731,1698
833.4861900889629,1654
835.7280537508192,1579
837.9693087361026,1669
840.2099552691533,1638
842.4499935743896,1543
844.689423876309,1652
846.9282463994886,1624
849.1664613685833,1731
851.4040690083276,1623
853.6410695435349,1649
855.877463199097,1669
858.1132501999847,1691
860.3484307712487,1651
862.5830051380175,1663
864.8169735254988,1646
867.0503361589791,1695
869.2830932638243,1686
871.5152450654786,1654
873.7467917894654,1598
875.9777336613873,1605
878.2080709069252,1672
880.4378037518389,1689
882.666932421968,1645
884.8954571432301,1652
887.1233781416219,1703
889.3506956432192,1658
891.5774098741766,1651
893.803521060728,1630
896.0290294291852,1651
898.2539352059397,1608
900.4782386174619,1661
902.7019398903011,1610
904.925039251085,1622
907.147536926521,1610
909.3694331433943,1613
911.59072812857,1608
913.8114221089921,1612
916.0315153116827,1651
918.2510079637437,1645
920.4699002923547,1611
922.6881925247761,1630
924.905884888345,1629
927.1229776104793,1562
929.3394709186747,1647
931.555365040506,1604
933.7706602036275,1562
935.9853566357709,1632
938.1994545647489,1578
940.4129542184515,1597
942.6258558248488,1600
944.8381596119883,1678
947.0498658079974,1576
949.2609746410825,1597
951.4714863395287,1582
953.6814011316998,1607
955.8907192460387,1606
958.0994409110671,1536
960.3075663553858,1525
962.5150958076741,1590
964.7220294966913,1512
966.928367651274,1569
969.1341105003388,1517
971.3392582728806,1496
973.5438111979742,1538
975.747769504772,1505
977.9511334225061,1538
980.153903180487,1534
982.3560790081052,1430
984.5576611348289,1461
986.7586497902058,1476
988.9590452038618,1521
991.158847605503,1469
993.3580572249133,1527
995.5566742919558,1468
997.7546990365728,1439
999.952131688785,1380
1002.1489724786926,1412
1004.3452216364743,1435
1006.5408793923874,1369
1008.7359459767691,1349
1010.9304216200343,1312
1013.1243065526781,1386
1015.3176010052733,1416
1017.510305208472,1357
1019.7024193930064,1338
1021.8939437896848,1324
1024.0848786293977,1339
1026.2752241431122,1367
1028.4649805618747,1364
1030.6541481168115,1386
1032.842727039127,1309
1035.0307175601051,1312
1037.2181199111074,1329
1039.4049343235752,1294
1041.591161029029,1312
1043.7768002590683,1311
1045.9618522453698,1336
1048.1463172196918,1285
1050.3301954138697,1337
1052.513487059818,1301
1054.69619238953,1291
1056.8783116350783,1282
1059.0598450286152,1271
1061.2407928023704,1231
1063.4211551886528,1316
1065.6009324198508,1229
1067.780124728432,1245
1069.9587323469414,1230
1072.1367555080046,1271
1074.314194444325,1279
1076.4910493886855,1251
1078.667320573947,1295
1080.843008233051,1244
1083.0181125990161,1258
1085.1926339049414,1282
1087.3665723840027,1184
1089.5399282694575,1227
1091.7127017946405,1280
1093.8848931929647,1275
1096.0565026979243,1219
1098.2275305430899,1232
1100.3979769621128,1213
1102.567842188722,1233
1104.737126456726,1206
1106.9058300000124,1201
1109.0739530525475,1293
1111.2414958483764,1262
1113.4084586216231,1238
1115.5748416064907,1241
1117.7406450372605,1224
1119.9058691482942,1176
1122.0705141740304,1209
1124.2345803489884,1191
1126.3980679077658,1209
1128.5609770850388,1189
1130.7233081155623,1228
1132.8850612341707,1175
1135.0462366757774,1163
1137.2068346753745,1254
1139.3668554680326,1239
1141.526299288901,1192
1143.68516637321,1175
1145.8434569562655,1233
1148.001171273455,1258
1150.158309560244,1202
1152.3148720521767,1225
1154.470858984876,1232
1156.626270594044,1283
1158.7811071154629,1199
1160.9353687849912,1164
1163.089055838569,1157
1165.242168512213,1185
1167.3947070420209,1182
1169.5466716641677,1205
1171.6980626149075,1168
1173.8488801305748,1170
1175.9991244475814,1139
1178.1487958024186,1192
1180.2978944316555,1185
1182.4464205719428,1126
1184.5943744600072,1141
1186.7417563326567,1168
1188.8885664267755,1169
1191.0348049793297,1154
1193.1804722273619,1189
1195.325568407995,1224
1197.4700937584303,1185
1199.614048515948,1216
1201.7574329179074,1151
1203.900247201746,1163
1206.042491604982,1204
1208.1841663652099,1242
1210.3252717201053,1183
1212.465807907422,1254
1214.6057751649923,1187
1216.7451737307279,1172
1218.8840038426192,1164
1221.0222657387353,1206
1223.1599596572241,1202
1225.2970858363137,1184
1227.4336445143094,1172
1229.5696359295966,1206
1231.705060320639,1214
1233.8399179259786,1228
1235.9742089842384,1207
1238.107933734118,1165
1240.2410924143974,1206
1242.373685263935,1224
1244.5057125216676,1254
1246.6371744266116,1180
1248.7680712178621,1249
1250.898403134593,1221
1253.028170416058,1214
1255.1573733015875,1249
1257.2860120305932,1227
1259.4140868425648,1240
1261.54159797707,1212
1263.6685456737569,1260
1265.7949301723515,1250
1267.9207517126597,1287
1270.046010534565,1216
1272.1707068780306,1285
1274.2948409830983,1240
1276.4184130898889,1243
1278.541423438603,1245
1280.6638722695184,1238
1282.785759822993,1291
1284.9070863394636,1356
1287.0278520594447,1296
1289.1480572235314,1319
1291.2677020723963,1235
1293.3867868467923,1316
1295.5053117875495,1286
1297.623277135579,1352
1299.740683131868,1264
1301.8575300174857,1335
1303.973818033578,1370
1306.0895474213703,1355
1308.2047184221678,1405
1310.3193312773528,1304
1312.4333862283888,1295
1314.5468835168163,1290
1316.659823384255,1326
1318.7722060724045,1296
1320.8840318230418,1344
1322.9953008780249,1370
1325.1060134792888,1353
1327.2161698688478,1304
1329.3257702887959,1299
1331.4348149813054,1376
1333.5433041886276,1337
1335.6512381530933,1305
1337.7586171171101,1372
1339.8654413231675,1418
1341.9717110138317,1316
1344.0774264317488,1356
1346.1825878196432,1338
1348.2871954203192,1369
1350.3912494766587,1320
1352.4947502316231,1300
1354.5976979282532,1293
1356.7000928096686,1317
1358.8019351190665,1304
1360.9032250997243,1303
1363.0039629949988,1285
1365.1041490483235,1312
1367.2037835032133,1343
1369.3028666032606,1321
1371.401398592137,1295
1373.4993797135926,1289
1375.5968102114575,1291
1377.6936903296396,1276
1379.7900203121262,1292
1381.8858004029835,1309
1383.9810308463561,1322
1386.075711886469,1236
1388.1698437676241,1300
1390.2634267342032,1349
1392.356461030667,1238
1394.4489469015557,1300
1396.5408845914872,1291
1398.6322743451592,1325
1400.7231164073469,1310
1402.813411022907,1310
1404.903158436773,1294
1406.9923588939578,1304
1409.0810126395531,1304
1411.1691199187303,1274
1413.2566809767386,1232
1415.343696058907,1263
1417.4301654106425,1290
1419.5160892774315,1300
1421.6014679048399,1299
1423.6863015385125,1299
1425.7705904241707,1261
1427.8543348076178,1282
1429.9375349347342,1356
1432.0201910514802,1319
1434.102303403894,1324
1436.1838722380944,1319
1438.2648978002767,1351
1440.3453803367174,1325
1442.4253200937692,1338
1444.5047173178677,1310
1446.5835722555234,1365
1448.6618851533285,1375
1450.739656257952,1381
1452.8168858161434,1372
1454.8935740747306,1381
1456.96972128062,1385
1459.045327680797,1379
1461.120393522327,1438
1463.1949190523528,1399
1465.2689045180973,1423
1467.3423501668608,1438
1469.415256246024,1447
1471.4876230030463,1391
1473.559450685465,1514
1475.6307395408976,1405
1477.7014898170391,1484
1479.771701761665,1514
1481.8413756226287,1534
1483.9105116478618,1507
1485.9791100853772,1538
1488.0471711832643,1545
1490.1146951896926,1531
1492.1816823529098,1491
1494.2481329212433,1552
1496.3140471430984,1589
1498.3794252669609,1625
1500.4442675413939,1585
1502.5085742150404,1546
1504.572345536622,1533
1506.6355817549388,1571
1508.6982831188702,1543
1510.7604498773744,1611
1512.8220822794883,1520
1514.8831805743293,1571
1516.9437450110909,1609
1519.003775839048,1603
1521.0632733075522,1579
1523.1222376660367,1615
1525.1806691640113,1622
1527.2385680510652,1623
1529.2959345768668,1640
1531.3527689911643,1549
1533.4090715437833,1647
1535.4648424846291,1677
1537.5200820636855,1616
1539.5747905310159,1630
1541.6289681367616,1673
1543.6826151311434,1717
1545.7357317644614,1695
1547.7883182870937,1694
1549.8403749494987,1768
1551.8919020022113,1773
1553.9428996958477,1795
1555.9933682811015,1789
1558.0433080087469,1807
1560.0927191296346,1864
1562.1416018946961,1889
1564.1899565549415,1908
1566.2377833614592,1862
1568.2850825654164,1907
1570.3318544180606,1897
1572.3780991707158,1915
1574.423817074788,1882
1576.4690083817595,1826
1578.5136733431923,1835
1580.5578122107272,1731
1582.601425236085,1712
1584.6445126710646,1722
1586.6870747675434,1665
1588.7291117774776,1648
1590.7706239529034,1582
1592.8116115459347,1567
1594.8520748087658,1595
1596.8920139936686,1538
1598.9314293529933,1444
1600.9703211391711,1410
1603.008689604711,1439
1605.0465350022005,1450
1607.0838575843068,1447
1609.1206576037753,1347
1611.1569353134305,1381
1613.1926909661765,1440
1615.2279248149953,1344
1617.2626371129481,1415
1619.2968281131757,1335
1621.3304980688963,1314
1623.3636472334088,1348
1625.39627586009,1337
1627.428384202396,1285
1629.459972513861,1289
1631.4910410480993,1318
1633.5215900588028,1271
1635.551619799744,1241
1637.5811305247717,1283
1639.6101224878166,1249
1641.6385959428862,1260
1643.6665511440683,1229
1645.693988345528,1221
1647.7209078015112,1249
1649.7473097663405,1217
1651.7731944944203,1207
1653.7985622402307,1282
1655.823413258333,1241
1657.847747803366,1234
1659.8715661300494,1238
1661.8948684931793,1219
1663.9176551476316,1275
1665.9399263483624,1241
1667.9616823504057,1242
1669.982923408873,1237
1672.0036497789574,1185
1674.0238617159293,1192
1676.043559475138,1221
1678.0627433120121,1260
1680.081413482059,1212
1682.0995702408654,1200
1684.117213844096,1229
1686.134344547495,1201
1688.1509626068864,1205
1690.1670682781705,1272
1692.182661817329,1163
1694.1977434804217,1250
1696.2123135235875,1248
1698.226372203043,1237
1700.2399197750851,1242
1702.2529564960905,1241
1704.2654826225112,1271
1706.277498410882,1256
1708.2890041178139,1223
1710.2999999999988,1220
1712.3104863142066,1246
1714.3204633172854,1185
1716.329931266163,1230
1718.3388904178469,1223
1720.3473410294214,1282
1722.3552833580516,1233
1724.3627176609807,1243
1726.3696441955308,1185
1728.3760632191033,1202
1730.3819749891782,1240
1732.3873797633146,1191
1734.3922777991502,1171
1736.3966693544012,1177
1738.4005546868639,1168
1740.4039340544127,1174
1742.406807715001,1165
1744.4091759266616,1191
1746.4110389475054,1159
1748.4123970357223,1190
1750.413250449582,1173
1752.4135994474318,1214
1754.4134442876993,1237
1756.4127852288902,1192
1758.4116225295893,1183
1760.4099564484595,1203
1762.407787244244,1166
1764.405115175764,1164
1766.4019405019203,1179
1768.3982634816916,1274
1770.3940843741357,1201
1772.3894034383907,1194
1774.3842209336717,1168
1776.378537119274,1180
1778.372352254571,1149
1780.3656665990156,1174
1782.3584804121397,1180
1784.3507939535534,1164
1786.3426074829463,1160
1788.3339212600863,1229
1790.3247355448211,1187
1792.3150505970766,1133
1794.3048666768573,1150
1796.2941840442477,1212
1798.2830029594106,1151
1800.2713236825884,1170
1802.2591464741004,1219
1804.2464715943465,1186
1806.2332993038058,1198
1808.2196298630352,1220
1810.2054635326708,1149
1812.190800573428,1178
1814.175641246101,1166
1816.1599858115628,1171
1818.1438345307652,1170
1820.127187664738,1255
1822.1100454745924,1215
1824.092408221516,1201
1826.0742761667766,1126
1828.055649571721,1175
1830.0365286977735,1191
1832.0169138064398,1143
1833.9968051593014,1184
1835.9762030180214,1197
1837.9551076443408,1201
1839.9335193000788,1183
1841.9114382471344,1220
1843.888864747485,1143
1845.8657990631878,1165
1847.842241456378,1187
1849.8181921892697,1226
1851.7936515241558,1209
1853.7686197234098,1184
1855.7430970494815,1187
1857.7170837649014,1208
1859.6905801322787,1133
1861.6635864143004,1210
1863.6361028737338,1158
1865.608129773424,1179
1867.5796673762961,1215
1869.5507159453537,1128
1871.521275743678,1180
1873.4913470344313,1206
1875.4609300808534,1175
1877.4300251462632,1188
1879.3986324940588,1163
1881.366752387717,1166
1883.3343850907936,1259
1885.3015308669228,1165
1887.268189979819,1204
1889.2343626932739,1158
1891.2000492711595,1158
1893.1652499774254,1192
1895.1299650761011,1215
1897.0941948312952,1245
1899.0579395071945,1191
1901.0211993680641,1192
1902.98397467825,1213
1904.9462657021745,1249
1906.9080727043415,1206
1908.869395949332,1206
1910.8302357018065,1195
1912.790592226504,1205
1914.7504657882428,1172
1916.7098566519212,1222
1918.6687650825133,1234
1920.6271913450764,1184
1922.5851357047422,1215
1924.5425984267245,1197
1926.499579776314,1204
1928.4560800188833,1166
1930.4120994198802,1231
1932.367638244833,1222
1934.32269675935,1204
1936.2772752291175,1236
1938.231373919899,1213
1940.1849930975404,1198
1942.1381330279637,1178
1944.0907939771696,1165
1946.0429762112412,1157
1947.9946799963363,1232
1949.9459055986945,1150
1951.896653284633,1190
1953.8469233205478,1167
1955.7967159729142,1175
1957.7460315082863,1198
1959.6948701932974,1192
1961.6432322946594,1216
1963.5911180791632,1218
1965.5385278136787,1171
1967.4854617651545,1134
1969.4319202006182,1221
1971.377903387176,1151
1973.3234115920136,1183
1975.268445082395,1166
1977.2130041256642,1183
1979.1570889892423,1154
1981.1006999406304,1228
1983.04383724741,1217
1984.986501177238,1177
1986.928691997853,1190
1988.8704099770712,1180
1990.811655382789,1192
1992.7524284829801,1147
1994.692729545698,1222
1996.6325588390755,1157
1998.5719166313224,1178
2000.5108031907307,1163
2002.4492187856677,1174
2004.387163684583,1183
2006.3246381560011,1183
2008.2616424685298,1160
2010.1981768908527,1141
2012.1342416917332,1186
2014.069837140014,1196
2016.0049635046162,1217
2017.9396210545406,1147
2019.8738100588666,1190
2021.8075307867502,1192
2023.740783507431,1141
2025.6735684902228,1144
2027.6058860045214,1179
2029.5377363198004,1147
2031.4691197056118,1183
2033.4000364315875,1107
2035.3304867674374,1176
2037.260470982952,1154
2039.189989347998,1173
2041.1190421325232,1198
2043.047629606554,1168
2044.9757520401945,1124
2046.9034097036288,1161
2048.8306028671195,1144
2050.7573318010086,1125
2052.683596775716,1122
2054.609398061742,1182
2056.5347359296647,1151
2058.4596106501403,1142
2060.384022493906,1146
2062.3079717317764,1086
2064.231458634646,1119
2066.1544834734873,1151
2068.077046519352,1191
2069.99914804337,1130
2071.9207883167524,1147
2073.8419676107865,1058
2075.7626861968406,1161
2077.6829443463607,1185
2079.6027423308715,1188
2081.522080421977,1164
2083.440958891362,1129
2085.359378010786,1122
2087.2773380520907,1198
2089.194839287196,1170
2091.111881988101,1164
2093.0284664268825,1135
2094.9445928756973,1205
2096.86026160678,1133
2098.775472892446,1182
2100.690227005088,1157
2102.604524217178,1172
2104.5183648012676,1151
2106.431749029985,1140
2108.34467717604,1166
2110.2571495122206,1143
2112.169166311393,1123
2114.080727846503,1123
2115.9918343905747,1142
2117.902486216711,1151
2119.8126835980956,1139
2121.722426807987,1155
2123.6317161197285,1147
2125.5405518067364,1158
2127.448934142509,1142
2129.356863400624,1106
2131.264339854737,1152
2133.1713637785815,1154
2135.077935445972,1194
2136.9840551308002,1151
2138.889723107037,1173
2140.7949396487334,1153
2142.699705030018,1083
2144.6040195250994,1152
2146.507883408264,1147
2148.4112969538774,1164
2150.3142604363848,1152
2152.2167741303097,1175
2154.1188383102535,1179
2156.0204532508997,1159
2157.9216192270064,1163
2159.822336513414,1181
2161.7226053850413,1188
2163.622426116884,1195
2165.5217989840185,1210
2167.4207242616,1209
2169.319202224862,1191
2171.2172331491165,1193
2173.1148173097563,1159
2175.0119549822507,1169
2176.90864644215,1158
2178.8048919650823,1195
2180.7006918267534,1164
2182.596046302952,1202
2184.4909556695407,1255
2186.3854202024645,1168
2188.279440177746,1227
2190.173015871487,1176
2192.066147559868,1149
2193.958835519149,1154
2195.851080025667,1208
2197.7428813558417,1222
2199.6342397861667,1182
2201.5251555932186,1213
2203.415629053651,1186
2205.3056604441986,1191
2207.19525004167,1246
2209.084398122958,1176
2210.9731049650327,1210
2212.861370844941,1216
2214.749196039812,1270
2216.636580826851,1248
2218.523525483344,1274
2220.410030286655,1196
2222.296095514226,1263
2224.1817214435805,1218
2226.066908352319,1203
2227.951656518121,1231
2229.835966218746,1279
2231.71983773203,1247
2233.6032713358913,1211
2235.486267308324,1218
2237.3688259274036,1221
2239.2509474712824,1262
2241.132632218193,1230
2243.013880446447,1273
2244.8946924344323,1231
2246.7750684606203,1268
2248.6550088035574,1235
2250.534513741871,1237
2252.413583554265,1278
2254.292218519526,1233
2256.170418916517,1210
2258.0481850241786,1192
2259.925517121534,1221
2261.8024154876825,1211
2263.678880401803,1235
2265.5549121431536,1265
2267.430510991071,1248
2269.305677224971,1201
2271.180411124348,1218
2273.0547129687766,1195
2274.9285830379076,1226
2276.8020216114737,1228
2278.6750289692845,1251
2280.5476053912294,1211
2282.4197511572766,1278
2284.2914665474727,1279
2286.162751841943,1306
2288.0336073208937,1263
2289.904033264608,1269
2291.774029953448,1308
2293.6435976678554,1219
2295.5127366883517,1229
2297.381447295534,1242
2299.2497297700825,1164
2301.1175843927526,1175
2302.9850114443825,1141
2304.852011205885,1142
2306.7185839582553,1073
2308.5847299825664,1095
2310.4504495599676,1045
2312.3157429716925,1114
2314.1806104990483,1050
2316.0450524234247,1089
2317.9090690262888,1078
2319.772660589186,1082
2321.635827393742,1059
2323.498569721661,1085
2325.3608878547248,1118
2327.2227820747967,1114
2329.0842526638157,1076
2330.945299903803,1038
2332.805924076857,1081
2334.6661254651535,1072
2336.525904350951,1068
2338.3852610165827,1077
2340.244195744464,1036
2342.102708817088,1031
2343.9608005170253,1045
2345.8184711269287,1078
2347.675720929526,1033
2349.532550207628,1087
2351.38895924412,1033
2353.24494832197,1091
2355.100517724223,1110
2356.955667734004,1099
2358.810398634514,1069
2360.664710709037,1104
2362.5186042409337,1073
2364.3720795136437,1114
2366.225136810686,1111
2368.0777764156583,1073
2369.929998612237,1034
2371.7818036841777,1102
2373.633191915315,1040
2375.484163589562,1091
2377.3347189909114,1066
2379.184858403434,1031
2381.03458211128,1091
2382.8838903986775,1043
2384.732783549936,1105
2386.5812618494406,1084
2388.4293255816588,1105
2390.2769750311327,1060
2392.1242104824883,1090
2393.971032220427,1122
2395.8174405297295,1081
2397.6634356952563,1118
2399.509018001947,1050
2401.3541877348193,1100
2403.1989451789705,1036
2405.043290619576,1060
2406.8872243418905,1052
2408.730746631247,1064
2410.5738577730594,1042
2412.4165580528183,1105
2414.258847756095,1073
2416.100727168537,1046
2417.9421965758734,1051
2419.783256263912,1103
2421.623906518538,1067
2423.4641476257157,1093
2425.303979871491,1071
2427.143403541984,1113
2428.9824189233977,1053
2430.821026302012,1107
2432.6592259641866,1036
2434.497018196361,1083
2436.33440328505,1096
2438.171381516851,1096
2440.00795317844,1119
2441.844118556569,1100
2443.6798779380724,1116
2445.5152316098606,1098
2447.3501798589255,1077
2449.1847229723357,1073
2451.0188612372403,1059
2452.8525949408663,1082
2454.6859243705203,1064
2456.518849813587,1126
2458.3513715575314,1118
2460.183489889895,1063
2462.015205098301,1097
2463.8465174704493,1084
2465.67742729412,1084
2467.5079348571717,1098
2469.338040447542,1131
2471.1677443532476,1103
2472.9970468623833,1107
2474.825948263123,1115
2476.6544488437207,1100
2478.482548892508,1089
2480.310248697896,1090
2482.137548548374,1129
2483.9644487325118,1148
2485.790949538956,1059
2487.617051256433,1072
2489.44275417375,1110
2491.26805857979,1109
2493.0929647635157,1070
2494.917473013971,1116
2496.741583620276,1121
2498.5652968716304,1105
2500.3886130573137,1111
2502.2115324666834,1119
2504.0340553891765,1086
2505.856182114308,1129
2507.6779129316733,1084
2509.499248130945,1105
2511.3201880018764,1092
2513.140732834298,1106
2514.9608829181198,1138
2516.780638543331,1115
2518.6,1104
2520.418967578273,1103
2522.237541568376,1096
2524.0557222606144,1105
2525.8735099453706,1122
2527.6909049131086,1104
2529.507907454368,1102
2531.32451785977,1101
2533.140736420014,1106
2534.9565634258774,1193
2536.771999168218,1168
2538.5870439379714,1163
2540.4016980261526,1137
2542.2159617238544,1154
2544.02983532225,1170
2545.8433191125914,1162
2547.656413386209,1112
2549.4691184345115,1174
2551.2814345489874,1149
2553.093362021204,1163
2554.904901142808,1211
2556.716052205523,1176
2558.526815501153,1142
2560.3371913215824,1209
2562.147179958771,1176
2563.956781704761,1172
2565.7659968516705,1185
2567.5748256916986,1220
2569.3832685171224,1188
2571.1913256202984,1269
2572.9989972936614,1219
2574.806283829725,1233
2576.613185521084,1228
2578.4197026604074,1204
2580.2258355404483,1203
2582.031584454035,1313
2583.836949694077,1229
2585.6419315535613,1221
2587.4465303255533,1216
2589.2507463032002,1206
2591.0545797797245,1233
2592.8580310484303,1236
2594.6611004026995,1192
2596.463788135992,1234
2598.266094541849,1223
2600.0680199138874,1213
2601.869564545807,1242
2603.670728731383,1190
2605.4715127644704,1180
2607.2719169390048,1212
2609.071941548998,1153
2610.8715868885433,1178
2612.670853251811,1188
2614.469740933052,1240
2616.268250226594,1207
2618.0663814268455,1213
2619.864134828292,1200
2621.6615107255006,1212
2623.458509413115,1172
2625.2551311858597,1119
2627.0513763385347,1161
2628.8472451660223,1208
2630.6427379632833,1141
2632.4378550253564,1183
2634.232596647359,1200
2636.026963124488,1134
2637.8209547520187,1158
2639.6145718253065,1223
2641.407814639785,1176
2643.200683490966,1145
2644.9931786744414,1155
2646.7853004858807,1122
2648.577049221034,1130
2650.3684251757277,1154
2652.1594286458712,1158
2653.9500599274484,1140
2655.740319316525,1165
2657.5302071092437,1136
2659.3197236018286,1146
2661.10886909058,1159
2662.8976438718782,1107
2664.686048242183,1110
2666.4740824980327,1142
2668.2617469360443,1119
2670.0490418529134,1140
2671.8359675454153,1129
2673.622524310403,1178
2675.408712444811,1087
2677.1945322456495,1147
2678.979984010009,1118
2680.76506803506,1134
2682.5497846180497,1110
2684.334134056306,1028
2686.1181166472343,1094
2687.9017326883213,1110
2689.6849824771293,1061
2691.4678663113013,1076
2693.2503844885596,1124
2695.032537306705,1122
2696.8143250636167,1184
2698.5957480572542,1024
2700.3768065856534,1087
2702.1575009469316,1093
2703.937831439283,1098
2705.717798360982,1137
2707.4974020103837,1096
2709.276642685917,1095
2711.055520686095,1112
2712.834036309506,1065
2714.612189854819,1063
2716.389981620782,1075
2718.1674119062204,1111
2719.944481010041,1097
2721.721189231226,1064
2723.4975368688415,1062
2725.273524222027,1083
2727.0491515900053,1065
2728.824419272075,1086
2730.5993275676146,1132
2732.3738767760838,1067
2734.148067197016,1061
2735.921899130031,1054
2737.6953728748194,1056
2739.468488731156,1109
2741.2412469988926,1075
2743.0136479779617,1093
2744.785691968372,1035
2746.5573792702116,1089
2748.3287101836504,1046
2750.099685008934,1035
2751.870304046388,1048
2753.640567596418,1061
2755.4104759595057,1090
2757.1800294362156,1074
2758.949228327187,1054
2760.7180729331412,1086
2762.486563554877,1075
2764.254700493272,1040
2766.022484049284,1032
2767.789914523947,1064
2769.5569922183786,1041
2771.3237174337705,1113
2773.090090471394,1086
2774.8561116326036,1035
2776.6217812188274,1077
2778.3870995315756,1049
2780.1520668724356,1014
2781.9166835430747,1061
2783.6809498452394,1062
2785.444866080754,1147
2787.2084325515225,1091
2788.971649559527,1086
2790.73451740683,1043
2792.4970363955713,1043
2794.2592068279705,1064
2796.0210290063264,1064
2797.7825032330147,1093
2799.543629810493,1053
2801.304409041296,1061
2803.0648412280366,1031
2804.8249266734088,1050
2806.5846656801846,1042
2808.344058551212,1097
2810.1031055894246,1089
2811.8618070978273,1103
2813.6201633795085,1086
2815.378174737636,1060
2817.1358414754536,1111
2818.893163896285,1093
2820.6501423035334,1034
2822.4067770006814,1032
2824.1630682912883,998
2825.9190164789957,1046
2827.6746218675207,1044
2829.429884760661,1096
2831.184805462294,1110
2832.9393842763743,1037
2834.693621506936,1082
2836.4475174580916,1088
2838.201072434034,1050
2839.954286739034,1105
2841.707160677441,1101
2843.459694553685,1027
2845.2118886722724,1014
2846.96374333779,1089
2848.7152588549034,1090
2850.4664355283567,1068
2852.217273662973,1075
2853.9677735636546,1048
2855.7179355353833,1052
2857.4677598832186,1082
2859.217246912299,1097
2860.9663969278427,1101
2862.715210235146,1111
2864.4636871395846,1043
2866.211827946614,1072
2867.9596329617652,1023
2869.7071024906536,1056
2871.4542368389684,1053
2873.20103631248,1110
2874.947501217038,1067
2876.6936318585695,1074
2878.4394285430812,1079
2880.1848915766604,1098
2881.9300212654707,1123
2883.6748179157553,1098
2885.4192818338374,1036
2887.1634133261173,1050
2888.907212699077,1027
2890.6506802592744,1085
2892.393816313348,1062
2894.1366211680142,1104
2895.8790951300693,1110
2897.621238506388,1060
2899.363051603925,1099
2901.1045347297118,1104
2902.8456881908596,1046
2904.58651229456,1041
2906.327007348081,1057
2908.067173658772,1090
2909.8070115340597,1063
2911.5465212814497,1078
2913.285703208527,1053
2915.0245576229563,1065
2916.7630848324807,1107
2918.5012851449196,1038
2920.2391588681758,1059
2921.976706310227,1095
2923.7139277791334,1051
2925.4508235830313,1082
2927.187394030137,1015
2928.923639428745,1032
2930.6595600872306,1089
2932.395156314046,1067
2934.1304284177218,1124
2935.8653767068713,1094
2937.6000014901815,1053
2939.3343030764227,1072
2941.068281774442,1122
2942.8019378931644,1096
2944.5352717415976,1023
2946.2682836288236,1098
2948.0009738640065,1093
2949.7333427563885,1079
2951.465390615289,1032
2953.1971177501086,1069
2954.9285244703265,1074
2956.6596110855,1056
2958.3903779052657,1067
2960.1208252393385,1042
2961.8509533975125,1103
2963.5807626896617,1068
2965.3102534257378,1045
2967.0394259157715,1066
2968.768280469873,1089
2970.496817398232,1057
2972.2250370111146,1043
2973.952939618869,1113
2975.6805255319196,1062
2977.4077950607707,1054
2979.134748516006,1069
2980.861386208289,1100
2982.587708448359,1081
2984.313715547037,1071
2986.039407815222,1092
2987.764785563891,1041
2989.489849104102,1039
2991.2145987469908,1087
2992.9390348037705,1107
2994.6631575857346,1055
2996.3869674042576,1062
2998.1104645707887,1079
2999.83364939686,1097
3001.5565221940783,1078
3003.2790832741334,991
3005.0013329487924,997
3006.7232715298996,1026
3008.4448993293804,1053
3010.166216659239,1071
3011.887223831558,1018
3013.607921158498,1037
3015.3283089522993,1086
3017.0483875252826,1091
3018.7681571898443,1057
3020.4876182584626,1058
3022.2067710436927,1052
3023.9256158581707,1057
3025.644153014609,1046
3027.362382825801,1024
3029.0803056046193,1046
3030.797921664012,1088
3032.5152313170106,1052
3034.2322348767225,1019
3035.9489326563353,1057
3037.665324969115,1059
3039.3814121284063,1059
3041.097194447633,1050
3042.812672240299,1031
3044.5278458199855,1044
3046.2427155003525,1052
3047.9572815951406,1106
3049.671544418167,1040
3051.38550428333,1091
3053.0991615046073,1033
3054.812516396051,1019
3056.5255692717974,1053
3058.2383204460575,1047
3059.9507702331257,1104
3061.662918947372,1050
3063.3747669032446,1043
3065.0863144152736,1027
3066.7975617980674,1046
3068.508509366309,1011
3070.219157434767,1078
3071.9295063182844,1075
3073.639556331785,1041
3075.3493077902704,1028
3077.058761008821,1045
3078.7679163025964,1041
3080.476773986837,1091
3082.1853343768594,1023
3083.89359778806,1029
3085.6015645359153,1046
3087.3092349359786,1059
3089.016609303884,1031
3090.7236879553434,1080
3092.4304712061476,1073
3094.136959372166,1052
3095.843152769349,1069
3097.5490517137237,1083
3099.2546565213966,1023
3100.959967508554,1067
3102.66498499146,1064
3104.3697092864577,1018
3106.0741407099695,1029
3107.778279578498,1071
3109.482126208622,1032
3111.1856809170004,1074
3112.8889440203716,1014
3114.5919158355528,1070
3116.294596679439,1044
3117.996986869006,1073
3119.6990867213062,1063
3121.4008965534726,1082
3123.102416682717,1089
3124.803647426329,1052
3126.5045891016784,1070
3128.205242026213,1059
3129.90560651746,1046
3131.605682893025,1032
3133.3054714705922,1045
3135.0049725679282,1084
3136.7041865028714,1093
3138.4031135933465,1052
3140.101754157353,1108
3141.800108512971,1031
3143.498176978357,1051
3145.1959598717494,1071
3146.8934575114636,988
3148.5906702158954,1025
3150.2875983035183,1060
3151.9842420928853,1067
3153.680601902627,1088
3155.376678051456,1071
3157.07247085816,1032
3158.767980641609,1054
3160.463207720748,1044
3162.158152414606,1116
3163.8528150422862,1048
3165.5471959229726,1079
3167.2412953759303,1037
3168.9351137204976,1055
3170.628651276098,1096
3172.3219083622307,1060
3174.014885298474,1054
3175.707582404485,1074
3177.4000000000005,1113
3179.092138404835,1021
3180.7839979388846,1059
3182.47557892212,1024
3184.166881674594,1052
3185.8579065164386,1076
3187.5486537678626,1105
3189.2391237491547,1070
3190.9293167806827,1064
3192.6192331828934,1061
3194.3088732763117,1079
3195.998237381542,1057
3197.687325819268,1035
3199.376138910251,1111
3201.064676975334,1049
3202.7529403354347,1077
3204.4409293115523,1074
3206.1286442247647,1047
3207.816085396229,1071
3209.5032531471825,1027
3211.190147798936,1053
3212.8767696728846,1011
3214.5631190905015,1047
3216.2491963733373,1035
3217.9350018430214,1021
3219.6205358212637,1026
3221.305798629851,1037
3222.990790590651,988
3224.6755120256103,1070
3226.359963256751,1064
3228.0441446061795,1078
3229.7280563960758,1015
3231.411698948703,1051
3233.0950725863995,1055
3234.778177631587,1031
3236.461014406761,1077
3238.1435832345005,1036
3239.8258844374595,1031
3241.507918338374,1080
3243.1896852600576,1032
3244.8711855254023,1052
3246.552419457381,1086
3248.233387379042,1011
3249.914089613516,1079
3251.59452648401,1069
3253.274698313813,1049
3254.95460542629,1045
3256.6342481448855,1052
3258.313626793125,1031
3259.9927416946084,1058
3261.6715931730196,1082
3263.3501815521176,1023
3265.0285071557437,1026
3266.706570307815,1007
3268.3843713323286,1044
3270.0619105533615,1042
3271.739188295068,1017
3273.4162048816834,1033
3275.0929606375184,1023
3276.769455886966,1039
3278.445690954498,1078
3280.1216661646613,1024
3281.797381842087,1035
3283.4728383114807,1034
3285.1480358976296,1069
3286.8229749253996,1004
3288.4976557197333,1066
3290.172078605655,1038
3291.846243908266,1047
3293.5201519527463,1017
3295.193803064357,1046
3296.8671975684374,1018
3298.5403357904024,1037
3300.21321805575,984
3301.8858446900567,1017
3303.558216018975,1024
3305.23033236824,984
3306.9021940636603,1052
3308.57380143113,1025
3310.2451547966184,1035
3311.916254486174,1072
3313.5871008259246,1046
3315.2576941420766,1015
3316.9280347609147,1054
3318.5981230088046,1051
3320.2679592121895,1009
3321.9375436975924,1026
3323.606876791612,1059
3325.27595882093,1054
3326.944790112305,1056
3328.6133709925753,1053
3330.2817017886573,1008
3331.949782827547,1013
3333.617614436319,1007
3335.2851969421245,1053
3336.952530672199,1061
3338.619615953853,1060
3340.286453114475,1045
3341.9530424815357,1062
3343.619384382583,1046
3345.2854791452437,1042
3346.951327097224,1018
3348.6169285663073,1037
3350.2822838803577,1083
3351.947393367319,1033
3353.61225735521,1020
3355.2768761721345,1021
3356.9412501462693,1044
3358.605379605873,1048
3360.2692648792827,1064
3361.9329062949146,1047
3363.596304181263,1032
