CollectionTime,9/20/2024 1:08:34 PM
ExposureUsed,3
CalibratedSpectrum
-962.7078968117929,613
-959.9714848408522,654
-957.2358232597828,674
-954.5009119013725,668
-951.7667505983302,625
-949.0333391832855,719
-946.3006774887896,674
-943.5687653473143,698
-940.837602591253,691
-938.1071890529199,711
-935.3775245645503,694
-932.6486089583007,672
-929.9204420662485,643
-927.1930237203925,710
-924.4663537526524,729
-921.7404319948689,686
-919.0152582788041,726
-916.2908324361409,692
-913.5671542984834,668
-910.8442236973568,638
-908.1220404642074,631
-905.4006044304027,650
-902.679915427231,646
-899.959973285902,614
-897.2407778375464,631
-894.5223289132158,629
-891.8046263438832,631
-889.0876699604426,647
-886.3714595937089,659
-883.6559950744183,619
-880.9412762332282,619
-878.2273029007168,605
-875.5140749073835,655
-872.8015920836489,608
-870.0898542598545,624
-867.3788612662631,667
-864.6686129330585,647
-861.9591090903457,687
-859.2503495681506,642
-856.5423341964203,620
-853.8350628050229,641
-851.1285352237478,610
-848.4227512823054,626
-845.7177108103272,622
-843.0134136373656,649
-840.3098595928943,630
-837.6070485063082,649
-834.9049802069229,637
-832.2036545239757,664
-829.5030712866244,658
-826.8032303239481,638
-824.1041314649472,641
-821.4057745385428,644
-818.7081593735775,624
-816.0112857988148,633
-813.3151536429393,626
-810.6197627345566,607
-807.9251129021936,613
-805.2312039742981,690
-802.5380357792392,677
-799.8456081453069,655
-797.1539209007124,638
-794.462973873588,674
-791.772766891987,651
-789.083299783884,644
-786.3945723771743,643
-783.7065844996748,641
-781.0193359791231,642
-778.3328266431781,670
-775.6470563194197,653
-772.9620248353489,693
-770.2777320183878,649
-767.5941776958798,671
-764.9113616950891,643
-762.2292838432011,638
-759.5479439673222,627
-756.8673418944801,642
-754.1874774516235,663
-751.5083504656222,667
-748.8299607632671,692
-746.15230817127,661
-743.475392516264,683
-740.7992136248035,702
-738.1237713233636,677
-735.4490654383407,660
-732.7750957960521,634
-730.1018622227365,665
-727.4293645445534,710
-724.7576025875837,704
-722.0865761778291,728
-719.4162851412126,704
-716.7467293035781,702
-714.0779084906909,755
-711.409822528237,701
-708.7424712418238,749
-706.0758544569796,709
-703.4099719991541,703
-700.7448236937178,721
-698.0804093659622,691
-695.4167288411002,732
-692.7537819442656,744
-690.0915685005134,707
-687.4300883348199,707
-684.7693412720819,710
-682.1093271371178,729
-679.4500457546669,756
-676.7914969493897,750
-674.1336805458676,725
-671.4765963686034,688
-668.8202442420206,772
-666.1646239904642,727
-663.5097354382001,784
-660.8555784094151,727
-658.2021527282176,774
-655.5494582186366,740
-652.8974947046223,752
-650.2462620100463,748
-647.5957599587009,735
-644.9459883742998,785
-642.2969470804776,794
-639.6486359007902,761
-637.0010546587141,749
-634.3542031776476,794
-631.7080812809096,802
-629.0626887917401,791
-626.4180255333008,733
-623.7740913286734,756
-621.1308860008619,815
-618.4884093727904,734
-615.8466612673046,763
-613.2056415071715,741
-610.5653499150785,769
-607.9257863136347,803
-605.28695052537,828
-602.6488423727357,806
-600.0114616781036,771
-597.3748082637674,827
-594.7388819519412,813
-592.1036825647604,833
-589.4692099242818,825
-586.8354638524829,807
-584.2024441712624,809
-581.5701507024403,797
-578.9385832677575,904
-576.3077416888759,876
-573.6776257873787,799
-571.0482353847704,789
-568.4195703024757,737
-565.7916303618415,828
-563.164415384135,803
-560.5379251905453,815
-557.9121596021815,782
-555.2871184400748,751
-552.6628015251767,816
-550.0392086783606,850
-547.4163397204204,865
-544.794194472071,862
-542.1727727539491,873
-539.5520743866118,849
-536.9320991905377,873
-534.3128469861261,916
-531.6943175936979,903
-529.0765108334947,941
-526.4594265256793,1037
-523.8430644903358,1118
-521.2274245474689,1306
-518.612506517005,1385
-515.9983102187913,1321
-513.3848354725959,1401
-510.77208209810846,1517
-508.16004991493924,1593
-505.5487387426199,1731
-502.9381484006032,1853
-500.3282787082628,1780
-497.71912948489364,1738
-495.1107005497117,1583
-492.5029917218539,1436
-489.8960028203786,1332
-487.28973366426493,1130
-484.68418407241325,1161
-482.07935386364494,1063
-479.47524285670266,1048
-476.87185087025,1008
-474.2691777228715,1044
-471.66722323307334,1025
-469.0659872192821,1005
-466.4654694998459,1044
-463.86566989303384,1013
-461.26658821703614,982
-458.66822428996414,980
-456.07057792985,956
-453.4736489546475,1038
-450.877437182231,986
-448.28194243039627,935
-445.68716451686,983
-443.09310325926003,967
-440.49975847515555,931
-437.9071299820263,973
-435.31521759727354,956
-432.72402113821954,1004
-430.13354042210767,992
-427.5437752661022,1007
-424.95472548728867,1002
-422.36639090267386,995
-419.7787713291855,1071
-417.1918665836721,1037
-414.60567648290385,1032
-412.0202008435715,1049
-409.4354394822874,1056
-406.8513922155845,1083
-404.26805885991723,1118
-401.685439231661,1137
-399.103533147112,1083
-396.522340422488,1058
-393.9418608739278,1019
-391.3620943174908,997
-388.7830405691583,1029
-386.2046994448317,1019
-383.6270707603344,965
-381.05015433141045,946
-378.473949973725,921
-375.8984575028645,855
-373.32367673433623,737
-370.74960748356875,761
-368.1762495659117,722
-365.60360279663576,679
-363.03166699093265,645
-360.4604419639154,571
-357.8899275306178,568
-355.32012350599507,550
-352.7510297049233,524
-350.1826459421999,536
-347.61497203254316,566
-345.04800779059235,535
-342.4817530309082,509
-339.91620756797226,541
-337.35137121618743,539
-334.7872437898774,479
-332.22382510328725,479
-329.66111497058273,484
-327.09911320585127,534
-324.53781962310075,514
-321.9772340362607,497
-319.4173562591816,510
-316.8581861056348,518
-314.2997233893127,535
-311.7419679238294,544
-309.1849195227194,586
-306.62857799943856,594
-304.0729431673641,543
-301.51801483979375,597
-298.963792829947,542
-296.41027695096386,534
-293.85746701590574,595
-291.3053628377552,625
-288.7539642294155,608
-286.2032710037115,630
-283.65328297338897,588
-281.1039999511146,607
-278.5554217494762,637
-276.007548180983,656
-273.4603790580651,675
-270.9139141930734,595
-268.3681533982807,681
-265.8230964858798,686
-263.27874326798565,661
-260.7350935566336,670
-258.1921471637804,696
-255.6499039013039,858
-253.10836358100266,836
-250.56752601459698,711
-248.02739101372765,681
-245.48795838995704,719
-242.94922795476816,724
-240.41119951956557,742
-237.8738728956746,704
-235.33724789434166,712
-232.80132432673452,766
-230.2661020039418,713
-227.73158073697357,794
-225.19776033676033,713
-222.66464061415422,777
-220.1322213799284,884
-217.60050244477725,813
-215.06948361931552,757
-212.53916471408013,828
-210.00954553952818,870
-207.48062590603843,802
-204.9524056239104,807
-202.4248845033651,822
-199.8980623545441,833
-197.37193898751036,885
-194.84651421224817,895
-192.32178783866232,886
-189.79775967657952,848
-187.27442953574644,950
-184.7517972258321,1001
-182.2298625564256,863
-179.7086253370378,825
-177.18808537710026,887
-174.66824248596583,997
-172.14909647290835,994
-169.6306471471229,954
-167.11289431772548,1009
-164.59583779375328,1116
-162.07947738416453,1284
-159.5638128978386,1306
-157.04884414357605,1091
-154.53457093009854,1082
-152.02099306604828,1032
-149.50811035998936,1094
-146.99592262040665,1298
-144.48442965570587,1387
-141.97363127421409,1436
-139.46352728417958,1383
-136.95411749377126,1340
-134.44540171107985,1259
-131.93737974411636,1319
-129.43005140081357,1406
-126.92341648902493,1680
-124.41747481652521,1802
-121.91222619101006,1971
-119.40767042009657,2195
-116.90380731132257,2743
-114.40063667214702,3339
-111.8981583099503,3865
-109.3963720320337,4651
-106.89527764561933,6707
-104.39487495785067,7998
-101.89516377579241,9889
-99.39614390642998,13197
-96.89781515667039,18486
-94.40017733334128,21680
-91.90323024319173,17763
-89.40697369289148,11602
-86.91140748903172,8041
-84.41653143812482,7053
-81.92234534660395,10325
-79.42884902082358,13459
-76.93604226705907,13968
-74.4439248915071,12759
-71.95249670028534,10397
-69.46175749943245,8114
-66.97170709490854,6747
-64.48234529259423,7426
-61.99367189829195,8574
-59.50568671772464,9052
-57.01838955653636,11172
-54.53178022029283,13789
-52.045858514480074,18597
-49.560624244506016,22239
-47.07607721569923,23507
-44.59221723330904,22766
-42.10904410250669,22093
-39.62655762838392,19786
-37.14475761595372,19534
-34.66364387015028,19023
-32.18321619582866,22972
-29.70347439776515,24618
-27.224418280657005,21387
-24.74604764912317,24474
-22.26836230770266,33083
-19.7913620608565,54724
-17.315046712966478,65037
-14.83941606833514,65037
-12.36446993118659,65037
-9.89020810566592,65037
-7.416630395839093,65037
-4.94373660569363,65037
-2.471526539137585,65037
-6.821210263296962E-13,65037
2.47084320796705,65037
4.941003281093458,65037
7.410480415786196,65037
9.879274808531363,65037
12.347386655893956,65037
14.814816154518212,65037
17.28156350112681,65037
19.74762889252179,65037
22.21301252558385,65037
24.67771459727237,21354
27.141735304626195,7023
29.605074844762612,5366
32.06773341487792,3872
34.52971121224755,3887
36.99100843422559,4435
39.45162527824516,4237
41.91156194181792,4327
44.370818622535126,3537
46.82939551806646,2849
49.287292826160524,4157
51.74451074464503,3887
54.201049471426245,3110
56.65690920448981,3167
59.112090141899785,2627
61.56659248179983,2379
64.02041642241159,2152
66.4735621620365,2581
68.92602989905402,2917
71.37781983192338,2940
73.82893215918205,2488
76.27936707944684,1813
78.72912479141326,2215
81.17820549385567,1892
83.62660938562783,1503
86.07433666566146,1529
88.5213875329681,1585
90.96776218663751,1780
93.41346082583925,1890
95.85848364982041,2221
98.30283085790859,1880
100.7465026495089,1638
103.18949922410604,1620
105.63182078126385,1361
108.07346752062438,1521
110.51443964190923,1551
112.95473734491827,1521
115.39436082953114,1534
117.83331029570547,1452
120.27158594347827,1691
122.7091879729652,1670
125.1461165843615,1533
127.58237197794062,1560
130.01795435405518,1271
132.4528639131364,1293
134.88710085569494,1339
137.32066538231982,1348
139.75355769367923,1275
142.1857779905207,1205
144.61732647366978,955
147.04820334403132,1077
149.47840880258934,1192
151.90794305040674,1315
154.33680628862487,1396
156.76499871846443,1425
159.19252054122433,1550
161.61937195828352,1641
164.04555317109896,1710
166.47106438120693,1862
168.89590579022217,2096
171.320077599839,2337
173.7435800118302,2349
176.16641322804742,2407
178.58857745042144,2560
181.01007288096173,2511
183.43089972175687,2582
185.85105817497413,2601
188.27054844285988,2563
190.6893707277394,2639
193.10752523201643,2692
195.5250121581745,2801
197.9418317087751,2805
200.3579840864594,2826
202.7734694939469,2833
205.18828813403627,2915
207.6024402096051,2851
210.01592592360964,2924
212.42874547908548,2827
214.84089907914665,2930
217.2523869269868,2870
219.66320922587727,2871
222.0733661791695,2923
224.48285799029293,2845
226.8916848627572,2972
229.29984700014882,2986
231.7073446061355,3046
234.11417788446204,3070
236.520347038953,3198
238.92585227351185,3140
241.33069379212054,3403
243.73487179884035,3405
246.1383864978112,3404
248.541238093252,3463
250.9434267894609,3552
253.34495279081432,3460
255.74581630176783,3551
258.1460175268563,3637
260.54555667069314,3636
262.9444339379703,3669
265.3426495334594,3501
267.7402036620107,3624
270.1370965285529,3389
272.53332833809407,3187
274.9288992957214,2958
277.32380960660055,2893
279.718059475976,2725
282.1116491091717,2796
284.5045787115897,2883
286.89684848871195,2714
289.2884586460981,2794
291.67940938938807,2834
294.0697009242996,2759
296.4593334566299,2696
298.84830719225477,2753
301.23662233712923,2699
303.6242790972866,2735
306.01127767884,2705
308.39761828798066,2694
310.78330113097934,2673
313.16832641418534,2528
315.5526943440269,2496
317.9364051270112,2476
320.3194589697242,2473
322.70185607883093,2491
325.0835966610754,2357
327.4646809232805,2343
329.8451090723478,2388
332.2248813152577,2374
334.6039978590701,2370
336.9824589109231,2326
339.36026467803447,2264
341.7374153677,2170
344.113911187295,2305
346.48975234427337,2317
348.8649390461686,2307
351.2394715005918,2334
353.61334991523415,2213
355.9865744978655,2194
358.35914545633375,2268
360.73106299856715,2206
363.10232733257146,2259
365.47293866643247,2205
367.84289720831396,2169
370.2122031664593,2179
372.5808567491905,2209
374.9488581649083,2141
377.31620762209275,2131
379.6829053293021,2123
382.0489514951745,2082
384.4143463284262,2142
386.7790900378528,2124
389.14318283232853,2143
391.50662492080653,2163
393.86941651231916,2158
396.23155781597745,2104
398.5930490409713,2094
400.9538903965696,2151
403.3140820921202,2083
405.6736243370498,2048
408.03251734086336,2047
410.3907613131465,2046
412.74835646356166,2075
415.10530300185144,2032
417.4616011378372,2080
419.81725108141893,2064
422.1722530425758,2063
424.5266072313656,2026
426.880313857925,2068
429.2333731324701,2101
431.58578526529516,2046
433.9375504667738,2050
436.2886689473588,2029
438.63914091758113,2066
440.9889665880513,2044
443.33814616945835,2000
445.68667987257015,1961
448.03456790823395,2070
450.3818104873759,1966
452.72840782100013,1906
455.07436012019105,2041
457.41966759611057,1995
459.7643304600007,1973
462.10834892318155,1941
464.4517231970525,1950
466.79445349309174,2003
469.1365400228566,2001
471.4779829979826,1963
473.81878263018564,1956
476.15893913125876,1996
478.4984527130747,2135
480.8373235875855,2145
483.17555196682144,2107
485.5131380628919,2211
487.8500820879857,2160
490.1863842543697,2317
492.52204477439034,2465
494.8570638604725,2591
497.1914417251204,2948
499.52517858091653,3342
501.85827464052306,3600
504.19073011668036,3982
506.5225452222086,3998
508.85372017000566,4017
511.18425517304956,3904
513.514150444396,4170
515.8434061971808,5188
518.1720226446176,5910
520.4999999999999,6125
522.8273384766991,6072
525.1540382881666,5529
527.480099647932,5054
529.8055227696037,4116
532.1303078668694,3166
534.454455153496,2505
536.777964843328,2275
539.1008371502907,2174
541.4230722883866,2101
543.744670471698,2063
546.0656319143858,2002
548.3859568306899,2036
550.7056454349294,2013
553.0246979415016,2067
555.3431145648834,2051
557.6608955196306,1928
559.978041020377,2017
562.2945512818363,2077
564.6104265188006,1996
566.9256669461412,1941
569.2402727788082,1957
571.5542442318302,1972
573.8675815203156,1947
576.1802848594508,2009
578.4923544645015,2105
580.8037905508126,2007
583.114593333807,2019
585.4247630289875,1972
587.7342998519354,1974
590.0432040183106,1940
592.3514757438526,1926
594.6591152443794,1964
596.9661227357875,1944
599.2724984340531,1963
601.578242555231,2010
603.8833553154542,1966
606.1878369309362,1941
608.4916876179676,1915
610.7949075929192,1976
613.0974970722403,1966
615.3994562724587,2025
617.7007854101818,1905
620.0014847020951,1953
622.3015543649641,1988
624.6009946156324,2046
626.8998056710224,2065
629.1979877481361,1939
631.4955410640538,1950
633.7924658359349,2006
636.0887622810175,2053
638.3844306166192,2060
640.6794710601358,2097
642.9738838290426,1991
645.2676691408932,2021
647.5608272133207,2011
649.853358264037,2037
652.1452625108324,2066
654.4365401715764,2189
656.7271914642178,2113
659.0172166067838,2137
661.3066158173809,2106
663.5953893141935,2088
665.8835373154867,2139
668.1710600396028,2072
670.4579577049639,2010
672.7442305300709,2107
675.0298787335033,2059
677.3149025339197,2099
679.599302150058,2119
681.8830778007342,2063
684.1662297048437,1996
686.4487580813608,2052
688.7306631493387,2043
691.0119451279091,2100
693.2926042362834,2057
695.5726406937516,2082
697.8520547196814,2149
700.1308465335215,1966
702.4090163547982,2097
704.6865644031171,2004
706.9634908981619,1995
709.2397960596965,2027
711.5154801075631,2041
713.7905432616823,2033
716.0649857420548,2053
718.3388077687592,1997
720.612009561953,2069
722.8845913418733,2018
725.1565533288352,2031
727.427895743234,1953
729.6986188055427,2001
731.9687227363137,2004
734.238207756178,2112
736.5070740858458,1996
738.7753219461066,1956
741.0429515578281,1961
743.3099631419569,2011
745.5763569195191,2046
747.8421331116193,1930
750.1072919394409,2094
752.3718336242467,2013
754.6357583873777,2045
756.8990664502545,2158
759.1617580343765,2051
761.423833361321,1980
763.6852926527457,1966
765.9461361303862,2004
768.206364016058,2060
770.4659765316536,2064
772.7249738991469,2171
774.9833563405886,1944
777.2411240781092,1991
779.4982773339183,2009
781.7548163303044,2013
784.010741289634,2105
786.2660524343538,2096
788.5207499869881,2045
790.7748341701416,2105
793.0283052064964,2118
795.2811633188143,2067
797.5334087299362,2026
799.7850416627813,2106
802.0360623403484,2025
804.2864709857143,2098
806.5362678220353,2158
808.7854530725468,2072
811.0340269605625,2022
813.2819897094754,2019
815.5293415427581,2065
817.77608268396,2113
820.0222133567116,2031
822.2677337847211,1997
824.5126441917765,1976
826.7569448017433,2050
829.0006358385675,2073
831.2437175262731,2045
833.4861900889629,2061
835.7280537508192,2091
837.9693087361026,2083
840.2099552691533,2051
842.4499935743896,2167
844.689423876309,2145
846.9282463994886,2074
849.1664613685833,2056
851.4040690083276,2123
853.6410695435349,2067
855.877463199097,2037
858.1132501999847,2173
860.3484307712487,2140
862.5830051380175,2155
864.8169735254988,2041
867.0503361589791,2070
869.2830932638243,2112
871.5152450654786,2140
873.7467917894654,2181
875.9777336613873,2077
878.2080709069252,2138
880.4378037518389,2143
882.666932421968,2090
884.8954571432301,2099
887.1233781416219,2212
889.3506956432192,2101
891.5774098741766,2147
893.803521060728,2159
896.0290294291852,2135
898.2539352059397,2113
900.4782386174619,2189
902.7019398903011,2171
904.925039251085,2151
907.147536926521,2227
909.3694331433943,2288
911.59072812857,2174
913.8114221089921,2212
916.0315153116827,2159
918.2510079637437,2074
920.4699002923547,2136
922.6881925247761,2145
924.905884888345,2155
927.1229776104793,2194
929.3394709186747,2114
931.555365040506,2133
933.7706602036275,2148
935.9853566357709,2177
938.1994545647489,2181
940.4129542184515,2157
942.6258558248488,2189
944.8381596119883,2235
947.0498658079974,2165
949.2609746410825,2217
951.4714863395287,2137
953.6814011316998,2180
955.8907192460387,2131
958.0994409110671,2121
960.3075663553858,2156
962.5150958076741,2128
964.7220294966913,2189
966.928367651274,2103
969.1341105003388,2078
971.3392582728806,2090
973.5438111979742,2063
975.747769504772,2073
977.9511334225061,2027
980.153903180487,2091
982.3560790081052,2057
984.5576611348289,1987
986.7586497902058,2007
988.9590452038618,1960
991.158847605503,1947
993.3580572249133,1957
995.5566742919558,1981
997.7546990365728,1893
999.952131688785,1849
1002.1489724786926,1891
1004.3452216364743,1807
1006.5408793923874,1836
1008.7359459767691,1833
1010.9304216200343,1807
1013.1243065526781,1728
1015.3176010052733,1735
1017.510305208472,1747
1019.7024193930064,1734
1021.8939437896848,1782
1024.0848786293977,1745
1026.2752241431122,1743
1028.4649805618747,1769
1030.6541481168115,1779
1032.842727039127,1773
1035.0307175601051,1768
1037.2181199111074,1688
1039.4049343235752,1733
1041.591161029029,1786
1043.7768002590683,1744
1045.9618522453698,1694
1048.1463172196918,1678
1050.3301954138697,1726
1052.513487059818,1768
1054.69619238953,1757
1056.8783116350783,1738
1059.0598450286152,1712
1061.2407928023704,1660
1063.4211551886528,1701
1065.6009324198508,1639
1067.780124728432,1694
1069.9587323469414,1670
1072.1367555080046,1657
1074.314194444325,1732
1076.4910493886855,1682
1078.667320573947,1698
1080.843008233051,1690
1083.0181125990161,1664
1085.1926339049414,1613
1087.3665723840027,1645
1089.5399282694575,1621
1091.7127017946405,1669
1093.8848931929647,1616
1096.0565026979243,1583
1098.2275305430899,1653
1100.3979769621128,1615
1102.567842188722,1626
1104.737126456726,1657
1106.9058300000124,1621
1109.0739530525475,1579
1111.2414958483764,1545
1113.4084586216231,1650
1115.5748416064907,1654
1117.7406450372605,1601
1119.9058691482942,1642
1122.0705141740304,1650
1124.2345803489884,1596
1126.3980679077658,1581
1128.5609770850388,1605
1130.7233081155623,1563
1132.8850612341707,1625
1135.0462366757774,1559
1137.2068346753745,1589
1139.3668554680326,1600
1141.526299288901,1534
1143.68516637321,1569
1145.8434569562655,1564
1148.001171273455,1610
1150.158309560244,1567
1152.3148720521767,1526
1154.470858984876,1598
1156.626270594044,1548
1158.7811071154629,1540
1160.9353687849912,1531
1163.089055838569,1564
1165.242168512213,1504
1167.3947070420209,1547
1169.5466716641677,1578
1171.6980626149075,1533
1173.8488801305748,1531
1175.9991244475814,1554
1178.1487958024186,1509
1180.2978944316555,1582
1182.4464205719428,1583
1184.5943744600072,1534
1186.7417563326567,1577
1188.8885664267755,1587
1191.0348049793297,1554
1193.1804722273619,1556
1195.325568407995,1563
1197.4700937584303,1577
1199.614048515948,1550
1201.7574329179074,1541
1203.900247201746,1563
1206.042491604982,1523
1208.1841663652099,1504
1210.3252717201053,1568
1212.465807907422,1609
1214.6057751649923,1576
1216.7451737307279,1545
1218.8840038426192,1587
1221.0222657387353,1621
1223.1599596572241,1607
1225.2970858363137,1599
1227.4336445143094,1537
1229.5696359295966,1622
1231.705060320639,1599
1233.8399179259786,1586
1235.9742089842384,1629
1238.107933734118,1683
1240.2410924143974,1610
1242.373685263935,1634
1244.5057125216676,1599
1246.6371744266116,1608
1248.7680712178621,1665
1250.898403134593,1639
1253.028170416058,1695
1255.1573733015875,1633
1257.2860120305932,1654
1259.4140868425648,1681
1261.54159797707,1580
1263.6685456737569,1638
1265.7949301723515,1644
1267.9207517126597,1645
1270.046010534565,1653
1272.1707068780306,1697
1274.2948409830983,1724
1276.4184130898889,1638
1278.541423438603,1648
1280.6638722695184,1682
1282.785759822993,1741
1284.9070863394636,1702
1287.0278520594447,1749
1289.1480572235314,1686
1291.2677020723963,1707
1293.3867868467923,1742
1295.5053117875495,1776
1297.623277135579,1806
1299.740683131868,1805
1301.8575300174857,1807
1303.973818033578,1792
1306.0895474213703,1725
1308.2047184221678,1844
1310.3193312773528,1778
1312.4333862283888,1780
1314.5468835168163,1797
1316.659823384255,1796
1318.7722060724045,1812
1320.8840318230418,1822
1322.9953008780249,1808
1325.1060134792888,1823
1327.2161698688478,1799
1329.3257702887959,1777
1331.4348149813054,1810
1333.5433041886276,1816
1335.6512381530933,1799
1337.7586171171101,1733
1339.8654413231675,1842
1341.9717110138317,1769
1344.0774264317488,1798
1346.1825878196432,1867
1348.2871954203192,1788
1350.3912494766587,1863
1352.4947502316231,1790
1354.5976979282532,1775
1356.7000928096686,1771
1358.8019351190665,1740
1360.9032250997243,1787
1363.0039629949988,1759
1365.1041490483235,1790
1367.2037835032133,1772
1369.3028666032606,1797
1371.401398592137,1782
1373.4993797135926,1811
1375.5968102114575,1841
1377.6936903296396,1783
1379.7900203121262,1793
1381.8858004029835,1749
1383.9810308463561,1818
1386.075711886469,1809
1388.1698437676241,1766
1390.2634267342032,1849
1392.356461030667,1845
1394.4489469015557,1887
1396.5408845914872,1858
1398.6322743451592,1817
1400.7231164073469,1837
1402.813411022907,1873
1404.903158436773,1942
1406.9923588939578,1915
1409.0810126395531,1924
1411.1691199187303,1851
1413.2566809767386,1965
1415.343696058907,1867
1417.4301654106425,1911
1419.5160892774315,1971
1421.6014679048399,1938
1423.6863015385125,1905
1425.7705904241707,2100
1427.8543348076178,1960
1429.9375349347342,2038
1432.0201910514802,2087
1434.102303403894,2109
1436.1838722380944,2085
1438.2648978002767,2139
1440.3453803367174,2159
1442.4253200937692,2130
1444.5047173178677,2171
1446.5835722555234,2197
1448.6618851533285,2273
1450.739656257952,2295
1452.8168858161434,2252
1454.8935740747306,2263
1456.96972128062,2318
1459.045327680797,2479
1461.120393522327,2445
1463.1949190523528,2521
1465.2689045180973,2562
1467.3423501668608,2625
1469.415256246024,2677
1471.4876230030463,2654
1473.559450685465,2769
1475.6307395408976,2750
1477.7014898170391,2833
1479.771701761665,2824
1481.8413756226287,2843
1483.9105116478618,2843
1485.9791100853772,2970
1488.0471711832643,3006
1490.1146951896926,3007
1492.1816823529098,3081
1494.2481329212433,3083
1496.3140471430984,3144
1498.3794252669609,3234
1500.4442675413939,3135
1502.5085742150404,3240
1504.572345536622,3302
1506.6355817549388,3248
1508.6982831188702,3312
1510.7604498773744,3343
1512.8220822794883,3281
1514.8831805743293,3364
1516.9437450110909,3337
1519.003775839048,3455
1521.0632733075522,3364
1523.1222376660367,3513
1525.1806691640113,3364
1527.2385680510652,3407
1529.2959345768668,3509
1531.3527689911643,3433
1533.4090715437833,3517
1535.4648424846291,3546
1537.5200820636855,3557
1539.5747905310159,3771
1541.6289681367616,3664
1543.6826151311434,3648
1545.7357317644614,3892
1547.7883182870937,3900
1549.8403749494987,3850
1551.8919020022113,3957
1553.9428996958477,4058
1555.9933682811015,4044
1558.0433080087469,4163
1560.0927191296346,4237
1562.1416018946961,4322
1564.1899565549415,4278
1566.2377833614592,4322
1568.2850825654164,4184
1570.3318544180606,4267
1572.3780991707158,4076
1574.423817074788,3960
1576.4690083817595,3852
1578.5136733431923,3742
1580.5578122107272,3628
1582.601425236085,3372
1584.6445126710646,3288
1586.6870747675434,3118
1588.7291117774776,2981
1590.7706239529034,2796
1592.8116115459347,2833
1594.8520748087658,2714
1596.8920139936686,2665
1598.9314293529933,2423
1600.9703211391711,2329
1603.008689604711,2358
1605.0465350022005,2320
1607.0838575843068,2222
1609.1206576037753,2113
1611.1569353134305,2070
1613.1926909661765,2135
1615.2279248149953,2042
1617.2626371129481,2077
1619.2968281131757,2011
1621.3304980688963,1974
1623.3636472334088,1882
1625.39627586009,1839
1627.428384202396,1881
1629.459972513861,1849
1631.4910410480993,1844
1633.5215900588028,1805
1635.551619799744,1873
1637.5811305247717,1854
1639.6101224878166,1752
1641.6385959428862,1763
1643.6665511440683,1812
1645.693988345528,1703
1647.7209078015112,1706
1649.7473097663405,1709
1651.7731944944203,1708
1653.7985622402307,1663
1655.823413258333,1695
1657.847747803366,1784
1659.8715661300494,1645
1661.8948684931793,1650
1663.9176551476316,1670
1665.9399263483624,1713
1667.9616823504057,1670
1669.982923408873,1630
1672.0036497789574,1630
1674.0238617159293,1663
1676.043559475138,1676
1678.0627433120121,1644
1680.081413482059,1673
1682.0995702408654,1670
1684.117213844096,1696
1686.134344547495,1623
1688.1509626068864,1700
1690.1670682781705,1636
1692.182661817329,1675
1694.1977434804217,1649
1696.2123135235875,1620
1698.226372203043,1686
1700.2399197750851,1658
1702.2529564960905,1699
1704.2654826225112,1662
1706.277498410882,1652
1708.2890041178139,1622
1710.2999999999988,1601
1712.3104863142066,1613
1714.3204633172854,1658
1716.329931266163,1621
1718.3388904178469,1640
1720.3473410294214,1619
1722.3552833580516,1616
1724.3627176609807,1577
1726.3696441955308,1655
1728.3760632191033,1645
1730.3819749891782,1561
1732.3873797633146,1546
1734.3922777991502,1575
1736.3966693544012,1578
1738.4005546868639,1545
1740.4039340544127,1499
1742.406807715001,1570
1744.4091759266616,1594
1746.4110389475054,1538
1748.4123970357223,1514
1750.413250449582,1578
1752.4135994474318,1569
1754.4134442876993,1520
1756.4127852288902,1522
1758.4116225295893,1449
1760.4099564484595,1484
1762.407787244244,1523
1764.405115175764,1505
1766.4019405019203,1549
1768.3982634816916,1537
1770.3940843741357,1474
1772.3894034383907,1541
1774.3842209336717,1480
1776.378537119274,1495
1778.372352254571,1434
1780.3656665990156,1416
1782.3584804121397,1475
1784.3507939535534,1527
1786.3426074829463,1519
1788.3339212600863,1532
1790.3247355448211,1492
1792.3150505970766,1477
1794.3048666768573,1487
1796.2941840442477,1557
1798.2830029594106,1510
1800.2713236825884,1473
1802.2591464741004,1521
1804.2464715943465,1506
1806.2332993038058,1432
1808.2196298630352,1517
1810.2054635326708,1459
1812.190800573428,1465
1814.175641246101,1457
1816.1599858115628,1470
1818.1438345307652,1494
1820.127187664738,1441
1822.1100454745924,1411
1824.092408221516,1477
1826.0742761667766,1506
1828.055649571721,1463
1830.0365286977735,1446
1832.0169138064398,1521
1833.9968051593014,1460
1835.9762030180214,1520
1837.9551076443408,1489
1839.9335193000788,1434
1841.9114382471344,1426
1843.888864747485,1477
1845.8657990631878,1411
1847.842241456378,1465
1849.8181921892697,1457
1851.7936515241558,1448
1853.7686197234098,1473
1855.7430970494815,1386
1857.7170837649014,1430
1859.6905801322787,1411
1861.6635864143004,1456
1863.6361028737338,1481
1865.608129773424,1398
1867.5796673762961,1460
1869.5507159453537,1516
1871.521275743678,1473
1873.4913470344313,1482
1875.4609300808534,1518
1877.4300251462632,1421
1879.3986324940588,1473
1881.366752387717,1522
1883.3343850907936,1461
1885.3015308669228,1498
1887.268189979819,1474
1889.2343626932739,1514
1891.2000492711595,1512
1893.1652499774254,1538
1895.1299650761011,1493
1897.0941948312952,1583
1899.0579395071945,1532
1901.0211993680641,1517
1902.98397467825,1537
1904.9462657021745,1494
1906.9080727043415,1498
1908.869395949332,1525
1910.8302357018065,1519
1912.790592226504,1410
1914.7504657882428,1488
1916.7098566519212,1495
1918.6687650825133,1451
1920.6271913450764,1470
1922.5851357047422,1525
1924.5425984267245,1502
1926.499579776314,1521
1928.4560800188833,1528
1930.4120994198802,1552
1932.367638244833,1469
1934.32269675935,1508
1936.2772752291175,1488
1938.231373919899,1506
1940.1849930975404,1514
1942.1381330279637,1447
1944.0907939771696,1528
1946.0429762112412,1428
1947.9946799963363,1377
1949.9459055986945,1516
1951.896653284633,1473
1953.8469233205478,1415
1955.7967159729142,1370
1957.7460315082863,1489
1959.6948701932974,1461
1961.6432322946594,1406
1963.5911180791632,1390
1965.5385278136787,1434
1967.4854617651545,1461
1969.4319202006182,1393
1971.377903387176,1434
1973.3234115920136,1423
1975.268445082395,1442
1977.2130041256642,1453
1979.1570889892423,1393
1981.1006999406304,1445
1983.04383724741,1487
1984.986501177238,1438
1986.928691997853,1414
1988.8704099770712,1401
1990.811655382789,1445
1992.7524284829801,1445
1994.692729545698,1445
1996.6325588390755,1386
1998.5719166313224,1409
2000.5108031907307,1465
2002.4492187856677,1394
2004.387163684583,1389
2006.3246381560011,1384
2008.2616424685298,1387
2010.1981768908527,1377
2012.1342416917332,1435
2014.069837140014,1405
2016.0049635046162,1366
2017.9396210545406,1420
2019.8738100588666,1406
2021.8075307867502,1432
2023.740783507431,1446
2025.6735684902228,1389
2027.6058860045214,1356
2029.5377363198004,1452
2031.4691197056118,1424
2033.4000364315875,1388
2035.3304867674374,1297
2037.260470982952,1413
2039.189989347998,1323
2041.1190421325232,1356
2043.047629606554,1372
2044.9757520401945,1388
2046.9034097036288,1408
2048.8306028671195,1386
2050.7573318010086,1366
2052.683596775716,1361
2054.609398061742,1346
2056.5347359296647,1391
2058.4596106501403,1393
2060.384022493906,1377
2062.3079717317764,1363
2064.231458634646,1376
2066.1544834734873,1363
2068.077046519352,1366
2069.99914804337,1364
2071.9207883167524,1320
2073.8419676107865,1360
2075.7626861968406,1333
2077.6829443463607,1409
2079.6027423308715,1398
2081.522080421977,1352
2083.440958891362,1357
2085.359378010786,1380
2087.2773380520907,1413
2089.194839287196,1371
2091.111881988101,1319
2093.0284664268825,1373
2094.9445928756973,1359
2096.86026160678,1383
2098.775472892446,1419
2100.690227005088,1421
2102.604524217178,1346
2104.5183648012676,1393
2106.431749029985,1335
2108.34467717604,1358
2110.2571495122206,1397
2112.169166311393,1362
2114.080727846503,1459
2115.9918343905747,1410
2117.902486216711,1380
2119.8126835980956,1380
2121.722426807987,1360
2123.6317161197285,1402
2125.5405518067364,1401
2127.448934142509,1351
2129.356863400624,1363
2131.264339854737,1410
2133.1713637785815,1411
2135.077935445972,1457
2136.9840551308002,1396
2138.889723107037,1446
2140.7949396487334,1401
2142.699705030018,1414
2144.6040195250994,1370
2146.507883408264,1388
2148.4112969538774,1330
2150.3142604363848,1349
2152.2167741303097,1471
2154.1188383102535,1443
2156.0204532508997,1389
2157.9216192270064,1420
2159.822336513414,1420
2161.7226053850413,1424
2163.622426116884,1447
2165.5217989840185,1419
2167.4207242616,1408
2169.319202224862,1463
2171.2172331491165,1457
2173.1148173097563,1422
2175.0119549822507,1427
2176.90864644215,1427
2178.8048919650823,1445
2180.7006918267534,1490
2182.596046302952,1435
2184.4909556695407,1477
2186.3854202024645,1464
2188.279440177746,1418
2190.173015871487,1425
2192.066147559868,1416
2193.958835519149,1415
2195.851080025667,1453
2197.7428813558417,1402
2199.6342397861667,1429
2201.5251555932186,1499
2203.415629053651,1448
2205.3056604441986,1448
2207.19525004167,1505
2209.084398122958,1477
2210.9731049650327,1467
2212.861370844941,1504
2214.749196039812,1485
2216.636580826851,1471
2218.523525483344,1510
2220.410030286655,1470
2222.296095514226,1465
2224.1817214435805,1518
2226.066908352319,1462
2227.951656518121,1429
2229.835966218746,1456
2231.71983773203,1502
2233.6032713358913,1454
2235.486267308324,1462
2237.3688259274036,1512
2239.2509474712824,1495
2241.132632218193,1407
2243.013880446447,1461
2244.8946924344323,1528
2246.7750684606203,1473
2248.6550088035574,1497
2250.534513741871,1504
2252.413583554265,1557
2254.292218519526,1489
2256.170418916517,1469
2258.0481850241786,1446
2259.925517121534,1558
2261.8024154876825,1431
2263.678880401803,1484
2265.5549121431536,1466
2267.430510991071,1479
2269.305677224971,1436
2271.180411124348,1497
2273.0547129687766,1495
2274.9285830379076,1486
2276.8020216114737,1355
2278.6750289692845,1474
2280.5476053912294,1439
2282.4197511572766,1510
2284.2914665474727,1484
2286.162751841943,1527
2288.0336073208937,1496
2289.904033264608,1521
2291.774029953448,1450
2293.6435976678554,1498
2295.5127366883517,1530
2297.381447295534,1411
2299.2497297700825,1379
2301.1175843927526,1369
2302.9850114443825,1322
2304.852011205885,1338
2306.7185839582553,1279
2308.5847299825664,1291
2310.4504495599676,1321
2312.3157429716925,1246
2314.1806104990483,1246
2316.0450524234247,1310
2317.9090690262888,1326
2319.772660589186,1345
2321.635827393742,1322
2323.498569721661,1250
2325.3608878547248,1290
2327.2227820747967,1280
2329.0842526638157,1280
2330.945299903803,1231
2332.805924076857,1273
2334.6661254651535,1229
2336.525904350951,1229
2338.3852610165827,1227
2340.244195744464,1268
2342.102708817088,1273
2343.9608005170253,1316
2345.8184711269287,1324
2347.675720929526,1257
2349.532550207628,1302
2351.38895924412,1293
2353.24494832197,1250
2355.100517724223,1345
2356.955667734004,1254
2358.810398634514,1284
2360.664710709037,1328
2362.5186042409337,1301
2364.3720795136437,1308
2366.225136810686,1242
2368.0777764156583,1312
2369.929998612237,1333
2371.7818036841777,1312
2373.633191915315,1362
2375.484163589562,1328
2377.3347189909114,1303
2379.184858403434,1278
2381.03458211128,1319
2382.8838903986775,1329
2384.732783549936,1300
2386.5812618494406,1380
2388.4293255816588,1363
2390.2769750311327,1294
2392.1242104824883,1388
2393.971032220427,1360
2395.8174405297295,1309
2397.6634356952563,1378
2399.509018001947,1315
2401.3541877348193,1290
2403.1989451789705,1308
2405.043290619576,1290
2406.8872243418905,1350
2408.730746631247,1363
2410.5738577730594,1331
2412.4165580528183,1399
2414.258847756095,1351
2416.100727168537,1361
2417.9421965758734,1297
2419.783256263912,1300
2421.623906518538,1299
2423.4641476257157,1335
2425.303979871491,1354
2427.143403541984,1324
2428.9824189233977,1386
2430.821026302012,1398
2432.6592259641866,1289
2434.497018196361,1308
2436.33440328505,1300
2438.171381516851,1330
2440.00795317844,1303
2441.844118556569,1351
2443.6798779380724,1318
2445.5152316098606,1338
2447.3501798589255,1354
2449.1847229723357,1326
2451.0188612372403,1381
2452.8525949408663,1310
2454.6859243705203,1332
2456.518849813587,1320
2458.3513715575314,1360
2460.183489889895,1390
2462.015205098301,1395
2463.8465174704493,1353
2465.67742729412,1369
2467.5079348571717,1390
2469.338040447542,1409
2471.1677443532476,1438
2472.9970468623833,1347
2474.825948263123,1346
2476.6544488437207,1423
2478.482548892508,1376
2480.310248697896,1321
2482.137548548374,1306
2483.9644487325118,1438
2485.790949538956,1384
2487.617051256433,1373
2489.44275417375,1359
2491.26805857979,1383
2493.0929647635157,1348
2494.917473013971,1426
2496.741583620276,1426
2498.5652968716304,1401
2500.3886130573137,1357
2502.2115324666834,1429
2504.0340553891765,1389
2505.856182114308,1390
2507.6779129316733,1395
2509.499248130945,1353
2511.3201880018764,1464
2513.140732834298,1453
2514.9608829181198,1444
2516.780638543331,1449
2518.6,1369
2520.418967578273,1457
2522.237541568376,1451
2524.0557222606144,1497
2525.8735099453706,1437
2527.6909049131086,1428
2529.507907454368,1494
2531.32451785977,1498
2533.140736420014,1532
2534.9565634258774,1511
2536.771999168218,1513
2538.5870439379714,1532
2540.4016980261526,1549
2542.2159617238544,1510
2544.02983532225,1564
2545.8433191125914,1475
2547.656413386209,1577
2549.4691184345115,1581
2551.2814345489874,1618
2553.093362021204,1614
2554.904901142808,1593
2556.716052205523,1619
2558.526815501153,1640
2560.3371913215824,1686
2562.147179958771,1691
2563.956781704761,1677
2565.7659968516705,1704
2567.5748256916986,1683
2569.3832685171224,1766
2571.1913256202984,1754
2572.9989972936614,1732
2574.806283829725,1673
2576.613185521084,1736
2578.4197026604074,1755
2580.2258355404483,1813
2582.031584454035,1794
2583.836949694077,1828
2585.6419315535613,1797
2587.4465303255533,1794
2589.2507463032002,1795
2591.0545797797245,1824
2592.8580310484303,1859
2594.6611004026995,1798
2596.463788135992,1781
2598.266094541849,1781
2600.0680199138874,1740
2601.869564545807,1841
2603.670728731383,1776
2605.4715127644704,1794
2607.2719169390048,1770
2609.071941548998,1762
2610.8715868885433,1795
2612.670853251811,1780
2614.469740933052,1828
2616.268250226594,1789
2618.0663814268455,1756
2619.864134828292,1809
2621.6615107255006,1710
2623.458509413115,1751
2625.2551311858597,1785
2627.0513763385347,1737
2628.8472451660223,1712
2630.6427379632833,1709
2632.4378550253564,1684
2634.232596647359,1728
2636.026963124488,1613
2637.8209547520187,1662
2639.6145718253065,1665
2641.407814639785,1648
2643.200683490966,1621
2644.9931786744414,1685
2646.7853004858807,1588
2648.577049221034,1554
2650.3684251757277,1665
2652.1594286458712,1576
2653.9500599274484,1520
2655.740319316525,1553
2657.5302071092437,1461
2659.3197236018286,1499
2661.10886909058,1501
2662.8976438718782,1487
2664.686048242183,1502
2666.4740824980327,1496
2668.2617469360443,1541
2670.0490418529134,1477
2671.8359675454153,1492
2673.622524310403,1489
2675.408712444811,1445
2677.1945322456495,1434
2678.979984010009,1393
2680.76506803506,1429
2682.5497846180497,1430
2684.334134056306,1372
2686.1181166472343,1388
2687.9017326883213,1410
2689.6849824771293,1354
2691.4678663113013,1326
2693.2503844885596,1375
2695.032537306705,1345
2696.8143250636167,1389
2698.5957480572542,1425
2700.3768065856534,1308
2702.1575009469316,1380
2703.937831439283,1326
2705.717798360982,1320
2707.4974020103837,1319
2709.276642685917,1347
2711.055520686095,1295
2712.834036309506,1295
2714.612189854819,1335
2716.389981620782,1289
2718.1674119062204,1281
2719.944481010041,1302
2721.721189231226,1296
2723.4975368688415,1344
2725.273524222027,1271
2727.0491515900053,1267
2728.824419272075,1313
2730.5993275676146,1357
2732.3738767760838,1257
2734.148067197016,1295
2735.921899130031,1257
2737.6953728748194,1277
2739.468488731156,1257
2741.2412469988926,1244
2743.0136479779617,1295
2744.785691968372,1241
2746.5573792702116,1316
2748.3287101836504,1318
2750.099685008934,1263
2751.870304046388,1296
2753.640567596418,1249
2755.4104759595057,1206
2757.1800294362156,1267
2758.949228327187,1280
2760.7180729331412,1307
2762.486563554877,1205
2764.254700493272,1265
2766.022484049284,1233
2767.789914523947,1242
2769.5569922183786,1310
2771.3237174337705,1289
2773.090090471394,1269
2774.8561116326036,1275
2776.6217812188274,1256
2778.3870995315756,1327
2780.1520668724356,1273
2781.9166835430747,1252
2783.6809498452394,1295
2785.444866080754,1283
2787.2084325515225,1265
2788.971649559527,1257
2790.73451740683,1261
2792.4970363955713,1243
2794.2592068279705,1292
2796.0210290063264,1240
2797.7825032330147,1254
2799.543629810493,1250
2801.304409041296,1205
2803.0648412280366,1236
2804.8249266734088,1234
2806.5846656801846,1260
2808.344058551212,1307
2810.1031055894246,1289
2811.8618070978273,1246
2813.6201633795085,1315
2815.378174737636,1261
2817.1358414754536,1235
2818.893163896285,1245
2820.6501423035334,1249
2822.4067770006814,1271
2824.1630682912883,1248
2825.9190164789957,1253
2827.6746218675207,1246
2829.429884760661,1249
2831.184805462294,1286
2832.9393842763743,1269
2834.693621506936,1273
2836.4475174580916,1220
2838.201072434034,1256
2839.954286739034,1208
2841.707160677441,1255
2843.459694553685,1280
2845.2118886722724,1249
2846.96374333779,1278
2848.7152588549034,1279
2850.4664355283567,1310
2852.217273662973,1296
2853.9677735636546,1222
2855.7179355353833,1222
2857.4677598832186,1286
2859.217246912299,1247
2860.9663969278427,1261
2862.715210235146,1262
2864.4636871395846,1295
2866.211827946614,1256
2867.9596329617652,1226
2869.7071024906536,1241
2871.4542368389684,1206
2873.20103631248,1243
2874.947501217038,1213
2876.6936318585695,1240
2878.4394285430812,1252
2880.1848915766604,1227
2881.9300212654707,1277
2883.6748179157553,1210
2885.4192818338374,1273
2887.1634133261173,1257
2888.907212699077,1222
2890.6506802592744,1314
2892.393816313348,1263
2894.1366211680142,1221
2895.8790951300693,1212
2897.621238506388,1242
2899.363051603925,1209
2901.1045347297118,1261
2902.8456881908596,1233
2904.58651229456,1192
2906.327007348081,1256
2908.067173658772,1225
2909.8070115340597,1252
2911.5465212814497,1223
2913.285703208527,1237
2915.0245576229563,1244
2916.7630848324807,1211
2918.5012851449196,1270
2920.2391588681758,1192
2921.976706310227,1206
2923.7139277791334,1253
2925.4508235830313,1189
2927.187394030137,1209
2928.923639428745,1220
2930.6595600872306,1270
2932.395156314046,1245
2934.1304284177218,1267
2935.8653767068713,1289
2937.6000014901815,1246
2939.3343030764227,1263
2941.068281774442,1258
2942.8019378931644,1253
2944.5352717415976,1224
2946.2682836288236,1216
2948.0009738640065,1217
2949.7333427563885,1272
2951.465390615289,1260
2953.1971177501086,1241
2954.9285244703265,1224
2956.6596110855,1190
2958.3903779052657,1261
2960.1208252393385,1185
2961.8509533975125,1226
2963.5807626896617,1233
2965.3102534257378,1215
2967.0394259157715,1242
2968.768280469873,1209
2970.496817398232,1218
2972.2250370111146,1231
2973.952939618869,1232
2975.6805255319196,1273
2977.4077950607707,1199
2979.134748516006,1237
2980.861386208289,1259
2982.587708448359,1293
2984.313715547037,1306
2986.039407815222,1200
2987.764785563891,1194
2989.489849104102,1242
2991.2145987469908,1211
2992.9390348037705,1233
2994.6631575857346,1209
2996.3869674042576,1191
2998.1104645707887,1160
2999.83364939686,1272
3001.5565221940783,1202
3003.2790832741334,1217
3005.0013329487924,1259
3006.7232715298996,1225
3008.4448993293804,1207
3010.166216659239,1237
3011.887223831558,1195
3013.607921158498,1228
3015.3283089522993,1186
3017.0483875252826,1197
3018.7681571898443,1254
3020.4876182584626,1220
3022.2067710436927,1209
3023.9256158581707,1241
3025.644153014609,1234
3027.362382825801,1225
3029.0803056046193,1258
3030.797921664012,1206
3032.5152313170106,1260
3034.2322348767225,1205
3035.9489326563353,1287
3037.665324969115,1217
3039.3814121284063,1232
3041.097194447633,1225
3042.812672240299,1233
3044.5278458199855,1182
3046.2427155003525,1227
3047.9572815951406,1252
3049.671544418167,1191
3051.38550428333,1233
3053.0991615046073,1282
3054.812516396051,1185
3056.5255692717974,1243
3058.2383204460575,1257
3059.9507702331257,1225
3061.662918947372,1189
3063.3747669032446,1200
3065.0863144152736,1193
3066.7975617980674,1215
3068.508509366309,1242
3070.219157434767,1168
3071.9295063182844,1280
3073.639556331785,1168
3075.3493077902704,1219
3077.058761008821,1238
3078.7679163025964,1265
3080.476773986837,1242
3082.1853343768594,1256
3083.89359778806,1237
3085.6015645359153,1194
3087.3092349359786,1235
3089.016609303884,1249
3090.7236879553434,1166
3092.4304712061476,1220
3094.136959372166,1200
3095.843152769349,1199
3097.5490517137237,1195
3099.2546565213966,1172
3100.959967508554,1242
3102.66498499146,1223
3104.3697092864577,1253
3106.0741407099695,1184
3107.778279578498,1201
3109.482126208622,1182
3111.1856809170004,1228
3112.8889440203716,1205
3114.5919158355528,1218
3116.294596679439,1236
3117.996986869006,1294
3119.6990867213062,1235
3121.4008965534726,1217
3123.102416682717,1229
3124.803647426329,1262
3126.5045891016784,1248
3128.205242026213,1260
3129.90560651746,1227
3131.605682893025,1262
3133.3054714705922,1226
3135.0049725679282,1285
3136.7041865028714,1168
3138.4031135933465,1233
3140.101754157353,1248
3141.800108512971,1218
3143.498176978357,1208
3145.1959598717494,1218
3146.8934575114636,1201
3148.5906702158954,1238
3150.2875983035183,1191
3151.9842420928853,1215
3153.680601902627,1213
3155.376678051456,1158
3157.07247085816,1203
3158.767980641609,1245
3160.463207720748,1180
3162.158152414606,1256
3163.8528150422862,1241
3165.5471959229726,1227
3167.2412953759303,1191
3168.9351137204976,1250
3170.628651276098,1226
3172.3219083622307,1275
3174.014885298474,1258
3175.707582404485,1171
3177.4000000000005,1258
3179.092138404835,1202
3180.7839979388846,1211
3182.47557892212,1269
3184.166881674594,1211
3185.8579065164386,1223
3187.5486537678626,1199
3189.2391237491547,1222
3190.9293167806827,1209
3192.6192331828934,1205
3194.3088732763117,1302
3195.998237381542,1229
3197.687325819268,1183
3199.376138910251,1190
3201.064676975334,1200
3202.7529403354347,1233
3204.4409293115523,1216
3206.1286442247647,1223
3207.816085396229,1172
3209.5032531471825,1189
3211.190147798936,1142
3212.8767696728846,1174
3214.5631190905015,1209
3216.2491963733373,1195
3217.9350018430214,1187
3219.6205358212637,1156
3221.305798629851,1150
3222.990790590651,1194
3224.6755120256103,1167
3226.359963256751,1160
3228.0441446061795,1170
3229.7280563960758,1213
3231.411698948703,1195
3233.0950725863995,1207
3234.778177631587,1184
3236.461014406761,1232
3238.1435832345005,1225
3239.8258844374595,1212
3241.507918338374,1211
3243.1896852600576,1181
3244.8711855254023,1169
3246.552419457381,1187
3248.233387379042,1206
3249.914089613516,1226
3251.59452648401,1218
3253.274698313813,1188
3254.95460542629,1165
3256.6342481448855,1154
3258.313626793125,1162
3259.9927416946084,1176
3261.6715931730196,1146
3263.3501815521176,1164
3265.0285071557437,1160
3266.706570307815,1168
3268.3843713323286,1176
3270.0619105533615,1217
3271.739188295068,1188
3273.4162048816834,1183
3275.0929606375184,1197
3276.769455886966,1206
3278.445690954498,1246
3280.1216661646613,1205
3281.797381842087,1209
3283.4728383114807,1233
3285.1480358976296,1202
3286.8229749253996,1201
3288.4976557197333,1220
3290.172078605655,1180
3291.846243908266,1208
3293.5201519527463,1169
3295.193803064357,1118
3296.8671975684374,1201
3298.5403357904024,1154
3300.21321805575,1185
3301.8858446900567,1203
3303.558216018975,1233
3305.23033236824,1197
3306.9021940636603,1204
3308.57380143113,1184
3310.2451547966184,1175
3311.916254486174,1186
3313.5871008259246,1174
3315.2576941420766,1185
3316.9280347609147,1192
3318.5981230088046,1242
3320.2679592121895,1150
3321.9375436975924,1161
3323.606876791612,1159
3325.27595882093,1185
3326.944790112305,1102
3328.6133709925753,1145
3330.2817017886573,1164
3331.949782827547,1209
3333.617614436319,1176
3335.2851969421245,1250
3336.952530672199,1141
3338.619615953853,1174
3340.286453114475,1164
3341.9530424815357,1154
3343.619384382583,1230
3345.2854791452437,1188
3346.951327097224,1189
3348.6169285663073,1218
3350.2822838803577,1174
3351.947393367319,1157
3353.61225735521,1199
3355.2768761721345,1201
3356.9412501462693,1159
3358.605379605873,1183
3360.2692648792827,1176
3361.9329062949146,1146
3363.596304181263,1156
