CollectionTime,9/20/2024 1:07:58 PM
ExposureUsed,3
CalibratedSpectrum
-962.7078968117929,615
-959.9714848408522,623
-957.2358232597828,672
-954.5009119013725,622
-951.7667505983302,624
-949.0333391832855,668
-946.3006774887896,628
-943.5687653473143,635
-940.837602591253,641
-938.1071890529199,654
-935.3775245645503,625
-932.6486089583007,627
-929.9204420662485,679
-927.1930237203925,688
-924.4663537526524,670
-921.7404319948689,681
-919.0152582788041,665
-916.2908324361409,712
-913.5671542984834,682
-910.8442236973568,630
-908.1220404642074,646
-905.4006044304027,619
-902.679915427231,655
-899.959973285902,600
-897.2407778375464,646
-894.5223289132158,630
-891.8046263438832,660
-889.0876699604426,635
-886.3714595937089,614
-883.6559950744183,587
-880.9412762332282,640
-878.2273029007168,628
-875.5140749073835,631
-872.8015920836489,594
-870.0898542598545,591
-867.3788612662631,633
-864.6686129330585,645
-861.9591090903457,641
-859.2503495681506,596
-856.5423341964203,627
-853.8350628050229,629
-851.1285352237478,639
-848.4227512823054,610
-845.7177108103272,592
-843.0134136373656,630
-840.3098595928943,636
-837.6070485063082,656
-834.9049802069229,654
-832.2036545239757,624
-829.5030712866244,611
-826.8032303239481,635
-824.1041314649472,619
-821.4057745385428,607
-818.7081593735775,623
-816.0112857988148,613
-813.3151536429393,624
-810.6197627345566,653
-807.9251129021936,659
-805.2312039742981,661
-802.5380357792392,699
-799.8456081453069,653
-797.1539209007124,636
-794.462973873588,646
-791.772766891987,631
-789.083299783884,647
-786.3945723771743,626
-783.7065844996748,665
-781.0193359791231,648
-778.3328266431781,650
-775.6470563194197,644
-772.9620248353489,646
-770.2777320183878,633
-767.5941776958798,671
-764.9113616950891,658
-762.2292838432011,624
-759.5479439673222,665
-756.8673418944801,663
-754.1874774516235,685
-751.5083504656222,685
-748.8299607632671,663
-746.15230817127,701
-743.475392516264,691
-740.7992136248035,671
-738.1237713233636,628
-735.4490654383407,653
-732.7750957960521,654
-730.1018622227365,657
-727.4293645445534,667
-724.7576025875837,669
-722.0865761778291,701
-719.4162851412126,683
-716.7467293035781,707
-714.0779084906909,738
-711.409822528237,731
-708.7424712418238,686
-706.0758544569796,675
-703.4099719991541,699
-700.7448236937178,752
-698.0804093659622,715
-695.4167288411002,735
-692.7537819442656,753
-690.0915685005134,728
-687.4300883348199,738
-684.7693412720819,709
-682.1093271371178,746
-679.4500457546669,733
-676.7914969493897,704
-674.1336805458676,700
-671.4765963686034,703
-668.8202442420206,753
-666.1646239904642,756
-663.5097354382001,733
-660.8555784094151,741
-658.2021527282176,712
-655.5494582186366,721
-652.8974947046223,737
-650.2462620100463,761
-647.5957599587009,781
-644.9459883742998,801
-642.2969470804776,799
-639.6486359007902,756
-637.0010546587141,768
-634.3542031776476,825
-631.7080812809096,747
-629.0626887917401,744
-626.4180255333008,749
-623.7740913286734,743
-621.1308860008619,755
-618.4884093727904,773
-615.8466612673046,782
-613.2056415071715,768
-610.5653499150785,773
-607.9257863136347,795
-605.28695052537,825
-602.6488423727357,787
-600.0114616781036,788
-597.3748082637674,813
-594.7388819519412,813
-592.1036825647604,820
-589.4692099242818,803
-586.8354638524829,820
-584.2024441712624,802
-581.5701507024403,804
-578.9385832677575,856
-576.3077416888759,842
-573.6776257873787,858
-571.0482353847704,778
-568.4195703024757,785
-565.7916303618415,754
-563.164415384135,837
-560.5379251905453,752
-557.9121596021815,811
-555.2871184400748,764
-552.6628015251767,812
-550.0392086783606,794
-547.4163397204204,824
-544.794194472071,867
-542.1727727539491,868
-539.5520743866118,871
-536.9320991905377,899
-534.3128469861261,916
-531.6943175936979,912
-529.0765108334947,892
-526.4594265256793,1017
-523.8430644903358,1144
-521.2274245474689,1286
-518.612506517005,1371
-515.9983102187913,1431
-513.3848354725959,1487
-510.77208209810846,1563
-508.16004991493924,1587
-505.5487387426199,1762
-502.9381484006032,1883
-500.3282787082628,1851
-497.71912948489364,1795
-495.1107005497117,1635
-492.5029917218539,1467
-489.8960028203786,1334
-487.28973366426493,1201
-484.68418407241325,1133
-482.07935386364494,1056
-479.47524285670266,1090
-476.87185087025,1001
-474.2691777228715,1008
-471.66722323307334,1030
-469.0659872192821,1075
-466.4654694998459,1037
-463.86566989303384,968
-461.26658821703614,1041
-458.66822428996414,1023
-456.07057792985,1063
-453.4736489546475,1025
-450.877437182231,954
-448.28194243039627,951
-445.68716451686,1003
-443.09310325926003,955
-440.49975847515555,979
-437.9071299820263,994
-435.31521759727354,1009
-432.72402113821954,1005
-430.13354042210767,1013
-427.5437752661022,1059
-424.95472548728867,976
-422.36639090267386,1060
-419.7787713291855,1061
-417.1918665836721,994
-414.60567648290385,1044
-412.0202008435715,1080
-409.4354394822874,1089
-406.8513922155845,1039
-404.26805885991723,1089
-401.685439231661,1079
-399.103533147112,1067
-396.522340422488,1012
-393.9418608739278,1003
-391.3620943174908,999
-388.7830405691583,1008
-386.2046994448317,962
-383.6270707603344,883
-381.05015433141045,924
-378.473949973725,920
-375.8984575028645,832
-373.32367673433623,735
-370.74960748356875,806
-368.1762495659117,738
-365.60360279663576,690
-363.03166699093265,623
-360.4604419639154,592
-357.8899275306178,568
-355.32012350599507,551
-352.7510297049233,523
-350.1826459421999,529
-347.61497203254316,546
-345.04800779059235,538
-342.4817530309082,529
-339.91620756797226,572
-337.35137121618743,556
-334.7872437898774,499
-332.22382510328725,515
-329.66111497058273,523
-327.09911320585127,561
-324.53781962310075,503
-321.9772340362607,492
-319.4173562591816,523
-316.8581861056348,544
-314.2997233893127,557
-311.7419679238294,590
-309.1849195227194,564
-306.62857799943856,615
-304.0729431673641,598
-301.51801483979375,607
-298.963792829947,580
-296.41027695096386,570
-293.85746701590574,584
-291.3053628377552,638
-288.7539642294155,650
-286.2032710037115,648
-283.65328297338897,623
-281.1039999511146,633
-278.5554217494762,691
-276.007548180983,720
-273.4603790580651,683
-270.9139141930734,636
-268.3681533982807,690
-265.8230964858798,712
-263.27874326798565,688
-260.7350935566336,656
-258.1921471637804,729
-255.6499039013039,896
-253.10836358100266,823
-250.56752601459698,728
-248.02739101372765,754
-245.48795838995704,725
-242.94922795476816,804
-240.41119951956557,725
-237.8738728956746,737
-235.33724789434166,718
-232.80132432673452,771
-230.2661020039418,749
-227.73158073697357,832
-225.19776033676033,794
-222.66464061415422,824
-220.1322213799284,879
-217.60050244477725,840
-215.06948361931552,788
-212.53916471408013,833
-210.00954553952818,882
-207.48062590603843,839
-204.9524056239104,789
-202.4248845033651,857
-199.8980623545441,953
-197.37193898751036,1000
-194.84651421224817,964
-192.32178783866232,936
-189.79775967657952,835
-187.27442953574644,923
-184.7517972258321,1012
-182.2298625564256,913
-179.7086253370378,872
-177.18808537710026,927
-174.66824248596583,1167
-172.14909647290835,1097
-169.6306471471229,1145
-167.11289431772548,1050
-164.59583779375328,1127
-162.07947738416453,1252
-159.5638128978386,1387
-157.04884414357605,1164
-154.53457093009854,1269
-152.02099306604828,1094
-149.50811035998936,1104
-146.99592262040665,1348
-144.48442965570587,1390
-141.97363127421409,1450
-139.46352728417958,1317
-136.95411749377126,1366
-134.44540171107985,1262
-131.93737974411636,1317
-129.43005140081357,1384
-126.92341648902493,1630
-124.41747481652521,1796
-121.91222619101006,1925
-119.40767042009657,2184
-116.90380731132257,2834
-114.40063667214702,3577
-111.8981583099503,4148
-109.3963720320337,5196
-106.89527764561933,7035
-104.39487495785067,7850
-101.89516377579241,9349
-99.39614390642998,12789
-96.89781515667039,18699
-94.40017733334128,22451
-91.90323024319173,18887
-89.40697369289148,12542
-86.91140748903172,8475
-84.41653143812482,7033
-81.92234534660395,10191
-79.42884902082358,13096
-76.93604226705907,13446
-74.4439248915071,12386
-71.95249670028534,9751
-69.46175749943245,7122
-66.97170709490854,5785
-64.48234529259423,6442
-61.99367189829195,7671
-59.50568671772464,8917
-57.01838955653636,11889
-54.53178022029283,14558
-52.045858514480074,18326
-49.560624244506016,22616
-47.07607721569923,24465
-44.59221723330904,22358
-42.10904410250669,19965
-39.62655762838392,17767
-37.14475761595372,19303
-34.66364387015028,18282
-32.18321619582866,22485
-29.70347439776515,24402
-27.224418280657005,22247
-24.74604764912317,26033
-22.26836230770266,36021
-19.7913620608565,59327
-17.315046712966478,65036
-14.83941606833514,65036
-12.36446993118659,65036
-9.89020810566592,65036
-7.416630395839093,65036
-4.94373660569363,65036
-2.471526539137585,65036
-6.821210263296962E-13,65036
2.47084320796705,65036
4.941003281093458,65036
7.410480415786196,65036
9.879274808531363,65036
12.347386655893956,65036
14.814816154518212,65036
17.28156350112681,65036
19.74762889252179,65036
22.21301252558385,26268
24.67771459727237,6561
27.141735304626195,5786
29.605074844762612,5568
32.06773341487792,4436
34.52971121224755,3895
36.99100843422559,4537
39.45162527824516,4550
41.91156194181792,4368
44.370818622535126,3724
46.82939551806646,2952
49.287292826160524,4164
51.74451074464503,3960
54.201049471426245,3164
56.65690920448981,3318
59.112090141899785,2625
61.56659248179983,2473
64.02041642241159,2261
66.4735621620365,2613
68.92602989905402,2936
71.37781983192338,2932
73.82893215918205,2455
76.27936707944684,1847
78.72912479141326,2140
81.17820549385567,1953
83.62660938562783,1548
86.07433666566146,1483
88.5213875329681,1594
90.96776218663751,1828
93.41346082583925,1837
95.85848364982041,2202
98.30283085790859,1955
100.7465026495089,1652
103.18949922410604,1534
105.63182078126385,1269
108.07346752062438,1393
110.51443964190923,1478
112.95473734491827,1507
115.39436082953114,1452
117.83331029570547,1416
120.27158594347827,1504
122.7091879729652,1570
125.1461165843615,1523
127.58237197794062,1495
130.01795435405518,1267
132.4528639131364,1223
134.88710085569494,1253
137.32066538231982,1302
139.75355769367923,1255
142.1857779905207,1128
144.61732647366978,948
147.04820334403132,1104
149.47840880258934,1292
151.90794305040674,1328
154.33680628862487,1357
156.76499871846443,1448
159.19252054122433,1556
161.61937195828352,1657
164.04555317109896,1765
166.47106438120693,1864
168.89590579022217,2039
171.320077599839,2237
173.7435800118302,2378
176.16641322804742,2505
178.58857745042144,2449
181.01007288096173,2586
183.43089972175687,2528
185.85105817497413,2521
188.27054844285988,2567
190.6893707277394,2698
193.10752523201643,2685
195.5250121581745,2747
197.9418317087751,2793
200.3579840864594,2879
202.7734694939469,2774
205.18828813403627,2908
207.6024402096051,2893
210.01592592360964,2921
212.42874547908548,2853
214.84089907914665,2853
217.2523869269868,2824
219.66320922587727,2925
222.0733661791695,2975
224.48285799029293,2883
226.8916848627572,2942
229.29984700014882,2985
231.7073446061355,3089
234.11417788446204,3100
236.520347038953,3036
238.92585227351185,3240
241.33069379212054,3343
243.73487179884035,3364
246.1383864978112,3277
248.541238093252,3324
250.9434267894609,3312
253.34495279081432,3442
255.74581630176783,3570
258.1460175268563,3547
260.54555667069314,3530
262.9444339379703,3533
265.3426495334594,3492
267.7402036620107,3427
270.1370965285529,3347
272.53332833809407,3245
274.9288992957214,3006
277.32380960660055,3014
279.718059475976,2878
282.1116491091717,2862
284.5045787115897,2748
286.89684848871195,2739
289.2884586460981,2809
291.67940938938807,2846
294.0697009242996,2925
296.4593334566299,2839
298.84830719225477,2835
301.23662233712923,2705
303.6242790972866,2727
306.01127767884,2679
308.39761828798066,2696
310.78330113097934,2660
313.16832641418534,2521
315.5526943440269,2487
317.9364051270112,2493
320.3194589697242,2523
322.70185607883093,2462
325.0835966610754,2377
327.4646809232805,2328
329.8451090723478,2346
332.2248813152577,2397
334.6039978590701,2359
336.9824589109231,2354
339.36026467803447,2374
341.7374153677,2293
344.113911187295,2327
346.48975234427337,2280
348.8649390461686,2350
351.2394715005918,2308
353.61334991523415,2313
355.9865744978655,2240
358.35914545633375,2237
360.73106299856715,2299
363.10232733257146,2239
365.47293866643247,2239
367.84289720831396,2173
370.2122031664593,2180
372.5808567491905,2214
374.9488581649083,2244
377.31620762209275,2197
379.6829053293021,2170
382.0489514951745,2156
384.4143463284262,2147
386.7790900378528,2114
389.14318283232853,2110
391.50662492080653,2181
393.86941651231916,2168
396.23155781597745,2144
398.5930490409713,2145
400.9538903965696,2117
403.3140820921202,2120
405.6736243370498,2089
408.03251734086336,2050
410.3907613131465,2099
412.74835646356166,2098
415.10530300185144,2071
417.4616011378372,2101
419.81725108141893,2156
422.1722530425758,2106
424.5266072313656,2139
426.880313857925,2076
429.2333731324701,2048
431.58578526529516,1993
433.9375504667738,2041
436.2886689473588,2104
438.63914091758113,2052
440.9889665880513,2015
443.33814616945835,2115
445.68667987257015,2066
448.03456790823395,2073
450.3818104873759,2080
452.72840782100013,1957
455.07436012019105,1948
457.41966759611057,1937
459.7643304600007,2001
462.10834892318155,1969
464.4517231970525,1970
466.79445349309174,1992
469.1365400228566,2067
471.4779829979826,1926
473.81878263018564,2007
476.15893913125876,2114
478.4984527130747,2121
480.8373235875855,2235
483.17555196682144,2144
485.5131380628919,2160
487.8500820879857,2306
490.1863842543697,2417
492.52204477439034,2598
494.8570638604725,2768
497.1914417251204,3018
499.52517858091653,3439
501.85827464052306,3760
504.19073011668036,4035
506.5225452222086,4142
508.85372017000566,4114
511.18425517304956,3938
513.514150444396,4242
515.8434061971808,5257
518.1720226446176,6305
520.4999999999999,6394
522.8273384766991,6083
525.1540382881666,5827
527.480099647932,5198
529.8055227696037,4301
532.1303078668694,3214
534.454455153496,2573
536.777964843328,2265
539.1008371502907,2165
541.4230722883866,2137
543.744670471698,2049
546.0656319143858,2085
548.3859568306899,2048
550.7056454349294,2071
553.0246979415016,1989
555.3431145648834,2025
557.6608955196306,2038
559.978041020377,1961
562.2945512818363,2011
564.6104265188006,2035
566.9256669461412,1932
569.2402727788082,2003
571.5542442318302,1975
573.8675815203156,1966
576.1802848594508,2019
578.4923544645015,2068
580.8037905508126,1992
583.114593333807,2076
585.4247630289875,1998
587.7342998519354,2048
590.0432040183106,2083
592.3514757438526,1985
594.6591152443794,1972
596.9661227357875,2035
599.2724984340531,2019
601.578242555231,2007
603.8833553154542,2041
606.1878369309362,2057
608.4916876179676,2049
610.7949075929192,2058
613.0974970722403,2045
615.3994562724587,2044
617.7007854101818,1944
620.0014847020951,2041
622.3015543649641,2089
624.6009946156324,2075
626.8998056710224,2014
629.1979877481361,2018
631.4955410640538,2043
633.7924658359349,1976
636.0887622810175,2048
638.3844306166192,2134
640.6794710601358,2085
642.9738838290426,2072
645.2676691408932,2125
647.5608272133207,2112
649.853358264037,2065
652.1452625108324,2135
654.4365401715764,2147
656.7271914642178,2048
659.0172166067838,2072
661.3066158173809,2122
663.5953893141935,2106
665.8835373154867,2052
668.1710600396028,2102
670.4579577049639,2142
672.7442305300709,2136
675.0298787335033,2083
677.3149025339197,2085
679.599302150058,2109
681.8830778007342,2083
684.1662297048437,2061
686.4487580813608,1989
688.7306631493387,2075
691.0119451279091,2108
693.2926042362834,2096
695.5726406937516,2085
697.8520547196814,2008
700.1308465335215,2023
702.4090163547982,2004
704.6865644031171,2107
706.9634908981619,2033
709.2397960596965,1990
711.5154801075631,1998
713.7905432616823,2091
716.0649857420548,2109
718.3388077687592,2012
720.612009561953,2010
722.8845913418733,2052
725.1565533288352,2048
727.427895743234,2026
729.6986188055427,2009
731.9687227363137,1994
734.238207756178,2033
736.5070740858458,2020
738.7753219461066,2019
741.0429515578281,2099
743.3099631419569,2092
745.5763569195191,2132
747.8421331116193,2053
750.1072919394409,1997
752.3718336242467,2020
754.6357583873777,2050
756.8990664502545,2046
759.1617580343765,2013
761.423833361321,2055
763.6852926527457,1992
765.9461361303862,2019
768.206364016058,2067
770.4659765316536,2138
772.7249738991469,2064
774.9833563405886,2097
777.2411240781092,2089
779.4982773339183,2049
781.7548163303044,2101
784.010741289634,2075
786.2660524343538,2057
788.5207499869881,2096
790.7748341701416,2101
793.0283052064964,2093
795.2811633188143,2048
797.5334087299362,2125
799.7850416627813,2101
802.0360623403484,2008
804.2864709857143,2151
806.5362678220353,2205
808.7854530725468,2176
811.0340269605625,2060
813.2819897094754,1998
815.5293415427581,2072
817.77608268396,2106
820.0222133567116,2067
822.2677337847211,2133
824.5126441917765,2099
826.7569448017433,2068
829.0006358385675,2065
831.2437175262731,2084
833.4861900889629,2072
835.7280537508192,2168
837.9693087361026,2127
840.2099552691533,2117
842.4499935743896,2144
844.689423876309,2097
846.9282463994886,2020
849.1664613685833,2163
851.4040690083276,2137
853.6410695435349,2037
855.877463199097,2090
858.1132501999847,2075
860.3484307712487,2124
862.5830051380175,2100
864.8169735254988,2184
867.0503361589791,2171
869.2830932638243,2104
871.5152450654786,2120
873.7467917894654,2165
875.9777336613873,2114
878.2080709069252,2135
880.4378037518389,2212
882.666932421968,2255
884.8954571432301,2165
887.1233781416219,2199
889.3506956432192,2087
891.5774098741766,2207
893.803521060728,2189
896.0290294291852,2203
898.2539352059397,2192
900.4782386174619,2202
902.7019398903011,2159
904.925039251085,2191
907.147536926521,2200
909.3694331433943,2187
911.59072812857,2138
913.8114221089921,2296
916.0315153116827,2193
918.2510079637437,2100
920.4699002923547,2186
922.6881925247761,2183
924.905884888345,2239
927.1229776104793,2172
929.3394709186747,2144
931.555365040506,2124
933.7706602036275,2124
935.9853566357709,2148
938.1994545647489,2181
940.4129542184515,2170
942.6258558248488,2188
944.8381596119883,2200
947.0498658079974,2210
949.2609746410825,2209
951.4714863395287,2112
953.6814011316998,2195
955.8907192460387,2215
958.0994409110671,2131
960.3075663553858,2184
962.5150958076741,2184
964.7220294966913,2125
966.928367651274,2099
969.1341105003388,2163
971.3392582728806,2143
973.5438111979742,2098
975.747769504772,2040
977.9511334225061,2126
980.153903180487,2127
982.3560790081052,2074
984.5576611348289,2101
986.7586497902058,1966
988.9590452038618,2051
991.158847605503,1986
993.3580572249133,2011
995.5566742919558,1937
997.7546990365728,1894
999.952131688785,1866
1002.1489724786926,1826
1004.3452216364743,1853
1006.5408793923874,1834
1008.7359459767691,1810
1010.9304216200343,1838
1013.1243065526781,1813
1015.3176010052733,1766
1017.510305208472,1780
1019.7024193930064,1673
1021.8939437896848,1775
1024.0848786293977,1792
1026.2752241431122,1797
1028.4649805618747,1798
1030.6541481168115,1746
1032.842727039127,1759
1035.0307175601051,1758
1037.2181199111074,1739
1039.4049343235752,1745
1041.591161029029,1644
1043.7768002590683,1741
1045.9618522453698,1681
1048.1463172196918,1774
1050.3301954138697,1731
1052.513487059818,1779
1054.69619238953,1683
1056.8783116350783,1667
1059.0598450286152,1682
1061.2407928023704,1661
1063.4211551886528,1709
1065.6009324198508,1713
1067.780124728432,1716
1069.9587323469414,1722
1072.1367555080046,1675
1074.314194444325,1658
1076.4910493886855,1628
1078.667320573947,1626
1080.843008233051,1625
1083.0181125990161,1638
1085.1926339049414,1670
1087.3665723840027,1657
1089.5399282694575,1717
1091.7127017946405,1599
1093.8848931929647,1638
1096.0565026979243,1611
1098.2275305430899,1663
1100.3979769621128,1657
1102.567842188722,1569
1104.737126456726,1668
1106.9058300000124,1538
1109.0739530525475,1613
1111.2414958483764,1610
1113.4084586216231,1589
1115.5748416064907,1619
1117.7406450372605,1642
1119.9058691482942,1615
1122.0705141740304,1579
1124.2345803489884,1617
1126.3980679077658,1540
1128.5609770850388,1649
1130.7233081155623,1627
1132.8850612341707,1607
1135.0462366757774,1618
1137.2068346753745,1544
1139.3668554680326,1556
1141.526299288901,1601
1143.68516637321,1566
1145.8434569562655,1536
1148.001171273455,1597
1150.158309560244,1587
1152.3148720521767,1602
1154.470858984876,1572
1156.626270594044,1591
1158.7811071154629,1557
1160.9353687849912,1551
1163.089055838569,1578
1165.242168512213,1543
1167.3947070420209,1555
1169.5466716641677,1555
1171.6980626149075,1553
1173.8488801305748,1579
1175.9991244475814,1552
1178.1487958024186,1548
1180.2978944316555,1505
1182.4464205719428,1563
1184.5943744600072,1563
1186.7417563326567,1524
1188.8885664267755,1580
1191.0348049793297,1534
1193.1804722273619,1588
1195.325568407995,1619
1197.4700937584303,1531
1199.614048515948,1551
1201.7574329179074,1615
1203.900247201746,1613
1206.042491604982,1548
1208.1841663652099,1565
1210.3252717201053,1539
1212.465807907422,1524
1214.6057751649923,1623
1216.7451737307279,1621
1218.8840038426192,1560
1221.0222657387353,1573
1223.1599596572241,1579
1225.2970858363137,1600
1227.4336445143094,1632
1229.5696359295966,1616
1231.705060320639,1702
1233.8399179259786,1639
1235.9742089842384,1668
1238.107933734118,1603
1240.2410924143974,1590
1242.373685263935,1637
1244.5057125216676,1619
1246.6371744266116,1584
1248.7680712178621,1632
1250.898403134593,1673
1253.028170416058,1629
1255.1573733015875,1626
1257.2860120305932,1647
1259.4140868425648,1642
1261.54159797707,1670
1263.6685456737569,1670
1265.7949301723515,1633
1267.9207517126597,1608
1270.046010534565,1685
1272.1707068780306,1706
1274.2948409830983,1680
1276.4184130898889,1750
1278.541423438603,1644
1280.6638722695184,1737
1282.785759822993,1691
1284.9070863394636,1718
1287.0278520594447,1645
1289.1480572235314,1741
1291.2677020723963,1706
1293.3867868467923,1704
1295.5053117875495,1797
1297.623277135579,1778
1299.740683131868,1717
1301.8575300174857,1780
1303.973818033578,1758
1306.0895474213703,1783
1308.2047184221678,1793
1310.3193312773528,1795
1312.4333862283888,1742
1314.5468835168163,1818
1316.659823384255,1809
1318.7722060724045,1773
1320.8840318230418,1810
1322.9953008780249,1818
1325.1060134792888,1786
1327.2161698688478,1814
1329.3257702887959,1833
1331.4348149813054,1784
1333.5433041886276,1831
1335.6512381530933,1840
1337.7586171171101,1786
1339.8654413231675,1818
1341.9717110138317,1753
1344.0774264317488,1813
1346.1825878196432,1766
1348.2871954203192,1819
1350.3912494766587,1759
1352.4947502316231,1776
1354.5976979282532,1767
1356.7000928096686,1767
1358.8019351190665,1758
1360.9032250997243,1759
1363.0039629949988,1824
1365.1041490483235,1793
1367.2037835032133,1762
1369.3028666032606,1725
1371.401398592137,1814
1373.4993797135926,1874
1375.5968102114575,1742
1377.6936903296396,1780
1379.7900203121262,1750
1381.8858004029835,1721
1383.9810308463561,1784
1386.075711886469,1701
1388.1698437676241,1784
1390.2634267342032,1830
1392.356461030667,1898
1394.4489469015557,1840
1396.5408845914872,1829
1398.6322743451592,1779
1400.7231164073469,1832
1402.813411022907,1827
1404.903158436773,1884
1406.9923588939578,1822
1409.0810126395531,1867
1411.1691199187303,1858
1413.2566809767386,1891
1415.343696058907,1921
1417.4301654106425,1932
1419.5160892774315,1895
1421.6014679048399,1912
1423.6863015385125,1924
1425.7705904241707,1952
1427.8543348076178,2029
1429.9375349347342,1988
1432.0201910514802,2007
1434.102303403894,1971
1436.1838722380944,2041
1438.2648978002767,2060
1440.3453803367174,2145
1442.4253200937692,2131
1444.5047173178677,2133
1446.5835722555234,2112
1448.6618851533285,2209
1450.739656257952,2264
1452.8168858161434,2195
1454.8935740747306,2333
1456.96972128062,2329
1459.045327680797,2341
1461.120393522327,2401
1463.1949190523528,2469
1465.2689045180973,2417
1467.3423501668608,2497
1469.415256246024,2419
1471.4876230030463,2642
1473.559450685465,2450
1475.6307395408976,2617
1477.7014898170391,2692
1479.771701761665,2714
1481.8413756226287,2772
1483.9105116478618,2742
1485.9791100853772,2847
1488.0471711832643,2813
1490.1146951896926,2868
1492.1816823529098,2870
1494.2481329212433,2925
1496.3140471430984,3012
1498.3794252669609,2980
1500.4442675413939,3001
1502.5085742150404,2944
1504.572345536622,3115
1506.6355817549388,3103
1508.6982831188702,3046
1510.7604498773744,3098
1512.8220822794883,3007
1514.8831805743293,3178
1516.9437450110909,3052
1519.003775839048,3169
1521.0632733075522,3146
1523.1222376660367,3111
1525.1806691640113,3103
1527.2385680510652,3221
1529.2959345768668,3154
1531.3527689911643,3287
1533.4090715437833,3339
1535.4648424846291,3343
1537.5200820636855,3366
1539.5747905310159,3435
1541.6289681367616,3393
1543.6826151311434,3564
1545.7357317644614,3471
1547.7883182870937,3592
1549.8403749494987,3640
1551.8919020022113,3674
1553.9428996958477,3737
1555.9933682811015,3808
1558.0433080087469,3944
1560.0927191296346,3951
1562.1416018946961,3960
1564.1899565549415,4015
1566.2377833614592,4034
1568.2850825654164,4011
1570.3318544180606,3918
1572.3780991707158,3805
1574.423817074788,3716
1576.4690083817595,3587
1578.5136733431923,3522
1580.5578122107272,3373
1582.601425236085,3202
1584.6445126710646,3106
1586.6870747675434,3002
1588.7291117774776,2763
1590.7706239529034,2727
1592.8116115459347,2659
1594.8520748087658,2565
1596.8920139936686,2511
1598.9314293529933,2423
1600.9703211391711,2262
1603.008689604711,2227
1605.0465350022005,2215
1607.0838575843068,2150
1609.1206576037753,2088
1611.1569353134305,2013
1613.1926909661765,2074
1615.2279248149953,1964
1617.2626371129481,1993
1619.2968281131757,1928
1621.3304980688963,1873
1623.3636472334088,1850
1625.39627586009,1853
1627.428384202396,1787
1629.459972513861,1816
1631.4910410480993,1798
1633.5215900588028,1775
1635.551619799744,1793
1637.5811305247717,1729
1639.6101224878166,1765
1641.6385959428862,1749
1643.6665511440683,1677
1645.693988345528,1697
1647.7209078015112,1681
1649.7473097663405,1686
1651.7731944944203,1666
1653.7985622402307,1679
1655.823413258333,1644
1657.847747803366,1708
1659.8715661300494,1662
1661.8948684931793,1674
1663.9176551476316,1658
1665.9399263483624,1638
1667.9616823504057,1769
1669.982923408873,1712
1672.0036497789574,1708
1674.0238617159293,1663
1676.043559475138,1602
1678.0627433120121,1714
1680.081413482059,1632
1682.0995702408654,1627
1684.117213844096,1701
1686.134344547495,1646
1688.1509626068864,1656
1690.1670682781705,1631
1692.182661817329,1672
1694.1977434804217,1635
1696.2123135235875,1640
1698.226372203043,1651
1700.2399197750851,1660
1702.2529564960905,1679
1704.2654826225112,1726
1706.277498410882,1645
1708.2890041178139,1699
1710.2999999999988,1641
1712.3104863142066,1634
1714.3204633172854,1631
1716.329931266163,1587
1718.3388904178469,1694
1720.3473410294214,1652
1722.3552833580516,1555
1724.3627176609807,1602
1726.3696441955308,1631
1728.3760632191033,1543
1730.3819749891782,1618
1732.3873797633146,1647
1734.3922777991502,1549
1736.3966693544012,1595
1738.4005546868639,1641
1740.4039340544127,1535
1742.406807715001,1575
1744.4091759266616,1508
1746.4110389475054,1621
1748.4123970357223,1531
1750.413250449582,1530
1752.4135994474318,1583
1754.4134442876993,1490
1756.4127852288902,1529
1758.4116225295893,1530
1760.4099564484595,1579
1762.407787244244,1513
1764.405115175764,1510
1766.4019405019203,1528
1768.3982634816916,1472
1770.3940843741357,1548
1772.3894034383907,1580
1774.3842209336717,1561
1776.378537119274,1481
1778.372352254571,1464
1780.3656665990156,1528
1782.3584804121397,1535
1784.3507939535534,1479
1786.3426074829463,1455
1788.3339212600863,1480
1790.3247355448211,1502
1792.3150505970766,1479
1794.3048666768573,1469
1796.2941840442477,1513
1798.2830029594106,1507
1800.2713236825884,1544
1802.2591464741004,1459
1804.2464715943465,1501
1806.2332993038058,1509
1808.2196298630352,1480
1810.2054635326708,1491
1812.190800573428,1506
1814.175641246101,1547
1816.1599858115628,1419
1818.1438345307652,1483
1820.127187664738,1511
1822.1100454745924,1490
1824.092408221516,1478
1826.0742761667766,1487
1828.055649571721,1487
1830.0365286977735,1463
1832.0169138064398,1505
1833.9968051593014,1532
1835.9762030180214,1493
1837.9551076443408,1433
1839.9335193000788,1484
1841.9114382471344,1471
1843.888864747485,1461
1845.8657990631878,1458
1847.842241456378,1463
1849.8181921892697,1419
1851.7936515241558,1506
1853.7686197234098,1519
1855.7430970494815,1438
1857.7170837649014,1464
1859.6905801322787,1482
1861.6635864143004,1467
1863.6361028737338,1451
1865.608129773424,1463
1867.5796673762961,1492
1869.5507159453537,1526
1871.521275743678,1416
1873.4913470344313,1462
1875.4609300808534,1476
1877.4300251462632,1512
1879.3986324940588,1495
1881.366752387717,1503
1883.3343850907936,1502
1885.3015308669228,1538
1887.268189979819,1596
1889.2343626932739,1502
1891.2000492711595,1480
1893.1652499774254,1557
1895.1299650761011,1510
1897.0941948312952,1508
1899.0579395071945,1492
1901.0211993680641,1569
1902.98397467825,1552
1904.9462657021745,1494
1906.9080727043415,1539
1908.869395949332,1544
1910.8302357018065,1481
1912.790592226504,1478
1914.7504657882428,1495
1916.7098566519212,1472
1918.6687650825133,1447
1920.6271913450764,1509
1922.5851357047422,1468
1924.5425984267245,1532
1926.499579776314,1498
1928.4560800188833,1497
1930.4120994198802,1512
1932.367638244833,1486
1934.32269675935,1475
1936.2772752291175,1439
1938.231373919899,1424
1940.1849930975404,1521
1942.1381330279637,1465
1944.0907939771696,1505
1946.0429762112412,1460
1947.9946799963363,1428
1949.9459055986945,1482
1951.896653284633,1501
1953.8469233205478,1474
1955.7967159729142,1503
1957.7460315082863,1471
1959.6948701932974,1442
1961.6432322946594,1425
1963.5911180791632,1451
1965.5385278136787,1417
1967.4854617651545,1442
1969.4319202006182,1464
1971.377903387176,1447
1973.3234115920136,1428
1975.268445082395,1437
1977.2130041256642,1422
1979.1570889892423,1416
1981.1006999406304,1444
1983.04383724741,1360
1984.986501177238,1451
1986.928691997853,1486
1988.8704099770712,1437
1990.811655382789,1408
1992.7524284829801,1444
1994.692729545698,1420
1996.6325588390755,1395
1998.5719166313224,1370
2000.5108031907307,1380
2002.4492187856677,1376
2004.387163684583,1414
2006.3246381560011,1427
2008.2616424685298,1343
2010.1981768908527,1413
2012.1342416917332,1422
2014.069837140014,1425
2016.0049635046162,1398
2017.9396210545406,1399
2019.8738100588666,1413
2021.8075307867502,1386
2023.740783507431,1414
2025.6735684902228,1357
2027.6058860045214,1342
2029.5377363198004,1389
2031.4691197056118,1417
2033.4000364315875,1423
2035.3304867674374,1388
2037.260470982952,1389
2039.189989347998,1318
2041.1190421325232,1371
2043.047629606554,1339
2044.9757520401945,1376
2046.9034097036288,1381
2048.8306028671195,1372
2050.7573318010086,1413
2052.683596775716,1393
2054.609398061742,1378
2056.5347359296647,1354
2058.4596106501403,1379
2060.384022493906,1415
2062.3079717317764,1355
2064.231458634646,1361
2066.1544834734873,1403
2068.077046519352,1364
2069.99914804337,1355
2071.9207883167524,1365
2073.8419676107865,1391
2075.7626861968406,1354
2077.6829443463607,1304
2079.6027423308715,1357
2081.522080421977,1475
2083.440958891362,1376
2085.359378010786,1340
2087.2773380520907,1443
2089.194839287196,1436
2091.111881988101,1398
2093.0284664268825,1397
2094.9445928756973,1377
2096.86026160678,1395
2098.775472892446,1364
2100.690227005088,1380
2102.604524217178,1419
2104.5183648012676,1376
2106.431749029985,1419
2108.34467717604,1336
2110.2571495122206,1361
2112.169166311393,1351
2114.080727846503,1374
2115.9918343905747,1422
2117.902486216711,1402
2119.8126835980956,1432
2121.722426807987,1400
2123.6317161197285,1424
2125.5405518067364,1443
2127.448934142509,1406
2129.356863400624,1412
2131.264339854737,1466
2133.1713637785815,1444
2135.077935445972,1440
2136.9840551308002,1406
2138.889723107037,1462
2140.7949396487334,1397
2142.699705030018,1487
2144.6040195250994,1396
2146.507883408264,1446
2148.4112969538774,1426
2150.3142604363848,1438
2152.2167741303097,1406
2154.1188383102535,1412
2156.0204532508997,1453
2157.9216192270064,1438
2159.822336513414,1488
2161.7226053850413,1439
2163.622426116884,1530
2165.5217989840185,1479
2167.4207242616,1478
2169.319202224862,1423
2171.2172331491165,1424
2173.1148173097563,1440
2175.0119549822507,1416
2176.90864644215,1451
2178.8048919650823,1444
2180.7006918267534,1481
2182.596046302952,1395
2184.4909556695407,1447
2186.3854202024645,1449
2188.279440177746,1520
2190.173015871487,1471
2192.066147559868,1479
2193.958835519149,1455
2195.851080025667,1580
2197.7428813558417,1505
2199.6342397861667,1509
2201.5251555932186,1505
2203.415629053651,1457
2205.3056604441986,1541
2207.19525004167,1438
2209.084398122958,1516
2210.9731049650327,1521
2212.861370844941,1494
2214.749196039812,1518
2216.636580826851,1529
2218.523525483344,1574
2220.410030286655,1544
2222.296095514226,1488
2224.1817214435805,1504
2226.066908352319,1474
2227.951656518121,1501
2229.835966218746,1502
2231.71983773203,1508
2233.6032713358913,1534
2235.486267308324,1423
2237.3688259274036,1469
2239.2509474712824,1518
2241.132632218193,1437
2243.013880446447,1531
2244.8946924344323,1499
2246.7750684606203,1474
2248.6550088035574,1481
2250.534513741871,1591
2252.413583554265,1569
2254.292218519526,1533
2256.170418916517,1497
2258.0481850241786,1471
2259.925517121534,1495
2261.8024154876825,1454
2263.678880401803,1512
2265.5549121431536,1459
2267.430510991071,1560
2269.305677224971,1517
2271.180411124348,1451
2273.0547129687766,1459
2274.9285830379076,1488
2276.8020216114737,1468
2278.6750289692845,1464
2280.5476053912294,1482
2282.4197511572766,1532
2284.2914665474727,1528
2286.162751841943,1560
2288.0336073208937,1554
2289.904033264608,1557
2291.774029953448,1552
2293.6435976678554,1499
2295.5127366883517,1437
2297.381447295534,1418
2299.2497297700825,1412
2301.1175843927526,1370
2302.9850114443825,1372
2304.852011205885,1362
2306.7185839582553,1353
2308.5847299825664,1290
2310.4504495599676,1313
2312.3157429716925,1272
2314.1806104990483,1303
2316.0450524234247,1278
2317.9090690262888,1332
2319.772660589186,1248
2321.635827393742,1296
2323.498569721661,1275
2325.3608878547248,1252
2327.2227820747967,1286
2329.0842526638157,1324
2330.945299903803,1288
2332.805924076857,1293
2334.6661254651535,1316
2336.525904350951,1280
2338.3852610165827,1269
2340.244195744464,1305
2342.102708817088,1279
2343.9608005170253,1381
2345.8184711269287,1325
2347.675720929526,1335
2349.532550207628,1310
2351.38895924412,1299
2353.24494832197,1303
2355.100517724223,1280
2356.955667734004,1346
2358.810398634514,1310
2360.664710709037,1286
2362.5186042409337,1317
2364.3720795136437,1307
2366.225136810686,1317
2368.0777764156583,1311
2369.929998612237,1314
2371.7818036841777,1331
2373.633191915315,1328
2375.484163589562,1311
2377.3347189909114,1347
2379.184858403434,1340
2381.03458211128,1381
2382.8838903986775,1338
2384.732783549936,1321
2386.5812618494406,1307
2388.4293255816588,1317
2390.2769750311327,1393
2392.1242104824883,1325
2393.971032220427,1398
2395.8174405297295,1302
2397.6634356952563,1360
2399.509018001947,1334
2401.3541877348193,1337
2403.1989451789705,1320
2405.043290619576,1356
2406.8872243418905,1410
2408.730746631247,1340
2410.5738577730594,1342
2412.4165580528183,1326
2414.258847756095,1343
2416.100727168537,1337
2417.9421965758734,1340
2419.783256263912,1330
2421.623906518538,1315
2423.4641476257157,1326
2425.303979871491,1320
2427.143403541984,1364
2428.9824189233977,1352
2430.821026302012,1412
2432.6592259641866,1369
2434.497018196361,1308
2436.33440328505,1358
2438.171381516851,1388
2440.00795317844,1365
2441.844118556569,1383
2443.6798779380724,1393
2445.5152316098606,1293
2447.3501798589255,1319
2449.1847229723357,1387
2451.0188612372403,1387
2452.8525949408663,1381
2454.6859243705203,1384
2456.518849813587,1387
2458.3513715575314,1349
2460.183489889895,1382
2462.015205098301,1366
2463.8465174704493,1382
2465.67742729412,1347
2467.5079348571717,1365
2469.338040447542,1403
2471.1677443532476,1389
2472.9970468623833,1367
2474.825948263123,1381
2476.6544488437207,1328
2478.482548892508,1397
2480.310248697896,1409
2482.137548548374,1354
2483.9644487325118,1372
2485.790949538956,1408
2487.617051256433,1416
2489.44275417375,1410
2491.26805857979,1423
2493.0929647635157,1422
2494.917473013971,1369
2496.741583620276,1362
2498.5652968716304,1347
2500.3886130573137,1421
2502.2115324666834,1385
2504.0340553891765,1416
2505.856182114308,1480
2507.6779129316733,1393
2509.499248130945,1378
2511.3201880018764,1453
2513.140732834298,1395
2514.9608829181198,1411
2516.780638543331,1408
2518.6,1417
2520.418967578273,1474
2522.237541568376,1398
2524.0557222606144,1410
2525.8735099453706,1459
2527.6909049131086,1489
2529.507907454368,1474
2531.32451785977,1440
2533.140736420014,1499
2534.9565634258774,1539
2536.771999168218,1499
2538.5870439379714,1466
2540.4016980261526,1514
2542.2159617238544,1523
2544.02983532225,1564
2545.8433191125914,1591
2547.656413386209,1588
2549.4691184345115,1542
2551.2814345489874,1619
2553.093362021204,1606
2554.904901142808,1635
2556.716052205523,1588
2558.526815501153,1643
2560.3371913215824,1669
2562.147179958771,1636
2563.956781704761,1633
2565.7659968516705,1616
2567.5748256916986,1694
2569.3832685171224,1675
2571.1913256202984,1689
2572.9989972936614,1733
2574.806283829725,1729
2576.613185521084,1745
2578.4197026604074,1699
2580.2258355404483,1734
2582.031584454035,1691
2583.836949694077,1770
2585.6419315535613,1720
2587.4465303255533,1789
2589.2507463032002,1771
2591.0545797797245,1788
2592.8580310484303,1831
2594.6611004026995,1731
2596.463788135992,1747
2598.266094541849,1687
2600.0680199138874,1711
2601.869564545807,1748
2603.670728731383,1781
2605.4715127644704,1776
2607.2719169390048,1759
2609.071941548998,1750
2610.8715868885433,1836
2612.670853251811,1743
2614.469740933052,1768
2616.268250226594,1775
2618.0663814268455,1751
2619.864134828292,1816
2621.6615107255006,1701
2623.458509413115,1740
2625.2551311858597,1714
2627.0513763385347,1741
2628.8472451660223,1695
2630.6427379632833,1749
2632.4378550253564,1660
2634.232596647359,1685
2636.026963124488,1655
2637.8209547520187,1587
2639.6145718253065,1666
2641.407814639785,1641
2643.200683490966,1568
2644.9931786744414,1629
2646.7853004858807,1558
2648.577049221034,1600
2650.3684251757277,1629
2652.1594286458712,1533
2653.9500599274484,1521
2655.740319316525,1516
2657.5302071092437,1535
2659.3197236018286,1547
2661.10886909058,1454
2662.8976438718782,1579
2664.686048242183,1504
2666.4740824980327,1441
2668.2617469360443,1456
2670.0490418529134,1448
2671.8359675454153,1437
2673.622524310403,1366
2675.408712444811,1492
2677.1945322456495,1434
2678.979984010009,1392
2680.76506803506,1369
2682.5497846180497,1397
2684.334134056306,1449
2686.1181166472343,1376
2687.9017326883213,1398
2689.6849824771293,1395
2691.4678663113013,1421
2693.2503844885596,1360
2695.032537306705,1333
2696.8143250636167,1323
2698.5957480572542,1365
2700.3768065856534,1343
2702.1575009469316,1378
2703.937831439283,1353
2705.717798360982,1342
2707.4974020103837,1346
2709.276642685917,1359
2711.055520686095,1345
2712.834036309506,1367
2714.612189854819,1324
2716.389981620782,1328
2718.1674119062204,1305
2719.944481010041,1328
2721.721189231226,1347
2723.4975368688415,1343
2725.273524222027,1294
2727.0491515900053,1315
2728.824419272075,1284
2730.5993275676146,1351
2732.3738767760838,1269
2734.148067197016,1249
2735.921899130031,1263
2737.6953728748194,1287
2739.468488731156,1284
2741.2412469988926,1300
2743.0136479779617,1297
2744.785691968372,1288
2746.5573792702116,1294
2748.3287101836504,1287
2750.099685008934,1304
2751.870304046388,1282
2753.640567596418,1298
2755.4104759595057,1264
2757.1800294362156,1281
2758.949228327187,1338
2760.7180729331412,1289
2762.486563554877,1287
2764.254700493272,1281
2766.022484049284,1291
2767.789914523947,1361
2769.5569922183786,1328
2771.3237174337705,1275
2773.090090471394,1268
2774.8561116326036,1261
2776.6217812188274,1248
2778.3870995315756,1257
2780.1520668724356,1235
2781.9166835430747,1249
2783.6809498452394,1301
2785.444866080754,1257
2787.2084325515225,1240
2788.971649559527,1275
2790.73451740683,1271
2792.4970363955713,1283
2794.2592068279705,1335
2796.0210290063264,1332
2797.7825032330147,1258
2799.543629810493,1273
2801.304409041296,1275
2803.0648412280366,1308
2804.8249266734088,1289
2806.5846656801846,1232
2808.344058551212,1244
2810.1031055894246,1293
2811.8618070978273,1312
2813.6201633795085,1283
2815.378174737636,1300
2817.1358414754536,1275
2818.893163896285,1229
2820.6501423035334,1261
2822.4067770006814,1257
2824.1630682912883,1318
2825.9190164789957,1287
2827.6746218675207,1246
2829.429884760661,1288
2831.184805462294,1264
2832.9393842763743,1326
2834.693621506936,1259
2836.4475174580916,1272
2838.201072434034,1276
2839.954286739034,1280
2841.707160677441,1313
2843.459694553685,1304
2845.2118886722724,1277
2846.96374333779,1320
2848.7152588549034,1270
2850.4664355283567,1305
2852.217273662973,1221
2853.9677735636546,1260
2855.7179355353833,1262
2857.4677598832186,1294
2859.217246912299,1351
2860.9663969278427,1278
2862.715210235146,1249
2864.4636871395846,1274
2866.211827946614,1273
2867.9596329617652,1245
2869.7071024906536,1310
2871.4542368389684,1286
2873.20103631248,1233
2874.947501217038,1266
2876.6936318585695,1219
2878.4394285430812,1257
2880.1848915766604,1268
2881.9300212654707,1256
2883.6748179157553,1293
2885.4192818338374,1255
2887.1634133261173,1242
2888.907212699077,1254
2890.6506802592744,1260
2892.393816313348,1254
2894.1366211680142,1241
2895.8790951300693,1255
2897.621238506388,1227
2899.363051603925,1258
2901.1045347297118,1283
2902.8456881908596,1233
2904.58651229456,1290
2906.327007348081,1245
2908.067173658772,1263
2909.8070115340597,1257
2911.5465212814497,1235
2913.285703208527,1263
2915.0245576229563,1242
2916.7630848324807,1227
2918.5012851449196,1261
2920.2391588681758,1276
2921.976706310227,1233
2923.7139277791334,1274
2925.4508235830313,1272
2927.187394030137,1194
2928.923639428745,1238
2930.6595600872306,1277
2932.395156314046,1267
2934.1304284177218,1247
2935.8653767068713,1272
2937.6000014901815,1274
2939.3343030764227,1297
2941.068281774442,1245
2942.8019378931644,1305
2944.5352717415976,1263
2946.2682836288236,1271
2948.0009738640065,1263
2949.7333427563885,1246
2951.465390615289,1269
2953.1971177501086,1251
2954.9285244703265,1227
2956.6596110855,1241
2958.3903779052657,1238
2960.1208252393385,1257
2961.8509533975125,1242
2963.5807626896617,1251
2965.3102534257378,1240
2967.0394259157715,1285
2968.768280469873,1232
2970.496817398232,1274
2972.2250370111146,1285
2973.952939618869,1297
2975.6805255319196,1292
2977.4077950607707,1262
2979.134748516006,1268
2980.861386208289,1281
2982.587708448359,1251
2984.313715547037,1284
2986.039407815222,1246
2987.764785563891,1273
2989.489849104102,1315
2991.2145987469908,1308
2992.9390348037705,1214
2994.6631575857346,1256
2996.3869674042576,1270
2998.1104645707887,1280
2999.83364939686,1285
3001.5565221940783,1285
3003.2790832741334,1209
3005.0013329487924,1263
3006.7232715298996,1258
3008.4448993293804,1221
3010.166216659239,1308
3011.887223831558,1242
3013.607921158498,1261
3015.3283089522993,1300
3017.0483875252826,1198
3018.7681571898443,1253
3020.4876182584626,1249
3022.2067710436927,1250
3023.9256158581707,1261
3025.644153014609,1208
3027.362382825801,1276
3029.0803056046193,1279
3030.797921664012,1230
3032.5152313170106,1256
3034.2322348767225,1242
3035.9489326563353,1217
3037.665324969115,1242
3039.3814121284063,1250
3041.097194447633,1236
3042.812672240299,1241
3044.5278458199855,1199
3046.2427155003525,1237
3047.9572815951406,1241
3049.671544418167,1263
3051.38550428333,1232
3053.0991615046073,1276
3054.812516396051,1237
3056.5255692717974,1214
3058.2383204460575,1218
3059.9507702331257,1244
3061.662918947372,1262
3063.3747669032446,1288
3065.0863144152736,1217
3066.7975617980674,1205
3068.508509366309,1255
3070.219157434767,1176
3071.9295063182844,1257
3073.639556331785,1221
3075.3493077902704,1226
3077.058761008821,1228
3078.7679163025964,1257
3080.476773986837,1213
3082.1853343768594,1244
3083.89359778806,1264
3085.6015645359153,1204
3087.3092349359786,1253
3089.016609303884,1286
3090.7236879553434,1267
3092.4304712061476,1275
3094.136959372166,1216
3095.843152769349,1311
3097.5490517137237,1288
3099.2546565213966,1218
3100.959967508554,1206
3102.66498499146,1277
3104.3697092864577,1229
3106.0741407099695,1289
3107.778279578498,1249
3109.482126208622,1217
3111.1856809170004,1289
3112.8889440203716,1282
3114.5919158355528,1262
3116.294596679439,1255
3117.996986869006,1306
3119.6990867213062,1228
3121.4008965534726,1228
3123.102416682717,1262
3124.803647426329,1246
3126.5045891016784,1281
3128.205242026213,1268
3129.90560651746,1245
3131.605682893025,1270
3133.3054714705922,1262
3135.0049725679282,1290
3136.7041865028714,1304
3138.4031135933465,1204
3140.101754157353,1265
3141.800108512971,1245
3143.498176978357,1278
3145.1959598717494,1265
3146.8934575114636,1244
3148.5906702158954,1250
3150.2875983035183,1244
3151.9842420928853,1244
3153.680601902627,1241
3155.376678051456,1224
3157.07247085816,1228
3158.767980641609,1224
3160.463207720748,1229
3162.158152414606,1162
3163.8528150422862,1225
3165.5471959229726,1279
3167.2412953759303,1273
3168.9351137204976,1272
3170.628651276098,1280
3172.3219083622307,1232
3174.014885298474,1247
3175.707582404485,1255
3177.4000000000005,1301
3179.092138404835,1241
3180.7839979388846,1241
3182.47557892212,1231
3184.166881674594,1258
3185.8579065164386,1288
3187.5486537678626,1281
3189.2391237491547,1248
3190.9293167806827,1264
3192.6192331828934,1179
3194.3088732763117,1196
3195.998237381542,1228
3197.687325819268,1239
3199.376138910251,1184
3201.064676975334,1216
3202.7529403354347,1244
3204.4409293115523,1200
3206.1286442247647,1195
3207.816085396229,1227
3209.5032531471825,1190
3211.190147798936,1219
3212.8767696728846,1197
3214.5631190905015,1165
3216.2491963733373,1181
3217.9350018430214,1189
3219.6205358212637,1200
3221.305798629851,1169
3222.990790590651,1264
3224.6755120256103,1234
3226.359963256751,1238
3228.0441446061795,1240
3229.7280563960758,1210
3231.411698948703,1208
3233.0950725863995,1230
3234.778177631587,1255
3236.461014406761,1251
3238.1435832345005,1247
3239.8258844374595,1248
3241.507918338374,1204
3243.1896852600576,1232
3244.8711855254023,1240
3246.552419457381,1215
3248.233387379042,1214
3249.914089613516,1214
3251.59452648401,1235
3253.274698313813,1213
3254.95460542629,1162
3256.6342481448855,1223
3258.313626793125,1183
3259.9927416946084,1188
3261.6715931730196,1188
3263.3501815521176,1191
3265.0285071557437,1180
3266.706570307815,1155
3268.3843713323286,1236
3270.0619105533615,1178
3271.739188295068,1205
3273.4162048816834,1209
3275.0929606375184,1225
3276.769455886966,1215
3278.445690954498,1232
3280.1216661646613,1249
3281.797381842087,1245
3283.4728383114807,1255
3285.1480358976296,1172
3286.8229749253996,1228
3288.4976557197333,1204
3290.172078605655,1204
3291.846243908266,1193
3293.5201519527463,1183
3295.193803064357,1264
3296.8671975684374,1186
3298.5403357904024,1171
3300.21321805575,1232
3301.8858446900567,1225
3303.558216018975,1186
3305.23033236824,1241
3306.9021940636603,1185
3308.57380143113,1184
3310.2451547966184,1194
3311.916254486174,1219
3313.5871008259246,1215
3315.2576941420766,1276
3316.9280347609147,1227
3318.5981230088046,1205
3320.2679592121895,1203
3321.9375436975924,1148
3323.606876791612,1234
3325.27595882093,1144
3326.944790112305,1175
3328.6133709925753,1249
3330.2817017886573,1193
3331.949782827547,1214
3333.617614436319,1202
3335.2851969421245,1197
3336.952530672199,1209
3338.619615953853,1201
3340.286453114475,1205
3341.9530424815357,1224
3343.619384382583,1227
3345.2854791452437,1230
3346.951327097224,1202
3348.6169285663073,1243
3350.2822838803577,1214
3351.947393367319,1170
3353.61225735521,1218
3355.2768761721345,1265
3356.9412501462693,1228
3358.605379605873,1193
3360.2692648792827,1177
3361.9329062949146,1213
3363.596304181263,1227
