CollectionTime,9/20/2024 1:07:28 PM
ExposureUsed,3
CalibratedSpectrum
-962.7078968117929,539
-959.9714848408522,610
-957.2358232597828,597
-954.5009119013725,616
-951.7667505983302,608
-949.0333391832855,632
-946.3006774887896,628
-943.5687653473143,624
-940.837602591253,639
-938.1071890529199,599
-935.3775245645503,636
-932.6486089583007,625
-929.9204420662485,636
-927.1930237203925,661
-924.4663537526524,649
-921.7404319948689,702
-919.0152582788041,649
-916.2908324361409,659
-913.5671542984834,626
-910.8442236973568,613
-908.1220404642074,649
-905.4006044304027,602
-902.679915427231,621
-899.959973285902,622
-897.2407778375464,607
-894.5223289132158,602
-891.8046263438832,606
-889.0876699604426,607
-886.3714595937089,578
-883.6559950744183,636
-880.9412762332282,642
-878.2273029007168,588
-875.5140749073835,544
-872.8015920836489,585
-870.0898542598545,574
-867.3788612662631,582
-864.6686129330585,617
-861.9591090903457,614
-859.2503495681506,612
-856.5423341964203,588
-853.8350628050229,600
-851.1285352237478,564
-848.4227512823054,594
-845.7177108103272,569
-843.0134136373656,570
-840.3098595928943,605
-837.6070485063082,603
-834.9049802069229,624
-832.2036545239757,616
-829.5030712866244,629
-826.8032303239481,608
-824.1041314649472,606
-821.4057745385428,599
-818.7081593735775,646
-816.0112857988148,586
-813.3151536429393,598
-810.6197627345566,592
-807.9251129021936,621
-805.2312039742981,614
-802.5380357792392,663
-799.8456081453069,589
-797.1539209007124,633
-794.462973873588,612
-791.772766891987,646
-789.083299783884,648
-786.3945723771743,638
-783.7065844996748,603
-781.0193359791231,596
-778.3328266431781,616
-775.6470563194197,630
-772.9620248353489,653
-770.2777320183878,617
-767.5941776958798,608
-764.9113616950891,617
-762.2292838432011,604
-759.5479439673222,604
-756.8673418944801,632
-754.1874774516235,652
-751.5083504656222,665
-748.8299607632671,674
-746.15230817127,650
-743.475392516264,618
-740.7992136248035,642
-738.1237713233636,619
-735.4490654383407,624
-732.7750957960521,646
-730.1018622227365,646
-727.4293645445534,661
-724.7576025875837,646
-722.0865761778291,632
-719.4162851412126,661
-716.7467293035781,647
-714.0779084906909,679
-711.409822528237,658
-708.7424712418238,646
-706.0758544569796,618
-703.4099719991541,652
-700.7448236937178,687
-698.0804093659622,670
-695.4167288411002,660
-692.7537819442656,680
-690.0915685005134,667
-687.4300883348199,675
-684.7693412720819,685
-682.1093271371178,702
-679.4500457546669,701
-676.7914969493897,671
-674.1336805458676,666
-671.4765963686034,669
-668.8202442420206,726
-666.1646239904642,690
-663.5097354382001,694
-660.8555784094151,685
-658.2021527282176,686
-655.5494582186366,699
-652.8974947046223,696
-650.2462620100463,709
-647.5957599587009,731
-644.9459883742998,750
-642.2969470804776,741
-639.6486359007902,743
-637.0010546587141,731
-634.3542031776476,756
-631.7080812809096,736
-629.0626887917401,703
-626.4180255333008,720
-623.7740913286734,772
-621.1308860008619,715
-618.4884093727904,720
-615.8466612673046,708
-613.2056415071715,716
-610.5653499150785,764
-607.9257863136347,763
-605.28695052537,797
-602.6488423727357,774
-600.0114616781036,756
-597.3748082637674,785
-594.7388819519412,779
-592.1036825647604,789
-589.4692099242818,764
-586.8354638524829,792
-584.2024441712624,773
-581.5701507024403,788
-578.9385832677575,849
-576.3077416888759,808
-573.6776257873787,794
-571.0482353847704,801
-568.4195703024757,731
-565.7916303618415,752
-563.164415384135,766
-560.5379251905453,767
-557.9121596021815,756
-555.2871184400748,741
-552.6628015251767,760
-550.0392086783606,784
-547.4163397204204,763
-544.794194472071,858
-542.1727727539491,847
-539.5520743866118,843
-536.9320991905377,892
-534.3128469861261,883
-531.6943175936979,885
-529.0765108334947,909
-526.4594265256793,988
-523.8430644903358,1121
-521.2274245474689,1252
-518.612506517005,1380
-515.9983102187913,1435
-513.3848354725959,1456
-510.77208209810846,1527
-508.16004991493924,1676
-505.5487387426199,1851
-502.9381484006032,1932
-500.3282787082628,1993
-497.71912948489364,2003
-495.1107005497117,1788
-492.5029917218539,1627
-489.8960028203786,1410
-487.28973366426493,1239
-484.68418407241325,1088
-482.07935386364494,1040
-479.47524285670266,994
-476.87185087025,1010
-474.2691777228715,1014
-471.66722323307334,1026
-469.0659872192821,996
-466.4654694998459,961
-463.86566989303384,979
-461.26658821703614,1009
-458.66822428996414,973
-456.07057792985,983
-453.4736489546475,981
-450.877437182231,976
-448.28194243039627,915
-445.68716451686,948
-443.09310325926003,916
-440.49975847515555,928
-437.9071299820263,950
-435.31521759727354,952
-432.72402113821954,928
-430.13354042210767,972
-427.5437752661022,981
-424.95472548728867,980
-422.36639090267386,986
-419.7787713291855,1010
-417.1918665836721,1027
-414.60567648290385,1039
-412.0202008435715,1004
-409.4354394822874,1040
-406.8513922155845,1031
-404.26805885991723,1036
-401.685439231661,1092
-399.103533147112,1062
-396.522340422488,1002
-393.9418608739278,1004
-391.3620943174908,989
-388.7830405691583,956
-386.2046994448317,963
-383.6270707603344,889
-381.05015433141045,919
-378.473949973725,873
-375.8984575028645,852
-373.32367673433623,778
-370.74960748356875,742
-368.1762495659117,715
-365.60360279663576,717
-363.03166699093265,636
-360.4604419639154,598
-357.8899275306178,573
-355.32012350599507,579
-352.7510297049233,529
-350.1826459421999,545
-347.61497203254316,605
-345.04800779059235,607
-342.4817530309082,571
-339.91620756797226,611
-337.35137121618743,564
-334.7872437898774,494
-332.22382510328725,495
-329.66111497058273,560
-327.09911320585127,588
-324.53781962310075,536
-321.9772340362607,532
-319.4173562591816,539
-316.8581861056348,551
-314.2997233893127,581
-311.7419679238294,589
-309.1849195227194,603
-306.62857799943856,606
-304.0729431673641,626
-301.51801483979375,621
-298.963792829947,617
-296.41027695096386,544
-293.85746701590574,587
-291.3053628377552,652
-288.7539642294155,671
-286.2032710037115,680
-283.65328297338897,644
-281.1039999511146,642
-278.5554217494762,688
-276.007548180983,750
-273.4603790580651,753
-270.9139141930734,644
-268.3681533982807,708
-265.8230964858798,704
-263.27874326798565,700
-260.7350935566336,715
-258.1921471637804,781
-255.6499039013039,929
-253.10836358100266,896
-250.56752601459698,803
-248.02739101372765,772
-245.48795838995704,756
-242.94922795476816,767
-240.41119951956557,789
-237.8738728956746,729
-235.33724789434166,755
-232.80132432673452,816
-230.2661020039418,785
-227.73158073697357,882
-225.19776033676033,878
-222.66464061415422,856
-220.1322213799284,957
-217.60050244477725,841
-215.06948361931552,809
-212.53916471408013,898
-210.00954553952818,883
-207.48062590603843,909
-204.9524056239104,873
-202.4248845033651,874
-199.8980623545441,910
-197.37193898751036,952
-194.84651421224817,971
-192.32178783866232,946
-189.79775967657952,914
-187.27442953574644,1000
-184.7517972258321,974
-182.2298625564256,928
-179.7086253370378,996
-177.18808537710026,963
-174.66824248596583,1084
-172.14909647290835,1101
-169.6306471471229,1085
-167.11289431772548,1060
-164.59583779375328,1149
-162.07947738416453,1357
-159.5638128978386,1386
-157.04884414357605,1325
-154.53457093009854,1311
-152.02099306604828,1150
-149.50811035998936,1195
-146.99592262040665,1320
-144.48442965570587,1487
-141.97363127421409,1490
-139.46352728417958,1355
-136.95411749377126,1448
-134.44540171107985,1444
-131.93737974411636,1472
-129.43005140081357,1439
-126.92341648902493,1595
-124.41747481652521,1763
-121.91222619101006,2032
-119.40767042009657,2499
-116.90380731132257,3312
-114.40063667214702,3968
-111.8981583099503,4854
-109.3963720320337,6103
-106.89527764561933,7851
-104.39487495785067,8477
-101.89516377579241,9844
-99.39614390642998,13221
-96.89781515667039,20521
-94.40017733334128,25245
-91.90323024319173,21917
-89.40697369289148,14658
-86.91140748903172,9978
-84.41653143812482,8102
-81.92234534660395,11185
-79.42884902082358,14094
-76.93604226705907,13911
-74.4439248915071,12729
-71.95249670028534,9843
-69.46175749943245,7226
-66.97170709490854,6476
-64.48234529259423,7820
-61.99367189829195,9380
-59.50568671772464,11371
-57.01838955653636,14661
-54.53178022029283,17891
-52.045858514480074,22426
-49.560624244506016,26767
-47.07607721569923,28384
-44.59221723330904,26220
-42.10904410250669,23307
-39.62655762838392,21322
-37.14475761595372,21817
-34.66364387015028,20161
-32.18321619582866,23987
-29.70347439776515,25651
-27.224418280657005,23316
-24.74604764912317,26650
-22.26836230770266,35531
-19.7913620608565,58539
-17.315046712966478,65036
-14.83941606833514,65036
-12.36446993118659,65036
-9.89020810566592,65036
-7.416630395839093,65036
-4.94373660569363,65036
-2.471526539137585,65036
-6.821210263296962E-13,65036
2.47084320796705,65036
4.941003281093458,65036
7.410480415786196,65036
9.879274808531363,65036
12.347386655893956,65036
14.814816154518212,65036
17.28156350112681,65036
19.74762889252179,65036
22.21301252558385,65036
24.67771459727237,22827
27.141735304626195,7509
29.605074844762612,6172
32.06773341487792,5151
34.52971121224755,4696
36.99100843422559,4812
39.45162527824516,5245
41.91156194181792,5365
44.370818622535126,3829
46.82939551806646,3288
49.287292826160524,4501
51.74451074464503,4274
54.201049471426245,3612
56.65690920448981,3656
59.112090141899785,2984
61.56659248179983,2769
64.02041642241159,2534
66.4735621620365,2900
68.92602989905402,3357
71.37781983192338,3194
73.82893215918205,2633
76.27936707944684,2010
78.72912479141326,2416
81.17820549385567,2066
83.62660938562783,1646
86.07433666566146,1747
88.5213875329681,1856
90.96776218663751,2173
93.41346082583925,2056
95.85848364982041,2413
98.30283085790859,2112
100.7465026495089,1819
103.18949922410604,1727
105.63182078126385,1447
108.07346752062438,1668
110.51443964190923,1686
112.95473734491827,1683
115.39436082953114,1589
117.83331029570547,1642
120.27158594347827,1720
122.7091879729652,1614
125.1461165843615,1611
127.58237197794062,1666
130.01795435405518,1272
132.4528639131364,1284
134.88710085569494,1419
137.32066538231982,1453
139.75355769367923,1365
142.1857779905207,1245
144.61732647366978,1127
147.04820334403132,1203
149.47840880258934,1422
151.90794305040674,1459
154.33680628862487,1396
156.76499871846443,1412
159.19252054122433,1507
161.61937195828352,1705
164.04555317109896,1772
166.47106438120693,1876
168.89590579022217,2125
171.320077599839,2148
173.7435800118302,2351
176.16641322804742,2461
178.58857745042144,2438
181.01007288096173,2446
183.43089972175687,2480
185.85105817497413,2432
188.27054844285988,2535
190.6893707277394,2579
193.10752523201643,2666
195.5250121581745,2782
197.9418317087751,2810
200.3579840864594,2637
202.7734694939469,2636
205.18828813403627,2813
207.6024402096051,2904
210.01592592360964,2821
212.42874547908548,2789
214.84089907914665,2856
217.2523869269868,2818
219.66320922587727,2929
222.0733661791695,2810
224.48285799029293,2837
226.8916848627572,2873
229.29984700014882,2961
231.7073446061355,3048
234.11417788446204,3071
236.520347038953,2983
238.92585227351185,3064
241.33069379212054,3234
243.73487179884035,3181
246.1383864978112,3210
248.541238093252,3095
250.9434267894609,3155
253.34495279081432,3288
255.74581630176783,3318
258.1460175268563,3309
260.54555667069314,3290
262.9444339379703,3268
265.3426495334594,3314
267.7402036620107,3266
270.1370965285529,3143
272.53332833809407,3111
274.9288992957214,2906
277.32380960660055,2831
279.718059475976,2873
282.1116491091717,2822
284.5045787115897,2915
286.89684848871195,2785
289.2884586460981,2847
291.67940938938807,2882
294.0697009242996,2922
296.4593334566299,2783
298.84830719225477,2859
301.23662233712923,2822
303.6242790972866,2750
306.01127767884,2679
308.39761828798066,2667
310.78330113097934,2685
313.16832641418534,2544
315.5526943440269,2647
317.9364051270112,2508
320.3194589697242,2426
322.70185607883093,2431
325.0835966610754,2489
327.4646809232805,2391
329.8451090723478,2440
332.2248813152577,2367
334.6039978590701,2325
336.9824589109231,2402
339.36026467803447,2416
341.7374153677,2295
344.113911187295,2259
346.48975234427337,2272
348.8649390461686,2310
351.2394715005918,2394
353.61334991523415,2288
355.9865744978655,2280
358.35914545633375,2280
360.73106299856715,2313
363.10232733257146,2266
365.47293866643247,2275
367.84289720831396,2163
370.2122031664593,2167
372.5808567491905,2306
374.9488581649083,2240
377.31620762209275,2229
379.6829053293021,2177
382.0489514951745,2138
384.4143463284262,2179
386.7790900378528,2203
389.14318283232853,2157
391.50662492080653,2169
393.86941651231916,2210
396.23155781597745,2194
398.5930490409713,2160
400.9538903965696,2180
403.3140820921202,2149
405.6736243370498,2118
408.03251734086336,2156
410.3907613131465,2089
412.74835646356166,2038
415.10530300185144,2083
417.4616011378372,2164
419.81725108141893,2132
422.1722530425758,2165
424.5266072313656,2230
426.880313857925,2087
429.2333731324701,2046
431.58578526529516,2004
433.9375504667738,2010
436.2886689473588,2089
438.63914091758113,2109
440.9889665880513,2078
443.33814616945835,2062
445.68667987257015,2089
448.03456790823395,2085
450.3818104873759,2099
452.72840782100013,2059
455.07436012019105,2106
457.41966759611057,2021
459.7643304600007,1967
462.10834892318155,2019
464.4517231970525,1955
466.79445349309174,2074
469.1365400228566,2025
471.4779829979826,2042
473.81878263018564,2056
476.15893913125876,2085
478.4984527130747,2194
480.8373235875855,2124
483.17555196682144,2181
485.5131380628919,2311
487.8500820879857,2366
490.1863842543697,2536
492.52204477439034,2753
494.8570638604725,2858
497.1914417251204,3268
499.52517858091653,3743
501.85827464052306,4139
504.19073011668036,4293
506.5225452222086,4473
508.85372017000566,4345
511.18425517304956,4279
513.514150444396,4492
515.8434061971808,5664
518.1720226446176,6620
520.4999999999999,6737
522.8273384766991,6452
525.1540382881666,6095
527.480099647932,5479
529.8055227696037,4212
532.1303078668694,3232
534.454455153496,2663
536.777964843328,2356
539.1008371502907,2233
541.4230722883866,2224
543.744670471698,2139
546.0656319143858,2124
548.3859568306899,2086
550.7056454349294,2030
553.0246979415016,2083
555.3431145648834,2035
557.6608955196306,2048
559.978041020377,2067
562.2945512818363,1990
564.6104265188006,2068
566.9256669461412,2062
569.2402727788082,2018
571.5542442318302,2040
573.8675815203156,2040
576.1802848594508,2086
578.4923544645015,2075
580.8037905508126,2155
583.114593333807,2074
585.4247630289875,2124
587.7342998519354,2091
590.0432040183106,2150
592.3514757438526,2132
594.6591152443794,2114
596.9661227357875,2128
599.2724984340531,2098
601.578242555231,2024
603.8833553154542,2057
606.1878369309362,2114
608.4916876179676,2032
610.7949075929192,2031
613.0974970722403,2118
615.3994562724587,2131
617.7007854101818,2087
620.0014847020951,2128
622.3015543649641,2113
624.6009946156324,2078
626.8998056710224,2112
629.1979877481361,2104
631.4955410640538,2077
633.7924658359349,2027
636.0887622810175,2072
638.3844306166192,2125
640.6794710601358,2138
642.9738838290426,2107
645.2676691408932,2072
647.5608272133207,2077
649.853358264037,2115
652.1452625108324,2160
654.4365401715764,2184
656.7271914642178,2143
659.0172166067838,2164
661.3066158173809,2157
663.5953893141935,2145
665.8835373154867,2105
668.1710600396028,2168
670.4579577049639,2129
672.7442305300709,2164
675.0298787335033,2077
677.3149025339197,2088
679.599302150058,2133
681.8830778007342,2158
684.1662297048437,2034
686.4487580813608,2028
688.7306631493387,2133
691.0119451279091,2093
693.2926042362834,2169
695.5726406937516,2105
697.8520547196814,2056
700.1308465335215,2073
702.4090163547982,2004
704.6865644031171,2132
706.9634908981619,2014
709.2397960596965,2046
711.5154801075631,2039
713.7905432616823,2153
716.0649857420548,2074
718.3388077687592,2079
720.612009561953,2134
722.8845913418733,2068
725.1565533288352,2096
727.427895743234,2098
729.6986188055427,1991
731.9687227363137,2069
734.238207756178,2113
736.5070740858458,2082
738.7753219461066,2039
741.0429515578281,2083
743.3099631419569,2099
745.5763569195191,2156
747.8421331116193,2060
750.1072919394409,2097
752.3718336242467,2040
754.6357583873777,2049
756.8990664502545,2053
759.1617580343765,2042
761.423833361321,2049
763.6852926527457,2133
765.9461361303862,2025
768.206364016058,2038
770.4659765316536,2074
772.7249738991469,2121
774.9833563405886,2066
777.2411240781092,2074
779.4982773339183,2037
781.7548163303044,2079
784.010741289634,2038
786.2660524343538,2200
788.5207499869881,2117
790.7748341701416,2173
793.0283052064964,2129
795.2811633188143,2188
797.5334087299362,2104
799.7850416627813,2122
802.0360623403484,2056
804.2864709857143,2149
806.5362678220353,2057
808.7854530725468,2182
811.0340269605625,2150
813.2819897094754,2150
815.5293415427581,2151
817.77608268396,2170
820.0222133567116,2172
822.2677337847211,2043
824.5126441917765,1962
826.7569448017433,2063
829.0006358385675,2041
831.2437175262731,2143
833.4861900889629,2051
835.7280537508192,2113
837.9693087361026,2161
840.2099552691533,2103
842.4499935743896,2150
844.689423876309,2182
846.9282463994886,2188
849.1664613685833,2128
851.4040690083276,2140
853.6410695435349,2161
855.877463199097,2167
858.1132501999847,2105
860.3484307712487,2135
862.5830051380175,2084
864.8169735254988,2170
867.0503361589791,2121
869.2830932638243,2129
871.5152450654786,2157
873.7467917894654,2166
875.9777336613873,2157
878.2080709069252,2180
880.4378037518389,2244
882.666932421968,2152
884.8954571432301,2128
887.1233781416219,2187
889.3506956432192,2266
891.5774098741766,2178
893.803521060728,2172
896.0290294291852,2186
898.2539352059397,2168
900.4782386174619,2223
902.7019398903011,2227
904.925039251085,2184
907.147536926521,2222
909.3694331433943,2190
911.59072812857,2272
913.8114221089921,2186
916.0315153116827,2158
918.2510079637437,2193
920.4699002923547,2088
922.6881925247761,2096
924.905884888345,2129
927.1229776104793,2134
929.3394709186747,2141
931.555365040506,2162
933.7706602036275,2144
935.9853566357709,2131
938.1994545647489,2140
940.4129542184515,2248
942.6258558248488,2121
944.8381596119883,2133
947.0498658079974,2174
949.2609746410825,2224
951.4714863395287,2190
953.6814011316998,2172
955.8907192460387,2202
958.0994409110671,2152
960.3075663553858,2189
962.5150958076741,2091
964.7220294966913,2112
966.928367651274,2076
969.1341105003388,2110
971.3392582728806,2132
973.5438111979742,2120
975.747769504772,2106
977.9511334225061,2038
980.153903180487,1981
982.3560790081052,2088
984.5576611348289,2051
986.7586497902058,1986
988.9590452038618,2007
991.158847605503,2004
993.3580572249133,1995
995.5566742919558,1916
997.7546990365728,1896
999.952131688785,1839
1002.1489724786926,1817
1004.3452216364743,1760
1006.5408793923874,1776
1008.7359459767691,1763
1010.9304216200343,1772
1013.1243065526781,1758
1015.3176010052733,1797
1017.510305208472,1732
1019.7024193930064,1694
1021.8939437896848,1727
1024.0848786293977,1762
1026.2752241431122,1705
1028.4649805618747,1804
1030.6541481168115,1691
1032.842727039127,1735
1035.0307175601051,1719
1037.2181199111074,1657
1039.4049343235752,1684
1041.591161029029,1681
1043.7768002590683,1708
1045.9618522453698,1698
1048.1463172196918,1621
1050.3301954138697,1615
1052.513487059818,1638
1054.69619238953,1643
1056.8783116350783,1669
1059.0598450286152,1652
1061.2407928023704,1648
1063.4211551886528,1613
1065.6009324198508,1722
1067.780124728432,1665
1069.9587323469414,1663
1072.1367555080046,1613
1074.314194444325,1656
1076.4910493886855,1661
1078.667320573947,1621
1080.843008233051,1611
1083.0181125990161,1674
1085.1926339049414,1618
1087.3665723840027,1531
1089.5399282694575,1603
1091.7127017946405,1552
1093.8848931929647,1606
1096.0565026979243,1584
1098.2275305430899,1534
1100.3979769621128,1553
1102.567842188722,1567
1104.737126456726,1604
1106.9058300000124,1494
1109.0739530525475,1521
1111.2414958483764,1558
1113.4084586216231,1565
1115.5748416064907,1595
1117.7406450372605,1601
1119.9058691482942,1522
1122.0705141740304,1578
1124.2345803489884,1518
1126.3980679077658,1557
1128.5609770850388,1603
1130.7233081155623,1589
1132.8850612341707,1560
1135.0462366757774,1582
1137.2068346753745,1586
1139.3668554680326,1581
1141.526299288901,1467
1143.68516637321,1552
1145.8434569562655,1620
1148.001171273455,1518
1150.158309560244,1574
1152.3148720521767,1535
1154.470858984876,1577
1156.626270594044,1589
1158.7811071154629,1585
1160.9353687849912,1569
1163.089055838569,1501
1165.242168512213,1519
1167.3947070420209,1538
1169.5466716641677,1545
1171.6980626149075,1504
1173.8488801305748,1510
1175.9991244475814,1472
1178.1487958024186,1472
1180.2978944316555,1469
1182.4464205719428,1536
1184.5943744600072,1486
1186.7417563326567,1492
1188.8885664267755,1512
1191.0348049793297,1523
1193.1804722273619,1588
1195.325568407995,1597
1197.4700937584303,1558
1199.614048515948,1617
1201.7574329179074,1572
1203.900247201746,1526
1206.042491604982,1504
1208.1841663652099,1516
1210.3252717201053,1484
1212.465807907422,1632
1214.6057751649923,1595
1216.7451737307279,1570
1218.8840038426192,1555
1221.0222657387353,1508
1223.1599596572241,1588
1225.2970858363137,1554
1227.4336445143094,1524
1229.5696359295966,1587
1231.705060320639,1580
1233.8399179259786,1557
1235.9742089842384,1586
1238.107933734118,1591
1240.2410924143974,1593
1242.373685263935,1634
1244.5057125216676,1572
1246.6371744266116,1594
1248.7680712178621,1546
1250.898403134593,1604
1253.028170416058,1654
1255.1573733015875,1637
1257.2860120305932,1647
1259.4140868425648,1555
1261.54159797707,1632
1263.6685456737569,1622
1265.7949301723515,1646
1267.9207517126597,1592
1270.046010534565,1601
1272.1707068780306,1603
1274.2948409830983,1576
1276.4184130898889,1615
1278.541423438603,1633
1280.6638722695184,1644
1282.785759822993,1628
1284.9070863394636,1629
1287.0278520594447,1664
1289.1480572235314,1667
1291.2677020723963,1646
1293.3867868467923,1663
1295.5053117875495,1754
1297.623277135579,1755
1299.740683131868,1652
1301.8575300174857,1671
1303.973818033578,1745
1306.0895474213703,1733
1308.2047184221678,1721
1310.3193312773528,1706
1312.4333862283888,1733
1314.5468835168163,1709
1316.659823384255,1731
1318.7722060724045,1692
1320.8840318230418,1615
1322.9953008780249,1689
1325.1060134792888,1679
1327.2161698688478,1651
1329.3257702887959,1753
1331.4348149813054,1761
1333.5433041886276,1773
1335.6512381530933,1752
1337.7586171171101,1726
1339.8654413231675,1672
1341.9717110138317,1657
1344.0774264317488,1662
1346.1825878196432,1683
1348.2871954203192,1725
1350.3912494766587,1593
1352.4947502316231,1645
1354.5976979282532,1698
1356.7000928096686,1651
1358.8019351190665,1691
1360.9032250997243,1627
1363.0039629949988,1669
1365.1041490483235,1695
1367.2037835032133,1689
1369.3028666032606,1698
1371.401398592137,1702
1373.4993797135926,1690
1375.5968102114575,1653
1377.6936903296396,1650
1379.7900203121262,1656
1381.8858004029835,1691
1383.9810308463561,1722
1386.075711886469,1656
1388.1698437676241,1726
1390.2634267342032,1728
1392.356461030667,1714
1394.4489469015557,1661
1396.5408845914872,1758
1398.6322743451592,1716
1400.7231164073469,1725
1402.813411022907,1669
1404.903158436773,1697
1406.9923588939578,1770
1409.0810126395531,1724
1411.1691199187303,1720
1413.2566809767386,1757
1415.343696058907,1771
1417.4301654106425,1761
1419.5160892774315,1771
1421.6014679048399,1766
1423.6863015385125,1770
1425.7705904241707,1789
1427.8543348076178,1742
1429.9375349347342,1834
1432.0201910514802,1775
1434.102303403894,1779
1436.1838722380944,1761
1438.2648978002767,1820
1440.3453803367174,1843
1442.4253200937692,1849
1444.5047173178677,1855
1446.5835722555234,1895
1448.6618851533285,1992
1450.739656257952,1982
1452.8168858161434,2002
1454.8935740747306,1996
1456.96972128062,1962
1459.045327680797,2008
1461.120393522327,1942
1463.1949190523528,2028
1465.2689045180973,2011
1467.3423501668608,2128
1469.415256246024,2148
1471.4876230030463,2160
1473.559450685465,2106
1475.6307395408976,2216
1477.7014898170391,2207
1479.771701761665,2296
1481.8413756226287,2291
1483.9105116478618,2265
1485.9791100853772,2318
1488.0471711832643,2338
1490.1146951896926,2345
1492.1816823529098,2353
1494.2481329212433,2361
1496.3140471430984,2368
1498.3794252669609,2398
1500.4442675413939,2446
1502.5085742150404,2405
1504.572345536622,2471
1506.6355817549388,2485
1508.6982831188702,2508
1510.7604498773744,2515
1512.8220822794883,2520
1514.8831805743293,2488
1516.9437450110909,2533
1519.003775839048,2504
1521.0632733075522,2504
1523.1222376660367,2510
1525.1806691640113,2509
1527.2385680510652,2621
1529.2959345768668,2602
1531.3527689911643,2567
1533.4090715437833,2574
1535.4648424846291,2659
1537.5200820636855,2707
1539.5747905310159,2685
1541.6289681367616,2664
1543.6826151311434,2672
1545.7357317644614,2728
1547.7883182870937,2792
1549.8403749494987,2819
1551.8919020022113,2882
1553.9428996958477,2808
1555.9933682811015,2950
1558.0433080087469,3083
1560.0927191296346,3018
1562.1416018946961,3083
1564.1899565549415,3026
1566.2377833614592,3032
1568.2850825654164,3171
1570.3318544180606,3075
1572.3780991707158,3061
1574.423817074788,2894
1576.4690083817595,2861
1578.5136733431923,2826
1580.5578122107272,2669
1582.601425236085,2530
1584.6445126710646,2459
1586.6870747675434,2423
1588.7291117774776,2417
1590.7706239529034,2229
1592.8116115459347,2193
1594.8520748087658,2221
1596.8920139936686,2133
1598.9314293529933,2039
1600.9703211391711,1946
1603.008689604711,1986
1605.0465350022005,1943
1607.0838575843068,1941
1609.1206576037753,1871
1611.1569353134305,1880
1613.1926909661765,1841
1615.2279248149953,1785
1617.2626371129481,1834
1619.2968281131757,1774
1621.3304980688963,1770
1623.3636472334088,1758
1625.39627586009,1800
1627.428384202396,1717
1629.459972513861,1731
1631.4910410480993,1648
1633.5215900588028,1719
1635.551619799744,1669
1637.5811305247717,1618
1639.6101224878166,1671
1641.6385959428862,1598
1643.6665511440683,1619
1645.693988345528,1626
1647.7209078015112,1676
1649.7473097663405,1700
1651.7731944944203,1534
1653.7985622402307,1643
1655.823413258333,1701
1657.847747803366,1603
1659.8715661300494,1638
1661.8948684931793,1654
1663.9176551476316,1652
1665.9399263483624,1641
1667.9616823504057,1583
1669.982923408873,1564
1672.0036497789574,1585
1674.0238617159293,1587
1676.043559475138,1593
1678.0627433120121,1600
1680.081413482059,1608
1682.0995702408654,1555
1684.117213844096,1640
1686.134344547495,1613
1688.1509626068864,1629
1690.1670682781705,1633
1692.182661817329,1538
1694.1977434804217,1620
1696.2123135235875,1591
1698.226372203043,1653
1700.2399197750851,1609
1702.2529564960905,1616
1704.2654826225112,1596
1706.277498410882,1634
1708.2890041178139,1573
1710.2999999999988,1525
1712.3104863142066,1609
1714.3204633172854,1611
1716.329931266163,1537
1718.3388904178469,1631
1720.3473410294214,1629
1722.3552833580516,1516
1724.3627176609807,1636
1726.3696441955308,1509
1728.3760632191033,1583
1730.3819749891782,1572
1732.3873797633146,1578
1734.3922777991502,1591
1736.3966693544012,1548
1738.4005546868639,1579
1740.4039340544127,1616
1742.406807715001,1482
1744.4091759266616,1528
1746.4110389475054,1505
1748.4123970357223,1555
1750.413250449582,1549
1752.4135994474318,1563
1754.4134442876993,1545
1756.4127852288902,1546
1758.4116225295893,1531
1760.4099564484595,1523
1762.407787244244,1621
1764.405115175764,1522
1766.4019405019203,1526
1768.3982634816916,1566
1770.3940843741357,1502
1772.3894034383907,1568
1774.3842209336717,1547
1776.378537119274,1487
1778.372352254571,1489
1780.3656665990156,1529
1782.3584804121397,1464
1784.3507939535534,1471
1786.3426074829463,1458
1788.3339212600863,1520
1790.3247355448211,1559
1792.3150505970766,1493
1794.3048666768573,1444
1796.2941840442477,1533
1798.2830029594106,1535
1800.2713236825884,1453
1802.2591464741004,1474
1804.2464715943465,1471
1806.2332993038058,1490
1808.2196298630352,1492
1810.2054635326708,1495
1812.190800573428,1559
1814.175641246101,1602
1816.1599858115628,1565
1818.1438345307652,1555
1820.127187664738,1545
1822.1100454745924,1526
1824.092408221516,1469
1826.0742761667766,1471
1828.055649571721,1519
1830.0365286977735,1582
1832.0169138064398,1508
1833.9968051593014,1478
1835.9762030180214,1527
1837.9551076443408,1556
1839.9335193000788,1503
1841.9114382471344,1501
1843.888864747485,1541
1845.8657990631878,1478
1847.842241456378,1479
1849.8181921892697,1531
1851.7936515241558,1518
1853.7686197234098,1488
1855.7430970494815,1530
1857.7170837649014,1469
1859.6905801322787,1471
1861.6635864143004,1508
1863.6361028737338,1475
1865.608129773424,1519
1867.5796673762961,1549
1869.5507159453537,1444
1871.521275743678,1533
1873.4913470344313,1496
1875.4609300808534,1557
1877.4300251462632,1568
1879.3986324940588,1568
1881.366752387717,1502
1883.3343850907936,1539
1885.3015308669228,1532
1887.268189979819,1597
1889.2343626932739,1535
1891.2000492711595,1520
1893.1652499774254,1489
1895.1299650761011,1566
1897.0941948312952,1523
1899.0579395071945,1548
1901.0211993680641,1525
1902.98397467825,1459
1904.9462657021745,1588
1906.9080727043415,1517
1908.869395949332,1478
1910.8302357018065,1523
1912.790592226504,1601
1914.7504657882428,1503
1916.7098566519212,1504
1918.6687650825133,1495
1920.6271913450764,1513
1922.5851357047422,1505
1924.5425984267245,1549
1926.499579776314,1559
1928.4560800188833,1553
1930.4120994198802,1532
1932.367638244833,1555
1934.32269675935,1541
1936.2772752291175,1521
1938.231373919899,1510
1940.1849930975404,1516
1942.1381330279637,1568
1944.0907939771696,1499
1946.0429762112412,1483
1947.9946799963363,1473
1949.9459055986945,1440
1951.896653284633,1457
1953.8469233205478,1486
1955.7967159729142,1483
1957.7460315082863,1471
1959.6948701932974,1464
1961.6432322946594,1449
1963.5911180791632,1432
1965.5385278136787,1480
1967.4854617651545,1544
1969.4319202006182,1428
1971.377903387176,1542
1973.3234115920136,1481
1975.268445082395,1512
1977.2130041256642,1437
1979.1570889892423,1435
1981.1006999406304,1475
1983.04383724741,1457
1984.986501177238,1455
1986.928691997853,1524
1988.8704099770712,1522
1990.811655382789,1445
1992.7524284829801,1492
1994.692729545698,1503
1996.6325588390755,1474
1998.5719166313224,1493
2000.5108031907307,1429
2002.4492187856677,1461
2004.387163684583,1439
2006.3246381560011,1497
2008.2616424685298,1432
2010.1981768908527,1439
2012.1342416917332,1493
2014.069837140014,1470
2016.0049635046162,1466
2017.9396210545406,1468
2019.8738100588666,1488
2021.8075307867502,1471
2023.740783507431,1403
2025.6735684902228,1436
2027.6058860045214,1443
2029.5377363198004,1487
2031.4691197056118,1421
2033.4000364315875,1538
2035.3304867674374,1443
2037.260470982952,1499
2039.189989347998,1412
2041.1190421325232,1419
2043.047629606554,1412
2044.9757520401945,1461
2046.9034097036288,1381
2048.8306028671195,1414
2050.7573318010086,1359
2052.683596775716,1389
2054.609398061742,1390
2056.5347359296647,1461
2058.4596106501403,1480
2060.384022493906,1449
2062.3079717317764,1410
2064.231458634646,1497
2066.1544834734873,1401
2068.077046519352,1403
2069.99914804337,1430
2071.9207883167524,1433
2073.8419676107865,1477
2075.7626861968406,1437
2077.6829443463607,1434
2079.6027423308715,1406
2081.522080421977,1432
2083.440958891362,1405
2085.359378010786,1414
2087.2773380520907,1443
2089.194839287196,1434
2091.111881988101,1454
2093.0284664268825,1448
2094.9445928756973,1450
2096.86026160678,1400
2098.775472892446,1440
2100.690227005088,1433
2102.604524217178,1376
2104.5183648012676,1421
2106.431749029985,1428
2108.34467717604,1466
2110.2571495122206,1426
2112.169166311393,1478
2114.080727846503,1416
2115.9918343905747,1461
2117.902486216711,1440
2119.8126835980956,1496
2121.722426807987,1433
2123.6317161197285,1476
2125.5405518067364,1482
2127.448934142509,1492
2129.356863400624,1479
2131.264339854737,1543
2133.1713637785815,1490
2135.077935445972,1465
2136.9840551308002,1539
2138.889723107037,1487
2140.7949396487334,1472
2142.699705030018,1501
2144.6040195250994,1515
2146.507883408264,1453
2148.4112969538774,1455
2150.3142604363848,1454
2152.2167741303097,1536
2154.1188383102535,1516
2156.0204532508997,1464
2157.9216192270064,1516
2159.822336513414,1490
2161.7226053850413,1507
2163.622426116884,1514
2165.5217989840185,1554
2167.4207242616,1520
2169.319202224862,1544
2171.2172331491165,1581
2173.1148173097563,1527
2175.0119549822507,1552
2176.90864644215,1569
2178.8048919650823,1547
2180.7006918267534,1576
2182.596046302952,1601
2184.4909556695407,1553
2186.3854202024645,1624
2188.279440177746,1617
2190.173015871487,1565
2192.066147559868,1541
2193.958835519149,1524
2195.851080025667,1566
2197.7428813558417,1549
2199.6342397861667,1585
2201.5251555932186,1549
2203.415629053651,1627
2205.3056604441986,1597
2207.19525004167,1580
2209.084398122958,1621
2210.9731049650327,1607
2212.861370844941,1584
2214.749196039812,1616
2216.636580826851,1577
2218.523525483344,1583
2220.410030286655,1612
2222.296095514226,1597
2224.1817214435805,1557
2226.066908352319,1600
2227.951656518121,1578
2229.835966218746,1585
2231.71983773203,1601
2233.6032713358913,1649
2235.486267308324,1595
2237.3688259274036,1608
2239.2509474712824,1624
2241.132632218193,1598
2243.013880446447,1570
2244.8946924344323,1588
2246.7750684606203,1596
2248.6550088035574,1558
2250.534513741871,1628
2252.413583554265,1567
2254.292218519526,1576
2256.170418916517,1653
2258.0481850241786,1545
2259.925517121534,1586
2261.8024154876825,1604
2263.678880401803,1605
2265.5549121431536,1599
2267.430510991071,1565
2269.305677224971,1522
2271.180411124348,1568
2273.0547129687766,1583
2274.9285830379076,1590
2276.8020216114737,1474
2278.6750289692845,1585
2280.5476053912294,1584
2282.4197511572766,1606
2284.2914665474727,1664
2286.162751841943,1664
2288.0336073208937,1589
2289.904033264608,1616
2291.774029953448,1568
2293.6435976678554,1524
2295.5127366883517,1562
2297.381447295534,1523
2299.2497297700825,1477
2301.1175843927526,1499
2302.9850114443825,1477
2304.852011205885,1510
2306.7185839582553,1401
2308.5847299825664,1369
2310.4504495599676,1376
2312.3157429716925,1355
2314.1806104990483,1316
2316.0450524234247,1279
2317.9090690262888,1316
2319.772660589186,1304
2321.635827393742,1321
2323.498569721661,1284
2325.3608878547248,1318
2327.2227820747967,1354
2329.0842526638157,1279
2330.945299903803,1306
2332.805924076857,1302
2334.6661254651535,1277
2336.525904350951,1305
2338.3852610165827,1288
2340.244195744464,1331
2342.102708817088,1316
2343.9608005170253,1348
2345.8184711269287,1307
2347.675720929526,1258
2349.532550207628,1313
2351.38895924412,1332
2353.24494832197,1352
2355.100517724223,1335
2356.955667734004,1252
2358.810398634514,1318
2360.664710709037,1363
2362.5186042409337,1334
2364.3720795136437,1354
2366.225136810686,1303
2368.0777764156583,1343
2369.929998612237,1354
2371.7818036841777,1372
2373.633191915315,1358
2375.484163589562,1349
2377.3347189909114,1307
2379.184858403434,1307
2381.03458211128,1349
2382.8838903986775,1349
2384.732783549936,1365
2386.5812618494406,1394
2388.4293255816588,1328
2390.2769750311327,1304
2392.1242104824883,1350
2393.971032220427,1366
2395.8174405297295,1324
2397.6634356952563,1366
2399.509018001947,1372
2401.3541877348193,1300
2403.1989451789705,1314
2405.043290619576,1373
2406.8872243418905,1332
2408.730746631247,1324
2410.5738577730594,1363
2412.4165580528183,1324
2414.258847756095,1354
2416.100727168537,1422
2417.9421965758734,1300
2419.783256263912,1323
2421.623906518538,1372
2423.4641476257157,1338
2425.303979871491,1368
2427.143403541984,1410
2428.9824189233977,1336
2430.821026302012,1368
2432.6592259641866,1308
2434.497018196361,1374
2436.33440328505,1375
2438.171381516851,1383
2440.00795317844,1338
2441.844118556569,1367
2443.6798779380724,1342
2445.5152316098606,1371
2447.3501798589255,1339
2449.1847229723357,1320
2451.0188612372403,1344
2452.8525949408663,1368
2454.6859243705203,1379
2456.518849813587,1393
2458.3513715575314,1395
2460.183489889895,1326
2462.015205098301,1385
2463.8465174704493,1409
2465.67742729412,1387
2467.5079348571717,1433
2469.338040447542,1403
2471.1677443532476,1367
2472.9970468623833,1438
2474.825948263123,1333
2476.6544488437207,1380
2478.482548892508,1415
2480.310248697896,1373
2482.137548548374,1382
2483.9644487325118,1354
2485.790949538956,1384
2487.617051256433,1388
2489.44275417375,1440
2491.26805857979,1403
2493.0929647635157,1430
2494.917473013971,1425
2496.741583620276,1388
2498.5652968716304,1469
2500.3886130573137,1389
2502.2115324666834,1370
2504.0340553891765,1392
2505.856182114308,1452
2507.6779129316733,1401
2509.499248130945,1447
2511.3201880018764,1463
2513.140732834298,1438
2514.9608829181198,1411
2516.780638543331,1403
2518.6,1400
2520.418967578273,1435
2522.237541568376,1469
2524.0557222606144,1485
2525.8735099453706,1479
2527.6909049131086,1409
2529.507907454368,1437
2531.32451785977,1443
2533.140736420014,1489
2534.9565634258774,1438
2536.771999168218,1481
2538.5870439379714,1456
2540.4016980261526,1481
2542.2159617238544,1562
2544.02983532225,1456
2545.8433191125914,1492
2547.656413386209,1502
2549.4691184345115,1556
2551.2814345489874,1572
2553.093362021204,1539
2554.904901142808,1550
2556.716052205523,1545
2558.526815501153,1566
2560.3371913215824,1555
2562.147179958771,1573
2563.956781704761,1548
2565.7659968516705,1549
2567.5748256916986,1547
2569.3832685171224,1603
2571.1913256202984,1643
2572.9989972936614,1630
2574.806283829725,1643
2576.613185521084,1528
2578.4197026604074,1610
2580.2258355404483,1609
2582.031584454035,1630
2583.836949694077,1630
2585.6419315535613,1636
2587.4465303255533,1608
2589.2507463032002,1643
2591.0545797797245,1665
2592.8580310484303,1635
2594.6611004026995,1639
2596.463788135992,1620
2598.266094541849,1642
2600.0680199138874,1577
2601.869564545807,1680
2603.670728731383,1639
2605.4715127644704,1669
2607.2719169390048,1641
2609.071941548998,1658
2610.8715868885433,1594
2612.670853251811,1701
2614.469740933052,1610
2616.268250226594,1666
2618.0663814268455,1652
2619.864134828292,1549
2621.6615107255006,1621
2623.458509413115,1627
2625.2551311858597,1607
2627.0513763385347,1570
2628.8472451660223,1610
2630.6427379632833,1553
2632.4378550253564,1578
2634.232596647359,1560
2636.026963124488,1551
2637.8209547520187,1550
2639.6145718253065,1513
2641.407814639785,1510
2643.200683490966,1484
2644.9931786744414,1555
2646.7853004858807,1529
2648.577049221034,1498
2650.3684251757277,1487
2652.1594286458712,1491
2653.9500599274484,1540
2655.740319316525,1457
2657.5302071092437,1443
2659.3197236018286,1480
2661.10886909058,1486
2662.8976438718782,1503
2664.686048242183,1515
2666.4740824980327,1441
2668.2617469360443,1426
2670.0490418529134,1442
2671.8359675454153,1457
2673.622524310403,1412
2675.408712444811,1449
2677.1945322456495,1376
2678.979984010009,1425
2680.76506803506,1444
2682.5497846180497,1407
2684.334134056306,1412
2686.1181166472343,1387
2687.9017326883213,1373
2689.6849824771293,1386
2691.4678663113013,1412
2693.2503844885596,1305
2695.032537306705,1398
2696.8143250636167,1362
2698.5957480572542,1355
2700.3768065856534,1332
2702.1575009469316,1375
2703.937831439283,1357
2705.717798360982,1343
2707.4974020103837,1342
2709.276642685917,1347
2711.055520686095,1371
2712.834036309506,1321
2714.612189854819,1368
2716.389981620782,1375
2718.1674119062204,1332
2719.944481010041,1334
2721.721189231226,1315
2723.4975368688415,1302
2725.273524222027,1344
2727.0491515900053,1340
2728.824419272075,1319
2730.5993275676146,1375
2732.3738767760838,1339
2734.148067197016,1320
2735.921899130031,1265
2737.6953728748194,1344
2739.468488731156,1346
2741.2412469988926,1325
2743.0136479779617,1334
2744.785691968372,1288
2746.5573792702116,1246
2748.3287101836504,1309
2750.099685008934,1297
2751.870304046388,1308
2753.640567596418,1310
2755.4104759595057,1317
2757.1800294362156,1356
2758.949228327187,1331
2760.7180729331412,1307
2762.486563554877,1271
2764.254700493272,1281
2766.022484049284,1317
2767.789914523947,1269
2769.5569922183786,1277
2771.3237174337705,1275
2773.090090471394,1314
2774.8561116326036,1335
2776.6217812188274,1307
2778.3870995315756,1328
2780.1520668724356,1303
2781.9166835430747,1289
2783.6809498452394,1307
2785.444866080754,1306
2787.2084325515225,1318
2788.971649559527,1295
2790.73451740683,1294
2792.4970363955713,1303
2794.2592068279705,1314
2796.0210290063264,1315
2797.7825032330147,1290
2799.543629810493,1347
2801.304409041296,1312
2803.0648412280366,1311
2804.8249266734088,1287
2806.5846656801846,1263
2808.344058551212,1301
2810.1031055894246,1313
2811.8618070978273,1337
2813.6201633795085,1291
2815.378174737636,1343
2817.1358414754536,1273
2818.893163896285,1317
2820.6501423035334,1325
2822.4067770006814,1348
2824.1630682912883,1337
2825.9190164789957,1312
2827.6746218675207,1304
2829.429884760661,1324
2831.184805462294,1368
2832.9393842763743,1360
2834.693621506936,1350
2836.4475174580916,1288
2838.201072434034,1261
2839.954286739034,1312
2841.707160677441,1303
2843.459694553685,1345
2845.2118886722724,1290
2846.96374333779,1339
2848.7152588549034,1347
2850.4664355283567,1320
2852.217273662973,1342
2853.9677735636546,1349
2855.7179355353833,1399
2857.4677598832186,1321
2859.217246912299,1320
2860.9663969278427,1324
2862.715210235146,1237
2864.4636871395846,1313
2866.211827946614,1348
2867.9596329617652,1300
2869.7071024906536,1261
2871.4542368389684,1242
2873.20103631248,1317
2874.947501217038,1286
2876.6936318585695,1253
2878.4394285430812,1339
2880.1848915766604,1325
2881.9300212654707,1313
2883.6748179157553,1321
2885.4192818338374,1293
2887.1634133261173,1315
2888.907212699077,1353
2890.6506802592744,1324
2892.393816313348,1357
2894.1366211680142,1272
2895.8790951300693,1313
2897.621238506388,1328
2899.363051603925,1235
2901.1045347297118,1290
2902.8456881908596,1367
2904.58651229456,1361
2906.327007348081,1276
2908.067173658772,1284
2909.8070115340597,1323
2911.5465212814497,1283
2913.285703208527,1301
2915.0245576229563,1230
2916.7630848324807,1275
2918.5012851449196,1331
2920.2391588681758,1305
2921.976706310227,1318
2923.7139277791334,1354
2925.4508235830313,1323
2927.187394030137,1347
2928.923639428745,1305
2930.6595600872306,1280
2932.395156314046,1312
2934.1304284177218,1332
2935.8653767068713,1278
2937.6000014901815,1329
2939.3343030764227,1293
2941.068281774442,1304
2942.8019378931644,1241
2944.5352717415976,1331
2946.2682836288236,1307
2948.0009738640065,1347
2949.7333427563885,1279
2951.465390615289,1302
2953.1971177501086,1327
2954.9285244703265,1258
2956.6596110855,1326
2958.3903779052657,1281
2960.1208252393385,1287
2961.8509533975125,1297
2963.5807626896617,1285
2965.3102534257378,1315
2967.0394259157715,1271
2968.768280469873,1318
2970.496817398232,1328
2972.2250370111146,1317
2973.952939618869,1317
2975.6805255319196,1339
2977.4077950607707,1320
2979.134748516006,1349
2980.861386208289,1321
2982.587708448359,1354
2984.313715547037,1308
2986.039407815222,1311
2987.764785563891,1316
2989.489849104102,1270
2991.2145987469908,1287
2992.9390348037705,1310
2994.6631575857346,1322
2996.3869674042576,1293
2998.1104645707887,1330
2999.83364939686,1309
3001.5565221940783,1267
3003.2790832741334,1298
3005.0013329487924,1314
3006.7232715298996,1271
3008.4448993293804,1313
3010.166216659239,1282
3011.887223831558,1255
3013.607921158498,1285
3015.3283089522993,1277
3017.0483875252826,1246
3018.7681571898443,1297
3020.4876182584626,1346
3022.2067710436927,1259
3023.9256158581707,1286
3025.644153014609,1277
3027.362382825801,1265
3029.0803056046193,1274
3030.797921664012,1288
3032.5152313170106,1275
3034.2322348767225,1258
3035.9489326563353,1247
3037.665324969115,1243
3039.3814121284063,1303
3041.097194447633,1251
3042.812672240299,1245
3044.5278458199855,1279
3046.2427155003525,1279
3047.9572815951406,1302
3049.671544418167,1273
3051.38550428333,1282
3053.0991615046073,1304
3054.812516396051,1272
3056.5255692717974,1280
3058.2383204460575,1321
3059.9507702331257,1310
3061.662918947372,1298
3063.3747669032446,1253
3065.0863144152736,1205
3066.7975617980674,1326
3068.508509366309,1296
3070.219157434767,1252
3071.9295063182844,1293
3073.639556331785,1262
3075.3493077902704,1297
3077.058761008821,1302
3078.7679163025964,1260
3080.476773986837,1290
3082.1853343768594,1330
3083.89359778806,1221
3085.6015645359153,1327
3087.3092349359786,1321
3089.016609303884,1275
3090.7236879553434,1305
3092.4304712061476,1328
3094.136959372166,1315
3095.843152769349,1322
3097.5490517137237,1254
3099.2546565213966,1307
3100.959967508554,1289
3102.66498499146,1286
3104.3697092864577,1323
3106.0741407099695,1274
3107.778279578498,1260
3109.482126208622,1325
3111.1856809170004,1259
3112.8889440203716,1305
3114.5919158355528,1352
3116.294596679439,1320
3117.996986869006,1332
3119.6990867213062,1353
3121.4008965534726,1330
3123.102416682717,1332
3124.803647426329,1287
3126.5045891016784,1285
3128.205242026213,1331
3129.90560651746,1300
3131.605682893025,1302
3133.3054714705922,1355
3135.0049725679282,1246
3136.7041865028714,1311
3138.4031135933465,1307
3140.101754157353,1308
3141.800108512971,1314
3143.498176978357,1325
3145.1959598717494,1257
3146.8934575114636,1273
3148.5906702158954,1270
3150.2875983035183,1266
3151.9842420928853,1209
3153.680601902627,1284
3155.376678051456,1309
3157.07247085816,1271
3158.767980641609,1272
3160.463207720748,1221
3162.158152414606,1294
3163.8528150422862,1292
3165.5471959229726,1235
3167.2412953759303,1332
3168.9351137204976,1316
3170.628651276098,1293
3172.3219083622307,1283
3174.014885298474,1302
3175.707582404485,1331
3177.4000000000005,1276
3179.092138404835,1311
3180.7839979388846,1311
3182.47557892212,1283
3184.166881674594,1311
3185.8579065164386,1280
3187.5486537678626,1304
3189.2391237491547,1255
3190.9293167806827,1275
3192.6192331828934,1250
3194.3088732763117,1244
3195.998237381542,1239
3197.687325819268,1274
3199.376138910251,1281
3201.064676975334,1262
3202.7529403354347,1247
3204.4409293115523,1305
3206.1286442247647,1267
3207.816085396229,1238
3209.5032531471825,1246
3211.190147798936,1269
3212.8767696728846,1277
3214.5631190905015,1211
3216.2491963733373,1243
3217.9350018430214,1252
3219.6205358212637,1228
3221.305798629851,1297
3222.990790590651,1244
3224.6755120256103,1231
3226.359963256751,1226
3228.0441446061795,1226
3229.7280563960758,1301
3231.411698948703,1217
3233.0950725863995,1243
3234.778177631587,1272
3236.461014406761,1184
3238.1435832345005,1212
3239.8258844374595,1314
3241.507918338374,1267
3243.1896852600576,1222
3244.8711855254023,1301
3246.552419457381,1269
3248.233387379042,1294
3249.914089613516,1275
3251.59452648401,1221
3253.274698313813,1273
3254.95460542629,1238
3256.6342481448855,1214
3258.313626793125,1252
3259.9927416946084,1259
3261.6715931730196,1260
3263.3501815521176,1280
3265.0285071557437,1219
3266.706570307815,1253
3268.3843713323286,1230
3270.0619105533615,1246
3271.739188295068,1247
3273.4162048816834,1194
3275.0929606375184,1236
3276.769455886966,1246
3278.445690954498,1237
3280.1216661646613,1273
3281.797381842087,1298
3283.4728383114807,1235
3285.1480358976296,1256
3286.8229749253996,1224
3288.4976557197333,1206
3290.172078605655,1232
3291.846243908266,1284
3293.5201519527463,1238
3295.193803064357,1231
3296.8671975684374,1256
3298.5403357904024,1199
3300.21321805575,1254
3301.8858446900567,1239
3303.558216018975,1270
3305.23033236824,1220
3306.9021940636603,1229
3308.57380143113,1314
3310.2451547966184,1288
3311.916254486174,1238
3313.5871008259246,1278
3315.2576941420766,1237
3316.9280347609147,1281
3318.5981230088046,1212
3320.2679592121895,1300
3321.9375436975924,1251
3323.606876791612,1237
3325.27595882093,1225
3326.944790112305,1227
3328.6133709925753,1230
3330.2817017886573,1250
3331.949782827547,1271
3333.617614436319,1281
3335.2851969421245,1238
3336.952530672199,1307
3338.619615953853,1314
3340.286453114475,1251
3341.9530424815357,1259
3343.619384382583,1285
3345.2854791452437,1234
3346.951327097224,1228
3348.6169285663073,1277
3350.2822838803577,1229
3351.947393367319,1267
3353.61225735521,1293
3355.2768761721345,1223
3356.9412501462693,1241
3358.605379605873,1251
3360.2692648792827,1285
3361.9329062949146,1220
3363.596304181263,1235
