CollectionTime,9/20/2024 1:11:29 PM
ExposureUsed,3
CalibratedSpectrum
-962.7078968117929,601
-959.9714848408522,669
-957.2358232597828,653
-954.5009119013725,654
-951.7667505983302,681
-949.0333391832855,669
-946.3006774887896,672
-943.5687653473143,653
-940.837602591253,662
-938.1071890529199,676
-935.3775245645503,674
-932.6486089583007,633
-929.9204420662485,665
-927.1930237203925,646
-924.4663537526524,659
-921.7404319948689,701
-919.0152582788041,706
-916.2908324361409,712
-913.5671542984834,693
-910.8442236973568,689
-908.1220404642074,677
-905.4006044304027,665
-902.679915427231,697
-899.959973285902,644
-897.2407778375464,646
-894.5223289132158,615
-891.8046263438832,641
-889.0876699604426,653
-886.3714595937089,653
-883.6559950744183,620
-880.9412762332282,620
-878.2273029007168,661
-875.5140749073835,641
-872.8015920836489,640
-870.0898542598545,628
-867.3788612662631,645
-864.6686129330585,619
-861.9591090903457,652
-859.2503495681506,656
-856.5423341964203,628
-853.8350628050229,619
-851.1285352237478,640
-848.4227512823054,627
-845.7177108103272,623
-843.0134136373656,640
-840.3098595928943,669
-837.6070485063082,664
-834.9049802069229,653
-832.2036545239757,614
-829.5030712866244,632
-826.8032303239481,647
-824.1041314649472,626
-821.4057745385428,610
-818.7081593735775,632
-816.0112857988148,611
-813.3151536429393,618
-810.6197627345566,660
-807.9251129021936,636
-805.2312039742981,636
-802.5380357792392,674
-799.8456081453069,620
-797.1539209007124,655
-794.462973873588,642
-791.772766891987,666
-789.083299783884,675
-786.3945723771743,650
-783.7065844996748,638
-781.0193359791231,647
-778.3328266431781,697
-775.6470563194197,697
-772.9620248353489,685
-770.2777320183878,676
-767.5941776958798,651
-764.9113616950891,658
-762.2292838432011,654
-759.5479439673222,631
-756.8673418944801,684
-754.1874774516235,669
-751.5083504656222,669
-748.8299607632671,679
-746.15230817127,700
-743.475392516264,680
-740.7992136248035,642
-738.1237713233636,663
-735.4490654383407,679
-732.7750957960521,679
-730.1018622227365,689
-727.4293645445534,690
-724.7576025875837,703
-722.0865761778291,676
-719.4162851412126,709
-716.7467293035781,737
-714.0779084906909,727
-711.409822528237,699
-708.7424712418238,707
-706.0758544569796,707
-703.4099719991541,712
-700.7448236937178,730
-698.0804093659622,706
-695.4167288411002,724
-692.7537819442656,731
-690.0915685005134,714
-687.4300883348199,741
-684.7693412720819,761
-682.1093271371178,757
-679.4500457546669,758
-676.7914969493897,766
-674.1336805458676,761
-671.4765963686034,776
-668.8202442420206,735
-666.1646239904642,753
-663.5097354382001,738
-660.8555784094151,714
-658.2021527282176,783
-655.5494582186366,809
-652.8974947046223,767
-650.2462620100463,795
-647.5957599587009,793
-644.9459883742998,786
-642.2969470804776,802
-639.6486359007902,769
-637.0010546587141,809
-634.3542031776476,785
-631.7080812809096,801
-629.0626887917401,775
-626.4180255333008,746
-623.7740913286734,839
-621.1308860008619,764
-618.4884093727904,779
-615.8466612673046,816
-613.2056415071715,762
-610.5653499150785,761
-607.9257863136347,770
-605.28695052537,823
-602.6488423727357,801
-600.0114616781036,756
-597.3748082637674,805
-594.7388819519412,825
-592.1036825647604,827
-589.4692099242818,774
-586.8354638524829,761
-584.2024441712624,817
-581.5701507024403,778
-578.9385832677575,867
-576.3077416888759,822
-573.6776257873787,772
-571.0482353847704,771
-568.4195703024757,786
-565.7916303618415,797
-563.164415384135,768
-560.5379251905453,790
-557.9121596021815,798
-555.2871184400748,783
-552.6628015251767,809
-550.0392086783606,832
-547.4163397204204,844
-544.794194472071,864
-542.1727727539491,859
-539.5520743866118,826
-536.9320991905377,841
-534.3128469861261,828
-531.6943175936979,891
-529.0765108334947,901
-526.4594265256793,964
-523.8430644903358,1094
-521.2274245474689,1273
-518.612506517005,1294
-515.9983102187913,1309
-513.3848354725959,1398
-510.77208209810846,1413
-508.16004991493924,1499
-505.5487387426199,1595
-502.9381484006032,1580
-500.3282787082628,1603
-497.71912948489364,1566
-495.1107005497117,1497
-492.5029917218539,1392
-489.8960028203786,1251
-487.28973366426493,1139
-484.68418407241325,1031
-482.07935386364494,994
-479.47524285670266,959
-476.87185087025,984
-474.2691777228715,1033
-471.66722323307334,995
-469.0659872192821,986
-466.4654694998459,1038
-463.86566989303384,1036
-461.26658821703614,987
-458.66822428996414,1003
-456.07057792985,978
-453.4736489546475,969
-450.877437182231,1021
-448.28194243039627,986
-445.68716451686,969
-443.09310325926003,985
-440.49975847515555,969
-437.9071299820263,948
-435.31521759727354,1008
-432.72402113821954,982
-430.13354042210767,992
-427.5437752661022,967
-424.95472548728867,1017
-422.36639090267386,961
-419.7787713291855,1053
-417.1918665836721,1050
-414.60567648290385,1030
-412.0202008435715,1032
-409.4354394822874,1040
-406.8513922155845,1058
-404.26805885991723,1054
-401.685439231661,1052
-399.103533147112,1093
-396.522340422488,1038
-393.9418608739278,1025
-391.3620943174908,969
-388.7830405691583,982
-386.2046994448317,965
-383.6270707603344,923
-381.05015433141045,918
-378.473949973725,837
-375.8984575028645,794
-373.32367673433623,758
-370.74960748356875,718
-368.1762495659117,671
-365.60360279663576,638
-363.03166699093265,601
-360.4604419639154,552
-357.8899275306178,530
-355.32012350599507,537
-352.7510297049233,538
-350.1826459421999,539
-347.61497203254316,499
-345.04800779059235,469
-342.4817530309082,449
-339.91620756797226,511
-337.35137121618743,531
-334.7872437898774,481
-332.22382510328725,466
-329.66111497058273,438
-327.09911320585127,449
-324.53781962310075,513
-321.9772340362607,497
-319.4173562591816,479
-316.8581861056348,481
-314.2997233893127,467
-311.7419679238294,470
-309.1849195227194,491
-306.62857799943856,520
-304.0729431673641,538
-301.51801483979375,505
-298.963792829947,491
-296.41027695096386,503
-293.85746701590574,540
-291.3053628377552,533
-288.7539642294155,512
-286.2032710037115,544
-283.65328297338897,514
-281.1039999511146,546
-278.5554217494762,537
-276.007548180983,558
-273.4603790580651,579
-270.9139141930734,548
-268.3681533982807,573
-265.8230964858798,563
-263.27874326798565,596
-260.7350935566336,580
-258.1921471637804,629
-255.6499039013039,696
-253.10836358100266,723
-250.56752601459698,684
-248.02739101372765,625
-245.48795838995704,640
-242.94922795476816,693
-240.41119951956557,687
-237.8738728956746,680
-235.33724789434166,643
-232.80132432673452,623
-230.2661020039418,597
-227.73158073697357,655
-225.19776033676033,716
-222.66464061415422,713
-220.1322213799284,690
-217.60050244477725,697
-215.06948361931552,719
-212.53916471408013,854
-210.00954553952818,846
-207.48062590603843,707
-204.9524056239104,696
-202.4248845033651,761
-199.8980623545441,802
-197.37193898751036,833
-194.84651421224817,846
-192.32178783866232,788
-189.79775967657952,807
-187.27442953574644,876
-184.7517972258321,885
-182.2298625564256,775
-179.7086253370378,733
-177.18808537710026,855
-174.66824248596583,962
-172.14909647290835,885
-169.6306471471229,858
-167.11289431772548,832
-164.59583779375328,809
-162.07947738416453,965
-159.5638128978386,999
-157.04884414357605,1054
-154.53457093009854,1063
-152.02099306604828,913
-149.50811035998936,877
-146.99592262040665,971
-144.48442965570587,1111
-141.97363127421409,1217
-139.46352728417958,1222
-136.95411749377126,1380
-134.44540171107985,1057
-131.93737974411636,958
-129.43005140081357,1137
-126.92341648902493,1587
-124.41747481652521,1767
-121.91222619101006,1826
-119.40767042009657,1850
-116.90380731132257,2120
-114.40063667214702,2589
-111.8981583099503,3198
-109.3963720320337,4011
-106.89527764561933,6145
-104.39487495785067,7452
-101.89516377579241,10037
-99.39614390642998,13891
-96.89781515667039,18437
-94.40017733334128,20380
-91.90323024319173,16076
-89.40697369289148,10886
-86.91140748903172,6992
-84.41653143812482,6377
-81.92234534660395,10041
-79.42884902082358,13878
-76.93604226705907,15281
-74.4439248915071,13822
-71.95249670028534,12172
-69.46175749943245,10961
-66.97170709490854,9949
-64.48234529259423,9384
-61.99367189829195,9045
-59.50568671772464,8482
-57.01838955653636,8309
-54.53178022029283,8006
-52.045858514480074,8846
-49.560624244506016,10780
-47.07607721569923,12203
-44.59221723330904,10084
-42.10904410250669,8794
-39.62655762838392,8444
-37.14475761595372,9876
-34.66364387015028,11114
-32.18321619582866,13628
-29.70347439776515,14409
-27.224418280657005,14606
-24.74604764912317,20457
-22.26836230770266,32307
-19.7913620608565,56970
-17.315046712966478,65037
-14.83941606833514,65037
-12.36446993118659,65037
-9.89020810566592,65037
-7.416630395839093,65037
-4.94373660569363,65037
-2.471526539137585,65037
-6.821210263296962E-13,65037
2.47084320796705,65037
4.941003281093458,65037
7.410480415786196,65037
9.879274808531363,65037
12.347386655893956,65037
14.814816154518212,65037
17.28156350112681,65037
19.74762889252179,65037
22.21301252558385,65037
24.67771459727237,20751
27.141735304626195,5913
29.605074844762612,5872
32.06773341487792,4912
34.52971121224755,3674
36.99100843422559,3631
39.45162527824516,3051
41.91156194181792,2865
44.370818622535126,3083
46.82939551806646,2790
49.287292826160524,4242
51.74451074464503,4226
54.201049471426245,2848
56.65690920448981,2384
59.112090141899785,1838
61.56659248179983,1814
64.02041642241159,2098
66.4735621620365,2203
68.92602989905402,2372
71.37781983192338,2340
73.82893215918205,1859
76.27936707944684,1525
78.72912479141326,1857
81.17820549385567,1896
83.62660938562783,1615
86.07433666566146,1416
88.5213875329681,1300
90.96776218663751,1416
93.41346082583925,1587
95.85848364982041,1920
98.30283085790859,1502
100.7465026495089,1270
103.18949922410604,1509
105.63182078126385,1273
108.07346752062438,1417
110.51443964190923,1160
112.95473734491827,1091
115.39436082953114,1162
117.83331029570547,1304
120.27158594347827,1250
122.7091879729652,1161
125.1461165843615,1024
127.58237197794062,923
130.01795435405518,969
132.4528639131364,1119
134.88710085569494,1046
137.32066538231982,1166
139.75355769367923,1225
142.1857779905207,1007
144.61732647366978,860
147.04820334403132,862
149.47840880258934,992
151.90794305040674,1061
154.33680628862487,1199
156.76499871846443,1282
159.19252054122433,1316
161.61937195828352,1548
164.04555317109896,1663
166.47106438120693,1825
168.89590579022217,2017
171.320077599839,2176
173.7435800118302,2278
176.16641322804742,2355
178.58857745042144,2381
181.01007288096173,2542
183.43089972175687,2608
185.85105817497413,2598
188.27054844285988,2583
190.6893707277394,2525
193.10752523201643,2581
195.5250121581745,2734
197.9418317087751,2756
200.3579840864594,2779
202.7734694939469,2830
205.18828813403627,2966
207.6024402096051,2897
210.01592592360964,2865
212.42874547908548,2879
214.84089907914665,2798
217.2523869269868,2910
219.66320922587727,2935
222.0733661791695,2803
224.48285799029293,2880
226.8916848627572,2944
229.29984700014882,2935
231.7073446061355,3042
234.11417788446204,3086
236.520347038953,3095
238.92585227351185,3203
241.33069379212054,3374
243.73487179884035,3263
246.1383864978112,3389
248.541238093252,3461
250.9434267894609,3384
253.34495279081432,3528
255.74581630176783,3457
258.1460175268563,3621
260.54555667069314,3604
262.9444339379703,3624
265.3426495334594,3425
267.7402036620107,3329
270.1370965285529,3101
272.53332833809407,3071
274.9288992957214,2981
277.32380960660055,2769
279.718059475976,2819
282.1116491091717,2818
284.5045787115897,2717
286.89684848871195,2623
289.2884586460981,2678
291.67940938938807,2746
294.0697009242996,2753
296.4593334566299,2727
298.84830719225477,2729
301.23662233712923,2663
303.6242790972866,2647
306.01127767884,2628
308.39761828798066,2472
310.78330113097934,2566
313.16832641418534,2488
315.5526943440269,2381
317.9364051270112,2446
320.3194589697242,2382
322.70185607883093,2441
325.0835966610754,2368
327.4646809232805,2270
329.8451090723478,2301
332.2248813152577,2273
334.6039978590701,2255
336.9824589109231,2286
339.36026467803447,2255
341.7374153677,2147
344.113911187295,2195
346.48975234427337,2187
348.8649390461686,2174
351.2394715005918,2232
353.61334991523415,2215
355.9865744978655,2176
358.35914545633375,2202
360.73106299856715,2209
363.10232733257146,2110
365.47293866643247,2128
367.84289720831396,2139
370.2122031664593,2164
372.5808567491905,2160
374.9488581649083,2071
377.31620762209275,2104
379.6829053293021,2058
382.0489514951745,1964
384.4143463284262,2049
386.7790900378528,2026
389.14318283232853,2097
391.50662492080653,1980
393.86941651231916,2131
396.23155781597745,2075
398.5930490409713,2091
400.9538903965696,2024
403.3140820921202,1991
405.6736243370498,2032
408.03251734086336,1916
410.3907613131465,1901
412.74835646356166,1976
415.10530300185144,2011
417.4616011378372,1973
419.81725108141893,1963
422.1722530425758,1916
424.5266072313656,2028
426.880313857925,2001
429.2333731324701,2015
431.58578526529516,2062
433.9375504667738,2015
436.2886689473588,2017
438.63914091758113,1942
440.9889665880513,1921
443.33814616945835,1977
445.68667987257015,2032
448.03456790823395,1996
450.3818104873759,1953
452.72840782100013,1948
455.07436012019105,1856
457.41966759611057,1902
459.7643304600007,1949
462.10834892318155,1910
464.4517231970525,1849
466.79445349309174,1844
469.1365400228566,1945
471.4779829979826,1955
473.81878263018564,1914
476.15893913125876,2007
478.4984527130747,2091
480.8373235875855,1983
483.17555196682144,2079
485.5131380628919,2075
487.8500820879857,2182
490.1863842543697,2264
492.52204477439034,2346
494.8570638604725,2582
497.1914417251204,2684
499.52517858091653,3146
501.85827464052306,3286
504.19073011668036,3427
506.5225452222086,3490
508.85372017000566,3549
511.18425517304956,3513
513.514150444396,3659
515.8434061971808,4633
518.1720226446176,5498
520.4999999999999,5756
522.8273384766991,5516
525.1540382881666,5082
527.480099647932,4555
529.8055227696037,3810
532.1303078668694,2929
534.454455153496,2373
536.777964843328,2213
539.1008371502907,2073
541.4230722883866,2016
543.744670471698,1996
546.0656319143858,1956
548.3859568306899,1959
550.7056454349294,1991
553.0246979415016,1895
555.3431145648834,2047
557.6608955196306,1955
559.978041020377,1874
562.2945512818363,1850
564.6104265188006,1961
566.9256669461412,1904
569.2402727788082,1883
571.5542442318302,1963
573.8675815203156,1889
576.1802848594508,1956
578.4923544645015,1944
580.8037905508126,1982
583.114593333807,1948
585.4247630289875,1899
587.7342998519354,1939
590.0432040183106,1952
592.3514757438526,1946
594.6591152443794,1999
596.9661227357875,1918
599.2724984340531,1980
601.578242555231,1880
603.8833553154542,1944
606.1878369309362,1897
608.4916876179676,1887
610.7949075929192,1906
613.0974970722403,1999
615.3994562724587,1904
617.7007854101818,1906
620.0014847020951,1857
622.3015543649641,1965
624.6009946156324,2037
626.8998056710224,1961
629.1979877481361,1932
631.4955410640538,1999
633.7924658359349,1965
636.0887622810175,2030
638.3844306166192,1957
640.6794710601358,2016
642.9738838290426,2029
645.2676691408932,2037
647.5608272133207,1915
649.853358264037,1944
652.1452625108324,2017
654.4365401715764,2051
656.7271914642178,2031
659.0172166067838,1986
661.3066158173809,2037
663.5953893141935,1966
665.8835373154867,2013
668.1710600396028,2059
670.4579577049639,2026
672.7442305300709,2047
675.0298787335033,2065
677.3149025339197,2092
679.599302150058,1968
681.8830778007342,1984
684.1662297048437,2028
686.4487580813608,2025
688.7306631493387,1992
691.0119451279091,2034
693.2926042362834,2081
695.5726406937516,1985
697.8520547196814,2013
700.1308465335215,1929
702.4090163547982,2016
704.6865644031171,2025
706.9634908981619,1966
709.2397960596965,2033
711.5154801075631,1979
713.7905432616823,2045
716.0649857420548,2014
718.3388077687592,2016
720.612009561953,1931
722.8845913418733,1991
725.1565533288352,1975
727.427895743234,1987
729.6986188055427,1881
731.9687227363137,1982
734.238207756178,1926
736.5070740858458,1938
738.7753219461066,2002
741.0429515578281,1906
743.3099631419569,2004
745.5763569195191,1956
747.8421331116193,1971
750.1072919394409,1958
752.3718336242467,1914
754.6357583873777,1888
756.8990664502545,1914
759.1617580343765,1930
761.423833361321,1982
763.6852926527457,2005
765.9461361303862,2050
768.206364016058,2020
770.4659765316536,1930
772.7249738991469,1922
774.9833563405886,2039
777.2411240781092,2041
779.4982773339183,1926
781.7548163303044,2024
784.010741289634,1953
786.2660524343538,2034
788.5207499869881,2021
790.7748341701416,2057
793.0283052064964,2043
795.2811633188143,2071
797.5334087299362,2057
799.7850416627813,1992
802.0360623403484,2025
804.2864709857143,2022
806.5362678220353,1989
808.7854530725468,2084
811.0340269605625,1990
813.2819897094754,2079
815.5293415427581,2089
817.77608268396,2049
820.0222133567116,1971
822.2677337847211,2039
824.5126441917765,2025
826.7569448017433,2019
829.0006358385675,2023
831.2437175262731,2008
833.4861900889629,2014
835.7280537508192,2023
837.9693087361026,2012
840.2099552691533,1941
842.4499935743896,2038
844.689423876309,2062
846.9282463994886,2128
849.1664613685833,2020
851.4040690083276,2053
853.6410695435349,2051
855.877463199097,2100
858.1132501999847,2018
860.3484307712487,2014
862.5830051380175,2086
864.8169735254988,2063
867.0503361589791,2059
869.2830932638243,2076
871.5152450654786,2002
873.7467917894654,2034
875.9777336613873,2074
878.2080709069252,2129
880.4378037518389,2075
882.666932421968,2069
884.8954571432301,2045
887.1233781416219,2097
889.3506956432192,2143
891.5774098741766,2108
893.803521060728,2149
896.0290294291852,2113
898.2539352059397,2096
900.4782386174619,2084
902.7019398903011,2071
904.925039251085,2103
907.147536926521,2075
909.3694331433943,2157
911.59072812857,2174
913.8114221089921,2148
916.0315153116827,2103
918.2510079637437,2061
920.4699002923547,2072
922.6881925247761,2038
924.905884888345,2087
927.1229776104793,2076
929.3394709186747,2096
931.555365040506,2089
933.7706602036275,2111
935.9853566357709,2099
938.1994545647489,2197
940.4129542184515,2175
942.6258558248488,2102
944.8381596119883,2060
947.0498658079974,2068
949.2609746410825,2090
951.4714863395287,2151
953.6814011316998,2163
955.8907192460387,2151
958.0994409110671,2075
960.3075663553858,2194
962.5150958076741,2120
964.7220294966913,2045
966.928367651274,2085
969.1341105003388,2132
971.3392582728806,2058
973.5438111979742,2037
975.747769504772,2096
977.9511334225061,2039
980.153903180487,2032
982.3560790081052,2032
984.5576611348289,2006
986.7586497902058,1985
988.9590452038618,1997
991.158847605503,1974
993.3580572249133,1963
995.5566742919558,1947
997.7546990365728,1887
999.952131688785,1841
1002.1489724786926,1871
1004.3452216364743,1814
1006.5408793923874,1859
1008.7359459767691,1850
1010.9304216200343,1830
1013.1243065526781,1832
1015.3176010052733,1792
1017.510305208472,1725
1019.7024193930064,1782
1021.8939437896848,1745
1024.0848786293977,1774
1026.2752241431122,1749
1028.4649805618747,1860
1030.6541481168115,1751
1032.842727039127,1726
1035.0307175601051,1716
1037.2181199111074,1730
1039.4049343235752,1755
1041.591161029029,1755
1043.7768002590683,1666
1045.9618522453698,1660
1048.1463172196918,1678
1050.3301954138697,1670
1052.513487059818,1751
1054.69619238953,1738
1056.8783116350783,1680
1059.0598450286152,1705
1061.2407928023704,1691
1063.4211551886528,1737
1065.6009324198508,1713
1067.780124728432,1684
1069.9587323469414,1702
1072.1367555080046,1713
1074.314194444325,1591
1076.4910493886855,1703
1078.667320573947,1701
1080.843008233051,1692
1083.0181125990161,1697
1085.1926339049414,1673
1087.3665723840027,1584
1089.5399282694575,1611
1091.7127017946405,1622
1093.8848931929647,1666
1096.0565026979243,1619
1098.2275305430899,1667
1100.3979769621128,1651
1102.567842188722,1631
1104.737126456726,1595
1106.9058300000124,1566
1109.0739530525475,1601
1111.2414958483764,1568
1113.4084586216231,1599
1115.5748416064907,1571
1117.7406450372605,1582
1119.9058691482942,1630
1122.0705141740304,1645
1124.2345803489884,1659
1126.3980679077658,1664
1128.5609770850388,1551
1130.7233081155623,1617
1132.8850612341707,1609
1135.0462366757774,1622
1137.2068346753745,1609
1139.3668554680326,1616
1141.526299288901,1569
1143.68516637321,1641
1145.8434569562655,1582
1148.001171273455,1555
1150.158309560244,1609
1152.3148720521767,1501
1154.470858984876,1556
1156.626270594044,1575
1158.7811071154629,1598
1160.9353687849912,1613
1163.089055838569,1521
1165.242168512213,1601
1167.3947070420209,1528
1169.5466716641677,1601
1171.6980626149075,1638
1173.8488801305748,1566
1175.9991244475814,1614
1178.1487958024186,1621
1180.2978944316555,1539
1182.4464205719428,1613
1184.5943744600072,1540
1186.7417563326567,1520
1188.8885664267755,1603
1191.0348049793297,1526
1193.1804722273619,1523
1195.325568407995,1595
1197.4700937584303,1601
1199.614048515948,1589
1201.7574329179074,1629
1203.900247201746,1630
1206.042491604982,1564
1208.1841663652099,1557
1210.3252717201053,1604
1212.465807907422,1625
1214.6057751649923,1554
1216.7451737307279,1669
1218.8840038426192,1628
1221.0222657387353,1550
1223.1599596572241,1648
1225.2970858363137,1592
1227.4336445143094,1667
1229.5696359295966,1587
1231.705060320639,1654
1233.8399179259786,1610
1235.9742089842384,1604
1238.107933734118,1655
1240.2410924143974,1638
1242.373685263935,1748
1244.5057125216676,1692
1246.6371744266116,1651
1248.7680712178621,1688
1250.898403134593,1723
1253.028170416058,1721
1255.1573733015875,1666
1257.2860120305932,1708
1259.4140868425648,1734
1261.54159797707,1714
1263.6685456737569,1674
1265.7949301723515,1746
1267.9207517126597,1732
1270.046010534565,1687
1272.1707068780306,1692
1274.2948409830983,1718
1276.4184130898889,1725
1278.541423438603,1671
1280.6638722695184,1715
1282.785759822993,1728
1284.9070863394636,1692
1287.0278520594447,1769
1289.1480572235314,1742
1291.2677020723963,1865
1293.3867868467923,1787
1295.5053117875495,1834
1297.623277135579,1867
1299.740683131868,1815
1301.8575300174857,1823
1303.973818033578,1898
1306.0895474213703,1925
1308.2047184221678,1879
1310.3193312773528,1900
1312.4333862283888,1934
1314.5468835168163,1804
1316.659823384255,1870
1318.7722060724045,1890
1320.8840318230418,1904
1322.9953008780249,1875
1325.1060134792888,1867
1327.2161698688478,1883
1329.3257702887959,1942
1331.4348149813054,1826
1333.5433041886276,1859
1335.6512381530933,1897
1337.7586171171101,1888
1339.8654413231675,1889
1341.9717110138317,1871
1344.0774264317488,1892
1346.1825878196432,1895
1348.2871954203192,1880
1350.3912494766587,1872
1352.4947502316231,1920
1354.5976979282532,1857
1356.7000928096686,1852
1358.8019351190665,1816
1360.9032250997243,1806
1363.0039629949988,1854
1365.1041490483235,1909
1367.2037835032133,1893
1369.3028666032606,1827
1371.401398592137,1892
1373.4993797135926,1865
1375.5968102114575,1857
1377.6936903296396,1796
1379.7900203121262,1813
1381.8858004029835,1904
1383.9810308463561,1881
1386.075711886469,1874
1388.1698437676241,1857
1390.2634267342032,1913
1392.356461030667,1901
1394.4489469015557,1886
1396.5408845914872,1901
1398.6322743451592,1940
1400.7231164073469,1944
1402.813411022907,1936
1404.903158436773,2016
1406.9923588939578,1970
1409.0810126395531,2026
1411.1691199187303,2054
1413.2566809767386,2028
1415.343696058907,2031
1417.4301654106425,2058
1419.5160892774315,2130
1421.6014679048399,2064
1423.6863015385125,2061
1425.7705904241707,2071
1427.8543348076178,2108
1429.9375349347342,2170
1432.0201910514802,2154
1434.102303403894,2232
1436.1838722380944,2199
1438.2648978002767,2271
1440.3453803367174,2276
1442.4253200937692,2345
1444.5047173178677,2317
1446.5835722555234,2364
1448.6618851533285,2439
1450.739656257952,2444
1452.8168858161434,2499
1454.8935740747306,2527
1456.96972128062,2575
1459.045327680797,2551
1461.120393522327,2692
1463.1949190523528,2642
1465.2689045180973,2760
1467.3423501668608,2808
1469.415256246024,2897
1471.4876230030463,2932
1473.559450685465,2965
1475.6307395408976,2991
1477.7014898170391,3009
1479.771701761665,3144
1481.8413756226287,3157
1483.9105116478618,3136
1485.9791100853772,3281
1488.0471711832643,3373
1490.1146951896926,3406
1492.1816823529098,3449
1494.2481329212433,3467
1496.3140471430984,3457
1498.3794252669609,3462
1500.4442675413939,3501
1502.5085742150404,3561
1504.572345536622,3591
1506.6355817549388,3547
1508.6982831188702,3592
1510.7604498773744,3695
1512.8220822794883,3727
1514.8831805743293,3705
1516.9437450110909,3792
1519.003775839048,3619
1521.0632733075522,3893
1523.1222376660367,3873
1525.1806691640113,3859
1527.2385680510652,3920
1529.2959345768668,3888
1531.3527689911643,3936
1533.4090715437833,4020
1535.4648424846291,3992
1537.5200820636855,4169
1539.5747905310159,4145
1541.6289681367616,4138
1543.6826151311434,4147
1545.7357317644614,4345
1547.7883182870937,4341
1549.8403749494987,4394
1551.8919020022113,4485
1553.9428996958477,4574
1555.9933682811015,4642
1558.0433080087469,4782
1560.0927191296346,4879
1562.1416018946961,4913
1564.1899565549415,4864
1566.2377833614592,4832
1568.2850825654164,4793
1570.3318544180606,4705
1572.3780991707158,4559
1574.423817074788,4316
1576.4690083817595,4299
1578.5136733431923,4036
1580.5578122107272,3960
1582.601425236085,3635
1584.6445126710646,3469
1586.6870747675434,3418
1588.7291117774776,3238
1590.7706239529034,3039
1592.8116115459347,2972
1594.8520748087658,2894
1596.8920139936686,2730
1598.9314293529933,2662
1600.9703211391711,2582
1603.008689604711,2525
1605.0465350022005,2415
1607.0838575843068,2376
1609.1206576037753,2310
1611.1569353134305,2300
1613.1926909661765,2231
1615.2279248149953,2148
1617.2626371129481,2114
1619.2968281131757,2061
1621.3304980688963,2038
1623.3636472334088,2010
1625.39627586009,1961
1627.428384202396,1944
1629.459972513861,1932
1631.4910410480993,1942
1633.5215900588028,1908
1635.551619799744,1869
1637.5811305247717,1814
1639.6101224878166,1809
1641.6385959428862,1897
1643.6665511440683,1797
1645.693988345528,1793
1647.7209078015112,1778
1649.7473097663405,1740
1651.7731944944203,1801
1653.7985622402307,1783
1655.823413258333,1772
1657.847747803366,1737
1659.8715661300494,1742
1661.8948684931793,1742
1663.9176551476316,1760
1665.9399263483624,1772
1667.9616823504057,1762
1669.982923408873,1692
1672.0036497789574,1722
1674.0238617159293,1700
1676.043559475138,1700
1678.0627433120121,1723
1680.081413482059,1710
1682.0995702408654,1673
1684.117213844096,1678
1686.134344547495,1734
1688.1509626068864,1739
1690.1670682781705,1750
1692.182661817329,1709
1694.1977434804217,1764
1696.2123135235875,1685
1698.226372203043,1721
1700.2399197750851,1756
1702.2529564960905,1692
1704.2654826225112,1659
1706.277498410882,1728
1708.2890041178139,1663
1710.2999999999988,1708
1712.3104863142066,1705
1714.3204633172854,1683
1716.329931266163,1655
1718.3388904178469,1617
1720.3473410294214,1635
1722.3552833580516,1593
1724.3627176609807,1661
1726.3696441955308,1669
1728.3760632191033,1607
1730.3819749891782,1617
1732.3873797633146,1681
1734.3922777991502,1588
1736.3966693544012,1646
1738.4005546868639,1613
1740.4039340544127,1627
1742.406807715001,1600
1744.4091759266616,1568
1746.4110389475054,1560
1748.4123970357223,1537
1750.413250449582,1518
1752.4135994474318,1593
1754.4134442876993,1578
1756.4127852288902,1515
1758.4116225295893,1594
1760.4099564484595,1580
1762.407787244244,1509
1764.405115175764,1528
1766.4019405019203,1521
1768.3982634816916,1562
1770.3940843741357,1515
1772.3894034383907,1482
1774.3842209336717,1487
1776.378537119274,1539
1778.372352254571,1500
1780.3656665990156,1469
1782.3584804121397,1498
1784.3507939535534,1485
1786.3426074829463,1501
1788.3339212600863,1519
1790.3247355448211,1464
1792.3150505970766,1468
1794.3048666768573,1540
1796.2941840442477,1462
1798.2830029594106,1487
1800.2713236825884,1437
1802.2591464741004,1454
1804.2464715943465,1451
1806.2332993038058,1443
1808.2196298630352,1442
1810.2054635326708,1408
1812.190800573428,1456
1814.175641246101,1502
1816.1599858115628,1517
1818.1438345307652,1518
1820.127187664738,1480
1822.1100454745924,1409
1824.092408221516,1507
1826.0742761667766,1535
1828.055649571721,1504
1830.0365286977735,1472
1832.0169138064398,1401
1833.9968051593014,1490
1835.9762030180214,1475
1837.9551076443408,1480
1839.9335193000788,1497
1841.9114382471344,1426
1843.888864747485,1463
1845.8657990631878,1441
1847.842241456378,1501
1849.8181921892697,1442
1851.7936515241558,1392
1853.7686197234098,1441
1855.7430970494815,1465
1857.7170837649014,1417
1859.6905801322787,1415
1861.6635864143004,1443
1863.6361028737338,1459
1865.608129773424,1438
1867.5796673762961,1448
1869.5507159453537,1433
1871.521275743678,1476
1873.4913470344313,1557
1875.4609300808534,1487
1877.4300251462632,1526
1879.3986324940588,1464
1881.366752387717,1514
1883.3343850907936,1496
1885.3015308669228,1512
1887.268189979819,1524
1889.2343626932739,1438
1891.2000492711595,1485
1893.1652499774254,1534
1895.1299650761011,1495
1897.0941948312952,1519
1899.0579395071945,1503
1901.0211993680641,1499
1902.98397467825,1524
1904.9462657021745,1502
1906.9080727043415,1521
1908.869395949332,1475
1910.8302357018065,1464
1912.790592226504,1493
1914.7504657882428,1418
1916.7098566519212,1430
1918.6687650825133,1445
1920.6271913450764,1486
1922.5851357047422,1430
1924.5425984267245,1517
1926.499579776314,1491
1928.4560800188833,1504
1930.4120994198802,1485
1932.367638244833,1510
1934.32269675935,1448
1936.2772752291175,1439
1938.231373919899,1507
1940.1849930975404,1458
1942.1381330279637,1454
1944.0907939771696,1462
1946.0429762112412,1505
1947.9946799963363,1460
1949.9459055986945,1413
1951.896653284633,1444
1953.8469233205478,1389
1955.7967159729142,1422
1957.7460315082863,1412
1959.6948701932974,1409
1961.6432322946594,1454
1963.5911180791632,1413
1965.5385278136787,1399
1967.4854617651545,1370
1969.4319202006182,1414
1971.377903387176,1482
1973.3234115920136,1456
1975.268445082395,1442
1977.2130041256642,1393
1979.1570889892423,1400
1981.1006999406304,1423
1983.04383724741,1437
1984.986501177238,1406
1986.928691997853,1428
1988.8704099770712,1481
1990.811655382789,1430
1992.7524284829801,1420
1994.692729545698,1359
1996.6325588390755,1379
1998.5719166313224,1385
2000.5108031907307,1364
2002.4492187856677,1399
2004.387163684583,1347
2006.3246381560011,1372
2008.2616424685298,1358
2010.1981768908527,1423
2012.1342416917332,1405
2014.069837140014,1412
2016.0049635046162,1387
2017.9396210545406,1327
2019.8738100588666,1376
2021.8075307867502,1368
2023.740783507431,1395
2025.6735684902228,1353
2027.6058860045214,1337
2029.5377363198004,1375
2031.4691197056118,1359
2033.4000364315875,1348
2035.3304867674374,1379
2037.260470982952,1380
2039.189989347998,1363
2041.1190421325232,1325
2043.047629606554,1376
2044.9757520401945,1345
2046.9034097036288,1293
2048.8306028671195,1383
2050.7573318010086,1385
2052.683596775716,1397
2054.609398061742,1360
2056.5347359296647,1382
2058.4596106501403,1362
2060.384022493906,1307
2062.3079717317764,1373
2064.231458634646,1390
2066.1544834734873,1318
2068.077046519352,1342
2069.99914804337,1343
2071.9207883167524,1348
2073.8419676107865,1338
2075.7626861968406,1337
2077.6829443463607,1381
2079.6027423308715,1347
2081.522080421977,1288
2083.440958891362,1291
2085.359378010786,1313
2087.2773380520907,1324
2089.194839287196,1348
2091.111881988101,1361
2093.0284664268825,1362
2094.9445928756973,1342
2096.86026160678,1397
2098.775472892446,1378
2100.690227005088,1292
2102.604524217178,1330
2104.5183648012676,1334
2106.431749029985,1310
2108.34467717604,1349
2110.2571495122206,1327
2112.169166311393,1318
2114.080727846503,1353
2115.9918343905747,1377
2117.902486216711,1376
2119.8126835980956,1342
2121.722426807987,1400
2123.6317161197285,1339
2125.5405518067364,1361
2127.448934142509,1305
2129.356863400624,1352
2131.264339854737,1419
2133.1713637785815,1367
2135.077935445972,1376
2136.9840551308002,1352
2138.889723107037,1373
2140.7949396487334,1350
2142.699705030018,1330
2144.6040195250994,1369
2146.507883408264,1402
2148.4112969538774,1403
2150.3142604363848,1384
2152.2167741303097,1392
2154.1188383102535,1377
2156.0204532508997,1345
2157.9216192270064,1384
2159.822336513414,1370
2161.7226053850413,1314
2163.622426116884,1367
2165.5217989840185,1391
2167.4207242616,1384
2169.319202224862,1387
2171.2172331491165,1371
2173.1148173097563,1379
2175.0119549822507,1337
2176.90864644215,1402
2178.8048919650823,1423
2180.7006918267534,1407
2182.596046302952,1390
2184.4909556695407,1448
2186.3854202024645,1429
2188.279440177746,1433
2190.173015871487,1442
2192.066147559868,1437
2193.958835519149,1414
2195.851080025667,1438
2197.7428813558417,1372
2199.6342397861667,1385
2201.5251555932186,1434
2203.415629053651,1432
2205.3056604441986,1480
2207.19525004167,1407
2209.084398122958,1417
2210.9731049650327,1415
2212.861370844941,1450
2214.749196039812,1436
2216.636580826851,1425
2218.523525483344,1443
2220.410030286655,1447
2222.296095514226,1430
2224.1817214435805,1413
2226.066908352319,1470
2227.951656518121,1429
2229.835966218746,1375
2231.71983773203,1459
2233.6032713358913,1429
2235.486267308324,1497
2237.3688259274036,1377
2239.2509474712824,1465
2241.132632218193,1468
2243.013880446447,1416
2244.8946924344323,1428
2246.7750684606203,1393
2248.6550088035574,1431
2250.534513741871,1429
2252.413583554265,1442
2254.292218519526,1377
2256.170418916517,1409
2258.0481850241786,1420
2259.925517121534,1401
2261.8024154876825,1467
2263.678880401803,1408
2265.5549121431536,1480
2267.430510991071,1474
2269.305677224971,1396
2271.180411124348,1383
2273.0547129687766,1452
2274.9285830379076,1384
2276.8020216114737,1439
2278.6750289692845,1398
2280.5476053912294,1493
2282.4197511572766,1441
2284.2914665474727,1485
2286.162751841943,1497
2288.0336073208937,1471
2289.904033264608,1498
2291.774029953448,1488
2293.6435976678554,1426
2295.5127366883517,1453
2297.381447295534,1422
2299.2497297700825,1378
2301.1175843927526,1321
2302.9850114443825,1335
2304.852011205885,1319
2306.7185839582553,1308
2308.5847299825664,1265
2310.4504495599676,1282
2312.3157429716925,1248
2314.1806104990483,1323
2316.0450524234247,1253
2317.9090690262888,1305
2319.772660589186,1307
2321.635827393742,1285
2323.498569721661,1288
2325.3608878547248,1276
2327.2227820747967,1298
2329.0842526638157,1294
2330.945299903803,1259
2332.805924076857,1267
2334.6661254651535,1310
2336.525904350951,1258
2338.3852610165827,1253
2340.244195744464,1324
2342.102708817088,1313
2343.9608005170253,1237
2345.8184711269287,1314
2347.675720929526,1325
2349.532550207628,1279
2351.38895924412,1263
2353.24494832197,1305
2355.100517724223,1338
2356.955667734004,1334
2358.810398634514,1343
2360.664710709037,1309
2362.5186042409337,1270
2364.3720795136437,1354
2366.225136810686,1357
2368.0777764156583,1328
2369.929998612237,1317
2371.7818036841777,1342
2373.633191915315,1283
2375.484163589562,1285
2377.3347189909114,1327
2379.184858403434,1374
2381.03458211128,1294
2382.8838903986775,1368
2384.732783549936,1316
2386.5812618494406,1323
2388.4293255816588,1278
2390.2769750311327,1320
2392.1242104824883,1378
2393.971032220427,1402
2395.8174405297295,1369
2397.6634356952563,1349
2399.509018001947,1391
2401.3541877348193,1418
2403.1989451789705,1316
2405.043290619576,1326
2406.8872243418905,1367
2408.730746631247,1352
2410.5738577730594,1327
2412.4165580528183,1323
2414.258847756095,1353
2416.100727168537,1331
2417.9421965758734,1271
2419.783256263912,1334
2421.623906518538,1322
2423.4641476257157,1367
2425.303979871491,1350
2427.143403541984,1384
2428.9824189233977,1400
2430.821026302012,1375
2432.6592259641866,1422
2434.497018196361,1388
2436.33440328505,1338
2438.171381516851,1340
2440.00795317844,1408
2441.844118556569,1427
2443.6798779380724,1416
2445.5152316098606,1394
2447.3501798589255,1346
2449.1847229723357,1367
2451.0188612372403,1381
2452.8525949408663,1379
2454.6859243705203,1350
2456.518849813587,1394
2458.3513715575314,1384
2460.183489889895,1341
2462.015205098301,1293
2463.8465174704493,1351
2465.67742729412,1354
2467.5079348571717,1366
2469.338040447542,1375
2471.1677443532476,1377
2472.9970468623833,1387
2474.825948263123,1351
2476.6544488437207,1364
2478.482548892508,1379
2480.310248697896,1370
2482.137548548374,1434
2483.9644487325118,1389
2485.790949538956,1377
2487.617051256433,1442
2489.44275417375,1393
2491.26805857979,1409
2493.0929647635157,1414
2494.917473013971,1387
2496.741583620276,1440
2498.5652968716304,1408
2500.3886130573137,1437
2502.2115324666834,1408
2504.0340553891765,1437
2505.856182114308,1417
2507.6779129316733,1420
2509.499248130945,1454
2511.3201880018764,1453
2513.140732834298,1442
2514.9608829181198,1456
2516.780638543331,1427
2518.6,1462
2520.418967578273,1467
2522.237541568376,1496
2524.0557222606144,1509
2525.8735099453706,1484
2527.6909049131086,1469
2529.507907454368,1423
2531.32451785977,1459
2533.140736420014,1525
2534.9565634258774,1449
2536.771999168218,1521
2538.5870439379714,1527
2540.4016980261526,1584
2542.2159617238544,1621
2544.02983532225,1622
2545.8433191125914,1556
2547.656413386209,1622
2549.4691184345115,1631
2551.2814345489874,1576
2553.093362021204,1647
2554.904901142808,1653
2556.716052205523,1720
2558.526815501153,1651
2560.3371913215824,1760
2562.147179958771,1684
2563.956781704761,1666
2565.7659968516705,1708
2567.5748256916986,1815
2569.3832685171224,1825
2571.1913256202984,1777
2572.9989972936614,1750
2574.806283829725,1816
2576.613185521084,1771
2578.4197026604074,1806
2580.2258355404483,1808
2582.031584454035,1837
2583.836949694077,1800
2585.6419315535613,1891
2587.4465303255533,1959
2589.2507463032002,1930
2591.0545797797245,1829
2592.8580310484303,1802
2594.6611004026995,1943
2596.463788135992,1887
2598.266094541849,1856
2600.0680199138874,1894
2601.869564545807,1847
2603.670728731383,1847
2605.4715127644704,1848
2607.2719169390048,1870
2609.071941548998,1913
2610.8715868885433,1892
2612.670853251811,1870
2614.469740933052,1936
2616.268250226594,1898
2618.0663814268455,1838
2619.864134828292,1879
2621.6615107255006,1851
2623.458509413115,1872
2625.2551311858597,1785
2627.0513763385347,1789
2628.8472451660223,1815
2630.6427379632833,1825
2632.4378550253564,1789
2634.232596647359,1754
2636.026963124488,1721
2637.8209547520187,1717
2639.6145718253065,1665
2641.407814639785,1658
2643.200683490966,1743
2644.9931786744414,1674
2646.7853004858807,1593
2648.577049221034,1642
2650.3684251757277,1635
2652.1594286458712,1573
2653.9500599274484,1558
2655.740319316525,1575
2657.5302071092437,1615
2659.3197236018286,1535
2661.10886909058,1524
2662.8976438718782,1557
2664.686048242183,1522
2666.4740824980327,1476
2668.2617469360443,1514
2670.0490418529134,1514
2671.8359675454153,1492
2673.622524310403,1507
2675.408712444811,1505
2677.1945322456495,1474
2678.979984010009,1432
2680.76506803506,1465
2682.5497846180497,1454
2684.334134056306,1396
2686.1181166472343,1450
2687.9017326883213,1405
2689.6849824771293,1413
2691.4678663113013,1420
2693.2503844885596,1375
2695.032537306705,1383
2696.8143250636167,1429
2698.5957480572542,1344
2700.3768065856534,1338
2702.1575009469316,1380
2703.937831439283,1353
2705.717798360982,1331
2707.4974020103837,1348
2709.276642685917,1311
2711.055520686095,1317
2712.834036309506,1338
2714.612189854819,1341
2716.389981620782,1304
2718.1674119062204,1328
2719.944481010041,1260
2721.721189231226,1329
2723.4975368688415,1306
2725.273524222027,1281
2727.0491515900053,1303
2728.824419272075,1301
2730.5993275676146,1378
2732.3738767760838,1340
2734.148067197016,1279
2735.921899130031,1294
2737.6953728748194,1275
2739.468488731156,1292
2741.2412469988926,1242
2743.0136479779617,1287
2744.785691968372,1263
2746.5573792702116,1281
2748.3287101836504,1263
2750.099685008934,1232
2751.870304046388,1300
2753.640567596418,1240
2755.4104759595057,1285
2757.1800294362156,1241
2758.949228327187,1243
2760.7180729331412,1276
2762.486563554877,1250
2764.254700493272,1261
2766.022484049284,1274
2767.789914523947,1248
2769.5569922183786,1247
2771.3237174337705,1240
2773.090090471394,1274
2774.8561116326036,1257
2776.6217812188274,1325
2778.3870995315756,1264
2780.1520668724356,1280
2781.9166835430747,1239
2783.6809498452394,1242
2785.444866080754,1296
2787.2084325515225,1277
2788.971649559527,1250
2790.73451740683,1305
2792.4970363955713,1251
2794.2592068279705,1233
2796.0210290063264,1229
2797.7825032330147,1257
2799.543629810493,1280
2801.304409041296,1251
2803.0648412280366,1252
2804.8249266734088,1263
2806.5846656801846,1205
2808.344058551212,1214
2810.1031055894246,1189
2811.8618070978273,1247
2813.6201633795085,1287
2815.378174737636,1250
2817.1358414754536,1270
2818.893163896285,1233
2820.6501423035334,1273
2822.4067770006814,1248
2824.1630682912883,1243
2825.9190164789957,1219
2827.6746218675207,1250
2829.429884760661,1272
2831.184805462294,1217
2832.9393842763743,1198
2834.693621506936,1262
2836.4475174580916,1275
2838.201072434034,1224
2839.954286739034,1240
2841.707160677441,1301
2843.459694553685,1230
2845.2118886722724,1209
2846.96374333779,1257
2848.7152588549034,1222
2850.4664355283567,1280
2852.217273662973,1263
2853.9677735636546,1220
2855.7179355353833,1231
2857.4677598832186,1308
2859.217246912299,1256
2860.9663969278427,1290
2862.715210235146,1252
2864.4636871395846,1216
2866.211827946614,1261
2867.9596329617652,1195
2869.7071024906536,1206
2871.4542368389684,1273
2873.20103631248,1297
2874.947501217038,1249
2876.6936318585695,1208
2878.4394285430812,1222
2880.1848915766604,1261
2881.9300212654707,1191
2883.6748179157553,1255
2885.4192818338374,1231
2887.1634133261173,1221
2888.907212699077,1225
2890.6506802592744,1202
2892.393816313348,1228
2894.1366211680142,1208
2895.8790951300693,1227
2897.621238506388,1248
2899.363051603925,1225
2901.1045347297118,1226
2902.8456881908596,1274
2904.58651229456,1243
2906.327007348081,1246
2908.067173658772,1178
2909.8070115340597,1185
2911.5465212814497,1254
2913.285703208527,1268
2915.0245576229563,1201
2916.7630848324807,1255
2918.5012851449196,1197
2920.2391588681758,1253
2921.976706310227,1206
2923.7139277791334,1206
2925.4508235830313,1229
2927.187394030137,1223
2928.923639428745,1268
2930.6595600872306,1218
2932.395156314046,1245
2934.1304284177218,1269
2935.8653767068713,1207
2937.6000014901815,1236
2939.3343030764227,1188
2941.068281774442,1211
2942.8019378931644,1233
2944.5352717415976,1225
2946.2682836288236,1226
2948.0009738640065,1284
2949.7333427563885,1237
2951.465390615289,1226
2953.1971177501086,1188
2954.9285244703265,1212
2956.6596110855,1189
2958.3903779052657,1204
2960.1208252393385,1271
2961.8509533975125,1276
2963.5807626896617,1215
2965.3102534257378,1222
2967.0394259157715,1204
2968.768280469873,1219
2970.496817398232,1199
2972.2250370111146,1228
2973.952939618869,1222
2975.6805255319196,1274
2977.4077950607707,1207
2979.134748516006,1266
2980.861386208289,1250
2982.587708448359,1236
2984.313715547037,1235
2986.039407815222,1239
2987.764785563891,1249
2989.489849104102,1230
2991.2145987469908,1189
2992.9390348037705,1199
2994.6631575857346,1219
2996.3869674042576,1188
2998.1104645707887,1244
2999.83364939686,1245
3001.5565221940783,1245
3003.2790832741334,1196
3005.0013329487924,1226
3006.7232715298996,1227
3008.4448993293804,1205
3010.166216659239,1206
3011.887223831558,1197
3013.607921158498,1154
3015.3283089522993,1213
3017.0483875252826,1329
3018.7681571898443,1269
3020.4876182584626,1176
3022.2067710436927,1236
3023.9256158581707,1221
3025.644153014609,1216
3027.362382825801,1211
3029.0803056046193,1193
3030.797921664012,1187
3032.5152313170106,1192
3034.2322348767225,1131
3035.9489326563353,1187
3037.665324969115,1232
3039.3814121284063,1208
3041.097194447633,1176
3042.812672240299,1164
3044.5278458199855,1214
3046.2427155003525,1253
3047.9572815951406,1187
3049.671544418167,1220
3051.38550428333,1201
3053.0991615046073,1202
3054.812516396051,1199
3056.5255692717974,1232
3058.2383204460575,1253
3059.9507702331257,1215
3061.662918947372,1200
3063.3747669032446,1217
3065.0863144152736,1220
3066.7975617980674,1201
3068.508509366309,1187
3070.219157434767,1145
3071.9295063182844,1235
3073.639556331785,1192
3075.3493077902704,1209
3077.058761008821,1235
3078.7679163025964,1241
3080.476773986837,1191
3082.1853343768594,1205
3083.89359778806,1258
3085.6015645359153,1194
3087.3092349359786,1209
3089.016609303884,1201
3090.7236879553434,1227
3092.4304712061476,1223
3094.136959372166,1216
3095.843152769349,1178
3097.5490517137237,1237
3099.2546565213966,1210
3100.959967508554,1202
3102.66498499146,1203
3104.3697092864577,1250
3106.0741407099695,1223
3107.778279578498,1231
3109.482126208622,1225
3111.1856809170004,1237
3112.8889440203716,1206
3114.5919158355528,1217
3116.294596679439,1231
3117.996986869006,1212
3119.6990867213062,1264
3121.4008965534726,1224
3123.102416682717,1216
3124.803647426329,1205
3126.5045891016784,1181
3128.205242026213,1198
3129.90560651746,1262
3131.605682893025,1301
3133.3054714705922,1231
3135.0049725679282,1219
3136.7041865028714,1233
3138.4031135933465,1217
3140.101754157353,1216
3141.800108512971,1176
3143.498176978357,1232
3145.1959598717494,1245
3146.8934575114636,1173
3148.5906702158954,1220
3150.2875983035183,1198
3151.9842420928853,1257
3153.680601902627,1216
3155.376678051456,1207
3157.07247085816,1184
3158.767980641609,1175
3160.463207720748,1236
3162.158152414606,1208
3163.8528150422862,1187
3165.5471959229726,1241
3167.2412953759303,1187
3168.9351137204976,1162
3170.628651276098,1196
3172.3219083622307,1179
3174.014885298474,1172
3175.707582404485,1242
3177.4000000000005,1191
3179.092138404835,1190
3180.7839979388846,1204
3182.47557892212,1201
3184.166881674594,1226
3185.8579065164386,1193
3187.5486537678626,1246
3189.2391237491547,1154
3190.9293167806827,1219
3192.6192331828934,1175
3194.3088732763117,1175
3195.998237381542,1160
3197.687325819268,1174
3199.376138910251,1249
3201.064676975334,1250
3202.7529403354347,1189
3204.4409293115523,1212
3206.1286442247647,1165
3207.816085396229,1171
3209.5032531471825,1181
3211.190147798936,1191
3212.8767696728846,1144
3214.5631190905015,1140
3216.2491963733373,1181
3217.9350018430214,1175
3219.6205358212637,1215
3221.305798629851,1175
3222.990790590651,1202
3224.6755120256103,1196
3226.359963256751,1192
3228.0441446061795,1141
3229.7280563960758,1209
3231.411698948703,1148
3233.0950725863995,1120
3234.778177631587,1135
3236.461014406761,1196
3238.1435832345005,1185
3239.8258844374595,1192
3241.507918338374,1170
3243.1896852600576,1184
3244.8711855254023,1173
3246.552419457381,1157
3248.233387379042,1158
3249.914089613516,1200
3251.59452648401,1212
3253.274698313813,1135
3254.95460542629,1157
3256.6342481448855,1197
3258.313626793125,1191
3259.9927416946084,1156
3261.6715931730196,1156
3263.3501815521176,1163
3265.0285071557437,1187
3266.706570307815,1198
3268.3843713323286,1138
3270.0619105533615,1172
3271.739188295068,1178
3273.4162048816834,1237
3275.0929606375184,1184
3276.769455886966,1196
3278.445690954498,1169
3280.1216661646613,1205
3281.797381842087,1180
3283.4728383114807,1164
3285.1480358976296,1208
3286.8229749253996,1123
3288.4976557197333,1220
3290.172078605655,1184
3291.846243908266,1198
3293.5201519527463,1121
3295.193803064357,1133
3296.8671975684374,1131
3298.5403357904024,1153
3300.21321805575,1107
3301.8858446900567,1164
3303.558216018975,1116
3305.23033236824,1205
3306.9021940636603,1173
3308.57380143113,1163
3310.2451547966184,1134
3311.916254486174,1183
3313.5871008259246,1177
3315.2576941420766,1131
3316.9280347609147,1217
3318.5981230088046,1167
3320.2679592121895,1140
3321.9375436975924,1164
3323.606876791612,1130
3325.27595882093,1113
3326.944790112305,1180
3328.6133709925753,1135
3330.2817017886573,1145
3331.949782827547,1159
3333.617614436319,1125
3335.2851969421245,1173
3336.952530672199,1135
3338.619615953853,1199
3340.286453114475,1159
3341.9530424815357,1182
3343.619384382583,1197
3345.2854791452437,1185
3346.951327097224,1167
3348.6169285663073,1132
3350.2822838803577,1162
3351.947393367319,1145
3353.61225735521,1145
3355.2768761721345,1134
3356.9412501462693,1173
3358.605379605873,1126
3360.2692648792827,1191
3361.9329062949146,1132
3363.596304181263,1229
