CollectionTime,9/20/2024 1:08:37 PM
ExposureUsed,3
CalibratedSpectrum
-962.7078968117929,625
-959.9714848408522,643
-957.2358232597828,637
-954.5009119013725,656
-951.7667505983302,648
-949.0333391832855,677
-946.3006774887896,684
-943.5687653473143,660
-940.837602591253,697
-938.1071890529199,673
-935.3775245645503,666
-932.6486089583007,664
-929.9204420662485,643
-927.1930237203925,657
-924.4663537526524,665
-921.7404319948689,691
-919.0152582788041,692
-916.2908324361409,716
-913.5671542984834,685
-910.8442236973568,676
-908.1220404642074,606
-905.4006044304027,674
-902.679915427231,701
-899.959973285902,648
-897.2407778375464,633
-894.5223289132158,629
-891.8046263438832,663
-889.0876699604426,642
-886.3714595937089,627
-883.6559950744183,651
-880.9412762332282,646
-878.2273029007168,618
-875.5140749073835,617
-872.8015920836489,635
-870.0898542598545,592
-867.3788612662631,613
-864.6686129330585,616
-861.9591090903457,663
-859.2503495681506,654
-856.5423341964203,611
-853.8350628050229,589
-851.1285352237478,624
-848.4227512823054,633
-845.7177108103272,610
-843.0134136373656,682
-840.3098595928943,660
-837.6070485063082,641
-834.9049802069229,688
-832.2036545239757,625
-829.5030712866244,659
-826.8032303239481,672
-824.1041314649472,648
-821.4057745385428,630
-818.7081593735775,636
-816.0112857988148,591
-813.3151536429393,654
-810.6197627345566,631
-807.9251129021936,642
-805.2312039742981,644
-802.5380357792392,630
-799.8456081453069,647
-797.1539209007124,635
-794.462973873588,651
-791.772766891987,659
-789.083299783884,656
-786.3945723771743,619
-783.7065844996748,650
-781.0193359791231,645
-778.3328266431781,660
-775.6470563194197,670
-772.9620248353489,687
-770.2777320183878,628
-767.5941776958798,622
-764.9113616950891,653
-762.2292838432011,654
-759.5479439673222,655
-756.8673418944801,636
-754.1874774516235,701
-751.5083504656222,654
-748.8299607632671,684
-746.15230817127,648
-743.475392516264,681
-740.7992136248035,695
-738.1237713233636,676
-735.4490654383407,684
-732.7750957960521,680
-730.1018622227365,691
-727.4293645445534,673
-724.7576025875837,702
-722.0865761778291,691
-719.4162851412126,686
-716.7467293035781,692
-714.0779084906909,738
-711.409822528237,724
-708.7424712418238,716
-706.0758544569796,707
-703.4099719991541,692
-700.7448236937178,722
-698.0804093659622,728
-695.4167288411002,712
-692.7537819442656,717
-690.0915685005134,720
-687.4300883348199,750
-684.7693412720819,770
-682.1093271371178,744
-679.4500457546669,725
-676.7914969493897,706
-674.1336805458676,726
-671.4765963686034,742
-668.8202442420206,747
-666.1646239904642,760
-663.5097354382001,755
-660.8555784094151,754
-658.2021527282176,775
-655.5494582186366,752
-652.8974947046223,777
-650.2462620100463,800
-647.5957599587009,748
-644.9459883742998,783
-642.2969470804776,792
-639.6486359007902,795
-637.0010546587141,806
-634.3542031776476,780
-631.7080812809096,780
-629.0626887917401,752
-626.4180255333008,791
-623.7740913286734,767
-621.1308860008619,800
-618.4884093727904,725
-615.8466612673046,761
-613.2056415071715,769
-610.5653499150785,738
-607.9257863136347,810
-605.28695052537,827
-602.6488423727357,806
-600.0114616781036,795
-597.3748082637674,837
-594.7388819519412,824
-592.1036825647604,799
-589.4692099242818,786
-586.8354638524829,850
-584.2024441712624,779
-581.5701507024403,789
-578.9385832677575,859
-576.3077416888759,845
-573.6776257873787,841
-571.0482353847704,826
-568.4195703024757,722
-565.7916303618415,777
-563.164415384135,780
-560.5379251905453,765
-557.9121596021815,800
-555.2871184400748,782
-552.6628015251767,795
-550.0392086783606,813
-547.4163397204204,799
-544.794194472071,834
-542.1727727539491,865
-539.5520743866118,863
-536.9320991905377,852
-534.3128469861261,940
-531.6943175936979,912
-529.0765108334947,925
-526.4594265256793,1044
-523.8430644903358,1146
-521.2274245474689,1299
-518.612506517005,1371
-515.9983102187913,1350
-513.3848354725959,1430
-510.77208209810846,1512
-508.16004991493924,1586
-505.5487387426199,1769
-502.9381484006032,1884
-500.3282787082628,1790
-497.71912948489364,1697
-495.1107005497117,1574
-492.5029917218539,1458
-489.8960028203786,1369
-487.28973366426493,1200
-484.68418407241325,1048
-482.07935386364494,1039
-479.47524285670266,1032
-476.87185087025,1001
-474.2691777228715,1004
-471.66722323307334,975
-469.0659872192821,1023
-466.4654694998459,993
-463.86566989303384,982
-461.26658821703614,1036
-458.66822428996414,963
-456.07057792985,1003
-453.4736489546475,1011
-450.877437182231,980
-448.28194243039627,936
-445.68716451686,933
-443.09310325926003,1007
-440.49975847515555,996
-437.9071299820263,984
-435.31521759727354,1030
-432.72402113821954,1038
-430.13354042210767,1010
-427.5437752661022,1011
-424.95472548728867,999
-422.36639090267386,1031
-419.7787713291855,1044
-417.1918665836721,1005
-414.60567648290385,1005
-412.0202008435715,1014
-409.4354394822874,1050
-406.8513922155845,1074
-404.26805885991723,1127
-401.685439231661,1101
-399.103533147112,1107
-396.522340422488,1060
-393.9418608739278,1070
-391.3620943174908,1016
-388.7830405691583,976
-386.2046994448317,985
-383.6270707603344,953
-381.05015433141045,930
-378.473949973725,885
-375.8984575028645,846
-373.32367673433623,710
-370.74960748356875,768
-368.1762495659117,723
-365.60360279663576,700
-363.03166699093265,670
-360.4604419639154,580
-357.8899275306178,546
-355.32012350599507,527
-352.7510297049233,503
-350.1826459421999,538
-347.61497203254316,541
-345.04800779059235,573
-342.4817530309082,526
-339.91620756797226,554
-337.35137121618743,527
-334.7872437898774,494
-332.22382510328725,462
-329.66111497058273,507
-327.09911320585127,517
-324.53781962310075,512
-321.9772340362607,502
-319.4173562591816,509
-316.8581861056348,507
-314.2997233893127,518
-311.7419679238294,562
-309.1849195227194,560
-306.62857799943856,600
-304.0729431673641,557
-301.51801483979375,601
-298.963792829947,575
-296.41027695096386,568
-293.85746701590574,584
-291.3053628377552,610
-288.7539642294155,634
-286.2032710037115,618
-283.65328297338897,590
-281.1039999511146,617
-278.5554217494762,642
-276.007548180983,669
-273.4603790580651,676
-270.9139141930734,599
-268.3681533982807,687
-265.8230964858798,673
-263.27874326798565,660
-260.7350935566336,689
-258.1921471637804,695
-255.6499039013039,892
-253.10836358100266,825
-250.56752601459698,675
-248.02739101372765,718
-245.48795838995704,712
-242.94922795476816,747
-240.41119951956557,741
-237.8738728956746,698
-235.33724789434166,744
-232.80132432673452,749
-230.2661020039418,746
-227.73158073697357,740
-225.19776033676033,780
-222.66464061415422,812
-220.1322213799284,856
-217.60050244477725,815
-215.06948361931552,772
-212.53916471408013,843
-210.00954553952818,847
-207.48062590603843,806
-204.9524056239104,846
-202.4248845033651,850
-199.8980623545441,908
-197.37193898751036,917
-194.84651421224817,992
-192.32178783866232,852
-189.79775967657952,791
-187.27442953574644,940
-184.7517972258321,1003
-182.2298625564256,853
-179.7086253370378,844
-177.18808537710026,911
-174.66824248596583,1018
-172.14909647290835,1061
-169.6306471471229,1021
-167.11289431772548,984
-164.59583779375328,1040
-162.07947738416453,1268
-159.5638128978386,1334
-157.04884414357605,1059
-154.53457093009854,1085
-152.02099306604828,1034
-149.50811035998936,1057
-146.99592262040665,1310
-144.48442965570587,1410
-141.97363127421409,1400
-139.46352728417958,1328
-136.95411749377126,1362
-134.44540171107985,1227
-131.93737974411636,1271
-129.43005140081357,1439
-126.92341648902493,1667
-124.41747481652521,1944
-121.91222619101006,1938
-119.40767042009657,2170
-116.90380731132257,2826
-114.40063667214702,3417
-111.8981583099503,3983
-109.3963720320337,4543
-106.89527764561933,6588
-104.39487495785067,7812
-101.89516377579241,9716
-99.39614390642998,12902
-96.89781515667039,18579
-94.40017733334128,21549
-91.90323024319173,17397
-89.40697369289148,11401
-86.91140748903172,7766
-84.41653143812482,6989
-81.92234534660395,10195
-79.42884902082358,12930
-76.93604226705907,13514
-74.4439248915071,12224
-71.95249670028534,10077
-69.46175749943245,7799
-66.97170709490854,6588
-64.48234529259423,7301
-61.99367189829195,8387
-59.50568671772464,9019
-57.01838955653636,11300
-54.53178022029283,13842
-52.045858514480074,18240
-49.560624244506016,22787
-47.07607721569923,23966
-44.59221723330904,22645
-42.10904410250669,20896
-39.62655762838392,19093
-37.14475761595372,19400
-34.66364387015028,18614
-32.18321619582866,23241
-29.70347439776515,24331
-27.224418280657005,22009
-24.74604764912317,25718
-22.26836230770266,34974
-19.7913620608565,58144
-17.315046712966478,65036
-14.83941606833514,65036
-12.36446993118659,65036
-9.89020810566592,65036
-7.416630395839093,65036
-4.94373660569363,65036
-2.471526539137585,65036
-6.821210263296962E-13,65036
2.47084320796705,65036
4.941003281093458,65036
7.410480415786196,65036
9.879274808531363,65036
12.347386655893956,65036
14.814816154518212,65036
17.28156350112681,65036
19.74762889252179,65036
22.21301252558385,25651
24.67771459727237,6287
27.141735304626195,5772
29.605074844762612,5344
32.06773341487792,3923
34.52971121224755,3884
36.99100843422559,4350
39.45162527824516,4121
41.91156194181792,4175
44.370818622535126,3481
46.82939551806646,2794
49.287292826160524,4122
51.74451074464503,3938
54.201049471426245,3166
56.65690920448981,3052
59.112090141899785,2429
61.56659248179983,2330
64.02041642241159,2218
66.4735621620365,2661
68.92602989905402,2949
71.37781983192338,2872
73.82893215918205,2314
76.27936707944684,1841
78.72912479141326,2138
81.17820549385567,1882
83.62660938562783,1455
86.07433666566146,1495
88.5213875329681,1580
90.96776218663751,1748
93.41346082583925,1889
95.85848364982041,2158
98.30283085790859,1823
100.7465026495089,1606
103.18949922410604,1597
105.63182078126385,1286
108.07346752062438,1567
110.51443964190923,1542
112.95473734491827,1562
115.39436082953114,1397
117.83331029570547,1480
120.27158594347827,1604
122.7091879729652,1544
125.1461165843615,1498
127.58237197794062,1513
130.01795435405518,1255
132.4528639131364,1257
134.88710085569494,1325
137.32066538231982,1307
139.75355769367923,1305
142.1857779905207,1088
144.61732647366978,948
147.04820334403132,1084
149.47840880258934,1263
151.90794305040674,1368
154.33680628862487,1312
156.76499871846443,1408
159.19252054122433,1506
161.61937195828352,1666
164.04555317109896,1713
166.47106438120693,1917
168.89590579022217,2104
171.320077599839,2310
173.7435800118302,2299
176.16641322804742,2390
178.58857745042144,2581
181.01007288096173,2513
183.43089972175687,2553
185.85105817497413,2555
188.27054844285988,2551
190.6893707277394,2623
193.10752523201643,2727
195.5250121581745,2768
197.9418317087751,2837
200.3579840864594,2850
202.7734694939469,2801
205.18828813403627,2898
207.6024402096051,2875
210.01592592360964,2762
212.42874547908548,2866
214.84089907914665,2884
217.2523869269868,2984
219.66320922587727,2901
222.0733661791695,3029
224.48285799029293,2935
226.8916848627572,3050
229.29984700014882,3086
231.7073446061355,3042
234.11417788446204,3041
236.520347038953,3192
238.92585227351185,3264
241.33069379212054,3405
243.73487179884035,3402
246.1383864978112,3469
248.541238093252,3388
250.9434267894609,3527
253.34495279081432,3521
255.74581630176783,3503
258.1460175268563,3604
260.54555667069314,3625
262.9444339379703,3562
265.3426495334594,3608
267.7402036620107,3562
270.1370965285529,3312
272.53332833809407,3175
274.9288992957214,3086
277.32380960660055,2856
279.718059475976,2801
282.1116491091717,2880
284.5045787115897,2836
286.89684848871195,2837
289.2884586460981,2703
291.67940938938807,2968
294.0697009242996,2756
296.4593334566299,2797
298.84830719225477,2721
301.23662233712923,2799
303.6242790972866,2611
306.01127767884,2643
308.39761828798066,2624
310.78330113097934,2515
313.16832641418534,2494
315.5526943440269,2475
317.9364051270112,2514
320.3194589697242,2459
322.70185607883093,2467
325.0835966610754,2355
327.4646809232805,2343
329.8451090723478,2357
332.2248813152577,2389
334.6039978590701,2350
336.9824589109231,2310
339.36026467803447,2319
341.7374153677,2293
344.113911187295,2274
346.48975234427337,2280
348.8649390461686,2264
351.2394715005918,2247
353.61334991523415,2242
355.9865744978655,2195
358.35914545633375,2241
360.73106299856715,2240
363.10232733257146,2251
365.47293866643247,2179
367.84289720831396,2110
370.2122031664593,2202
372.5808567491905,2210
374.9488581649083,2261
377.31620762209275,2082
379.6829053293021,2094
382.0489514951745,2100
384.4143463284262,2100
386.7790900378528,2133
389.14318283232853,2188
391.50662492080653,2148
393.86941651231916,2151
396.23155781597745,2190
398.5930490409713,2083
400.9538903965696,2048
403.3140820921202,2078
405.6736243370498,2060
408.03251734086336,2102
410.3907613131465,2078
412.74835646356166,2072
415.10530300185144,2003
417.4616011378372,2078
419.81725108141893,2118
422.1722530425758,2089
424.5266072313656,2121
426.880313857925,2064
429.2333731324701,2058
431.58578526529516,2051
433.9375504667738,1995
436.2886689473588,2003
438.63914091758113,1986
440.9889665880513,2031
443.33814616945835,2015
445.68667987257015,1953
448.03456790823395,2063
450.3818104873759,2079
452.72840782100013,1997
455.07436012019105,2028
457.41966759611057,2011
459.7643304600007,1953
462.10834892318155,1918
464.4517231970525,1975
466.79445349309174,2034
469.1365400228566,1961
471.4779829979826,2063
473.81878263018564,2002
476.15893913125876,2035
478.4984527130747,2064
480.8373235875855,2135
483.17555196682144,2093
485.5131380628919,2128
487.8500820879857,2158
490.1863842543697,2284
492.52204477439034,2458
494.8570638604725,2674
497.1914417251204,2936
499.52517858091653,3347
501.85827464052306,3708
504.19073011668036,3758
506.5225452222086,4079
508.85372017000566,3819
511.18425517304956,3875
513.514150444396,4171
515.8434061971808,5149
518.1720226446176,6006
520.4999999999999,6300
522.8273384766991,6023
525.1540382881666,5522
527.480099647932,5025
529.8055227696037,4049
532.1303078668694,3142
534.454455153496,2494
536.777964843328,2215
539.1008371502907,2176
541.4230722883866,2112
543.744670471698,2015
546.0656319143858,2013
548.3859568306899,2019
550.7056454349294,1927
553.0246979415016,2043
555.3431145648834,1980
557.6608955196306,2005
559.978041020377,1911
562.2945512818363,1984
564.6104265188006,2118
566.9256669461412,2004
569.2402727788082,1899
571.5542442318302,1910
573.8675815203156,1993
576.1802848594508,1978
578.4923544645015,2045
580.8037905508126,1993
583.114593333807,1944
585.4247630289875,1996
587.7342998519354,2015
590.0432040183106,1968
592.3514757438526,1940
594.6591152443794,1975
596.9661227357875,1963
599.2724984340531,2013
601.578242555231,1943
603.8833553154542,1951
606.1878369309362,1966
608.4916876179676,1931
610.7949075929192,2043
613.0974970722403,1947
615.3994562724587,1936
617.7007854101818,1990
620.0014847020951,2049
622.3015543649641,1987
624.6009946156324,1966
626.8998056710224,2008
629.1979877481361,1980
631.4955410640538,2032
633.7924658359349,1944
636.0887622810175,1981
638.3844306166192,2118
640.6794710601358,2013
642.9738838290426,2013
645.2676691408932,1994
647.5608272133207,2064
649.853358264037,2094
652.1452625108324,2137
654.4365401715764,2040
656.7271914642178,2044
659.0172166067838,2092
661.3066158173809,2112
663.5953893141935,2201
665.8835373154867,2101
668.1710600396028,2086
670.4579577049639,2046
672.7442305300709,2090
675.0298787335033,2123
677.3149025339197,2103
679.599302150058,2011
681.8830778007342,2004
684.1662297048437,2015
686.4487580813608,2040
688.7306631493387,2093
691.0119451279091,2052
693.2926042362834,2025
695.5726406937516,2052
697.8520547196814,2036
700.1308465335215,2016
702.4090163547982,1965
704.6865644031171,2076
706.9634908981619,2071
709.2397960596965,2063
711.5154801075631,2000
713.7905432616823,2047
716.0649857420548,2064
718.3388077687592,2000
720.612009561953,1977
722.8845913418733,2013
725.1565533288352,2052
727.427895743234,2051
729.6986188055427,1985
731.9687227363137,2051
734.238207756178,1983
736.5070740858458,1992
738.7753219461066,1958
741.0429515578281,1972
743.3099631419569,2046
745.5763569195191,2008
747.8421331116193,2026
750.1072919394409,2023
752.3718336242467,2015
754.6357583873777,1982
756.8990664502545,2084
759.1617580343765,1993
761.423833361321,1959
763.6852926527457,1994
765.9461361303862,1958
768.206364016058,2108
770.4659765316536,2030
772.7249738991469,1995
774.9833563405886,2102
777.2411240781092,2082
779.4982773339183,1988
781.7548163303044,1977
784.010741289634,2021
786.2660524343538,2124
788.5207499869881,2053
790.7748341701416,2088
793.0283052064964,2081
795.2811633188143,2033
797.5334087299362,2028
799.7850416627813,2028
802.0360623403484,2045
804.2864709857143,2112
806.5362678220353,2122
808.7854530725468,2103
811.0340269605625,2076
813.2819897094754,2081
815.5293415427581,2009
817.77608268396,2064
820.0222133567116,2058
822.2677337847211,2085
824.5126441917765,2034
826.7569448017433,2048
829.0006358385675,2070
831.2437175262731,2042
833.4861900889629,2077
835.7280537508192,2038
837.9693087361026,2165
840.2099552691533,2040
842.4499935743896,2061
844.689423876309,2137
846.9282463994886,2078
849.1664613685833,2106
851.4040690083276,2077
853.6410695435349,2061
855.877463199097,2059
858.1132501999847,2130
860.3484307712487,2059
862.5830051380175,2081
864.8169735254988,2140
867.0503361589791,2151
869.2830932638243,2066
871.5152450654786,2110
873.7467917894654,2196
875.9777336613873,2127
878.2080709069252,2184
880.4378037518389,2112
882.666932421968,2212
884.8954571432301,2234
887.1233781416219,2171
889.3506956432192,2181
891.5774098741766,2181
893.803521060728,2146
896.0290294291852,2184
898.2539352059397,2141
900.4782386174619,2204
902.7019398903011,2144
904.925039251085,2095
907.147536926521,2190
909.3694331433943,2164
911.59072812857,2147
913.8114221089921,2193
916.0315153116827,2196
918.2510079637437,2119
920.4699002923547,2152
922.6881925247761,2077
924.905884888345,2150
927.1229776104793,2137
929.3394709186747,2127
931.555365040506,2109
933.7706602036275,2131
935.9853566357709,2105
938.1994545647489,2140
940.4129542184515,2113
942.6258558248488,2188
944.8381596119883,2168
947.0498658079974,2139
949.2609746410825,2175
951.4714863395287,2157
953.6814011316998,2230
955.8907192460387,2158
958.0994409110671,2147
960.3075663553858,2069
962.5150958076741,2179
964.7220294966913,2085
966.928367651274,2062
969.1341105003388,2114
971.3392582728806,2066
973.5438111979742,2110
975.747769504772,2025
977.9511334225061,2000
980.153903180487,2064
982.3560790081052,2052
984.5576611348289,1995
986.7586497902058,1980
988.9590452038618,2035
991.158847605503,1984
993.3580572249133,1969
995.5566742919558,1929
997.7546990365728,1875
999.952131688785,1819
1002.1489724786926,1875
1004.3452216364743,1868
1006.5408793923874,1842
1008.7359459767691,1792
1010.9304216200343,1854
1013.1243065526781,1741
1015.3176010052733,1750
1017.510305208472,1735
1019.7024193930064,1784
1021.8939437896848,1796
1024.0848786293977,1793
1026.2752241431122,1772
1028.4649805618747,1771
1030.6541481168115,1779
1032.842727039127,1724
1035.0307175601051,1766
1037.2181199111074,1711
1039.4049343235752,1705
1041.591161029029,1741
1043.7768002590683,1704
1045.9618522453698,1742
1048.1463172196918,1687
1050.3301954138697,1715
1052.513487059818,1714
1054.69619238953,1697
1056.8783116350783,1694
1059.0598450286152,1624
1061.2407928023704,1648
1063.4211551886528,1695
1065.6009324198508,1715
1067.780124728432,1784
1069.9587323469414,1693
1072.1367555080046,1675
1074.314194444325,1674
1076.4910493886855,1698
1078.667320573947,1655
1080.843008233051,1622
1083.0181125990161,1640
1085.1926339049414,1659
1087.3665723840027,1603
1089.5399282694575,1654
1091.7127017946405,1599
1093.8848931929647,1696
1096.0565026979243,1627
1098.2275305430899,1610
1100.3979769621128,1623
1102.567842188722,1626
1104.737126456726,1576
1106.9058300000124,1568
1109.0739530525475,1576
1111.2414958483764,1567
1113.4084586216231,1606
1115.5748416064907,1632
1117.7406450372605,1582
1119.9058691482942,1569
1122.0705141740304,1609
1124.2345803489884,1654
1126.3980679077658,1582
1128.5609770850388,1580
1130.7233081155623,1572
1132.8850612341707,1628
1135.0462366757774,1514
1137.2068346753745,1613
1139.3668554680326,1554
1141.526299288901,1574
1143.68516637321,1625
1145.8434569562655,1604
1148.001171273455,1604
1150.158309560244,1601
1152.3148720521767,1670
1154.470858984876,1616
1156.626270594044,1622
1158.7811071154629,1519
1160.9353687849912,1555
1163.089055838569,1588
1165.242168512213,1583
1167.3947070420209,1642
1169.5466716641677,1507
1171.6980626149075,1527
1173.8488801305748,1492
1175.9991244475814,1570
1178.1487958024186,1674
1180.2978944316555,1527
1182.4464205719428,1550
1184.5943744600072,1546
1186.7417563326567,1620
1188.8885664267755,1558
1191.0348049793297,1580
1193.1804722273619,1590
1195.325568407995,1556
1197.4700937584303,1500
1199.614048515948,1527
1201.7574329179074,1575
1203.900247201746,1580
1206.042491604982,1534
1208.1841663652099,1587
1210.3252717201053,1578
1212.465807907422,1622
1214.6057751649923,1603
1216.7451737307279,1589
1218.8840038426192,1546
1221.0222657387353,1588
1223.1599596572241,1553
1225.2970858363137,1646
1227.4336445143094,1637
1229.5696359295966,1494
1231.705060320639,1562
1233.8399179259786,1645
1235.9742089842384,1674
1238.107933734118,1603
1240.2410924143974,1700
1242.373685263935,1572
1244.5057125216676,1632
1246.6371744266116,1734
1248.7680712178621,1681
1250.898403134593,1661
1253.028170416058,1671
1255.1573733015875,1622
1257.2860120305932,1648
1259.4140868425648,1640
1261.54159797707,1748
1263.6685456737569,1644
1265.7949301723515,1674
1267.9207517126597,1605
1270.046010534565,1625
1272.1707068780306,1692
1274.2948409830983,1680
1276.4184130898889,1640
1278.541423438603,1711
1280.6638722695184,1709
1282.785759822993,1717
1284.9070863394636,1771
1287.0278520594447,1731
1289.1480572235314,1715
1291.2677020723963,1788
1293.3867868467923,1733
1295.5053117875495,1751
1297.623277135579,1720
1299.740683131868,1739
1301.8575300174857,1767
1303.973818033578,1765
1306.0895474213703,1848
1308.2047184221678,1879
1310.3193312773528,1807
1312.4333862283888,1804
1314.5468835168163,1797
1316.659823384255,1820
1318.7722060724045,1777
1320.8840318230418,1809
1322.9953008780249,1826
1325.1060134792888,1874
1327.2161698688478,1802
1329.3257702887959,1839
1331.4348149813054,1899
1333.5433041886276,1841
1335.6512381530933,1791
1337.7586171171101,1809
1339.8654413231675,1794
1341.9717110138317,1751
1344.0774264317488,1755
1346.1825878196432,1775
1348.2871954203192,1787
1350.3912494766587,1806
1352.4947502316231,1814
1354.5976979282532,1836
1356.7000928096686,1758
1358.8019351190665,1785
1360.9032250997243,1727
1363.0039629949988,1731
1365.1041490483235,1816
1367.2037835032133,1788
1369.3028666032606,1837
1371.401398592137,1830
1373.4993797135926,1804
1375.5968102114575,1752
1377.6936903296396,1848
1379.7900203121262,1785
1381.8858004029835,1785
1383.9810308463561,1806
1386.075711886469,1855
1388.1698437676241,1843
1390.2634267342032,1750
1392.356461030667,1783
1394.4489469015557,1901
1396.5408845914872,1797
1398.6322743451592,1817
1400.7231164073469,1860
1402.813411022907,1896
1404.903158436773,1890
1406.9923588939578,1868
1409.0810126395531,1928
1411.1691199187303,1873
1413.2566809767386,1947
1415.343696058907,1978
1417.4301654106425,1912
1419.5160892774315,1945
1421.6014679048399,1936
1423.6863015385125,2003
1425.7705904241707,2050
1427.8543348076178,1997
1429.9375349347342,2010
1432.0201910514802,2049
1434.102303403894,2100
1436.1838722380944,2022
1438.2648978002767,2167
1440.3453803367174,2116
1442.4253200937692,2116
1444.5047173178677,2146
1446.5835722555234,2222
1448.6618851533285,2279
1450.739656257952,2309
1452.8168858161434,2236
1454.8935740747306,2337
1456.96972128062,2350
1459.045327680797,2462
1461.120393522327,2500
1463.1949190523528,2589
1465.2689045180973,2542
1467.3423501668608,2614
1469.415256246024,2644
1471.4876230030463,2671
1473.559450685465,2692
1475.6307395408976,2717
1477.7014898170391,2727
1479.771701761665,2820
1481.8413756226287,2868
1483.9105116478618,2867
1485.9791100853772,2879
1488.0471711832643,3085
1490.1146951896926,3022
1492.1816823529098,3059
1494.2481329212433,3179
1496.3140471430984,3231
1498.3794252669609,3160
1500.4442675413939,3213
1502.5085742150404,3183
1504.572345536622,3223
1506.6355817549388,3257
1508.6982831188702,3358
1510.7604498773744,3277
1512.8220822794883,3257
1514.8831805743293,3328
1516.9437450110909,3424
1519.003775839048,3384
1521.0632733075522,3339
1523.1222376660367,3437
1525.1806691640113,3419
1527.2385680510652,3446
1529.2959345768668,3499
1531.3527689911643,3550
1533.4090715437833,3543
1535.4648424846291,3594
1537.5200820636855,3584
1539.5747905310159,3742
1541.6289681367616,3684
1543.6826151311434,3738
1545.7357317644614,3753
1547.7883182870937,3748
1549.8403749494987,3882
1551.8919020022113,3844
1553.9428996958477,4041
1555.9933682811015,4122
1558.0433080087469,4151
1560.0927191296346,4252
1562.1416018946961,4312
1564.1899565549415,4300
1566.2377833614592,4310
1568.2850825654164,4451
1570.3318544180606,4302
1572.3780991707158,4063
1574.423817074788,3948
1576.4690083817595,3871
1578.5136733431923,3669
1580.5578122107272,3622
1582.601425236085,3372
1584.6445126710646,3309
1586.6870747675434,3117
1588.7291117774776,2952
1590.7706239529034,2844
1592.8116115459347,2702
1594.8520748087658,2618
1596.8920139936686,2587
1598.9314293529933,2491
1600.9703211391711,2513
1603.008689604711,2339
1605.0465350022005,2380
1607.0838575843068,2258
1609.1206576037753,2160
1611.1569353134305,2144
1613.1926909661765,2092
1615.2279248149953,2045
1617.2626371129481,1995
1619.2968281131757,2014
1621.3304980688963,1956
1623.3636472334088,1916
1625.39627586009,1874
1627.428384202396,1839
1629.459972513861,1870
1631.4910410480993,1840
1633.5215900588028,1808
1635.551619799744,1765
1637.5811305247717,1770
1639.6101224878166,1730
1641.6385959428862,1758
1643.6665511440683,1735
1645.693988345528,1776
1647.7209078015112,1707
1649.7473097663405,1662
1651.7731944944203,1696
1653.7985622402307,1682
1655.823413258333,1710
1657.847747803366,1668
1659.8715661300494,1647
1661.8948684931793,1720
1663.9176551476316,1610
1665.9399263483624,1691
1667.9616823504057,1654
1669.982923408873,1671
1672.0036497789574,1668
1674.0238617159293,1668
1676.043559475138,1694
1678.0627433120121,1706
1680.081413482059,1693
1682.0995702408654,1642
1684.117213844096,1681
1686.134344547495,1715
1688.1509626068864,1606
1690.1670682781705,1656
1692.182661817329,1661
1694.1977434804217,1676
1696.2123135235875,1628
1698.226372203043,1693
1700.2399197750851,1654
1702.2529564960905,1643
1704.2654826225112,1645
1706.277498410882,1629
1708.2890041178139,1668
1710.2999999999988,1639
1712.3104863142066,1643
1714.3204633172854,1568
1716.329931266163,1595
1718.3388904178469,1585
1720.3473410294214,1623
1722.3552833580516,1590
1724.3627176609807,1596
1726.3696441955308,1550
1728.3760632191033,1606
1730.3819749891782,1608
1732.3873797633146,1632
1734.3922777991502,1625
1736.3966693544012,1608
1738.4005546868639,1615
1740.4039340544127,1504
1742.406807715001,1582
1744.4091759266616,1534
1746.4110389475054,1560
1748.4123970357223,1562
1750.413250449582,1565
1752.4135994474318,1532
1754.4134442876993,1595
1756.4127852288902,1475
1758.4116225295893,1580
1760.4099564484595,1472
1762.407787244244,1522
1764.405115175764,1520
1766.4019405019203,1520
1768.3982634816916,1531
1770.3940843741357,1506
1772.3894034383907,1481
1774.3842209336717,1477
1776.378537119274,1528
1778.372352254571,1475
1780.3656665990156,1518
1782.3584804121397,1512
1784.3507939535534,1477
1786.3426074829463,1455
1788.3339212600863,1450
1790.3247355448211,1466
1792.3150505970766,1508
1794.3048666768573,1493
1796.2941840442477,1472
1798.2830029594106,1478
1800.2713236825884,1485
1802.2591464741004,1473
1804.2464715943465,1451
1806.2332993038058,1494
1808.2196298630352,1465
1810.2054635326708,1489
1812.190800573428,1453
1814.175641246101,1454
1816.1599858115628,1473
1818.1438345307652,1477
1820.127187664738,1404
1822.1100454745924,1467
1824.092408221516,1459
1826.0742761667766,1490
1828.055649571721,1430
1830.0365286977735,1475
1832.0169138064398,1451
1833.9968051593014,1430
1835.9762030180214,1434
1837.9551076443408,1434
1839.9335193000788,1420
1841.9114382471344,1462
1843.888864747485,1433
1845.8657990631878,1434
1847.842241456378,1458
1849.8181921892697,1385
1851.7936515241558,1418
1853.7686197234098,1440
1855.7430970494815,1441
1857.7170837649014,1436
1859.6905801322787,1468
1861.6635864143004,1470
1863.6361028737338,1482
1865.608129773424,1415
1867.5796673762961,1450
1869.5507159453537,1423
1871.521275743678,1459
1873.4913470344313,1452
1875.4609300808534,1460
1877.4300251462632,1448
1879.3986324940588,1480
1881.366752387717,1486
1883.3343850907936,1532
1885.3015308669228,1518
1887.268189979819,1510
1889.2343626932739,1533
1891.2000492711595,1480
1893.1652499774254,1495
1895.1299650761011,1534
1897.0941948312952,1495
1899.0579395071945,1499
1901.0211993680641,1485
1902.98397467825,1510
1904.9462657021745,1522
1906.9080727043415,1500
1908.869395949332,1514
1910.8302357018065,1476
1912.790592226504,1489
1914.7504657882428,1502
1916.7098566519212,1543
1918.6687650825133,1561
1920.6271913450764,1529
1922.5851357047422,1465
1924.5425984267245,1435
1926.499579776314,1534
1928.4560800188833,1532
1930.4120994198802,1487
1932.367638244833,1542
1934.32269675935,1531
1936.2772752291175,1480
1938.231373919899,1443
1940.1849930975404,1477
1942.1381330279637,1490
1944.0907939771696,1451
1946.0429762112412,1492
1947.9946799963363,1465
1949.9459055986945,1501
1951.896653284633,1459
1953.8469233205478,1441
1955.7967159729142,1418
1957.7460315082863,1386
1959.6948701932974,1448
1961.6432322946594,1449
1963.5911180791632,1446
1965.5385278136787,1473
1967.4854617651545,1421
1969.4319202006182,1469
1971.377903387176,1430
1973.3234115920136,1377
1975.268445082395,1480
1977.2130041256642,1473
1979.1570889892423,1472
1981.1006999406304,1458
1983.04383724741,1407
1984.986501177238,1399
1986.928691997853,1419
1988.8704099770712,1412
1990.811655382789,1424
1992.7524284829801,1428
1994.692729545698,1446
1996.6325588390755,1382
1998.5719166313224,1414
2000.5108031907307,1387
2002.4492187856677,1364
2004.387163684583,1347
2006.3246381560011,1395
2008.2616424685298,1384
2010.1981768908527,1363
2012.1342416917332,1386
2014.069837140014,1408
2016.0049635046162,1355
2017.9396210545406,1428
2019.8738100588666,1352
2021.8075307867502,1382
2023.740783507431,1374
2025.6735684902228,1382
2027.6058860045214,1372
2029.5377363198004,1390
2031.4691197056118,1387
2033.4000364315875,1352
2035.3304867674374,1354
2037.260470982952,1363
2039.189989347998,1368
2041.1190421325232,1406
2043.047629606554,1408
2044.9757520401945,1367
2046.9034097036288,1434
2048.8306028671195,1423
2050.7573318010086,1366
2052.683596775716,1362
2054.609398061742,1358
2056.5347359296647,1403
2058.4596106501403,1359
2060.384022493906,1397
2062.3079717317764,1299
2064.231458634646,1369
2066.1544834734873,1366
2068.077046519352,1345
2069.99914804337,1345
2071.9207883167524,1328
2073.8419676107865,1374
2075.7626861968406,1400
2077.6829443463607,1387
2079.6027423308715,1370
2081.522080421977,1390
2083.440958891362,1336
2085.359378010786,1377
2087.2773380520907,1393
2089.194839287196,1388
2091.111881988101,1403
2093.0284664268825,1355
2094.9445928756973,1360
2096.86026160678,1365
2098.775472892446,1358
2100.690227005088,1408
2102.604524217178,1381
2104.5183648012676,1344
2106.431749029985,1386
2108.34467717604,1388
2110.2571495122206,1363
2112.169166311393,1379
2114.080727846503,1384
2115.9918343905747,1380
2117.902486216711,1364
2119.8126835980956,1370
2121.722426807987,1397
2123.6317161197285,1377
2125.5405518067364,1397
2127.448934142509,1425
2129.356863400624,1365
2131.264339854737,1451
2133.1713637785815,1406
2135.077935445972,1371
2136.9840551308002,1442
2138.889723107037,1412
2140.7949396487334,1432
2142.699705030018,1376
2144.6040195250994,1354
2146.507883408264,1430
2148.4112969538774,1405
2150.3142604363848,1408
2152.2167741303097,1359
2154.1188383102535,1425
2156.0204532508997,1451
2157.9216192270064,1356
2159.822336513414,1371
2161.7226053850413,1405
2163.622426116884,1441
2165.5217989840185,1377
2167.4207242616,1364
2169.319202224862,1402
2171.2172331491165,1407
2173.1148173097563,1463
2175.0119549822507,1446
2176.90864644215,1461
2178.8048919650823,1442
2180.7006918267534,1478
2182.596046302952,1472
2184.4909556695407,1415
2186.3854202024645,1475
2188.279440177746,1489
2190.173015871487,1480
2192.066147559868,1465
2193.958835519149,1394
2195.851080025667,1434
2197.7428813558417,1453
2199.6342397861667,1419
2201.5251555932186,1412
2203.415629053651,1456
2205.3056604441986,1432
2207.19525004167,1493
2209.084398122958,1472
2210.9731049650327,1442
2212.861370844941,1494
2214.749196039812,1459
2216.636580826851,1519
2218.523525483344,1419
2220.410030286655,1458
2222.296095514226,1486
2224.1817214435805,1454
2226.066908352319,1473
2227.951656518121,1495
2229.835966218746,1439
2231.71983773203,1393
2233.6032713358913,1499
2235.486267308324,1454
2237.3688259274036,1436
2239.2509474712824,1413
2241.132632218193,1541
2243.013880446447,1456
2244.8946924344323,1429
2246.7750684606203,1512
2248.6550088035574,1457
2250.534513741871,1453
2252.413583554265,1451
2254.292218519526,1420
2256.170418916517,1525
2258.0481850241786,1411
2259.925517121534,1500
2261.8024154876825,1432
2263.678880401803,1485
2265.5549121431536,1497
2267.430510991071,1519
2269.305677224971,1485
2271.180411124348,1364
2273.0547129687766,1447
2274.9285830379076,1368
2276.8020216114737,1468
2278.6750289692845,1394
2280.5476053912294,1428
2282.4197511572766,1453
2284.2914665474727,1432
2286.162751841943,1529
2288.0336073208937,1433
2289.904033264608,1496
2291.774029953448,1442
2293.6435976678554,1449
2295.5127366883517,1380
2297.381447295534,1346
2299.2497297700825,1330
2301.1175843927526,1369
2302.9850114443825,1292
2304.852011205885,1286
2306.7185839582553,1284
2308.5847299825664,1278
2310.4504495599676,1320
2312.3157429716925,1291
2314.1806104990483,1254
2316.0450524234247,1294
2317.9090690262888,1275
2319.772660589186,1264
2321.635827393742,1300
2323.498569721661,1266
2325.3608878547248,1268
2327.2227820747967,1304
2329.0842526638157,1269
2330.945299903803,1254
2332.805924076857,1270
2334.6661254651535,1315
2336.525904350951,1252
2338.3852610165827,1235
2340.244195744464,1312
2342.102708817088,1257
2343.9608005170253,1252
2345.8184711269287,1243
2347.675720929526,1263
2349.532550207628,1287
2351.38895924412,1282
2353.24494832197,1338
2355.100517724223,1287
2356.955667734004,1345
2358.810398634514,1313
2360.664710709037,1327
2362.5186042409337,1335
2364.3720795136437,1232
2366.225136810686,1307
2368.0777764156583,1326
2369.929998612237,1299
2371.7818036841777,1371
2373.633191915315,1317
2375.484163589562,1304
2377.3347189909114,1309
2379.184858403434,1269
2381.03458211128,1270
2382.8838903986775,1307
2384.732783549936,1311
2386.5812618494406,1338
2388.4293255816588,1339
2390.2769750311327,1307
2392.1242104824883,1306
2393.971032220427,1362
2395.8174405297295,1336
2397.6634356952563,1352
2399.509018001947,1348
2401.3541877348193,1324
2403.1989451789705,1322
2405.043290619576,1361
2406.8872243418905,1351
2408.730746631247,1368
2410.5738577730594,1361
2412.4165580528183,1308
2414.258847756095,1301
2416.100727168537,1315
2417.9421965758734,1339
2419.783256263912,1336
2421.623906518538,1302
2423.4641476257157,1311
2425.303979871491,1268
2427.143403541984,1307
2428.9824189233977,1355
2430.821026302012,1356
2432.6592259641866,1301
2434.497018196361,1320
2436.33440328505,1356
2438.171381516851,1349
2440.00795317844,1352
2441.844118556569,1320
2443.6798779380724,1288
2445.5152316098606,1338
2447.3501798589255,1360
2449.1847229723357,1356
2451.0188612372403,1350
2452.8525949408663,1352
2454.6859243705203,1366
2456.518849813587,1380
2458.3513715575314,1349
2460.183489889895,1410
2462.015205098301,1392
2463.8465174704493,1334
2465.67742729412,1344
2467.5079348571717,1382
2469.338040447542,1374
2471.1677443532476,1351
2472.9970468623833,1381
2474.825948263123,1383
2476.6544488437207,1383
2478.482548892508,1371
2480.310248697896,1376
2482.137548548374,1362
2483.9644487325118,1422
2485.790949538956,1424
2487.617051256433,1344
2489.44275417375,1429
2491.26805857979,1368
2493.0929647635157,1361
2494.917473013971,1434
2496.741583620276,1448
2498.5652968716304,1355
2500.3886130573137,1406
2502.2115324666834,1407
2504.0340553891765,1398
2505.856182114308,1394
2507.6779129316733,1440
2509.499248130945,1438
2511.3201880018764,1359
2513.140732834298,1416
2514.9608829181198,1484
2516.780638543331,1414
2518.6,1499
2520.418967578273,1498
2522.237541568376,1417
2524.0557222606144,1538
2525.8735099453706,1438
2527.6909049131086,1399
2529.507907454368,1498
2531.32451785977,1543
2533.140736420014,1460
2534.9565634258774,1567
2536.771999168218,1489
2538.5870439379714,1505
2540.4016980261526,1472
2542.2159617238544,1519
2544.02983532225,1509
2545.8433191125914,1585
2547.656413386209,1553
2549.4691184345115,1600
2551.2814345489874,1610
2553.093362021204,1560
2554.904901142808,1640
2556.716052205523,1674
2558.526815501153,1667
2560.3371913215824,1666
2562.147179958771,1687
2563.956781704761,1706
2565.7659968516705,1682
2567.5748256916986,1779
2569.3832685171224,1732
2571.1913256202984,1696
2572.9989972936614,1782
2574.806283829725,1705
2576.613185521084,1747
2578.4197026604074,1789
2580.2258355404483,1746
2582.031584454035,1797
2583.836949694077,1908
2585.6419315535613,1800
2587.4465303255533,1784
2589.2507463032002,1752
2591.0545797797245,1803
2592.8580310484303,1814
2594.6611004026995,1738
2596.463788135992,1812
2598.266094541849,1776
2600.0680199138874,1793
2601.869564545807,1784
2603.670728731383,1848
2605.4715127644704,1784
2607.2719169390048,1846
2609.071941548998,1841
2610.8715868885433,1765
2612.670853251811,1785
2614.469740933052,1802
2616.268250226594,1811
2618.0663814268455,1796
2619.864134828292,1821
2621.6615107255006,1776
2623.458509413115,1750
2625.2551311858597,1652
2627.0513763385347,1709
2628.8472451660223,1719
2630.6427379632833,1742
2632.4378550253564,1726
2634.232596647359,1705
2636.026963124488,1674
2637.8209547520187,1639
2639.6145718253065,1672
2641.407814639785,1622
2643.200683490966,1598
2644.9931786744414,1573
2646.7853004858807,1639
2648.577049221034,1632
2650.3684251757277,1601
2652.1594286458712,1583
2653.9500599274484,1578
2655.740319316525,1576
2657.5302071092437,1481
2659.3197236018286,1462
2661.10886909058,1563
2662.8976438718782,1487
2664.686048242183,1479
2666.4740824980327,1514
2668.2617469360443,1462
2670.0490418529134,1417
2671.8359675454153,1426
2673.622524310403,1476
2675.408712444811,1411
2677.1945322456495,1486
2678.979984010009,1360
2680.76506803506,1498
2682.5497846180497,1443
2684.334134056306,1400
2686.1181166472343,1391
2687.9017326883213,1357
2689.6849824771293,1401
2691.4678663113013,1352
2693.2503844885596,1318
2695.032537306705,1359
2696.8143250636167,1391
2698.5957480572542,1359
2700.3768065856534,1321
2702.1575009469316,1381
2703.937831439283,1312
2705.717798360982,1307
2707.4974020103837,1352
2709.276642685917,1308
2711.055520686095,1322
2712.834036309506,1304
2714.612189854819,1240
2716.389981620782,1303
2718.1674119062204,1324
2719.944481010041,1326
2721.721189231226,1318
2723.4975368688415,1264
2725.273524222027,1352
2727.0491515900053,1327
2728.824419272075,1289
2730.5993275676146,1295
2732.3738767760838,1333
2734.148067197016,1266
2735.921899130031,1301
2737.6953728748194,1323
2739.468488731156,1283
2741.2412469988926,1263
2743.0136479779617,1254
2744.785691968372,1267
2746.5573792702116,1307
2748.3287101836504,1239
2750.099685008934,1239
2751.870304046388,1282
2753.640567596418,1311
2755.4104759595057,1260
2757.1800294362156,1268
2758.949228327187,1326
2760.7180729331412,1272
2762.486563554877,1251
2764.254700493272,1257
2766.022484049284,1254
2767.789914523947,1240
2769.5569922183786,1246
2771.3237174337705,1294
2773.090090471394,1276
2774.8561116326036,1226
2776.6217812188274,1299
2778.3870995315756,1254
2780.1520668724356,1240
2781.9166835430747,1250
2783.6809498452394,1213
2785.444866080754,1240
2787.2084325515225,1256
2788.971649559527,1242
2790.73451740683,1268
2792.4970363955713,1271
2794.2592068279705,1238
2796.0210290063264,1256
2797.7825032330147,1243
2799.543629810493,1260
2801.304409041296,1264
2803.0648412280366,1235
2804.8249266734088,1220
2806.5846656801846,1244
2808.344058551212,1228
2810.1031055894246,1265
2811.8618070978273,1259
2813.6201633795085,1218
2815.378174737636,1241
2817.1358414754536,1188
2818.893163896285,1310
2820.6501423035334,1309
2822.4067770006814,1209
2824.1630682912883,1218
2825.9190164789957,1225
2827.6746218675207,1264
2829.429884760661,1292
2831.184805462294,1334
2832.9393842763743,1324
2834.693621506936,1300
2836.4475174580916,1253
2838.201072434034,1300
2839.954286739034,1220
2841.707160677441,1247
2843.459694553685,1248
2845.2118886722724,1250
2846.96374333779,1255
2848.7152588549034,1218
2850.4664355283567,1230
2852.217273662973,1243
2853.9677735636546,1269
2855.7179355353833,1235
2857.4677598832186,1285
2859.217246912299,1281
2860.9663969278427,1266
2862.715210235146,1268
2864.4636871395846,1260
2866.211827946614,1244
2867.9596329617652,1254
2869.7071024906536,1235
2871.4542368389684,1222
2873.20103631248,1243
2874.947501217038,1221
2876.6936318585695,1263
2878.4394285430812,1239
2880.1848915766604,1307
2881.9300212654707,1232
2883.6748179157553,1254
2885.4192818338374,1218
2887.1634133261173,1204
2888.907212699077,1202
2890.6506802592744,1200
2892.393816313348,1260
2894.1366211680142,1212
2895.8790951300693,1243
2897.621238506388,1207
2899.363051603925,1264
2901.1045347297118,1201
2902.8456881908596,1223
2904.58651229456,1233
2906.327007348081,1262
2908.067173658772,1246
2909.8070115340597,1249
2911.5465212814497,1245
2913.285703208527,1287
2915.0245576229563,1250
2916.7630848324807,1215
2918.5012851449196,1259
2920.2391588681758,1241
2921.976706310227,1214
2923.7139277791334,1251
2925.4508235830313,1272
2927.187394030137,1239
2928.923639428745,1206
2930.6595600872306,1252
2932.395156314046,1272
2934.1304284177218,1235
2935.8653767068713,1261
2937.6000014901815,1247
2939.3343030764227,1250
2941.068281774442,1224
2942.8019378931644,1209
2944.5352717415976,1271
2946.2682836288236,1234
2948.0009738640065,1240
2949.7333427563885,1264
2951.465390615289,1242
2953.1971177501086,1237
2954.9285244703265,1228
2956.6596110855,1205
2958.3903779052657,1220
2960.1208252393385,1232
2961.8509533975125,1247
2963.5807626896617,1217
2965.3102534257378,1223
2967.0394259157715,1216
2968.768280469873,1205
2970.496817398232,1208
2972.2250370111146,1236
2973.952939618869,1200
2975.6805255319196,1284
2977.4077950607707,1257
2979.134748516006,1307
2980.861386208289,1272
2982.587708448359,1226
2984.313715547037,1233
2986.039407815222,1216
2987.764785563891,1225
2989.489849104102,1249
2991.2145987469908,1221
2992.9390348037705,1223
2994.6631575857346,1241
2996.3869674042576,1192
2998.1104645707887,1207
2999.83364939686,1264
3001.5565221940783,1256
3003.2790832741334,1173
3005.0013329487924,1298
3006.7232715298996,1197
3008.4448993293804,1205
3010.166216659239,1238
3011.887223831558,1238
3013.607921158498,1190
3015.3283089522993,1245
3017.0483875252826,1259
3018.7681571898443,1220
3020.4876182584626,1180
3022.2067710436927,1167
3023.9256158581707,1213
3025.644153014609,1219
3027.362382825801,1187
3029.0803056046193,1241
3030.797921664012,1164
3032.5152313170106,1203
3034.2322348767225,1227
3035.9489326563353,1234
3037.665324969115,1195
3039.3814121284063,1138
3041.097194447633,1210
3042.812672240299,1211
3044.5278458199855,1236
3046.2427155003525,1222
3047.9572815951406,1222
3049.671544418167,1241
3051.38550428333,1190
3053.0991615046073,1200
3054.812516396051,1239
3056.5255692717974,1235
3058.2383204460575,1216
3059.9507702331257,1162
3061.662918947372,1268
3063.3747669032446,1217
3065.0863144152736,1240
3066.7975617980674,1215
3068.508509366309,1204
3070.219157434767,1253
3071.9295063182844,1193
3073.639556331785,1220
3075.3493077902704,1185
3077.058761008821,1201
3078.7679163025964,1209
3080.476773986837,1246
3082.1853343768594,1197
3083.89359778806,1230
3085.6015645359153,1294
3087.3092349359786,1254
3089.016609303884,1232
3090.7236879553434,1231
3092.4304712061476,1234
3094.136959372166,1230
3095.843152769349,1221
3097.5490517137237,1214
3099.2546565213966,1267
3100.959967508554,1252
3102.66498499146,1256
3104.3697092864577,1164
3106.0741407099695,1275
3107.778279578498,1265
3109.482126208622,1236
3111.1856809170004,1240
3112.8889440203716,1268
3114.5919158355528,1271
3116.294596679439,1256
3117.996986869006,1298
3119.6990867213062,1260
3121.4008965534726,1214
3123.102416682717,1207
3124.803647426329,1277
3126.5045891016784,1323
3128.205242026213,1245
3129.90560651746,1223
3131.605682893025,1236
3133.3054714705922,1249
3135.0049725679282,1276
3136.7041865028714,1269
3138.4031135933465,1228
3140.101754157353,1211
3141.800108512971,1243
3143.498176978357,1216
3145.1959598717494,1213
3146.8934575114636,1198
3148.5906702158954,1239
3150.2875983035183,1204
3151.9842420928853,1213
3153.680601902627,1244
3155.376678051456,1264
3157.07247085816,1219
3158.767980641609,1226
3160.463207720748,1258
3162.158152414606,1169
3163.8528150422862,1232
3165.5471959229726,1230
3167.2412953759303,1237
3168.9351137204976,1233
3170.628651276098,1229
3172.3219083622307,1234
3174.014885298474,1246
3175.707582404485,1248
3177.4000000000005,1219
3179.092138404835,1227
3180.7839979388846,1232
3182.47557892212,1217
3184.166881674594,1256
3185.8579065164386,1213
3187.5486537678626,1194
3189.2391237491547,1192
3190.9293167806827,1183
3192.6192331828934,1247
3194.3088732763117,1203
3195.998237381542,1199
3197.687325819268,1226
3199.376138910251,1200
3201.064676975334,1167
3202.7529403354347,1201
3204.4409293115523,1189
3206.1286442247647,1215
3207.816085396229,1193
3209.5032531471825,1198
3211.190147798936,1141
3212.8767696728846,1149
3214.5631190905015,1181
3216.2491963733373,1207
3217.9350018430214,1142
3219.6205358212637,1165
3221.305798629851,1191
3222.990790590651,1187
3224.6755120256103,1176
3226.359963256751,1230
3228.0441446061795,1137
3229.7280563960758,1160
3231.411698948703,1139
3233.0950725863995,1203
3234.778177631587,1176
3236.461014406761,1214
3238.1435832345005,1120
3239.8258844374595,1214
3241.507918338374,1228
3243.1896852600576,1193
3244.8711855254023,1197
3246.552419457381,1197
3248.233387379042,1211
3249.914089613516,1215
3251.59452648401,1173
3253.274698313813,1184
3254.95460542629,1197
3256.6342481448855,1173
3258.313626793125,1148
3259.9927416946084,1169
3261.6715931730196,1158
3263.3501815521176,1186
3265.0285071557437,1172
3266.706570307815,1181
3268.3843713323286,1123
3270.0619105533615,1112
3271.739188295068,1178
3273.4162048816834,1189
3275.0929606375184,1124
3276.769455886966,1205
3278.445690954498,1237
3280.1216661646613,1183
3281.797381842087,1182
3283.4728383114807,1213
3285.1480358976296,1162
3286.8229749253996,1164
3288.4976557197333,1170
3290.172078605655,1210
3291.846243908266,1196
3293.5201519527463,1191
3295.193803064357,1150
3296.8671975684374,1123
3298.5403357904024,1168
3300.21321805575,1180
3301.8858446900567,1159
3303.558216018975,1241
3305.23033236824,1183
3306.9021940636603,1228
3308.57380143113,1209
3310.2451547966184,1235
3311.916254486174,1207
3313.5871008259246,1146
3315.2576941420766,1217
3316.9280347609147,1124
3318.5981230088046,1194
3320.2679592121895,1200
3321.9375436975924,1174
3323.606876791612,1164
3325.27595882093,1190
3326.944790112305,1162
3328.6133709925753,1172
3330.2817017886573,1172
3331.949782827547,1173
3333.617614436319,1190
3335.2851969421245,1221
3336.952530672199,1137
3338.619615953853,1217
3340.286453114475,1215
3341.9530424815357,1194
3343.619384382583,1205
3345.2854791452437,1203
3346.951327097224,1218
3348.6169285663073,1191
3350.2822838803577,1204
3351.947393367319,1220
3353.61225735521,1239
3355.2768761721345,1158
3356.9412501462693,1167
3358.605379605873,1147
3360.2692648792827,1152
3361.9329062949146,1178
3363.596304181263,1181
