CollectionTime,9/20/2024 1:08:07 PM
ExposureUsed,3
CalibratedSpectrum
-962.7078968117929,571
-959.9714848408522,636
-957.2358232597828,658
-954.5009119013725,635
-951.7667505983302,661
-949.0333391832855,661
-946.3006774887896,639
-943.5687653473143,657
-940.837602591253,651
-938.1071890529199,676
-935.3775245645503,648
-932.6486089583007,613
-929.9204420662485,667
-927.1930237203925,640
-924.4663537526524,648
-921.7404319948689,675
-919.0152582788041,684
-916.2908324361409,699
-913.5671542984834,658
-910.8442236973568,664
-908.1220404642074,644
-905.4006044304027,632
-902.679915427231,627
-899.959973285902,640
-897.2407778375464,639
-894.5223289132158,594
-891.8046263438832,623
-889.0876699604426,634
-886.3714595937089,618
-883.6559950744183,607
-880.9412762332282,638
-878.2273029007168,567
-875.5140749073835,587
-872.8015920836489,597
-870.0898542598545,579
-867.3788612662631,598
-864.6686129330585,592
-861.9591090903457,606
-859.2503495681506,621
-856.5423341964203,609
-853.8350628050229,598
-851.1285352237478,597
-848.4227512823054,618
-845.7177108103272,635
-843.0134136373656,618
-840.3098595928943,602
-837.6070485063082,624
-834.9049802069229,614
-832.2036545239757,638
-829.5030712866244,628
-826.8032303239481,645
-824.1041314649472,622
-821.4057745385428,592
-818.7081593735775,584
-816.0112857988148,607
-813.3151536429393,634
-810.6197627345566,624
-807.9251129021936,648
-805.2312039742981,630
-802.5380357792392,667
-799.8456081453069,617
-797.1539209007124,616
-794.462973873588,624
-791.772766891987,644
-789.083299783884,607
-786.3945723771743,611
-783.7065844996748,610
-781.0193359791231,632
-778.3328266431781,617
-775.6470563194197,645
-772.9620248353489,658
-770.2777320183878,665
-767.5941776958798,648
-764.9113616950891,644
-762.2292838432011,637
-759.5479439673222,647
-756.8673418944801,652
-754.1874774516235,660
-751.5083504656222,666
-748.8299607632671,650
-746.15230817127,638
-743.475392516264,668
-740.7992136248035,660
-738.1237713233636,614
-735.4490654383407,647
-732.7750957960521,606
-730.1018622227365,699
-727.4293645445534,653
-724.7576025875837,646
-722.0865761778291,655
-719.4162851412126,658
-716.7467293035781,674
-714.0779084906909,717
-711.409822528237,690
-708.7424712418238,681
-706.0758544569796,671
-703.4099719991541,707
-700.7448236937178,697
-698.0804093659622,705
-695.4167288411002,701
-692.7537819442656,673
-690.0915685005134,731
-687.4300883348199,687
-684.7693412720819,717
-682.1093271371178,733
-679.4500457546669,715
-676.7914969493897,693
-674.1336805458676,713
-671.4765963686034,701
-668.8202442420206,720
-666.1646239904642,735
-663.5097354382001,741
-660.8555784094151,712
-658.2021527282176,743
-655.5494582186366,710
-652.8974947046223,759
-650.2462620100463,738
-647.5957599587009,712
-644.9459883742998,807
-642.2969470804776,771
-639.6486359007902,711
-637.0010546587141,768
-634.3542031776476,793
-631.7080812809096,774
-629.0626887917401,751
-626.4180255333008,774
-623.7740913286734,774
-621.1308860008619,767
-618.4884093727904,736
-615.8466612673046,738
-613.2056415071715,741
-610.5653499150785,697
-607.9257863136347,761
-605.28695052537,790
-602.6488423727357,781
-600.0114616781036,773
-597.3748082637674,744
-594.7388819519412,817
-592.1036825647604,789
-589.4692099242818,766
-586.8354638524829,763
-584.2024441712624,784
-581.5701507024403,784
-578.9385832677575,830
-576.3077416888759,798
-573.6776257873787,751
-571.0482353847704,816
-568.4195703024757,801
-565.7916303618415,772
-563.164415384135,769
-560.5379251905453,756
-557.9121596021815,764
-555.2871184400748,751
-552.6628015251767,775
-550.0392086783606,801
-547.4163397204204,800
-544.794194472071,830
-542.1727727539491,859
-539.5520743866118,829
-536.9320991905377,826
-534.3128469861261,912
-531.6943175936979,896
-529.0765108334947,907
-526.4594265256793,917
-523.8430644903358,1093
-521.2274245474689,1297
-518.612506517005,1385
-515.9983102187913,1389
-513.3848354725959,1484
-510.77208209810846,1483
-508.16004991493924,1596
-505.5487387426199,1760
-502.9381484006032,1781
-500.3282787082628,1861
-497.71912948489364,1799
-495.1107005497117,1601
-492.5029917218539,1478
-489.8960028203786,1357
-487.28973366426493,1175
-484.68418407241325,1070
-482.07935386364494,996
-479.47524285670266,989
-476.87185087025,994
-474.2691777228715,1000
-471.66722323307334,1012
-469.0659872192821,976
-466.4654694998459,991
-463.86566989303384,1024
-461.26658821703614,971
-458.66822428996414,1013
-456.07057792985,1026
-453.4736489546475,988
-450.877437182231,971
-448.28194243039627,937
-445.68716451686,971
-443.09310325926003,932
-440.49975847515555,924
-437.9071299820263,963
-435.31521759727354,970
-432.72402113821954,949
-430.13354042210767,993
-427.5437752661022,966
-424.95472548728867,940
-422.36639090267386,1008
-419.7787713291855,1004
-417.1918665836721,1025
-414.60567648290385,1054
-412.0202008435715,1036
-409.4354394822874,1039
-406.8513922155845,1043
-404.26805885991723,1018
-401.685439231661,1075
-399.103533147112,1051
-396.522340422488,1017
-393.9418608739278,959
-391.3620943174908,992
-388.7830405691583,1006
-386.2046994448317,944
-383.6270707603344,931
-381.05015433141045,854
-378.473949973725,829
-375.8984575028645,844
-373.32367673433623,706
-370.74960748356875,744
-368.1762495659117,720
-365.60360279663576,655
-363.03166699093265,608
-360.4604419639154,584
-357.8899275306178,535
-355.32012350599507,558
-352.7510297049233,547
-350.1826459421999,514
-347.61497203254316,527
-345.04800779059235,518
-342.4817530309082,477
-339.91620756797226,537
-337.35137121618743,538
-334.7872437898774,460
-332.22382510328725,489
-329.66111497058273,503
-327.09911320585127,508
-324.53781962310075,500
-321.9772340362607,493
-319.4173562591816,505
-316.8581861056348,494
-314.2997233893127,495
-311.7419679238294,506
-309.1849195227194,523
-306.62857799943856,564
-304.0729431673641,591
-301.51801483979375,514
-298.963792829947,517
-296.41027695096386,500
-293.85746701590574,525
-291.3053628377552,539
-288.7539642294155,573
-286.2032710037115,605
-283.65328297338897,563
-281.1039999511146,560
-278.5554217494762,577
-276.007548180983,566
-273.4603790580651,636
-270.9139141930734,576
-268.3681533982807,615
-265.8230964858798,595
-263.27874326798565,616
-260.7350935566336,662
-258.1921471637804,699
-255.6499039013039,770
-253.10836358100266,738
-250.56752601459698,671
-248.02739101372765,658
-245.48795838995704,672
-242.94922795476816,733
-240.41119951956557,724
-237.8738728956746,665
-235.33724789434166,679
-232.80132432673452,652
-230.2661020039418,660
-227.73158073697357,715
-225.19776033676033,736
-222.66464061415422,754
-220.1322213799284,734
-217.60050244477725,752
-215.06948361931552,734
-212.53916471408013,858
-210.00954553952818,812
-207.48062590603843,787
-204.9524056239104,757
-202.4248845033651,777
-199.8980623545441,835
-197.37193898751036,876
-194.84651421224817,864
-192.32178783866232,766
-189.79775967657952,781
-187.27442953574644,887
-184.7517972258321,846
-182.2298625564256,800
-179.7086253370378,788
-177.18808537710026,861
-174.66824248596583,996
-172.14909647290835,1002
-169.6306471471229,918
-167.11289431772548,815
-164.59583779375328,913
-162.07947738416453,1003
-159.5638128978386,1077
-157.04884414357605,1065
-154.53457093009854,1057
-152.02099306604828,929
-149.50811035998936,964
-146.99592262040665,1068
-144.48442965570587,1152
-141.97363127421409,1238
-139.46352728417958,1192
-136.95411749377126,1251
-134.44540171107985,1110
-131.93737974411636,1166
-129.43005140081357,1259
-126.92341648902493,1572
-124.41747481652521,1669
-121.91222619101006,1720
-119.40767042009657,2095
-116.90380731132257,2571
-114.40063667214702,3081
-111.8981583099503,3693
-109.3963720320337,4789
-106.89527764561933,6719
-104.39487495785067,7381
-101.89516377579241,9156
-99.39614390642998,12413
-96.89781515667039,18041
-94.40017733334128,21732
-91.90323024319173,18137
-89.40697369289148,12081
-86.91140748903172,8187
-84.41653143812482,6742
-81.92234534660395,10020
-79.42884902082358,12647
-76.93604226705907,12302
-74.4439248915071,10555
-71.95249670028534,8234
-69.46175749943245,6801
-66.97170709490854,5481
-64.48234529259423,5060
-61.99367189829195,5419
-59.50568671772464,6234
-57.01838955653636,8450
-54.53178022029283,10396
-52.045858514480074,11765
-49.560624244506016,13134
-47.07607721569923,14661
-44.59221723330904,11819
-42.10904410250669,9007
-39.62655762838392,8452
-37.14475761595372,10611
-34.66364387015028,11809
-32.18321619582866,15510
-29.70347439776515,18340
-27.224418280657005,18202
-24.74604764912317,23715
-22.26836230770266,34908
-19.7913620608565,57271
-17.315046712966478,65036
-14.83941606833514,65036
-12.36446993118659,65036
-9.89020810566592,65036
-7.416630395839093,65036
-4.94373660569363,65036
-2.471526539137585,65036
-6.821210263296962E-13,65036
2.47084320796705,65036
4.941003281093458,65036
7.410480415786196,65036
9.879274808531363,65036
12.347386655893956,65036
14.814816154518212,65036
17.28156350112681,65036
19.74762889252179,65036
22.21301252558385,25358
24.67771459727237,6141
27.141735304626195,5390
29.605074844762612,5671
32.06773341487792,4562
34.52971121224755,3750
36.99100843422559,3618
39.45162527824516,3443
41.91156194181792,3058
44.370818622535126,2958
46.82939551806646,2698
49.287292826160524,4193
51.74451074464503,3963
54.201049471426245,3006
56.65690920448981,2738
59.112090141899785,2103
61.56659248179983,2021
64.02041642241159,2166
66.4735621620365,2330
68.92602989905402,2757
71.37781983192338,2752
73.82893215918205,2206
76.27936707944684,1618
78.72912479141326,1833
81.17820549385567,1756
83.62660938562783,1503
86.07433666566146,1470
88.5213875329681,1481
90.96776218663751,1556
93.41346082583925,1621
95.85848364982041,2013
98.30283085790859,1585
100.7465026495089,1386
103.18949922410604,1377
105.63182078126385,1169
108.07346752062438,1378
110.51443964190923,1334
112.95473734491827,1282
115.39436082953114,1268
117.83331029570547,1333
120.27158594347827,1250
122.7091879729652,1126
125.1461165843615,1121
127.58237197794062,1106
130.01795435405518,1058
132.4528639131364,1121
134.88710085569494,1156
137.32066538231982,1219
139.75355769367923,1240
142.1857779905207,1029
144.61732647366978,931
147.04820334403132,940
149.47840880258934,1124
151.90794305040674,1149
154.33680628862487,1226
156.76499871846443,1300
159.19252054122433,1353
161.61937195828352,1560
164.04555317109896,1707
166.47106438120693,1786
168.89590579022217,1972
171.320077599839,2038
173.7435800118302,2162
176.16641322804742,2345
178.58857745042144,2487
181.01007288096173,2398
183.43089972175687,2646
185.85105817497413,2547
188.27054844285988,2631
190.6893707277394,2525
193.10752523201643,2622
195.5250121581745,2713
197.9418317087751,2679
200.3579840864594,2716
202.7734694939469,2895
205.18828813403627,2865
207.6024402096051,2910
210.01592592360964,2887
212.42874547908548,2783
214.84089907914665,2865
217.2523869269868,2893
219.66320922587727,2891
222.0733661791695,2783
224.48285799029293,2796
226.8916848627572,2811
229.29984700014882,2932
231.7073446061355,2987
234.11417788446204,2971
236.520347038953,3112
238.92585227351185,3096
241.33069379212054,3152
243.73487179884035,3228
246.1383864978112,3231
248.541238093252,3306
250.9434267894609,3321
253.34495279081432,3346
255.74581630176783,3389
258.1460175268563,3454
260.54555667069314,3547
262.9444339379703,3483
265.3426495334594,3484
267.7402036620107,3372
270.1370965285529,3201
272.53332833809407,3157
274.9288992957214,2949
277.32380960660055,2824
279.718059475976,2808
282.1116491091717,2795
284.5045787115897,2701
286.89684848871195,2744
289.2884586460981,2771
291.67940938938807,2927
294.0697009242996,2753
296.4593334566299,2762
298.84830719225477,2778
301.23662233712923,2741
303.6242790972866,2653
306.01127767884,2659
308.39761828798066,2551
310.78330113097934,2552
313.16832641418534,2500
315.5526943440269,2514
317.9364051270112,2540
320.3194589697242,2413
322.70185607883093,2361
325.0835966610754,2360
327.4646809232805,2264
329.8451090723478,2306
332.2248813152577,2323
334.6039978590701,2326
336.9824589109231,2284
339.36026467803447,2227
341.7374153677,2232
344.113911187295,2282
346.48975234427337,2228
348.8649390461686,2233
351.2394715005918,2184
353.61334991523415,2202
355.9865744978655,2239
358.35914545633375,2226
360.73106299856715,2208
363.10232733257146,2121
365.47293866643247,2116
367.84289720831396,2135
370.2122031664593,2088
372.5808567491905,2210
374.9488581649083,2159
377.31620762209275,2121
379.6829053293021,2176
382.0489514951745,2161
384.4143463284262,2052
386.7790900378528,1978
389.14318283232853,2095
391.50662492080653,2124
393.86941651231916,2050
396.23155781597745,2087
398.5930490409713,2101
400.9538903965696,2086
403.3140820921202,2022
405.6736243370498,2020
408.03251734086336,2061
410.3907613131465,2076
412.74835646356166,1958
415.10530300185144,1962
417.4616011378372,2072
419.81725108141893,1973
422.1722530425758,2020
424.5266072313656,2043
426.880313857925,2043
429.2333731324701,1965
431.58578526529516,1988
433.9375504667738,2021
436.2886689473588,2038
438.63914091758113,2049
440.9889665880513,2041
443.33814616945835,1959
445.68667987257015,1998
448.03456790823395,1998
450.3818104873759,1963
452.72840782100013,1955
455.07436012019105,1965
457.41966759611057,1915
459.7643304600007,1875
462.10834892318155,1983
464.4517231970525,1952
466.79445349309174,1964
469.1365400228566,1946
471.4779829979826,1937
473.81878263018564,1996
476.15893913125876,1978
478.4984527130747,2049
480.8373235875855,2046
483.17555196682144,2171
485.5131380628919,2163
487.8500820879857,2195
490.1863842543697,2371
492.52204477439034,2446
494.8570638604725,2634
497.1914417251204,3014
499.52517858091653,3342
501.85827464052306,3723
504.19073011668036,3936
506.5225452222086,3980
508.85372017000566,3964
511.18425517304956,3852
513.514150444396,4209
515.8434061971808,5186
518.1720226446176,6057
520.4999999999999,6219
522.8273384766991,5905
525.1540382881666,5656
527.480099647932,5097
529.8055227696037,4115
532.1303078668694,3084
534.454455153496,2494
536.777964843328,2260
539.1008371502907,2132
541.4230722883866,2159
543.744670471698,2023
546.0656319143858,2070
548.3859568306899,2054
550.7056454349294,2042
553.0246979415016,2015
555.3431145648834,1938
557.6608955196306,1987
559.978041020377,1942
562.2945512818363,2037
564.6104265188006,2002
566.9256669461412,1971
569.2402727788082,1980
571.5542442318302,1963
573.8675815203156,2009
576.1802848594508,2089
578.4923544645015,2078
580.8037905508126,2058
583.114593333807,2053
585.4247630289875,2069
587.7342998519354,2055
590.0432040183106,1970
592.3514757438526,2096
594.6591152443794,2078
596.9661227357875,2055
599.2724984340531,1971
601.578242555231,2054
603.8833553154542,2002
606.1878369309362,1993
608.4916876179676,2008
610.7949075929192,2099
613.0974970722403,2014
615.3994562724587,1998
617.7007854101818,1987
620.0014847020951,1979
622.3015543649641,2030
624.6009946156324,2106
626.8998056710224,2034
629.1979877481361,2088
631.4955410640538,2083
633.7924658359349,2026
636.0887622810175,2056
638.3844306166192,2048
640.6794710601358,2093
642.9738838290426,2118
645.2676691408932,2107
647.5608272133207,2031
649.853358264037,2039
652.1452625108324,2171
654.4365401715764,2056
656.7271914642178,2076
659.0172166067838,2134
661.3066158173809,2095
663.5953893141935,2007
665.8835373154867,2086
668.1710600396028,2079
670.4579577049639,2101
672.7442305300709,2061
675.0298787335033,2125
677.3149025339197,2036
679.599302150058,2049
681.8830778007342,2036
684.1662297048437,2008
686.4487580813608,2058
688.7306631493387,2038
691.0119451279091,2028
693.2926042362834,2037
695.5726406937516,2020
697.8520547196814,2084
700.1308465335215,1992
702.4090163547982,2065
704.6865644031171,1998
706.9634908981619,2037
709.2397960596965,1936
711.5154801075631,2001
713.7905432616823,2036
716.0649857420548,2100
718.3388077687592,1968
720.612009561953,1997
722.8845913418733,1998
725.1565533288352,2067
727.427895743234,1989
729.6986188055427,1960
731.9687227363137,2019
734.238207756178,1940
736.5070740858458,1965
738.7753219461066,2010
741.0429515578281,1986
743.3099631419569,1970
745.5763569195191,2043
747.8421331116193,2036
750.1072919394409,2044
752.3718336242467,2054
754.6357583873777,2012
756.8990664502545,2038
759.1617580343765,2040
761.423833361321,1978
763.6852926527457,2024
765.9461361303862,2069
768.206364016058,1970
770.4659765316536,1988
772.7249738991469,2109
774.9833563405886,2068
777.2411240781092,2020
779.4982773339183,2101
781.7548163303044,1977
784.010741289634,2031
786.2660524343538,2109
788.5207499869881,2024
790.7748341701416,2047
793.0283052064964,2064
795.2811633188143,2028
797.5334087299362,2044
799.7850416627813,1979
802.0360623403484,2047
804.2864709857143,2102
806.5362678220353,2074
808.7854530725468,2054
811.0340269605625,2143
813.2819897094754,2154
815.5293415427581,2062
817.77608268396,2064
820.0222133567116,2080
822.2677337847211,2068
824.5126441917765,2066
826.7569448017433,2005
829.0006358385675,2093
831.2437175262731,2061
833.4861900889629,2084
835.7280537508192,2054
837.9693087361026,2053
840.2099552691533,2111
842.4499935743896,1997
844.689423876309,2133
846.9282463994886,2068
849.1664613685833,2169
851.4040690083276,2132
853.6410695435349,2077
855.877463199097,2083
858.1132501999847,2128
860.3484307712487,2101
862.5830051380175,2058
864.8169735254988,2189
867.0503361589791,2049
869.2830932638243,2133
871.5152450654786,2092
873.7467917894654,2109
875.9777336613873,2126
878.2080709069252,2181
880.4378037518389,2172
882.666932421968,2133
884.8954571432301,2156
887.1233781416219,2104
889.3506956432192,2140
891.5774098741766,2161
893.803521060728,2170
896.0290294291852,2155
898.2539352059397,2202
900.4782386174619,2124
902.7019398903011,2165
904.925039251085,2180
907.147536926521,2162
909.3694331433943,2127
911.59072812857,2125
913.8114221089921,2135
916.0315153116827,2194
918.2510079637437,2136
920.4699002923547,2146
922.6881925247761,2194
924.905884888345,2156
927.1229776104793,2145
929.3394709186747,2211
931.555365040506,2167
933.7706602036275,2227
935.9853566357709,2223
938.1994545647489,2154
940.4129542184515,2191
942.6258558248488,2106
944.8381596119883,2162
947.0498658079974,2198
949.2609746410825,2239
951.4714863395287,2099
953.6814011316998,2195
955.8907192460387,2151
958.0994409110671,2184
960.3075663553858,2135
962.5150958076741,2188
964.7220294966913,2187
966.928367651274,2181
969.1341105003388,2075
971.3392582728806,2101
973.5438111979742,2049
975.747769504772,2165
977.9511334225061,2047
980.153903180487,2042
982.3560790081052,2060
984.5576611348289,1998
986.7586497902058,1985
988.9590452038618,1959
991.158847605503,1992
993.3580572249133,2033
995.5566742919558,1928
997.7546990365728,1888
999.952131688785,1868
1002.1489724786926,1896
1004.3452216364743,1816
1006.5408793923874,1784
1008.7359459767691,1872
1010.9304216200343,1772
1013.1243065526781,1765
1015.3176010052733,1692
1017.510305208472,1742
1019.7024193930064,1696
1021.8939437896848,1733
1024.0848786293977,1780
1026.2752241431122,1752
1028.4649805618747,1767
1030.6541481168115,1818
1032.842727039127,1781
1035.0307175601051,1713
1037.2181199111074,1722
1039.4049343235752,1769
1041.591161029029,1739
1043.7768002590683,1696
1045.9618522453698,1736
1048.1463172196918,1730
1050.3301954138697,1759
1052.513487059818,1698
1054.69619238953,1682
1056.8783116350783,1720
1059.0598450286152,1673
1061.2407928023704,1719
1063.4211551886528,1669
1065.6009324198508,1655
1067.780124728432,1688
1069.9587323469414,1676
1072.1367555080046,1687
1074.314194444325,1652
1076.4910493886855,1683
1078.667320573947,1595
1080.843008233051,1599
1083.0181125990161,1703
1085.1926339049414,1622
1087.3665723840027,1644
1089.5399282694575,1658
1091.7127017946405,1580
1093.8848931929647,1617
1096.0565026979243,1620
1098.2275305430899,1618
1100.3979769621128,1628
1102.567842188722,1626
1104.737126456726,1586
1106.9058300000124,1588
1109.0739530525475,1655
1111.2414958483764,1596
1113.4084586216231,1556
1115.5748416064907,1613
1117.7406450372605,1593
1119.9058691482942,1677
1122.0705141740304,1583
1124.2345803489884,1608
1126.3980679077658,1560
1128.5609770850388,1596
1130.7233081155623,1557
1132.8850612341707,1613
1135.0462366757774,1584
1137.2068346753745,1555
1139.3668554680326,1525
1141.526299288901,1541
1143.68516637321,1575
1145.8434569562655,1541
1148.001171273455,1638
1150.158309560244,1626
1152.3148720521767,1613
1154.470858984876,1551
1156.626270594044,1609
1158.7811071154629,1590
1160.9353687849912,1526
1163.089055838569,1524
1165.242168512213,1538
1167.3947070420209,1578
1169.5466716641677,1588
1171.6980626149075,1559
1173.8488801305748,1584
1175.9991244475814,1576
1178.1487958024186,1545
1180.2978944316555,1592
1182.4464205719428,1595
1184.5943744600072,1497
1186.7417563326567,1508
1188.8885664267755,1552
1191.0348049793297,1541
1193.1804722273619,1512
1195.325568407995,1584
1197.4700937584303,1558
1199.614048515948,1586
1201.7574329179074,1548
1203.900247201746,1595
1206.042491604982,1589
1208.1841663652099,1552
1210.3252717201053,1515
1212.465807907422,1616
1214.6057751649923,1578
1216.7451737307279,1619
1218.8840038426192,1638
1221.0222657387353,1584
1223.1599596572241,1605
1225.2970858363137,1637
1227.4336445143094,1591
1229.5696359295966,1566
1231.705060320639,1634
1233.8399179259786,1586
1235.9742089842384,1611
1238.107933734118,1595
1240.2410924143974,1668
1242.373685263935,1654
1244.5057125216676,1599
1246.6371744266116,1660
1248.7680712178621,1731
1250.898403134593,1672
1253.028170416058,1666
1255.1573733015875,1633
1257.2860120305932,1585
1259.4140868425648,1686
1261.54159797707,1633
1263.6685456737569,1650
1265.7949301723515,1671
1267.9207517126597,1702
1270.046010534565,1636
1272.1707068780306,1676
1274.2948409830983,1698
1276.4184130898889,1707
1278.541423438603,1648
1280.6638722695184,1707
1282.785759822993,1735
1284.9070863394636,1796
1287.0278520594447,1648
1289.1480572235314,1710
1291.2677020723963,1717
1293.3867868467923,1744
1295.5053117875495,1734
1297.623277135579,1712
1299.740683131868,1730
1301.8575300174857,1738
1303.973818033578,1767
1306.0895474213703,1784
1308.2047184221678,1756
1310.3193312773528,1747
1312.4333862283888,1826
1314.5468835168163,1830
1316.659823384255,1812
1318.7722060724045,1759
1320.8840318230418,1804
1322.9953008780249,1819
1325.1060134792888,1733
1327.2161698688478,1801
1329.3257702887959,1768
1331.4348149813054,1817
1333.5433041886276,1745
1335.6512381530933,1833
1337.7586171171101,1797
1339.8654413231675,1812
1341.9717110138317,1821
1344.0774264317488,1774
1346.1825878196432,1762
1348.2871954203192,1789
1350.3912494766587,1760
1352.4947502316231,1768
1354.5976979282532,1750
1356.7000928096686,1731
1358.8019351190665,1718
1360.9032250997243,1831
1363.0039629949988,1767
1365.1041490483235,1755
1367.2037835032133,1768
1369.3028666032606,1817
1371.401398592137,1813
1373.4993797135926,1782
1375.5968102114575,1752
1377.6936903296396,1777
1379.7900203121262,1725
1381.8858004029835,1823
1383.9810308463561,1782
1386.075711886469,1790
1388.1698437676241,1765
1390.2634267342032,1766
1392.356461030667,1860
1394.4489469015557,1816
1396.5408845914872,1782
1398.6322743451592,1818
1400.7231164073469,1838
1402.813411022907,1866
1404.903158436773,1813
1406.9923588939578,1863
1409.0810126395531,1863
1411.1691199187303,1916
1413.2566809767386,1928
1415.343696058907,1916
1417.4301654106425,1936
1419.5160892774315,2001
1421.6014679048399,2010
1423.6863015385125,1926
1425.7705904241707,1995
1427.8543348076178,1977
1429.9375349347342,2046
1432.0201910514802,2034
1434.102303403894,2061
1436.1838722380944,2068
1438.2648978002767,2064
1440.3453803367174,2139
1442.4253200937692,2103
1444.5047173178677,2217
1446.5835722555234,2194
1448.6618851533285,2229
1450.739656257952,2308
1452.8168858161434,2209
1454.8935740747306,2265
1456.96972128062,2283
1459.045327680797,2447
1461.120393522327,2350
1463.1949190523528,2313
1465.2689045180973,2440
1467.3423501668608,2507
1469.415256246024,2559
1471.4876230030463,2595
1473.559450685465,2544
1475.6307395408976,2632
1477.7014898170391,2729
1479.771701761665,2703
1481.8413756226287,2832
1483.9105116478618,2905
1485.9791100853772,2752
1488.0471711832643,2904
1490.1146951896926,2875
1492.1816823529098,2981
1494.2481329212433,3019
1496.3140471430984,2990
1498.3794252669609,3021
1500.4442675413939,2967
1502.5085742150404,3123
1504.572345536622,3096
1506.6355817549388,3086
1508.6982831188702,3023
1510.7604498773744,3089
1512.8220822794883,3119
1514.8831805743293,3257
1516.9437450110909,3189
1519.003775839048,3264
1521.0632733075522,3232
1523.1222376660367,3187
1525.1806691640113,3187
1527.2385680510652,3280
1529.2959345768668,3282
1531.3527689911643,3280
1533.4090715437833,3335
1535.4648424846291,3400
1537.5200820636855,3432
1539.5747905310159,3393
1541.6289681367616,3500
1543.6826151311434,3549
1545.7357317644614,3550
1547.7883182870937,3604
1549.8403749494987,3654
1551.8919020022113,3756
1553.9428996958477,3899
1555.9933682811015,3899
1558.0433080087469,3883
1560.0927191296346,4068
1562.1416018946961,4209
1564.1899565549415,4126
1566.2377833614592,4128
1568.2850825654164,4032
1570.3318544180606,4105
1572.3780991707158,4042
1574.423817074788,3926
1576.4690083817595,3729
1578.5136733431923,3505
1580.5578122107272,3433
1582.601425236085,3317
1584.6445126710646,3170
1586.6870747675434,2889
1588.7291117774776,2874
1590.7706239529034,2775
1592.8116115459347,2622
1594.8520748087658,2577
1596.8920139936686,2494
1598.9314293529933,2401
1600.9703211391711,2406
1603.008689604711,2276
1605.0465350022005,2258
1607.0838575843068,2236
1609.1206576037753,2040
1611.1569353134305,2066
1613.1926909661765,2005
1615.2279248149953,1980
1617.2626371129481,1979
1619.2968281131757,1999
1621.3304980688963,1853
1623.3636472334088,1872
1625.39627586009,1848
1627.428384202396,1889
1629.459972513861,1813
1631.4910410480993,1804
1633.5215900588028,1845
1635.551619799744,1790
1637.5811305247717,1733
1639.6101224878166,1766
1641.6385959428862,1748
1643.6665511440683,1666
1645.693988345528,1710
1647.7209078015112,1755
1649.7473097663405,1740
1651.7731944944203,1659
1653.7985622402307,1655
1655.823413258333,1708
1657.847747803366,1729
1659.8715661300494,1684
1661.8948684931793,1649
1663.9176551476316,1681
1665.9399263483624,1686
1667.9616823504057,1627
1669.982923408873,1636
1672.0036497789574,1697
1674.0238617159293,1663
1676.043559475138,1680
1678.0627433120121,1663
1680.081413482059,1664
1682.0995702408654,1644
1684.117213844096,1610
1686.134344547495,1653
1688.1509626068864,1696
1690.1670682781705,1670
1692.182661817329,1644
1694.1977434804217,1619
1696.2123135235875,1654
1698.226372203043,1667
1700.2399197750851,1624
1702.2529564960905,1675
1704.2654826225112,1634
1706.277498410882,1635
1708.2890041178139,1656
1710.2999999999988,1721
1712.3104863142066,1593
1714.3204633172854,1661
1716.329931266163,1608
1718.3388904178469,1688
1720.3473410294214,1599
1722.3552833580516,1660
1724.3627176609807,1609
1726.3696441955308,1678
1728.3760632191033,1681
1730.3819749891782,1641
1732.3873797633146,1607
1734.3922777991502,1627
1736.3966693544012,1657
1738.4005546868639,1592
1740.4039340544127,1540
1742.406807715001,1564
1744.4091759266616,1567
1746.4110389475054,1558
1748.4123970357223,1545
1750.413250449582,1512
1752.4135994474318,1524
1754.4134442876993,1603
1756.4127852288902,1603
1758.4116225295893,1544
1760.4099564484595,1547
1762.407787244244,1523
1764.405115175764,1538
1766.4019405019203,1537
1768.3982634816916,1506
1770.3940843741357,1486
1772.3894034383907,1574
1774.3842209336717,1521
1776.378537119274,1469
1778.372352254571,1511
1780.3656665990156,1520
1782.3584804121397,1517
1784.3507939535534,1526
1786.3426074829463,1447
1788.3339212600863,1491
1790.3247355448211,1484
1792.3150505970766,1535
1794.3048666768573,1464
1796.2941840442477,1479
1798.2830029594106,1435
1800.2713236825884,1553
1802.2591464741004,1478
1804.2464715943465,1494
1806.2332993038058,1450
1808.2196298630352,1467
1810.2054635326708,1463
1812.190800573428,1511
1814.175641246101,1530
1816.1599858115628,1536
1818.1438345307652,1448
1820.127187664738,1453
1822.1100454745924,1420
1824.092408221516,1428
1826.0742761667766,1455
1828.055649571721,1441
1830.0365286977735,1505
1832.0169138064398,1443
1833.9968051593014,1463
1835.9762030180214,1484
1837.9551076443408,1463
1839.9335193000788,1463
1841.9114382471344,1476
1843.888864747485,1436
1845.8657990631878,1472
1847.842241456378,1448
1849.8181921892697,1490
1851.7936515241558,1432
1853.7686197234098,1465
1855.7430970494815,1461
1857.7170837649014,1437
1859.6905801322787,1466
1861.6635864143004,1427
1863.6361028737338,1424
1865.608129773424,1477
1867.5796673762961,1493
1869.5507159453537,1486
1871.521275743678,1464
1873.4913470344313,1435
1875.4609300808534,1466
1877.4300251462632,1453
1879.3986324940588,1483
1881.366752387717,1520
1883.3343850907936,1503
1885.3015308669228,1504
1887.268189979819,1504
1889.2343626932739,1511
1891.2000492711595,1511
1893.1652499774254,1539
1895.1299650761011,1559
1897.0941948312952,1477
1899.0579395071945,1489
1901.0211993680641,1550
1902.98397467825,1520
1904.9462657021745,1509
1906.9080727043415,1499
1908.869395949332,1492
1910.8302357018065,1558
1912.790592226504,1479
1914.7504657882428,1437
1916.7098566519212,1494
1918.6687650825133,1498
1920.6271913450764,1485
1922.5851357047422,1490
1924.5425984267245,1474
1926.499579776314,1469
1928.4560800188833,1530
1930.4120994198802,1463
1932.367638244833,1516
1934.32269675935,1513
1936.2772752291175,1507
1938.231373919899,1502
1940.1849930975404,1465
1942.1381330279637,1505
1944.0907939771696,1411
1946.0429762112412,1414
1947.9946799963363,1441
1949.9459055986945,1437
1951.896653284633,1415
1953.8469233205478,1489
1955.7967159729142,1442
1957.7460315082863,1448
1959.6948701932974,1369
1961.6432322946594,1449
1963.5911180791632,1444
1965.5385278136787,1424
1967.4854617651545,1489
1969.4319202006182,1461
1971.377903387176,1377
1973.3234115920136,1457
1975.268445082395,1405
1977.2130041256642,1401
1979.1570889892423,1367
1981.1006999406304,1437
1983.04383724741,1398
1984.986501177238,1416
1986.928691997853,1421
1988.8704099770712,1400
1990.811655382789,1416
1992.7524284829801,1390
1994.692729545698,1372
1996.6325588390755,1440
1998.5719166313224,1486
2000.5108031907307,1360
2002.4492187856677,1394
2004.387163684583,1388
2006.3246381560011,1407
2008.2616424685298,1391
2010.1981768908527,1436
2012.1342416917332,1428
2014.069837140014,1377
2016.0049635046162,1404
2017.9396210545406,1348
2019.8738100588666,1437
2021.8075307867502,1413
2023.740783507431,1408
2025.6735684902228,1400
2027.6058860045214,1387
2029.5377363198004,1387
2031.4691197056118,1354
2033.4000364315875,1388
2035.3304867674374,1398
2037.260470982952,1332
2039.189989347998,1480
2041.1190421325232,1341
2043.047629606554,1384
2044.9757520401945,1356
2046.9034097036288,1413
2048.8306028671195,1392
2050.7573318010086,1357
2052.683596775716,1366
2054.609398061742,1356
2056.5347359296647,1347
2058.4596106501403,1358
2060.384022493906,1357
2062.3079717317764,1338
2064.231458634646,1336
2066.1544834734873,1355
2068.077046519352,1298
2069.99914804337,1347
2071.9207883167524,1374
2073.8419676107865,1367
2075.7626861968406,1345
2077.6829443463607,1412
2079.6027423308715,1368
2081.522080421977,1347
2083.440958891362,1364
2085.359378010786,1369
2087.2773380520907,1285
2089.194839287196,1337
2091.111881988101,1370
2093.0284664268825,1367
2094.9445928756973,1381
2096.86026160678,1362
2098.775472892446,1303
2100.690227005088,1328
2102.604524217178,1386
2104.5183648012676,1375
2106.431749029985,1286
2108.34467717604,1365
2110.2571495122206,1357
2112.169166311393,1392
2114.080727846503,1302
2115.9918343905747,1403
2117.902486216711,1365
2119.8126835980956,1441
2121.722426807987,1424
2123.6317161197285,1348
2125.5405518067364,1355
2127.448934142509,1365
2129.356863400624,1409
2131.264339854737,1405
2133.1713637785815,1406
2135.077935445972,1448
2136.9840551308002,1374
2138.889723107037,1466
2140.7949396487334,1402
2142.699705030018,1441
2144.6040195250994,1394
2146.507883408264,1453
2148.4112969538774,1382
2150.3142604363848,1412
2152.2167741303097,1427
2154.1188383102535,1366
2156.0204532508997,1445
2157.9216192270064,1480
2159.822336513414,1408
2161.7226053850413,1457
2163.622426116884,1400
2165.5217989840185,1402
2167.4207242616,1447
2169.319202224862,1445
2171.2172331491165,1434
2173.1148173097563,1475
2175.0119549822507,1454
2176.90864644215,1402
2178.8048919650823,1483
2180.7006918267534,1485
2182.596046302952,1507
2184.4909556695407,1440
2186.3854202024645,1446
2188.279440177746,1467
2190.173015871487,1407
2192.066147559868,1461
2193.958835519149,1380
2195.851080025667,1441
2197.7428813558417,1520
2199.6342397861667,1508
2201.5251555932186,1421
2203.415629053651,1494
2205.3056604441986,1461
2207.19525004167,1501
2209.084398122958,1456
2210.9731049650327,1510
2212.861370844941,1495
2214.749196039812,1523
2216.636580826851,1478
2218.523525483344,1463
2220.410030286655,1442
2222.296095514226,1490
2224.1817214435805,1441
2226.066908352319,1474
2227.951656518121,1482
2229.835966218746,1454
2231.71983773203,1479
2233.6032713358913,1517
2235.486267308324,1482
2237.3688259274036,1461
2239.2509474712824,1503
2241.132632218193,1545
2243.013880446447,1489
2244.8946924344323,1501
2246.7750684606203,1478
2248.6550088035574,1561
2250.534513741871,1526
2252.413583554265,1460
2254.292218519526,1497
2256.170418916517,1472
2258.0481850241786,1461
2259.925517121534,1471
2261.8024154876825,1540
2263.678880401803,1496
2265.5549121431536,1447
2267.430510991071,1485
2269.305677224971,1444
2271.180411124348,1436
2273.0547129687766,1428
2274.9285830379076,1424
2276.8020216114737,1411
2278.6750289692845,1473
2280.5476053912294,1515
2282.4197511572766,1475
2284.2914665474727,1459
2286.162751841943,1525
2288.0336073208937,1501
2289.904033264608,1507
2291.774029953448,1482
2293.6435976678554,1467
2295.5127366883517,1445
2297.381447295534,1391
2299.2497297700825,1353
2301.1175843927526,1417
2302.9850114443825,1325
2304.852011205885,1287
2306.7185839582553,1352
2308.5847299825664,1323
2310.4504495599676,1317
2312.3157429716925,1303
2314.1806104990483,1294
2316.0450524234247,1317
2317.9090690262888,1293
2319.772660589186,1284
2321.635827393742,1275
2323.498569721661,1309
2325.3608878547248,1307
2327.2227820747967,1273
2329.0842526638157,1291
2330.945299903803,1299
2332.805924076857,1336
2334.6661254651535,1247
2336.525904350951,1225
2338.3852610165827,1309
2340.244195744464,1265
2342.102708817088,1216
2343.9608005170253,1256
2345.8184711269287,1295
2347.675720929526,1255
2349.532550207628,1292
2351.38895924412,1317
2353.24494832197,1291
2355.100517724223,1251
2356.955667734004,1354
2358.810398634514,1315
2360.664710709037,1308
2362.5186042409337,1259
2364.3720795136437,1302
2366.225136810686,1296
2368.0777764156583,1272
2369.929998612237,1328
2371.7818036841777,1305
2373.633191915315,1259
2375.484163589562,1325
2377.3347189909114,1291
2379.184858403434,1344
2381.03458211128,1276
2382.8838903986775,1304
2384.732783549936,1301
2386.5812618494406,1329
2388.4293255816588,1290
2390.2769750311327,1329
2392.1242104824883,1291
2393.971032220427,1357
2395.8174405297295,1316
2397.6634356952563,1289
2399.509018001947,1325
2401.3541877348193,1336
2403.1989451789705,1325
2405.043290619576,1341
2406.8872243418905,1268
2408.730746631247,1260
2410.5738577730594,1332
2412.4165580528183,1329
2414.258847756095,1297
2416.100727168537,1311
2417.9421965758734,1336
2419.783256263912,1344
2421.623906518538,1326
2423.4641476257157,1352
2425.303979871491,1323
2427.143403541984,1330
2428.9824189233977,1320
2430.821026302012,1348
2432.6592259641866,1315
2434.497018196361,1278
2436.33440328505,1327
2438.171381516851,1355
2440.00795317844,1296
2441.844118556569,1300
2443.6798779380724,1339
2445.5152316098606,1388
2447.3501798589255,1339
2449.1847229723357,1392
2451.0188612372403,1305
2452.8525949408663,1391
2454.6859243705203,1349
2456.518849813587,1329
2458.3513715575314,1358
2460.183489889895,1330
2462.015205098301,1338
2463.8465174704493,1327
2465.67742729412,1377
2467.5079348571717,1396
2469.338040447542,1327
2471.1677443532476,1370
2472.9970468623833,1410
2474.825948263123,1373
2476.6544488437207,1351
2478.482548892508,1338
2480.310248697896,1349
2482.137548548374,1357
2483.9644487325118,1410
2485.790949538956,1343
2487.617051256433,1356
2489.44275417375,1355
2491.26805857979,1374
2493.0929647635157,1372
2494.917473013971,1390
2496.741583620276,1418
2498.5652968716304,1452
2500.3886130573137,1419
2502.2115324666834,1416
2504.0340553891765,1367
2505.856182114308,1376
2507.6779129316733,1387
2509.499248130945,1442
2511.3201880018764,1391
2513.140732834298,1418
2514.9608829181198,1417
2516.780638543331,1394
2518.6,1434
2520.418967578273,1417
2522.237541568376,1473
2524.0557222606144,1412
2525.8735099453706,1432
2527.6909049131086,1452
2529.507907454368,1454
2531.32451785977,1494
2533.140736420014,1508
2534.9565634258774,1519
2536.771999168218,1504
2538.5870439379714,1524
2540.4016980261526,1489
2542.2159617238544,1527
2544.02983532225,1497
2545.8433191125914,1557
2547.656413386209,1593
2549.4691184345115,1588
2551.2814345489874,1616
2553.093362021204,1592
2554.904901142808,1638
2556.716052205523,1614
2558.526815501153,1627
2560.3371913215824,1624
2562.147179958771,1592
2563.956781704761,1659
2565.7659968516705,1702
2567.5748256916986,1745
2569.3832685171224,1751
2571.1913256202984,1676
2572.9989972936614,1669
2574.806283829725,1659
2576.613185521084,1709
2578.4197026604074,1731
2580.2258355404483,1824
2582.031584454035,1758
2583.836949694077,1739
2585.6419315535613,1703
2587.4465303255533,1744
2589.2507463032002,1763
2591.0545797797245,1794
2592.8580310484303,1686
2594.6611004026995,1788
2596.463788135992,1735
2598.266094541849,1722
2600.0680199138874,1799
2601.869564545807,1839
2603.670728731383,1745
2605.4715127644704,1734
2607.2719169390048,1762
2609.071941548998,1784
2610.8715868885433,1774
2612.670853251811,1722
2614.469740933052,1753
2616.268250226594,1729
2618.0663814268455,1750
2619.864134828292,1749
2621.6615107255006,1697
2623.458509413115,1709
2625.2551311858597,1753
2627.0513763385347,1735
2628.8472451660223,1704
2630.6427379632833,1683
2632.4378550253564,1636
2634.232596647359,1634
2636.026963124488,1647
2637.8209547520187,1660
2639.6145718253065,1676
2641.407814639785,1587
2643.200683490966,1605
2644.9931786744414,1567
2646.7853004858807,1624
2648.577049221034,1623
2650.3684251757277,1569
2652.1594286458712,1502
2653.9500599274484,1553
2655.740319316525,1504
2657.5302071092437,1436
2659.3197236018286,1491
2661.10886909058,1486
2662.8976438718782,1476
2664.686048242183,1513
2666.4740824980327,1484
2668.2617469360443,1414
2670.0490418529134,1378
2671.8359675454153,1453
2673.622524310403,1448
2675.408712444811,1362
2677.1945322456495,1415
2678.979984010009,1420
2680.76506803506,1415
2682.5497846180497,1376
2684.334134056306,1453
2686.1181166472343,1445
2687.9017326883213,1390
2689.6849824771293,1413
2691.4678663113013,1345
2693.2503844885596,1320
2695.032537306705,1347
2696.8143250636167,1339
2698.5957480572542,1335
2700.3768065856534,1340
2702.1575009469316,1350
2703.937831439283,1324
2705.717798360982,1302
2707.4974020103837,1247
2709.276642685917,1342
2711.055520686095,1266
2712.834036309506,1317
2714.612189854819,1280
2716.389981620782,1294
2718.1674119062204,1304
2719.944481010041,1347
2721.721189231226,1320
2723.4975368688415,1353
2725.273524222027,1247
2727.0491515900053,1313
2728.824419272075,1297
2730.5993275676146,1232
2732.3738767760838,1319
2734.148067197016,1293
2735.921899130031,1269
2737.6953728748194,1218
2739.468488731156,1306
2741.2412469988926,1299
2743.0136479779617,1291
2744.785691968372,1252
2746.5573792702116,1218
2748.3287101836504,1267
2750.099685008934,1247
2751.870304046388,1276
2753.640567596418,1294
2755.4104759595057,1297
2757.1800294362156,1255
2758.949228327187,1228
2760.7180729331412,1286
2762.486563554877,1246
2764.254700493272,1223
2766.022484049284,1219
2767.789914523947,1239
2769.5569922183786,1235
2771.3237174337705,1258
2773.090090471394,1243
2774.8561116326036,1258
2776.6217812188274,1280
2778.3870995315756,1297
2780.1520668724356,1241
2781.9166835430747,1257
2783.6809498452394,1255
2785.444866080754,1288
2787.2084325515225,1247
2788.971649559527,1278
2790.73451740683,1283
2792.4970363955713,1255
2794.2592068279705,1258
2796.0210290063264,1283
2797.7825032330147,1212
2799.543629810493,1247
2801.304409041296,1218
2803.0648412280366,1217
2804.8249266734088,1303
2806.5846656801846,1244
2808.344058551212,1285
2810.1031055894246,1274
2811.8618070978273,1264
2813.6201633795085,1266
2815.378174737636,1243
2817.1358414754536,1202
2818.893163896285,1257
2820.6501423035334,1263
2822.4067770006814,1209
2824.1630682912883,1281
2825.9190164789957,1196
2827.6746218675207,1266
2829.429884760661,1232
2831.184805462294,1265
2832.9393842763743,1267
2834.693621506936,1316
2836.4475174580916,1309
2838.201072434034,1227
2839.954286739034,1220
2841.707160677441,1267
2843.459694553685,1265
2845.2118886722724,1232
2846.96374333779,1268
2848.7152588549034,1293
2850.4664355283567,1248
2852.217273662973,1246
2853.9677735636546,1253
2855.7179355353833,1252
2857.4677598832186,1255
2859.217246912299,1255
2860.9663969278427,1265
2862.715210235146,1231
2864.4636871395846,1282
2866.211827946614,1268
2867.9596329617652,1238
2869.7071024906536,1216
2871.4542368389684,1234
2873.20103631248,1245
2874.947501217038,1239
2876.6936318585695,1246
2878.4394285430812,1321
2880.1848915766604,1304
2881.9300212654707,1246
2883.6748179157553,1247
2885.4192818338374,1274
2887.1634133261173,1240
2888.907212699077,1238
2890.6506802592744,1211
2892.393816313348,1218
2894.1366211680142,1231
2895.8790951300693,1245
2897.621238506388,1271
2899.363051603925,1261
2901.1045347297118,1205
2902.8456881908596,1283
2904.58651229456,1255
2906.327007348081,1242
2908.067173658772,1250
2909.8070115340597,1277
2911.5465212814497,1180
2913.285703208527,1204
2915.0245576229563,1207
2916.7630848324807,1175
2918.5012851449196,1202
2920.2391588681758,1225
2921.976706310227,1213
2923.7139277791334,1261
2925.4508235830313,1238
2927.187394030137,1211
2928.923639428745,1197
2930.6595600872306,1228
2932.395156314046,1265
2934.1304284177218,1214
2935.8653767068713,1244
2937.6000014901815,1288
2939.3343030764227,1294
2941.068281774442,1215
2942.8019378931644,1258
2944.5352717415976,1226
2946.2682836288236,1238
2948.0009738640065,1250
2949.7333427563885,1241
2951.465390615289,1300
2953.1971177501086,1236
2954.9285244703265,1250
2956.6596110855,1283
2958.3903779052657,1272
2960.1208252393385,1205
2961.8509533975125,1253
2963.5807626896617,1205
2965.3102534257378,1261
2967.0394259157715,1221
2968.768280469873,1224
2970.496817398232,1202
2972.2250370111146,1312
2973.952939618869,1250
2975.6805255319196,1215
2977.4077950607707,1274
2979.134748516006,1327
2980.861386208289,1208
2982.587708448359,1267
2984.313715547037,1209
2986.039407815222,1228
2987.764785563891,1213
2989.489849104102,1257
2991.2145987469908,1258
2992.9390348037705,1237
2994.6631575857346,1233
2996.3869674042576,1193
2998.1104645707887,1275
2999.83364939686,1271
3001.5565221940783,1221
3003.2790832741334,1185
3005.0013329487924,1225
3006.7232715298996,1193
3008.4448993293804,1193
3010.166216659239,1241
3011.887223831558,1228
3013.607921158498,1242
3015.3283089522993,1246
3017.0483875252826,1225
3018.7681571898443,1224
3020.4876182584626,1240
3022.2067710436927,1261
3023.9256158581707,1233
3025.644153014609,1209
3027.362382825801,1211
3029.0803056046193,1230
3030.797921664012,1251
3032.5152313170106,1198
3034.2322348767225,1218
3035.9489326563353,1213
3037.665324969115,1226
3039.3814121284063,1230
3041.097194447633,1239
3042.812672240299,1277
3044.5278458199855,1242
3046.2427155003525,1206
3047.9572815951406,1228
3049.671544418167,1246
3051.38550428333,1241
3053.0991615046073,1208
3054.812516396051,1262
3056.5255692717974,1229
3058.2383204460575,1230
3059.9507702331257,1252
3061.662918947372,1200
3063.3747669032446,1199
3065.0863144152736,1246
3066.7975617980674,1233
3068.508509366309,1222
3070.219157434767,1223
3071.9295063182844,1209
3073.639556331785,1206
3075.3493077902704,1234
3077.058761008821,1208
3078.7679163025964,1279
3080.476773986837,1193
3082.1853343768594,1238
3083.89359778806,1225
3085.6015645359153,1258
3087.3092349359786,1188
3089.016609303884,1242
3090.7236879553434,1235
3092.4304712061476,1251
3094.136959372166,1251
3095.843152769349,1277
3097.5490517137237,1237
3099.2546565213966,1218
3100.959967508554,1233
3102.66498499146,1261
3104.3697092864577,1186
3106.0741407099695,1198
3107.778279578498,1162
3109.482126208622,1220
3111.1856809170004,1252
3112.8889440203716,1230
3114.5919158355528,1239
3116.294596679439,1253
3117.996986869006,1216
3119.6990867213062,1235
3121.4008965534726,1316
3123.102416682717,1260
3124.803647426329,1235
3126.5045891016784,1224
3128.205242026213,1225
3129.90560651746,1232
3131.605682893025,1240
3133.3054714705922,1273
3135.0049725679282,1234
3136.7041865028714,1192
3138.4031135933465,1173
3140.101754157353,1237
3141.800108512971,1200
3143.498176978357,1221
3145.1959598717494,1195
3146.8934575114636,1209
3148.5906702158954,1312
3150.2875983035183,1223
3151.9842420928853,1201
3153.680601902627,1222
3155.376678051456,1223
3157.07247085816,1232
3158.767980641609,1172
3160.463207720748,1214
3162.158152414606,1257
3163.8528150422862,1245
3165.5471959229726,1253
3167.2412953759303,1216
3168.9351137204976,1249
3170.628651276098,1210
3172.3219083622307,1198
3174.014885298474,1233
3175.707582404485,1246
3177.4000000000005,1229
3179.092138404835,1251
3180.7839979388846,1227
3182.47557892212,1181
3184.166881674594,1223
3185.8579065164386,1227
3187.5486537678626,1230
3189.2391237491547,1183
3190.9293167806827,1187
3192.6192331828934,1207
3194.3088732763117,1175
3195.998237381542,1181
3197.687325819268,1200
3199.376138910251,1199
3201.064676975334,1231
3202.7529403354347,1192
3204.4409293115523,1245
3206.1286442247647,1197
3207.816085396229,1186
3209.5032531471825,1200
3211.190147798936,1193
3212.8767696728846,1236
3214.5631190905015,1177
3216.2491963733373,1149
3217.9350018430214,1214
3219.6205358212637,1184
3221.305798629851,1203
3222.990790590651,1171
3224.6755120256103,1193
3226.359963256751,1179
3228.0441446061795,1149
3229.7280563960758,1178
3231.411698948703,1238
3233.0950725863995,1191
3234.778177631587,1264
3236.461014406761,1172
3238.1435832345005,1246
3239.8258844374595,1223
3241.507918338374,1214
3243.1896852600576,1228
3244.8711855254023,1184
3246.552419457381,1207
3248.233387379042,1240
3249.914089613516,1232
3251.59452648401,1235
3253.274698313813,1237
3254.95460542629,1139
3256.6342481448855,1145
3258.313626793125,1173
3259.9927416946084,1155
3261.6715931730196,1131
3263.3501815521176,1201
3265.0285071557437,1134
3266.706570307815,1161
3268.3843713323286,1182
3270.0619105533615,1199
3271.739188295068,1189
3273.4162048816834,1218
3275.0929606375184,1174
3276.769455886966,1195
3278.445690954498,1165
3280.1216661646613,1181
3281.797381842087,1264
3283.4728383114807,1191
3285.1480358976296,1226
3286.8229749253996,1177
3288.4976557197333,1169
3290.172078605655,1173
3291.846243908266,1184
3293.5201519527463,1149
3295.193803064357,1215
3296.8671975684374,1154
3298.5403357904024,1159
3300.21321805575,1198
3301.8858446900567,1231
3303.558216018975,1197
3305.23033236824,1192
3306.9021940636603,1167
3308.57380143113,1214
3310.2451547966184,1177
3311.916254486174,1134
3313.5871008259246,1202
3315.2576941420766,1178
3316.9280347609147,1213
3318.5981230088046,1170
3320.2679592121895,1195
3321.9375436975924,1146
3323.606876791612,1145
3325.27595882093,1201
3326.944790112305,1152
3328.6133709925753,1202
3330.2817017886573,1207
3331.949782827547,1118
3333.617614436319,1104
3335.2851969421245,1219
3336.952530672199,1169
3338.619615953853,1232
3340.286453114475,1140
3341.9530424815357,1164
3343.619384382583,1199
3345.2854791452437,1197
3346.951327097224,1181
3348.6169285663073,1210
3350.2822838803577,1163
3351.947393367319,1186
3353.61225735521,1223
3355.2768761721345,1194
3356.9412501462693,1214
3358.605379605873,1217
3360.2692648792827,1145
3361.9329062949146,1213
3363.596304181263,1186
