CollectionTime,7/9/2024 4:48:12 PM
ExposureUsed,3
CalibratedSpectrum
-962.7078968117929,1429
-959.9714848408522,1458
-957.2358232597828,1545
-954.5009119013725,1546
-951.7667505983302,1512
-949.0333391832855,1515
-946.3006774887896,1546
-943.5687653473143,1474
-940.837602591253,1476
-938.1071890529199,1532
-935.3775245645503,1516
-932.6486089583007,1617
-929.9204420662485,1567
-927.1930237203925,1526
-924.4663537526524,1515
-921.7404319948689,1506
-919.0152582788041,1568
-916.2908324361409,1579
-913.5671542984834,1565
-910.8442236973568,1525
-908.1220404642074,1514
-905.4006044304027,1520
-902.679915427231,1615
-899.959973285902,1482
-897.2407778375464,1515
-894.5223289132158,1535
-891.8046263438832,1535
-889.0876699604426,1511
-886.3714595937089,1500
-883.6559950744183,1498
-880.9412762332282,1508
-878.2273029007168,1561
-875.5140749073835,1541
-872.8015920836489,1497
-870.0898542598545,1525
-867.3788612662631,1554
-864.6686129330585,1518
-861.9591090903457,1570
-859.2503495681506,1641
-856.5423341964203,1555
-853.8350628050229,1562
-851.1285352237478,1606
-848.4227512823054,1539
-845.7177108103272,1556
-843.0134136373656,1585
-840.3098595928943,1584
-837.6070485063082,1645
-834.9049802069229,1600
-832.2036545239757,1614
-829.5030712866244,1591
-826.8032303239481,1625
-824.1041314649472,1660
-821.4057745385428,1610
-818.7081593735775,1592
-816.0112857988148,1618
-813.3151536429393,1640
-810.6197627345566,1659
-807.9251129021936,1589
-805.2312039742981,1580
-802.5380357792392,1609
-799.8456081453069,1610
-797.1539209007124,1630
-794.462973873588,1626
-791.772766891987,1666
-789.083299783884,1621
-786.3945723771743,1632
-783.7065844996748,1590
-781.0193359791231,1685
-778.3328266431781,1627
-775.6470563194197,1691
-772.9620248353489,1678
-770.2777320183878,1568
-767.5941776958798,1632
-764.9113616950891,1629
-762.2292838432011,1672
-759.5479439673222,1656
-756.8673418944801,1610
-754.1874774516235,1671
-751.5083504656222,1620
-748.8299607632671,1688
-746.15230817127,1664
-743.475392516264,1689
-740.7992136248035,1690
-738.1237713233636,1610
-735.4490654383407,1690
-732.7750957960521,1664
-730.1018622227365,1654
-727.4293645445534,1717
-724.7576025875837,1653
-722.0865761778291,1671
-719.4162851412126,1683
-716.7467293035781,1698
-714.0779084906909,1793
-711.409822528237,1708
-708.7424712418238,1745
-706.0758544569796,1661
-703.4099719991541,1758
-700.7448236937178,1772
-698.0804093659622,1688
-695.4167288411002,1734
-692.7537819442656,1732
-690.0915685005134,1730
-687.4300883348199,1689
-684.7693412720819,1738
-682.1093271371178,1728
-679.4500457546669,1727
-676.7914969493897,1746
-674.1336805458676,1719
-671.4765963686034,1754
-668.8202442420206,1761
-666.1646239904642,1754
-663.5097354382001,1763
-660.8555784094151,1760
-658.2021527282176,1838
-655.5494582186366,1788
-652.8974947046223,1763
-650.2462620100463,1776
-647.5957599587009,1773
-644.9459883742998,1800
-642.2969470804776,1808
-639.6486359007902,1799
-637.0010546587141,1807
-634.3542031776476,1778
-631.7080812809096,1841
-629.0626887917401,1794
-626.4180255333008,1802
-623.7740913286734,1846
-621.1308860008619,1881
-618.4884093727904,1745
-615.8466612673046,1816
-613.2056415071715,1801
-610.5653499150785,1874
-607.9257863136347,1774
-605.28695052537,1881
-602.6488423727357,1842
-600.0114616781036,1862
-597.3748082637674,1844
-594.7388819519412,1802
-592.1036825647604,1840
-589.4692099242818,1935
-586.8354638524829,1883
-584.2024441712624,1839
-581.5701507024403,1843
-578.9385832677575,1890
-576.3077416888759,1953
-573.6776257873787,1932
-571.0482353847704,1904
-568.4195703024757,1882
-565.7916303618415,1930
-563.164415384135,1860
-560.5379251905453,1895
-557.9121596021815,1957
-555.2871184400748,1893
-552.6628015251767,1973
-550.0392086783606,1958
-547.4163397204204,1935
-544.794194472071,1898
-542.1727727539491,1888
-539.5520743866118,1907
-536.9320991905377,1885
-534.3128469861261,2029
-531.6943175936979,1922
-529.0765108334947,2034
-526.4594265256793,2122
-523.8430644903358,2128
-521.2274245474689,2209
-518.612506517005,2344
-515.9983102187913,2364
-513.3848354725959,2316
-510.77208209810846,2370
-508.16004991493924,2390
-505.5487387426199,2610
-502.9381484006032,2880
-500.3282787082628,2619
-497.71912948489364,2610
-495.1107005497117,2523
-492.5029917218539,2405
-489.8960028203786,2205
-487.28973366426493,2155
-484.68418407241325,2121
-482.07935386364494,2051
-479.47524285670266,2100
-476.87185087025,2092
-474.2691777228715,2160
-471.66722323307334,2122
-469.0659872192821,2084
-466.4654694998459,2198
-463.86566989303384,2169
-461.26658821703614,2094
-458.66822428996414,2119
-456.07057792985,2177
-453.4736489546475,2137
-450.877437182231,2112
-448.28194243039627,2037
-445.68716451686,2156
-443.09310325926003,2127
-440.49975847515555,2110
-437.9071299820263,2099
-435.31521759727354,2166
-432.72402113821954,2080
-430.13354042210767,2091
-427.5437752661022,2016
-424.95472548728867,2088
-422.36639090267386,2032
-419.7787713291855,2076
-417.1918665836721,2169
-414.60567648290385,2130
-412.0202008435715,2143
-409.4354394822874,2086
-406.8513922155845,2187
-404.26805885991723,2197
-401.685439231661,2218
-399.103533147112,2198
-396.522340422488,2126
-393.9418608739278,2147
-391.3620943174908,2108
-388.7830405691583,2033
-386.2046994448317,1972
-383.6270707603344,1880
-381.05015433141045,1778
-378.473949973725,1609
-375.8984575028645,1472
-373.32367673433623,1286
-370.74960748356875,1110
-368.1762495659117,995
-365.60360279663576,900
-363.03166699093265,748
-360.4604419639154,640
-357.8899275306178,562
-355.32012350599507,544
-352.7510297049233,487
-350.1826459421999,479
-347.61497203254316,451
-345.04800779059235,450
-342.4817530309082,461
-339.91620756797226,485
-337.35137121618743,476
-334.7872437898774,449
-332.22382510328725,448
-329.66111497058273,449
-327.09911320585127,461
-324.53781962310075,481
-321.9772340362607,477
-319.4173562591816,478
-316.8581861056348,476
-314.2997233893127,464
-311.7419679238294,442
-309.1849195227194,466
-306.62857799943856,475
-304.0729431673641,492
-301.51801483979375,478
-298.963792829947,522
-296.41027695096386,521
-293.85746701590574,508
-291.3053628377552,499
-288.7539642294155,520
-286.2032710037115,474
-283.65328297338897,490
-281.1039999511146,496
-278.5554217494762,545
-276.007548180983,506
-273.4603790580651,537
-270.9139141930734,501
-268.3681533982807,493
-265.8230964858798,520
-263.27874326798565,563
-260.7350935566336,544
-258.1921471637804,574
-255.6499039013039,564
-253.10836358100266,571
-250.56752601459698,558
-248.02739101372765,581
-245.48795838995704,622
-242.94922795476816,581
-240.41119951956557,534
-237.8738728956746,623
-235.33724789434166,647
-232.80132432673452,572
-230.2661020039418,572
-227.73158073697357,595
-225.19776033676033,619
-222.66464061415422,630
-220.1322213799284,575
-217.60050244477725,604
-215.06948361931552,576
-212.53916471408013,604
-210.00954553952818,611
-207.48062590603843,609
-204.9524056239104,597
-202.4248845033651,656
-199.8980623545441,659
-197.37193898751036,675
-194.84651421224817,672
-192.32178783866232,710
-189.79775967657952,692
-187.27442953574644,752
-184.7517972258321,719
-182.2298625564256,753
-179.7086253370378,690
-177.18808537710026,612
-174.66824248596583,661
-172.14909647290835,723
-169.6306471471229,846
-167.11289431772548,795
-164.59583779375328,713
-162.07947738416453,718
-159.5638128978386,732
-157.04884414357605,868
-154.53457093009854,970
-152.02099306604828,961
-149.50811035998936,719
-146.99592262040665,729
-144.48442965570587,827
-141.97363127421409,791
-139.46352728417958,904
-136.95411749377126,974
-134.44540171107985,955
-131.93737974411636,836
-129.43005140081357,828
-126.92341648902493,1180
-124.41747481652521,1186
-121.91222619101006,1183
-119.40767042009657,1419
-116.90380731132257,1741
-114.40063667214702,1723
-111.8981583099503,1431
-109.3963720320337,1290
-106.89527764561933,1489
-104.39487495785067,1480
-101.89516377579241,1772
-99.39614390642998,2006
-96.89781515667039,2498
-94.40017733334128,2571
-91.90323024319173,2112
-89.40697369289148,1784
-86.91140748903172,2162
-84.41653143812482,2847
-81.92234534660395,2929
-79.42884902082358,3216
-76.93604226705907,5055
-74.4439248915071,9030
-71.95249670028534,12015
-69.46175749943245,13711
-66.97170709490854,13841
-64.48234529259423,11893
-61.99367189829195,10013
-59.50568671772464,7699
-57.01838955653636,6738
-54.53178022029283,6797
-52.045858514480074,6382
-49.560624244506016,7100
-47.07607721569923,7682
-44.59221723330904,7562
-42.10904410250669,7657
-39.62655762838392,7188
-37.14475761595372,7689
-34.66364387015028,7640
-32.18321619582866,7960
-29.70347439776515,9291
-27.224418280657005,8746
-24.74604764912317,8011
-22.26836230770266,10705
-19.7913620608565,18923
-17.315046712966478,33873
-14.83941606833514,47764
-12.36446993118659,65038
-9.89020810566592,65038
-7.416630395839093,65038
-4.94373660569363,65038
-2.471526539137585,65038
-6.821210263296962E-13,65038
2.47084320796705,65038
4.941003281093458,65038
7.410480415786196,65038
9.879274808531363,65038
12.347386655893956,65038
14.814816154518212,65038
17.28156350112681,65038
19.74762889252179,65038
22.21301252558385,65038
24.67771459727237,19106
27.141735304626195,3383
29.605074844762612,1869
32.06773341487792,1555
34.52971121224755,1452
36.99100843422559,1558
39.45162527824516,1709
41.91156194181792,1679
44.370818622535126,1437
46.82939551806646,1167
49.287292826160524,1288
51.74451074464503,1335
54.201049471426245,1097
56.65690920448981,1022
59.112090141899785,1016
61.56659248179983,971
64.02041642241159,868
66.4735621620365,866
68.92602989905402,932
71.37781983192338,961
73.82893215918205,998
76.27936707944684,1022
78.72912479141326,1096
81.17820549385567,1140
83.62660938562783,1020
86.07433666566146,944
88.5213875329681,850
90.96776218663751,924
93.41346082583925,859
95.85848364982041,895
98.30283085790859,963
100.7465026495089,938
103.18949922410604,900
105.63182078126385,854
108.07346752062438,975
110.51443964190923,925
112.95473734491827,913
115.39436082953114,891
117.83331029570547,866
120.27158594347827,802
122.7091879729652,948
125.1461165843615,1059
127.58237197794062,1001
130.01795435405518,928
132.4528639131364,901
134.88710085569494,880
137.32066538231982,848
139.75355769367923,827
142.1857779905207,835
144.61732647366978,833
147.04820334403132,834
149.47840880258934,867
151.90794305040674,920
154.33680628862487,1108
156.76499871846443,1355
159.19252054122433,1462
161.61937195828352,1675
164.04555317109896,1885
166.47106438120693,2100
168.89590579022217,2435
171.320077599839,2625
173.7435800118302,2587
176.16641322804742,2770
178.58857745042144,2940
181.01007288096173,3139
183.43089972175687,3361
185.85105817497413,3484
188.27054844285988,3545
190.6893707277394,3600
193.10752523201643,3731
195.5250121581745,3833
197.9418317087751,4040
200.3579840864594,4067
202.7734694939469,4003
205.18828813403627,4145
207.6024402096051,4092
210.01592592360964,4233
212.42874547908548,4298
214.84089907914665,4310
217.2523869269868,4328
219.66320922587727,4258
222.0733661791695,4304
224.48285799029293,4241
226.8916848627572,4318
229.29984700014882,4334
231.7073446061355,4495
234.11417788446204,4370
236.520347038953,4260
238.92585227351185,4373
241.33069379212054,4467
243.73487179884035,4432
246.1383864978112,4461
248.541238093252,4511
250.9434267894609,4394
253.34495279081432,4466
255.74581630176783,4520
258.1460175268563,4482
260.54555667069314,4505
262.9444339379703,4410
265.3426495334594,4549
267.7402036620107,4549
270.1370965285529,4520
272.53332833809407,4345
274.9288992957214,4245
277.32380960660055,4402
279.718059475976,4346
282.1116491091717,4418
284.5045787115897,4329
286.89684848871195,4441
289.2884586460981,4468
291.67940938938807,4473
294.0697009242996,4500
296.4593334566299,4408
298.84830719225477,4437
301.23662233712923,4524
303.6242790972866,4467
306.01127767884,4351
308.39761828798066,4377
310.78330113097934,4362
313.16832641418534,4378
315.5526943440269,4445
317.9364051270112,4313
320.3194589697242,4450
322.70185607883093,4349
325.0835966610754,4360
327.4646809232805,4435
329.8451090723478,4330
332.2248813152577,4314
334.6039978590701,4452
336.9824589109231,4189
339.36026467803447,4264
341.7374153677,4245
344.113911187295,4195
346.48975234427337,4207
348.8649390461686,4309
351.2394715005918,4301
353.61334991523415,4303
355.9865744978655,4269
358.35914545633375,4196
360.73106299856715,4188
363.10232733257146,4208
365.47293866643247,4337
367.84289720831396,4273
370.2122031664593,4324
372.5808567491905,4218
374.9488581649083,4262
377.31620762209275,4234
379.6829053293021,4339
382.0489514951745,4292
384.4143463284262,4375
386.7790900378528,4288
389.14318283232853,4305
391.50662492080653,4339
393.86941651231916,4214
396.23155781597745,4394
398.5930490409713,4344
400.9538903965696,4210
403.3140820921202,4148
405.6736243370498,4162
408.03251734086336,4202
410.3907613131465,4181
412.74835646356166,4200
415.10530300185144,4070
417.4616011378372,4151
419.81725108141893,4217
422.1722530425758,4293
424.5266072313656,4391
426.880313857925,4324
429.2333731324701,4355
431.58578526529516,4190
433.9375504667738,4244
436.2886689473588,4268
438.63914091758113,4210
440.9889665880513,4190
443.33814616945835,4154
445.68667987257015,4095
448.03456790823395,4171
450.3818104873759,4158
452.72840782100013,4173
455.07436012019105,4157
457.41966759611057,4267
459.7643304600007,4306
462.10834892318155,4339
464.4517231970525,4259
466.79445349309174,4241
469.1365400228566,4300
471.4779829979826,4173
473.81878263018564,4192
476.15893913125876,4397
478.4984527130747,4341
480.8373235875855,4289
483.17555196682144,4301
485.5131380628919,4490
487.8500820879857,4508
490.1863842543697,4515
492.52204477439034,4780
494.8570638604725,4880
497.1914417251204,5118
499.52517858091653,5460
501.85827464052306,5766
504.19073011668036,5874
506.5225452222086,5900
508.85372017000566,5901
511.18425517304956,5783
513.514150444396,5944
515.8434061971808,6415
518.1720226446176,7440
520.4999999999999,7486
522.8273384766991,7250
525.1540382881666,6784
527.480099647932,6160
529.8055227696037,5626
532.1303078668694,5082
534.454455153496,4787
536.777964843328,4676
539.1008371502907,4593
541.4230722883866,4602
543.744670471698,4579
546.0656319143858,4566
548.3859568306899,4468
550.7056454349294,4568
553.0246979415016,4477
555.3431145648834,4464
557.6608955196306,4442
559.978041020377,4453
562.2945512818363,4529
564.6104265188006,4512
566.9256669461412,4587
569.2402727788082,4510
571.5542442318302,4545
573.8675815203156,4536
576.1802848594508,4532
578.4923544645015,4556
580.8037905508126,4538
583.114593333807,4588
585.4247630289875,4482
587.7342998519354,4638
590.0432040183106,4555
592.3514757438526,4663
594.6591152443794,4589
596.9661227357875,4512
599.2724984340531,4679
601.578242555231,4685
603.8833553154542,4692
606.1878369309362,4542
608.4916876179676,4630
610.7949075929192,4575
613.0974970722403,4616
615.3994562724587,4655
617.7007854101818,4498
620.0014847020951,4537
622.3015543649641,4453
624.6009946156324,4601
626.8998056710224,4666
629.1979877481361,4648
631.4955410640538,4710
633.7924658359349,4645
636.0887622810175,4615
638.3844306166192,4680
640.6794710601358,4619
642.9738838290426,4655
645.2676691408932,4655
647.5608272133207,4637
649.853358264037,4697
652.1452625108324,4723
654.4365401715764,4687
656.7271914642178,4749
659.0172166067838,4766
661.3066158173809,4741
663.5953893141935,4766
665.8835373154867,4740
668.1710600396028,4683
670.4579577049639,4712
672.7442305300709,4868
675.0298787335033,4703
677.3149025339197,4680
679.599302150058,4749
681.8830778007342,4768
684.1662297048437,4722
686.4487580813608,4746
688.7306631493387,4873
691.0119451279091,4858
693.2926042362834,4747
695.5726406937516,4775
697.8520547196814,4796
700.1308465335215,4642
702.4090163547982,4715
704.6865644031171,4800
706.9634908981619,4822
709.2397960596965,4740
711.5154801075631,4854
713.7905432616823,4757
716.0649857420548,4737
718.3388077687592,4894
720.612009561953,4912
722.8845913418733,4708
725.1565533288352,4814
727.427895743234,4918
729.6986188055427,4841
731.9687227363137,4661
734.238207756178,4862
736.5070740858458,4896
738.7753219461066,4858
741.0429515578281,4873
743.3099631419569,4981
745.5763569195191,4811
747.8421331116193,4922
750.1072919394409,4761
752.3718336242467,4938
754.6357583873777,4740
756.8990664502545,4779
759.1617580343765,4921
761.423833361321,4925
763.6852926527457,4787
765.9461361303862,4854
768.206364016058,5006
770.4659765316536,4830
772.7249738991469,4782
774.9833563405886,5003
777.2411240781092,4926
779.4982773339183,4935
781.7548163303044,4826
784.010741289634,4935
786.2660524343538,5098
788.5207499869881,5013
790.7748341701416,4919
793.0283052064964,4997
795.2811633188143,4984
797.5334087299362,4893
799.7850416627813,4811
802.0360623403484,4948
804.2864709857143,4918
806.5362678220353,4991
808.7854530725468,4996
811.0340269605625,4962
813.2819897094754,5025
815.5293415427581,5033
817.77608268396,4924
820.0222133567116,5004
822.2677337847211,4909
824.5126441917765,5004
826.7569448017433,4951
829.0006358385675,4984
831.2437175262731,4969
833.4861900889629,4978
835.7280537508192,4892
837.9693087361026,4970
840.2099552691533,4933
842.4499935743896,4993
844.689423876309,4933
846.9282463994886,5102
849.1664613685833,5041
851.4040690083276,5009
853.6410695435349,5001
855.877463199097,4862
858.1132501999847,5064
860.3484307712487,5013
862.5830051380175,4907
864.8169735254988,4849
867.0503361589791,5045
869.2830932638243,4967
871.5152450654786,5084
873.7467917894654,5078
875.9777336613873,4962
878.2080709069252,5006
880.4378037518389,5039
882.666932421968,5104
884.8954571432301,4990
887.1233781416219,5036
889.3506956432192,5134
891.5774098741766,5112
893.803521060728,5090
896.0290294291852,5161
898.2539352059397,4940
900.4782386174619,5063
902.7019398903011,5106
904.925039251085,5168
907.147536926521,5094
909.3694331433943,5069
911.59072812857,5135
913.8114221089921,5139
916.0315153116827,5022
918.2510079637437,5068
920.4699002923547,5000
922.6881925247761,5019
924.905884888345,4917
927.1229776104793,5032
929.3394709186747,5007
931.555365040506,5025
933.7706602036275,5031
935.9853566357709,5080
938.1994545647489,4999
940.4129542184515,5063
942.6258558248488,5011
944.8381596119883,5091
947.0498658079974,5021
949.2609746410825,5127
951.4714863395287,4927
953.6814011316998,5256
955.8907192460387,5007
958.0994409110671,5041
960.3075663553858,5015
962.5150958076741,5031
964.7220294966913,5048
966.928367651274,4915
969.1341105003388,5116
971.3392582728806,5029
973.5438111979742,5033
975.747769504772,4994
977.9511334225061,5051
980.153903180487,5056
982.3560790081052,5059
984.5576611348289,5115
986.7586497902058,4955
988.9590452038618,4969
991.158847605503,4947
993.3580572249133,5104
995.5566742919558,5072
997.7546990365728,4967
999.952131688785,4991
1002.1489724786926,4867
1004.3452216364743,4881
1006.5408793923874,4829
1008.7359459767691,4866
1010.9304216200343,4843
1013.1243065526781,4822
1015.3176010052733,4831
1017.510305208472,4843
1019.7024193930064,4893
1021.8939437896848,4896
1024.0848786293977,4845
1026.2752241431122,4816
1028.4649805618747,4813
1030.6541481168115,4763
1032.842727039127,4860
1035.0307175601051,4743
1037.2181199111074,4836
1039.4049343235752,4722
1041.591161029029,4804
1043.7768002590683,4848
1045.9618522453698,4938
1048.1463172196918,4829
1050.3301954138697,4887
1052.513487059818,4877
1054.69619238953,4887
1056.8783116350783,4763
1059.0598450286152,4925
1061.2407928023704,4774
1063.4211551886528,4911
1065.6009324198508,4874
1067.780124728432,4883
1069.9587323469414,4911
1072.1367555080046,4827
1074.314194444325,4828
1076.4910493886855,4890
1078.667320573947,4820
1080.843008233051,4765
1083.0181125990161,4873
1085.1926339049414,4797
1087.3665723840027,4727
1089.5399282694575,4761
1091.7127017946405,4871
1093.8848931929647,4737
1096.0565026979243,4772
1098.2275305430899,4783
1100.3979769621128,4694
1102.567842188722,4756
1104.737126456726,4798
1106.9058300000124,4726
1109.0739530525475,4782
1111.2414958483764,4799
1113.4084586216231,4811
1115.5748416064907,4920
1117.7406450372605,4764
1119.9058691482942,4833
1122.0705141740304,4844
1124.2345803489884,4799
1126.3980679077658,4775
1128.5609770850388,4887
1130.7233081155623,4853
1132.8850612341707,4862
1135.0462366757774,4771
1137.2068346753745,4713
1139.3668554680326,4773
1141.526299288901,4741
1143.68516637321,4645
1145.8434569562655,4678
1148.001171273455,4819
1150.158309560244,4831
1152.3148720521767,4829
1154.470858984876,4790
1156.626270594044,4791
1158.7811071154629,4795
1160.9353687849912,4778
1163.089055838569,4692
1165.242168512213,4801
1167.3947070420209,4724
1169.5466716641677,4694
1171.6980626149075,4712
1173.8488801305748,4697
1175.9991244475814,4817
1178.1487958024186,4718
1180.2978944316555,4739
1182.4464205719428,4691
1184.5943744600072,4797
1186.7417563326567,4717
1188.8885664267755,4785
1191.0348049793297,4765
1193.1804722273619,4645
1195.325568407995,4833
1197.4700937584303,4723
1199.614048515948,4674
1201.7574329179074,4817
1203.900247201746,4680
1206.042491604982,4769
1208.1841663652099,4788
1210.3252717201053,4733
1212.465807907422,4840
1214.6057751649923,4821
1216.7451737307279,4806
1218.8840038426192,4855
1221.0222657387353,4806
1223.1599596572241,4823
1225.2970858363137,4790
1227.4336445143094,4693
1229.5696359295966,4806
1231.705060320639,4834
1233.8399179259786,4827
1235.9742089842384,4807
1238.107933734118,4858
1240.2410924143974,4773
1242.373685263935,4810
1244.5057125216676,4742
1246.6371744266116,4756
1248.7680712178621,4802
1250.898403134593,4902
1253.028170416058,4795
1255.1573733015875,4800
1257.2860120305932,4755
1259.4140868425648,4755
1261.54159797707,4790
1263.6685456737569,4732
1265.7949301723515,4760
1267.9207517126597,4866
1270.046010534565,4862
1272.1707068780306,4699
1274.2948409830983,5003
1276.4184130898889,4809
1278.541423438603,4745
1280.6638722695184,4947
1282.785759822993,4862
1284.9070863394636,4874
1287.0278520594447,5027
1289.1480572235314,4861
1291.2677020723963,4978
1293.3867868467923,4814
1295.5053117875495,4863
1297.623277135579,4903
1299.740683131868,4892
1301.8575300174857,5023
1303.973818033578,4927
1306.0895474213703,4939
1308.2047184221678,4928
1310.3193312773528,4991
1312.4333862283888,4926
1314.5468835168163,4928
1316.659823384255,5015
1318.7722060724045,4919
1320.8840318230418,5037
1322.9953008780249,4911
1325.1060134792888,4961
1327.2161698688478,4982
1329.3257702887959,4985
1331.4348149813054,4923
1333.5433041886276,4893
1335.6512381530933,4998
1337.7586171171101,4857
1339.8654413231675,4901
1341.9717110138317,4921
1344.0774264317488,4894
1346.1825878196432,4929
1348.2871954203192,4897
1350.3912494766587,4852
1352.4947502316231,4803
1354.5976979282532,4845
1356.7000928096686,4918
1358.8019351190665,4920
1360.9032250997243,4892
1363.0039629949988,5024
1365.1041490483235,4986
1367.2037835032133,4920
1369.3028666032606,4922
1371.401398592137,4827
1373.4993797135926,4847
1375.5968102114575,4752
1377.6936903296396,4938
1379.7900203121262,4825
1381.8858004029835,4874
1383.9810308463561,4866
1386.075711886469,4864
1388.1698437676241,4930
1390.2634267342032,4875
1392.356461030667,4988
1394.4489469015557,4910
1396.5408845914872,4903
1398.6322743451592,4892
1400.7231164073469,4945
1402.813411022907,4921
1404.903158436773,4916
1406.9923588939578,4970
1409.0810126395531,4849
1411.1691199187303,4970
1413.2566809767386,4888
1415.343696058907,4914
1417.4301654106425,4868
1419.5160892774315,4813
1421.6014679048399,4854
1423.6863015385125,4893
1425.7705904241707,4811
1427.8543348076178,4882
1429.9375349347342,4870
1432.0201910514802,4851
1434.102303403894,4913
1436.1838722380944,4789
1438.2648978002767,4919
1440.3453803367174,4896
1442.4253200937692,4983
1444.5047173178677,4987
1446.5835722555234,4893
1448.6618851533285,4979
1450.739656257952,4886
1452.8168858161434,4945
1454.8935740747306,4961
1456.96972128062,4996
1459.045327680797,4983
1461.120393522327,5058
1463.1949190523528,4983
1465.2689045180973,4962
1467.3423501668608,4934
1469.415256246024,5129
1471.4876230030463,5000
1473.559450685465,5103
1475.6307395408976,5136
1477.7014898170391,5122
1479.771701761665,5094
1481.8413756226287,5165
1483.9105116478618,5176
1485.9791100853772,5130
1488.0471711832643,5233
1490.1146951896926,5051
1492.1816823529098,5156
1494.2481329212433,5135
1496.3140471430984,5232
1498.3794252669609,5146
1500.4442675413939,5194
1502.5085742150404,5138
1504.572345536622,5129
1506.6355817549388,5227
1508.6982831188702,5277
1510.7604498773744,5363
1512.8220822794883,5117
1514.8831805743293,5166
1516.9437450110909,5219
1519.003775839048,5239
1521.0632733075522,5301
1523.1222376660367,5185
1525.1806691640113,5193
1527.2385680510652,5252
1529.2959345768668,5303
1531.3527689911643,5112
1533.4090715437833,5275
1535.4648424846291,5077
1537.5200820636855,5251
1539.5747905310159,5301
1541.6289681367616,5332
1543.6826151311434,5378
1545.7357317644614,5330
1547.7883182870937,5396
1549.8403749494987,5399
1551.8919020022113,5390
1553.9428996958477,5410
1555.9933682811015,5573
1558.0433080087469,5559
1560.0927191296346,5605
1562.1416018946961,5461
1564.1899565549415,5453
1566.2377833614592,5456
1568.2850825654164,5524
1570.3318544180606,5467
1572.3780991707158,5394
1574.423817074788,5385
1576.4690083817595,5428
1578.5136733431923,5436
1580.5578122107272,5325
1582.601425236085,5290
1584.6445126710646,5175
1586.6870747675434,5118
1588.7291117774776,5119
1590.7706239529034,5028
1592.8116115459347,5139
1594.8520748087658,4990
1596.8920139936686,4928
1598.9314293529933,4977
1600.9703211391711,4907
1603.008689604711,5047
1605.0465350022005,4994
1607.0838575843068,4940
1609.1206576037753,4758
1611.1569353134305,4879
1613.1926909661765,4825
1615.2279248149953,4748
1617.2626371129481,4797
1619.2968281131757,4812
1621.3304980688963,4802
1623.3636472334088,4691
1625.39627586009,4738
1627.428384202396,4750
1629.459972513861,4702
1631.4910410480993,4654
1633.5215900588028,4737
1635.551619799744,4674
1637.5811305247717,4745
1639.6101224878166,4703
1641.6385959428862,4642
1643.6665511440683,4618
1645.693988345528,4702
1647.7209078015112,4608
1649.7473097663405,4698
1651.7731944944203,4641
1653.7985622402307,4615
1655.823413258333,4661
1657.847747803366,4647
1659.8715661300494,4549
1661.8948684931793,4651
1663.9176551476316,4545
1665.9399263483624,4627
1667.9616823504057,4464
1669.982923408873,4524
1672.0036497789574,4576
1674.0238617159293,4604
1676.043559475138,4517
1678.0627433120121,4616
1680.081413482059,4483
1682.0995702408654,4579
1684.117213844096,4585
1686.134344547495,4630
1688.1509626068864,4703
1690.1670682781705,4565
1692.182661817329,4555
1694.1977434804217,4537
1696.2123135235875,4457
1698.226372203043,4543
1700.2399197750851,4483
1702.2529564960905,4523
1704.2654826225112,4574
1706.277498410882,4572
1708.2890041178139,4486
1710.2999999999988,4663
1712.3104863142066,4488
1714.3204633172854,4492
1716.329931266163,4460
1718.3388904178469,4463
1720.3473410294214,4511
1722.3552833580516,4561
1724.3627176609807,4456
1726.3696441955308,4488
1728.3760632191033,4426
1730.3819749891782,4595
1732.3873797633146,4544
1734.3922777991502,4426
1736.3966693544012,4470
1738.4005546868639,4406
1740.4039340544127,4590
1742.406807715001,4537
1744.4091759266616,4468
1746.4110389475054,4487
1748.4123970357223,4460
1750.413250449582,4438
1752.4135994474318,4490
1754.4134442876993,4422
1756.4127852288902,4360
1758.4116225295893,4408
1760.4099564484595,4358
1762.407787244244,4394
1764.405115175764,4364
1766.4019405019203,4330
1768.3982634816916,4286
1770.3940843741357,4428
1772.3894034383907,4368
1774.3842209336717,4268
1776.378537119274,4301
1778.372352254571,4237
1780.3656665990156,4391
1782.3584804121397,4332
1784.3507939535534,4391
1786.3426074829463,4407
1788.3339212600863,4305
1790.3247355448211,4316
1792.3150505970766,4285
1794.3048666768573,4277
1796.2941840442477,4308
1798.2830029594106,4338
1800.2713236825884,4408
1802.2591464741004,4346
1804.2464715943465,4450
1806.2332993038058,4390
1808.2196298630352,4471
1810.2054635326708,4507
1812.190800573428,4508
1814.175641246101,4360
1816.1599858115628,4309
1818.1438345307652,4279
1820.127187664738,4305
1822.1100454745924,4335
1824.092408221516,4337
1826.0742761667766,4374
1828.055649571721,4454
1830.0365286977735,4381
1832.0169138064398,4427
1833.9968051593014,4467
1835.9762030180214,4412
1837.9551076443408,4250
1839.9335193000788,4330
1841.9114382471344,4257
1843.888864747485,4246
1845.8657990631878,4264
1847.842241456378,4416
1849.8181921892697,4322
1851.7936515241558,4307
1853.7686197234098,4290
1855.7430970494815,4382
1857.7170837649014,4227
1859.6905801322787,4337
1861.6635864143004,4379
1863.6361028737338,4322
1865.608129773424,4391
1867.5796673762961,4396
1869.5507159453537,4262
1871.521275743678,4315
1873.4913470344313,4346
1875.4609300808534,4265
1877.4300251462632,4294
1879.3986324940588,4271
1881.366752387717,4356
1883.3343850907936,4396
1885.3015308669228,4297
1887.268189979819,4328
1889.2343626932739,4355
1891.2000492711595,4323
1893.1652499774254,4318
1895.1299650761011,4287
1897.0941948312952,4260
1899.0579395071945,4407
1901.0211993680641,4310
1902.98397467825,4311
1904.9462657021745,4361
1906.9080727043415,4261
1908.869395949332,4259
1910.8302357018065,4354
1912.790592226504,4274
1914.7504657882428,4302
1916.7098566519212,4299
1918.6687650825133,4230
1920.6271913450764,4286
1922.5851357047422,4201
1924.5425984267245,4169
1926.499579776314,4266
1928.4560800188833,4288
1930.4120994198802,4306
1932.367638244833,4362
1934.32269675935,4316
1936.2772752291175,4246
1938.231373919899,4203
1940.1849930975404,4343
1942.1381330279637,4317
1944.0907939771696,4310
1946.0429762112412,4275
1947.9946799963363,4238
1949.9459055986945,4260
1951.896653284633,4336
1953.8469233205478,4250
1955.7967159729142,4144
1957.7460315082863,4270
1959.6948701932974,4310
1961.6432322946594,4294
1963.5911180791632,4233
1965.5385278136787,4205
1967.4854617651545,4316
1969.4319202006182,4316
1971.377903387176,4223
1973.3234115920136,4273
1975.268445082395,4306
1977.2130041256642,4269
1979.1570889892423,4223
1981.1006999406304,4264
1983.04383724741,4216
1984.986501177238,4418
1986.928691997853,4251
1988.8704099770712,4260
1990.811655382789,4235
1992.7524284829801,4291
1994.692729545698,4351
1996.6325588390755,4178
1998.5719166313224,4285
2000.5108031907307,4283
2002.4492187856677,4240
2004.387163684583,4204
2006.3246381560011,4305
2008.2616424685298,4168
2010.1981768908527,4264
2012.1342416917332,4274
2014.069837140014,4204
2016.0049635046162,4192
2017.9396210545406,4272
2019.8738100588666,4282
2021.8075307867502,4193
2023.740783507431,4136
2025.6735684902228,4139
2027.6058860045214,4209
2029.5377363198004,4232
2031.4691197056118,4194
2033.4000364315875,4179
2035.3304867674374,4176
2037.260470982952,4283
2039.189989347998,4209
2041.1190421325232,4254
2043.047629606554,4280
2044.9757520401945,4224
2046.9034097036288,4178
2048.8306028671195,4219
2050.7573318010086,4245
2052.683596775716,4118
2054.609398061742,4199
2056.5347359296647,4220
2058.4596106501403,4265
2060.384022493906,4309
2062.3079717317764,4240
2064.231458634646,4330
2066.1544834734873,4268
2068.077046519352,4200
2069.99914804337,4248
2071.9207883167524,4295
2073.8419676107865,4200
2075.7626861968406,4182
2077.6829443463607,4209
2079.6027423308715,4247
2081.522080421977,4210
2083.440958891362,4206
2085.359378010786,4387
2087.2773380520907,4286
2089.194839287196,4279
2091.111881988101,4263
2093.0284664268825,4160
2094.9445928756973,4042
2096.86026160678,4238
2098.775472892446,4183
2100.690227005088,4283
2102.604524217178,4268
2104.5183648012676,4226
2106.431749029985,4248
2108.34467717604,4203
2110.2571495122206,4311
2112.169166311393,4186
2114.080727846503,4209
2115.9918343905747,4190
2117.902486216711,4213
2119.8126835980956,4266
2121.722426807987,4370
2123.6317161197285,4220
2125.5405518067364,4280
2127.448934142509,4142
2129.356863400624,4200
2131.264339854737,4315
2133.1713637785815,4215
2135.077935445972,4314
2136.9840551308002,4269
2138.889723107037,4252
2140.7949396487334,4199
2142.699705030018,4293
2144.6040195250994,4380
2146.507883408264,4176
2148.4112969538774,4226
2150.3142604363848,4221
2152.2167741303097,4255
2154.1188383102535,4242
2156.0204532508997,4202
2157.9216192270064,4201
2159.822336513414,4387
2161.7226053850413,4181
2163.622426116884,4336
2165.5217989840185,4295
2167.4207242616,4286
2169.319202224862,4253
2171.2172331491165,4211
2173.1148173097563,4307
2175.0119549822507,4193
2176.90864644215,4307
2178.8048919650823,4256
2180.7006918267534,4217
2182.596046302952,4280
2184.4909556695407,4284
2186.3854202024645,4335
2188.279440177746,4227
2190.173015871487,4253
2192.066147559868,4304
2193.958835519149,4283
2195.851080025667,4208
2197.7428813558417,4170
2199.6342397861667,4244
2201.5251555932186,4269
2203.415629053651,4211
2205.3056604441986,4310
2207.19525004167,4266
2209.084398122958,4253
2210.9731049650327,4265
2212.861370844941,4178
2214.749196039812,4184
2216.636580826851,4276
2218.523525483344,4321
2220.410030286655,4311
2222.296095514226,4238
2224.1817214435805,4163
2226.066908352319,4148
2227.951656518121,4284
2229.835966218746,4234
2231.71983773203,4233
2233.6032713358913,4293
2235.486267308324,4177
2237.3688259274036,4299
2239.2509474712824,4252
2241.132632218193,4243
2243.013880446447,4151
2244.8946924344323,4316
2246.7750684606203,4194
2248.6550088035574,4158
2250.534513741871,4252
2252.413583554265,4194
2254.292218519526,4225
2256.170418916517,4170
2258.0481850241786,4087
2259.925517121534,4102
2261.8024154876825,4126
2263.678880401803,4040
2265.5549121431536,4207
2267.430510991071,4239
2269.305677224971,4257
2271.180411124348,4043
2273.0547129687766,4202
2274.9285830379076,4109
2276.8020216114737,4043
2278.6750289692845,4085
2280.5476053912294,4154
2282.4197511572766,4144
2284.2914665474727,4108
2286.162751841943,4134
2288.0336073208937,4278
2289.904033264608,4153
2291.774029953448,4160
2293.6435976678554,4056
2295.5127366883517,4135
2297.381447295534,4128
2299.2497297700825,4048
2301.1175843927526,4059
2302.9850114443825,4130
2304.852011205885,3976
2306.7185839582553,3892
2308.5847299825664,3880
2310.4504495599676,3935
2312.3157429716925,3902
2314.1806104990483,3913
2316.0450524234247,3921
2317.9090690262888,3891
2319.772660589186,3925
2321.635827393742,3910
2323.498569721661,3903
2325.3608878547248,3869
2327.2227820747967,3911
2329.0842526638157,3975
2330.945299903803,3879
2332.805924076857,3908
2334.6661254651535,3813
2336.525904350951,3941
2338.3852610165827,3866
2340.244195744464,3884
2342.102708817088,3837
2343.9608005170253,3880
2345.8184711269287,3804
2347.675720929526,3953
2349.532550207628,3873
2351.38895924412,3807
2353.24494832197,3917
2355.100517724223,3839
2356.955667734004,3837
2358.810398634514,3908
2360.664710709037,3919
2362.5186042409337,3825
2364.3720795136437,3857
2366.225136810686,3759
2368.0777764156583,3888
2369.929998612237,3847
2371.7818036841777,3821
2373.633191915315,3814
2375.484163589562,3860
2377.3347189909114,3925
2379.184858403434,3891
2381.03458211128,3904
2382.8838903986775,3966
2384.732783549936,3903
2386.5812618494406,3855
2388.4293255816588,3905
2390.2769750311327,3766
2392.1242104824883,3903
2393.971032220427,3863
2395.8174405297295,3847
2397.6634356952563,3832
2399.509018001947,3857
2401.3541877348193,3878
2403.1989451789705,3758
2405.043290619576,3748
2406.8872243418905,3796
2408.730746631247,3844
2410.5738577730594,3830
2412.4165580528183,3873
2414.258847756095,3750
2416.100727168537,3853
2417.9421965758734,3818
2419.783256263912,3872
2421.623906518538,3890
2423.4641476257157,3870
2425.303979871491,3936
2427.143403541984,3884
2428.9824189233977,3784
2430.821026302012,3811
2432.6592259641866,3906
2434.497018196361,3776
2436.33440328505,3788
2438.171381516851,3876
2440.00795317844,3859
2441.844118556569,3819
2443.6798779380724,3820
2445.5152316098606,3878
2447.3501798589255,3778
2449.1847229723357,3893
2451.0188612372403,3776
2452.8525949408663,3838
2454.6859243705203,3888
2456.518849813587,3797
2458.3513715575314,3844
2460.183489889895,3760
2462.015205098301,3879
2463.8465174704493,3842
2465.67742729412,3836
2467.5079348571717,3765
2469.338040447542,3870
2471.1677443532476,3882
2472.9970468623833,3949
2474.825948263123,3906
2476.6544488437207,3847
2478.482548892508,3843
2480.310248697896,3873
2482.137548548374,3855
2483.9644487325118,3864
2485.790949538956,3774
2487.617051256433,3872
2489.44275417375,3739
2491.26805857979,3740
2493.0929647635157,3823
2494.917473013971,3813
2496.741583620276,3734
2498.5652968716304,3862
2500.3886130573137,3766
2502.2115324666834,3820
2504.0340553891765,3832
2505.856182114308,3851
2507.6779129316733,3719
2509.499248130945,3794
2511.3201880018764,3727
2513.140732834298,3790
2514.9608829181198,3791
2516.780638543331,3817
2518.6,3799
2520.418967578273,3797
2522.237541568376,3813
2524.0557222606144,3820
2525.8735099453706,3778
2527.6909049131086,3713
2529.507907454368,3923
2531.32451785977,3792
2533.140736420014,3816
2534.9565634258774,3900
2536.771999168218,3745
2538.5870439379714,3821
2540.4016980261526,3887
2542.2159617238544,3853
2544.02983532225,3919
2545.8433191125914,3914
2547.656413386209,3855
2549.4691184345115,3756
2551.2814345489874,3750
2553.093362021204,3825
2554.904901142808,3857
2556.716052205523,3746
2558.526815501153,3928
2560.3371913215824,3751
2562.147179958771,3885
2563.956781704761,3821
2565.7659968516705,3797
2567.5748256916986,3861
2569.3832685171224,3872
2571.1913256202984,3799
2572.9989972936614,3752
2574.806283829725,3844
2576.613185521084,3849
2578.4197026604074,3764
2580.2258355404483,3871
2582.031584454035,3807
2583.836949694077,3865
2585.6419315535613,3863
2587.4465303255533,3796
2589.2507463032002,3880
2591.0545797797245,3895
2592.8580310484303,3815
2594.6611004026995,3818
2596.463788135992,3845
2598.266094541849,3865
2600.0680199138874,3897
2601.869564545807,3859
2603.670728731383,3843
2605.4715127644704,3955
2607.2719169390048,3791
2609.071941548998,3826
2610.8715868885433,3890
2612.670853251811,3777
2614.469740933052,3829
2616.268250226594,3792
2618.0663814268455,3852
2619.864134828292,3809
2621.6615107255006,3840
2623.458509413115,3848
2625.2551311858597,3815
2627.0513763385347,3823
2628.8472451660223,3710
2630.6427379632833,3863
2632.4378550253564,3755
2634.232596647359,3844
2636.026963124488,3837
2637.8209547520187,3778
2639.6145718253065,3809
2641.407814639785,3762
2643.200683490966,3844
2644.9931786744414,3718
2646.7853004858807,3702
2648.577049221034,3816
2650.3684251757277,3737
2652.1594286458712,3706
2653.9500599274484,3763
2655.740319316525,3814
2657.5302071092437,3830
2659.3197236018286,3811
2661.10886909058,3677
2662.8976438718782,3751
2664.686048242183,3783
2666.4740824980327,3745
2668.2617469360443,3760
2670.0490418529134,3680
2671.8359675454153,3823
2673.622524310403,3794
2675.408712444811,3818
2677.1945322456495,3722
2678.979984010009,3709
2680.76506803506,3652
2682.5497846180497,3791
2684.334134056306,3747
2686.1181166472343,3741
2687.9017326883213,3735
2689.6849824771293,3711
2691.4678663113013,3763
2693.2503844885596,3741
2695.032537306705,3819
2696.8143250636167,3769
2698.5957480572542,3722
2700.3768065856534,3700
2702.1575009469316,3711
2703.937831439283,3764
2705.717798360982,3814
2707.4974020103837,3735
2709.276642685917,3611
2711.055520686095,3663
2712.834036309506,3717
2714.612189854819,3665
2716.389981620782,3755
2718.1674119062204,3772
2719.944481010041,3737
2721.721189231226,3719
2723.4975368688415,3687
2725.273524222027,3730
2727.0491515900053,3734
2728.824419272075,3800
2730.5993275676146,3744
2732.3738767760838,3770
2734.148067197016,3685
2735.921899130031,3709
2737.6953728748194,3651
2739.468488731156,3741
2741.2412469988926,3674
2743.0136479779617,3596
2744.785691968372,3622
2746.5573792702116,3714
2748.3287101836504,3707
2750.099685008934,3766
2751.870304046388,3596
2753.640567596418,3693
2755.4104759595057,3719
2757.1800294362156,3701
2758.949228327187,3849
2760.7180729331412,3780
2762.486563554877,3763
2764.254700493272,3731
2766.022484049284,3665
2767.789914523947,3648
2769.5569922183786,3743
2771.3237174337705,3647
2773.090090471394,3627
2774.8561116326036,3627
2776.6217812188274,3654
2778.3870995315756,3630
2780.1520668724356,3675
2781.9166835430747,3672
2783.6809498452394,3633
2785.444866080754,3714
2787.2084325515225,3748
2788.971649559527,3673
2790.73451740683,3735
2792.4970363955713,3579
2794.2592068279705,3688
2796.0210290063264,3813
2797.7825032330147,3688
2799.543629810493,3616
2801.304409041296,3579
2803.0648412280366,3715
2804.8249266734088,3771
2806.5846656801846,3653
2808.344058551212,3626
2810.1031055894246,3752
2811.8618070978273,3735
2813.6201633795085,3762
2815.378174737636,3732
2817.1358414754536,3694
2818.893163896285,3587
2820.6501423035334,3787
2822.4067770006814,3720
2824.1630682912883,3705
2825.9190164789957,3686
2827.6746218675207,3752
2829.429884760661,3665
2831.184805462294,3775
2832.9393842763743,3673
2834.693621506936,3710
2836.4475174580916,3716
2838.201072434034,3815
2839.954286739034,3808
2841.707160677441,3687
2843.459694553685,3740
2845.2118886722724,3709
2846.96374333779,3677
2848.7152588549034,3688
2850.4664355283567,3761
2852.217273662973,3657
2853.9677735636546,3778
2855.7179355353833,3727
2857.4677598832186,3739
2859.217246912299,3773
2860.9663969278427,3666
2862.715210235146,3720
2864.4636871395846,3786
2866.211827946614,3686
2867.9596329617652,3672
2869.7071024906536,3602
2871.4542368389684,3760
2873.20103631248,3729
2874.947501217038,3568
2876.6936318585695,3707
2878.4394285430812,3711
2880.1848915766604,3835
2881.9300212654707,3661
2883.6748179157553,3629
2885.4192818338374,3757
2887.1634133261173,3701
2888.907212699077,3847
2890.6506802592744,3674
2892.393816313348,3681
2894.1366211680142,3646
2895.8790951300693,3763
2897.621238506388,3679
2899.363051603925,3718
2901.1045347297118,3713
2902.8456881908596,3807
2904.58651229456,3669
2906.327007348081,3763
2908.067173658772,3701
2909.8070115340597,3651
2911.5465212814497,3734
2913.285703208527,3711
2915.0245576229563,3654
2916.7630848324807,3623
2918.5012851449196,3629
2920.2391588681758,3682
2921.976706310227,3640
2923.7139277791334,3671
2925.4508235830313,3535
2927.187394030137,3800
2928.923639428745,3678
2930.6595600872306,3778
2932.395156314046,3746
2934.1304284177218,3732
2935.8653767068713,3829
2937.6000014901815,3711
2939.3343030764227,3719
2941.068281774442,3741
2942.8019378931644,3750
2944.5352717415976,3793
2946.2682836288236,3762
2948.0009738640065,3829
2949.7333427563885,3712
2951.465390615289,3685
2953.1971177501086,3733
2954.9285244703265,3713
2956.6596110855,3696
2958.3903779052657,3729
2960.1208252393385,3616
2961.8509533975125,3784
2963.5807626896617,3671
2965.3102534257378,3669
2967.0394259157715,3746
2968.768280469873,3567
2970.496817398232,3683
2972.2250370111146,3714
2973.952939618869,3765
2975.6805255319196,3745
2977.4077950607707,3648
2979.134748516006,3650
2980.861386208289,3734
2982.587708448359,3718
2984.313715547037,3775
2986.039407815222,3739
2987.764785563891,3749
2989.489849104102,3692
2991.2145987469908,3749
2992.9390348037705,3830
2994.6631575857346,3744
2996.3869674042576,3845
2998.1104645707887,3724
2999.83364939686,3742
3001.5565221940783,3738
3003.2790832741334,3733
3005.0013329487924,3820
3006.7232715298996,3614
3008.4448993293804,3796
3010.166216659239,3755
3011.887223831558,3730
3013.607921158498,3785
3015.3283089522993,3626
3017.0483875252826,3749
3018.7681571898443,3716
3020.4876182584626,3627
3022.2067710436927,3702
3023.9256158581707,3790
3025.644153014609,3696
3027.362382825801,3706
3029.0803056046193,3677
3030.797921664012,3739
3032.5152313170106,3787
3034.2322348767225,3777
3035.9489326563353,3744
3037.665324969115,3619
3039.3814121284063,3790
3041.097194447633,3781
3042.812672240299,3707
3044.5278458199855,3774
3046.2427155003525,3876
3047.9572815951406,3687
3049.671544418167,3813
3051.38550428333,3667
3053.0991615046073,3734
3054.812516396051,3771
3056.5255692717974,3812
3058.2383204460575,3684
3059.9507702331257,3689
3061.662918947372,3735
3063.3747669032446,3719
3065.0863144152736,3825
3066.7975617980674,3800
3068.508509366309,3767
3070.219157434767,3766
3071.9295063182844,3787
3073.639556331785,3772
3075.3493077902704,3782
3077.058761008821,3837
3078.7679163025964,3825
3080.476773986837,3835
3082.1853343768594,3857
3083.89359778806,3799
3085.6015645359153,3864
3087.3092349359786,3813
3089.016609303884,3814
3090.7236879553434,3830
3092.4304712061476,3832
3094.136959372166,3786
3095.843152769349,3846
3097.5490517137237,3784
3099.2546565213966,3739
3100.959967508554,3777
3102.66498499146,3702
3104.3697092864577,3749
3106.0741407099695,3736
3107.778279578498,3787
3109.482126208622,3828
3111.1856809170004,3830
3112.8889440203716,3793
3114.5919158355528,3831
3116.294596679439,3764
3117.996986869006,3930
3119.6990867213062,3895
3121.4008965534726,3870
3123.102416682717,3879
3124.803647426329,3919
3126.5045891016784,3767
3128.205242026213,3857
3129.90560651746,3907
3131.605682893025,3848
3133.3054714705922,3879
3135.0049725679282,3952
3136.7041865028714,3857
3138.4031135933465,3827
3140.101754157353,3903
3141.800108512971,3846
3143.498176978357,3849
3145.1959598717494,3881
3146.8934575114636,3865
3148.5906702158954,3897
3150.2875983035183,3747
3151.9842420928853,3820
3153.680601902627,3826
3155.376678051456,3827
3157.07247085816,3713
3158.767980641609,3872
3160.463207720748,3823
3162.158152414606,3732
3163.8528150422862,3801
3165.5471959229726,3815
3167.2412953759303,3878
3168.9351137204976,3780
3170.628651276098,3842
3172.3219083622307,3844
3174.014885298474,3940
3175.707582404485,3967
3177.4000000000005,3893
3179.092138404835,3841
3180.7839979388846,3909
3182.47557892212,3923
3184.166881674594,3886
3185.8579065164386,3903
3187.5486537678626,3899
3189.2391237491547,3921
3190.9293167806827,3906
3192.6192331828934,3949
3194.3088732763117,3888
3195.998237381542,3844
3197.687325819268,3832
3199.376138910251,3809
3201.064676975334,3834
3202.7529403354347,3826
3204.4409293115523,3838
3206.1286442247647,3852
3207.816085396229,3899
3209.5032531471825,3838
3211.190147798936,3869
3212.8767696728846,3788
3214.5631190905015,3779
3216.2491963733373,3753
3217.9350018430214,3787
3219.6205358212637,3747
3221.305798629851,3738
3222.990790590651,3706
3224.6755120256103,3878
3226.359963256751,3753
3228.0441446061795,3759
3229.7280563960758,3892
3231.411698948703,3751
3233.0950725863995,3862
3234.778177631587,3813
3236.461014406761,3763
3238.1435832345005,3826
3239.8258844374595,3840
3241.507918338374,3824
3243.1896852600576,3778
3244.8711855254023,3760
3246.552419457381,3983
3248.233387379042,3947
3249.914089613516,3899
3251.59452648401,3837
3253.274698313813,3821
3254.95460542629,3803
3256.6342481448855,3822
3258.313626793125,3805
3259.9927416946084,3784
3261.6715931730196,3870
3263.3501815521176,3759
3265.0285071557437,3770
3266.706570307815,3844
3268.3843713323286,3853
3270.0619105533615,3897
3271.739188295068,3758
3273.4162048816834,3879
3275.0929606375184,3821
3276.769455886966,3874
3278.445690954498,3851
3280.1216661646613,3929
3281.797381842087,3833
3283.4728383114807,3765
3285.1480358976296,3895
3286.8229749253996,3766
3288.4976557197333,3872
3290.172078605655,3819
3291.846243908266,3754
3293.5201519527463,3895
3295.193803064357,3764
3296.8671975684374,3864
3298.5403357904024,3753
3300.21321805575,3813
3301.8858446900567,3786
3303.558216018975,3863
3305.23033236824,3824
3306.9021940636603,3917
3308.57380143113,3820
3310.2451547966184,3948
3311.916254486174,4017
3313.5871008259246,3920
3315.2576941420766,3783
3316.9280347609147,3818
3318.5981230088046,3830
3320.2679592121895,3895
3321.9375436975924,3866
3323.606876791612,3896
3325.27595882093,3837
3326.944790112305,3894
3328.6133709925753,3819
3330.2817017886573,3931
3331.949782827547,3928
3333.617614436319,3882
3335.2851969421245,3970
3336.952530672199,3918
3338.619615953853,3959
3340.286453114475,3977
3341.9530424815357,3980
3343.619384382583,3964
3345.2854791452437,3934
3346.951327097224,3924
3348.6169285663073,3959
3350.2822838803577,3963
3351.947393367319,3951
3353.61225735521,4044
3355.2768761721345,3873
3356.9412501462693,3995
3358.605379605873,3904
3360.2692648792827,3955
3361.9329062949146,3909
3363.596304181263,3886
