CollectionTime,7/9/2024 4:48:45 PM
ExposureUsed,3
CalibratedSpectrum
-962.7078968117929,605
-959.9714848408522,626
-957.2358232597828,676
-954.5009119013725,646
-951.7667505983302,656
-949.0333391832855,689
-946.3006774887896,666
-943.5687653473143,663
-940.837602591253,661
-938.1071890529199,676
-935.3775245645503,697
-932.6486089583007,643
-929.9204420662485,676
-927.1930237203925,664
-924.4663537526524,695
-921.7404319948689,703
-919.0152582788041,675
-916.2908324361409,691
-913.5671542984834,670
-910.8442236973568,663
-908.1220404642074,664
-905.4006044304027,651
-902.679915427231,710
-899.959973285902,701
-897.2407778375464,685
-894.5223289132158,705
-891.8046263438832,685
-889.0876699604426,669
-886.3714595937089,699
-883.6559950744183,639
-880.9412762332282,661
-878.2273029007168,685
-875.5140749073835,670
-872.8015920836489,666
-870.0898542598545,685
-867.3788612662631,671
-864.6686129330585,684
-861.9591090903457,668
-859.2503495681506,715
-856.5423341964203,683
-853.8350628050229,713
-851.1285352237478,677
-848.4227512823054,684
-845.7177108103272,687
-843.0134136373656,727
-840.3098595928943,711
-837.6070485063082,727
-834.9049802069229,739
-832.2036545239757,742
-829.5030712866244,691
-826.8032303239481,712
-824.1041314649472,705
-821.4057745385428,703
-818.7081593735775,713
-816.0112857988148,690
-813.3151536429393,703
-810.6197627345566,717
-807.9251129021936,739
-805.2312039742981,724
-802.5380357792392,673
-799.8456081453069,703
-797.1539209007124,738
-794.462973873588,687
-791.772766891987,721
-789.083299783884,732
-786.3945723771743,746
-783.7065844996748,725
-781.0193359791231,698
-778.3328266431781,763
-775.6470563194197,706
-772.9620248353489,715
-770.2777320183878,727
-767.5941776958798,745
-764.9113616950891,767
-762.2292838432011,714
-759.5479439673222,745
-756.8673418944801,748
-754.1874774516235,722
-751.5083504656222,700
-748.8299607632671,730
-746.15230817127,733
-743.475392516264,731
-740.7992136248035,751
-738.1237713233636,695
-735.4490654383407,732
-732.7750957960521,756
-730.1018622227365,789
-727.4293645445534,732
-724.7576025875837,754
-722.0865761778291,760
-719.4162851412126,752
-716.7467293035781,774
-714.0779084906909,775
-711.409822528237,784
-708.7424712418238,749
-706.0758544569796,770
-703.4099719991541,731
-700.7448236937178,790
-698.0804093659622,761
-695.4167288411002,741
-692.7537819442656,797
-690.0915685005134,765
-687.4300883348199,765
-684.7693412720819,777
-682.1093271371178,790
-679.4500457546669,773
-676.7914969493897,807
-674.1336805458676,746
-671.4765963686034,812
-668.8202442420206,787
-666.1646239904642,798
-663.5097354382001,776
-660.8555784094151,809
-658.2021527282176,802
-655.5494582186366,789
-652.8974947046223,758
-650.2462620100463,815
-647.5957599587009,794
-644.9459883742998,809
-642.2969470804776,863
-639.6486359007902,864
-637.0010546587141,876
-634.3542031776476,809
-631.7080812809096,859
-629.0626887917401,831
-626.4180255333008,823
-623.7740913286734,820
-621.1308860008619,868
-618.4884093727904,835
-615.8466612673046,802
-613.2056415071715,808
-610.5653499150785,843
-607.9257863136347,854
-605.28695052537,884
-602.6488423727357,870
-600.0114616781036,850
-597.3748082637674,809
-594.7388819519412,852
-592.1036825647604,895
-589.4692099242818,852
-586.8354638524829,863
-584.2024441712624,890
-581.5701507024403,886
-578.9385832677575,911
-576.3077416888759,914
-573.6776257873787,833
-571.0482353847704,867
-568.4195703024757,884
-565.7916303618415,895
-563.164415384135,913
-560.5379251905453,875
-557.9121596021815,872
-555.2871184400748,844
-552.6628015251767,895
-550.0392086783606,931
-547.4163397204204,889
-544.794194472071,886
-542.1727727539491,872
-539.5520743866118,874
-536.9320991905377,908
-534.3128469861261,958
-531.6943175936979,992
-529.0765108334947,1018
-526.4594265256793,1010
-523.8430644903358,1115
-521.2274245474689,1193
-518.612506517005,1291
-515.9983102187913,1195
-513.3848354725959,1258
-510.77208209810846,1300
-508.16004991493924,1376
-505.5487387426199,1435
-502.9381484006032,1499
-500.3282787082628,1561
-497.71912948489364,1541
-495.1107005497117,1443
-492.5029917218539,1368
-489.8960028203786,1178
-487.28973366426493,1166
-484.68418407241325,1081
-482.07935386364494,1036
-479.47524285670266,1044
-476.87185087025,1043
-474.2691777228715,1073
-471.66722323307334,1030
-469.0659872192821,1099
-466.4654694998459,1076
-463.86566989303384,1077
-461.26658821703614,1065
-458.66822428996414,1058
-456.07057792985,1083
-453.4736489546475,1054
-450.877437182231,1039
-448.28194243039627,1017
-445.68716451686,1030
-443.09310325926003,1092
-440.49975847515555,1028
-437.9071299820263,1036
-435.31521759727354,1046
-432.72402113821954,1050
-430.13354042210767,1100
-427.5437752661022,1120
-424.95472548728867,1093
-422.36639090267386,1081
-419.7787713291855,1131
-417.1918665836721,1105
-414.60567648290385,1111
-412.0202008435715,1099
-409.4354394822874,1072
-406.8513922155845,1126
-404.26805885991723,1115
-401.685439231661,1134
-399.103533147112,1148
-396.522340422488,1093
-393.9418608739278,1086
-391.3620943174908,1067
-388.7830405691583,1052
-386.2046994448317,1044
-383.6270707603344,967
-381.05015433141045,915
-378.473949973725,892
-375.8984575028645,837
-373.32367673433623,749
-370.74960748356875,709
-368.1762495659117,661
-365.60360279663576,589
-363.03166699093265,564
-360.4604419639154,522
-357.8899275306178,493
-355.32012350599507,487
-352.7510297049233,497
-350.1826459421999,475
-347.61497203254316,472
-345.04800779059235,455
-342.4817530309082,466
-339.91620756797226,473
-337.35137121618743,455
-334.7872437898774,470
-332.22382510328725,481
-329.66111497058273,462
-327.09911320585127,479
-324.53781962310075,504
-321.9772340362607,514
-319.4173562591816,482
-316.8581861056348,465
-314.2997233893127,445
-311.7419679238294,454
-309.1849195227194,447
-306.62857799943856,470
-304.0729431673641,510
-301.51801483979375,497
-298.963792829947,456
-296.41027695096386,486
-293.85746701590574,509
-291.3053628377552,490
-288.7539642294155,517
-286.2032710037115,491
-283.65328297338897,502
-281.1039999511146,531
-278.5554217494762,515
-276.007548180983,490
-273.4603790580651,480
-270.9139141930734,505
-268.3681533982807,490
-265.8230964858798,500
-263.27874326798565,539
-260.7350935566336,551
-258.1921471637804,582
-255.6499039013039,528
-253.10836358100266,535
-250.56752601459698,538
-248.02739101372765,546
-245.48795838995704,585
-242.94922795476816,552
-240.41119951956557,556
-237.8738728956746,614
-235.33724789434166,616
-232.80132432673452,598
-230.2661020039418,554
-227.73158073697357,587
-225.19776033676033,649
-222.66464061415422,688
-220.1322213799284,612
-217.60050244477725,576
-215.06948361931552,624
-212.53916471408013,629
-210.00954553952818,656
-207.48062590603843,619
-204.9524056239104,609
-202.4248845033651,682
-199.8980623545441,673
-197.37193898751036,711
-194.84651421224817,696
-192.32178783866232,727
-189.79775967657952,678
-187.27442953574644,758
-184.7517972258321,737
-182.2298625564256,745
-179.7086253370378,680
-177.18808537710026,647
-174.66824248596583,664
-172.14909647290835,764
-169.6306471471229,872
-167.11289431772548,779
-164.59583779375328,754
-162.07947738416453,756
-159.5638128978386,849
-157.04884414357605,963
-154.53457093009854,1088
-152.02099306604828,1034
-149.50811035998936,838
-146.99592262040665,666
-144.48442965570587,715
-141.97363127421409,749
-139.46352728417958,997
-136.95411749377126,1245
-134.44540171107985,1201
-131.93737974411636,1062
-129.43005140081357,970
-126.92341648902493,1240
-124.41747481652521,1244
-121.91222619101006,1235
-119.40767042009657,1427
-116.90380731132257,1695
-114.40063667214702,1723
-111.8981583099503,1849
-109.3963720320337,2514
-106.89527764561933,3417
-104.39487495785067,3168
-101.89516377579241,2448
-99.39614390642998,3005
-96.89781515667039,5313
-94.40017733334128,7258
-91.90323024319173,7246
-89.40697369289148,4409
-86.91140748903172,2564
-84.41653143812482,2222
-81.92234534660395,2974
-79.42884902082358,4868
-76.93604226705907,7847
-74.4439248915071,11492
-71.95249670028534,14950
-69.46175749943245,15779
-66.97170709490854,14887
-64.48234529259423,12707
-61.99367189829195,9313
-59.50568671772464,6870
-57.01838955653636,6481
-54.53178022029283,6726
-52.045858514480074,7524
-49.560624244506016,8910
-47.07607721569923,10014
-44.59221723330904,9634
-42.10904410250669,8460
-39.62655762838392,6714
-37.14475761595372,5500
-34.66364387015028,5497
-32.18321619582866,6389
-29.70347439776515,7534
-27.224418280657005,7697
-24.74604764912317,8490
-22.26836230770266,13135
-19.7913620608565,24039
-17.315046712966478,43661
-14.83941606833514,61387
-12.36446993118659,65038
-9.89020810566592,65038
-7.416630395839093,65038
-4.94373660569363,65038
-2.471526539137585,65038
-6.821210263296962E-13,65038
2.47084320796705,65038
4.941003281093458,65038
7.410480415786196,65038
9.879274808531363,65038
12.347386655893956,65038
14.814816154518212,65038
17.28156350112681,65038
19.74762889252179,65038
22.21301252558385,65038
24.67771459727237,20155
27.141735304626195,3239
29.605074844762612,2002
32.06773341487792,1691
34.52971121224755,1472
36.99100843422559,1556
39.45162527824516,1462
41.91156194181792,1325
44.370818622535126,1284
46.82939551806646,1223
49.287292826160524,1313
51.74451074464503,1488
54.201049471426245,1291
56.65690920448981,995
59.112090141899785,1036
61.56659248179983,1022
64.02041642241159,936
66.4735621620365,863
68.92602989905402,889
71.37781983192338,922
73.82893215918205,1028
76.27936707944684,923
78.72912479141326,945
81.17820549385567,1091
83.62660938562783,1049
86.07433666566146,1008
88.5213875329681,772
90.96776218663751,880
93.41346082583925,937
95.85848364982041,966
98.30283085790859,1066
100.7465026495089,817
103.18949922410604,835
105.63182078126385,822
108.07346752062438,921
110.51443964190923,915
112.95473734491827,797
115.39436082953114,783
117.83331029570547,783
120.27158594347827,738
122.7091879729652,783
125.1461165843615,807
127.58237197794062,767
130.01795435405518,807
132.4528639131364,791
134.88710085569494,824
137.32066538231982,814
139.75355769367923,782
142.1857779905207,778
144.61732647366978,758
147.04820334403132,733
149.47840880258934,761
151.90794305040674,786
154.33680628862487,876
156.76499871846443,1087
159.19252054122433,1173
161.61937195828352,1309
164.04555317109896,1368
166.47106438120693,1535
168.89590579022217,1765
171.320077599839,1849
173.7435800118302,1901
176.16641322804742,2037
178.58857745042144,2083
181.01007288096173,2099
183.43089972175687,2092
185.85105817497413,2223
188.27054844285988,2136
190.6893707277394,2253
193.10752523201643,2270
195.5250121581745,2317
197.9418317087751,2493
200.3579840864594,2574
202.7734694939469,2506
205.18828813403627,2621
207.6024402096051,2614
210.01592592360964,2683
212.42874547908548,2593
214.84089907914665,2606
217.2523869269868,2636
219.66320922587727,2641
222.0733661791695,2599
224.48285799029293,2604
226.8916848627572,2602
229.29984700014882,2698
231.7073446061355,2579
234.11417788446204,2621
236.520347038953,2635
238.92585227351185,2670
241.33069379212054,2708
243.73487179884035,2803
246.1383864978112,2695
248.541238093252,2645
250.9434267894609,2633
253.34495279081432,2739
255.74581630176783,2651
258.1460175268563,2611
260.54555667069314,2632
262.9444339379703,2686
265.3426495334594,2689
267.7402036620107,2623
270.1370965285529,2647
272.53332833809407,2715
274.9288992957214,2638
277.32380960660055,2648
279.718059475976,2574
282.1116491091717,2639
284.5045787115897,2633
286.89684848871195,2587
289.2884586460981,2648
291.67940938938807,2690
294.0697009242996,2703
296.4593334566299,2752
298.84830719225477,2631
301.23662233712923,2670
303.6242790972866,2620
306.01127767884,2685
308.39761828798066,2566
310.78330113097934,2574
313.16832641418534,2496
315.5526943440269,2512
317.9364051270112,2511
320.3194589697242,2535
322.70185607883093,2520
325.0835966610754,2440
327.4646809232805,2445
329.8451090723478,2423
332.2248813152577,2371
334.6039978590701,2462
336.9824589109231,2409
339.36026467803447,2479
341.7374153677,2447
344.113911187295,2445
346.48975234427337,2489
348.8649390461686,2450
351.2394715005918,2409
353.61334991523415,2371
355.9865744978655,2399
358.35914545633375,2390
360.73106299856715,2423
363.10232733257146,2354
365.47293866643247,2337
367.84289720831396,2291
370.2122031664593,2310
372.5808567491905,2330
374.9488581649083,2364
377.31620762209275,2344
379.6829053293021,2358
382.0489514951745,2313
384.4143463284262,2213
386.7790900378528,2258
389.14318283232853,2288
391.50662492080653,2290
393.86941651231916,2274
396.23155781597745,2269
398.5930490409713,2327
400.9538903965696,2384
403.3140820921202,2386
405.6736243370498,2351
408.03251734086336,2230
410.3907613131465,2307
412.74835646356166,2275
415.10530300185144,2294
417.4616011378372,2270
419.81725108141893,2203
422.1722530425758,2228
424.5266072313656,2237
426.880313857925,2179
429.2333731324701,2268
431.58578526529516,2277
433.9375504667738,2218
436.2886689473588,2265
438.63914091758113,2236
440.9889665880513,2291
443.33814616945835,2281
445.68667987257015,2136
448.03456790823395,2196
450.3818104873759,2178
452.72840782100013,2279
455.07436012019105,2302
457.41966759611057,2272
459.7643304600007,2230
462.10834892318155,2238
464.4517231970525,2189
466.79445349309174,2194
469.1365400228566,2298
471.4779829979826,2248
473.81878263018564,2241
476.15893913125876,2240
478.4984527130747,2343
480.8373235875855,2302
483.17555196682144,2357
485.5131380628919,2358
487.8500820879857,2468
490.1863842543697,2524
492.52204477439034,2638
494.8570638604725,2797
497.1914417251204,3021
499.52517858091653,3273
501.85827464052306,3506
504.19073011668036,3614
506.5225452222086,3605
508.85372017000566,3523
511.18425517304956,3537
513.514150444396,3733
515.8434061971808,4289
518.1720226446176,5088
520.4999999999999,5375
522.8273384766991,5057
525.1540382881666,4686
527.480099647932,4104
529.8055227696037,3381
532.1303078668694,2915
534.454455153496,2663
536.777964843328,2486
539.1008371502907,2427
541.4230722883866,2417
543.744670471698,2504
546.0656319143858,2362
548.3859568306899,2368
550.7056454349294,2315
553.0246979415016,2307
555.3431145648834,2326
557.6608955196306,2351
559.978041020377,2258
562.2945512818363,2312
564.6104265188006,2359
566.9256669461412,2418
569.2402727788082,2269
571.5542442318302,2402
573.8675815203156,2363
576.1802848594508,2358
578.4923544645015,2368
580.8037905508126,2313
583.114593333807,2381
585.4247630289875,2370
587.7342998519354,2316
590.0432040183106,2346
592.3514757438526,2354
594.6591152443794,2368
596.9661227357875,2343
599.2724984340531,2360
601.578242555231,2374
603.8833553154542,2331
606.1878369309362,2313
608.4916876179676,2312
610.7949075929192,2335
613.0974970722403,2301
615.3994562724587,2340
617.7007854101818,2305
620.0014847020951,2347
622.3015543649641,2387
624.6009946156324,2320
626.8998056710224,2366
629.1979877481361,2413
631.4955410640538,2280
633.7924658359349,2344
636.0887622810175,2384
638.3844306166192,2343
640.6794710601358,2410
642.9738838290426,2365
645.2676691408932,2401
647.5608272133207,2367
649.853358264037,2438
652.1452625108324,2364
654.4365401715764,2343
656.7271914642178,2368
659.0172166067838,2294
661.3066158173809,2428
663.5953893141935,2371
665.8835373154867,2303
668.1710600396028,2365
670.4579577049639,2423
672.7442305300709,2450
675.0298787335033,2381
677.3149025339197,2401
679.599302150058,2377
681.8830778007342,2301
684.1662297048437,2388
686.4487580813608,2396
688.7306631493387,2395
691.0119451279091,2445
693.2926042362834,2387
695.5726406937516,2374
697.8520547196814,2358
700.1308465335215,2422
702.4090163547982,2364
704.6865644031171,2417
706.9634908981619,2401
709.2397960596965,2350
711.5154801075631,2410
713.7905432616823,2396
716.0649857420548,2401
718.3388077687592,2420
720.612009561953,2416
722.8845913418733,2392
725.1565533288352,2389
727.427895743234,2352
729.6986188055427,2415
731.9687227363137,2420
734.238207756178,2400
736.5070740858458,2485
738.7753219461066,2429
741.0429515578281,2374
743.3099631419569,2448
745.5763569195191,2414
747.8421331116193,2395
750.1072919394409,2378
752.3718336242467,2399
754.6357583873777,2393
756.8990664502545,2381
759.1617580343765,2380
761.423833361321,2441
763.6852926527457,2435
765.9461361303862,2475
768.206364016058,2555
770.4659765316536,2434
772.7249738991469,2466
774.9833563405886,2442
777.2411240781092,2401
779.4982773339183,2520
781.7548163303044,2461
784.010741289634,2365
786.2660524343538,2493
788.5207499869881,2510
790.7748341701416,2468
793.0283052064964,2474
795.2811633188143,2419
797.5334087299362,2476
799.7850416627813,2474
802.0360623403484,2458
804.2864709857143,2369
806.5362678220353,2508
808.7854530725468,2442
811.0340269605625,2399
813.2819897094754,2466
815.5293415427581,2439
817.77608268396,2479
820.0222133567116,2493
822.2677337847211,2442
824.5126441917765,2440
826.7569448017433,2421
829.0006358385675,2387
831.2437175262731,2453
833.4861900889629,2438
835.7280537508192,2401
837.9693087361026,2436
840.2099552691533,2461
842.4499935743896,2412
844.689423876309,2496
846.9282463994886,2408
849.1664613685833,2479
851.4040690083276,2477
853.6410695435349,2455
855.877463199097,2449
858.1132501999847,2458
860.3484307712487,2442
862.5830051380175,2457
864.8169735254988,2454
867.0503361589791,2561
869.2830932638243,2519
871.5152450654786,2511
873.7467917894654,2469
875.9777336613873,2495
878.2080709069252,2527
880.4378037518389,2495
882.666932421968,2497
884.8954571432301,2467
887.1233781416219,2468
889.3506956432192,2517
891.5774098741766,2533
893.803521060728,2608
896.0290294291852,2521
898.2539352059397,2523
900.4782386174619,2566
902.7019398903011,2448
904.925039251085,2439
907.147536926521,2500
909.3694331433943,2503
911.59072812857,2521
913.8114221089921,2472
916.0315153116827,2415
918.2510079637437,2542
920.4699002923547,2530
922.6881925247761,2441
924.905884888345,2462
927.1229776104793,2458
929.3394709186747,2440
931.555365040506,2446
933.7706602036275,2486
935.9853566357709,2483
938.1994545647489,2465
940.4129542184515,2514
942.6258558248488,2443
944.8381596119883,2365
947.0498658079974,2463
949.2609746410825,2488
951.4714863395287,2523
953.6814011316998,2452
955.8907192460387,2395
958.0994409110671,2420
960.3075663553858,2466
962.5150958076741,2452
964.7220294966913,2448
966.928367651274,2401
969.1341105003388,2423
971.3392582728806,2369
973.5438111979742,2405
975.747769504772,2436
977.9511334225061,2437
980.153903180487,2440
982.3560790081052,2496
984.5576611348289,2460
986.7586497902058,2412
988.9590452038618,2353
991.158847605503,2327
993.3580572249133,2268
995.5566742919558,2326
997.7546990365728,2388
999.952131688785,2337
1002.1489724786926,2369
1004.3452216364743,2256
1006.5408793923874,2296
1008.7359459767691,2211
1010.9304216200343,2204
1013.1243065526781,2218
1015.3176010052733,2251
1017.510305208472,2212
1019.7024193930064,2190
1021.8939437896848,2213
1024.0848786293977,2228
1026.2752241431122,2201
1028.4649805618747,2177
1030.6541481168115,2208
1032.842727039127,2174
1035.0307175601051,2188
1037.2181199111074,2183
1039.4049343235752,2165
1041.591161029029,2198
1043.7768002590683,2175
1045.9618522453698,2124
1048.1463172196918,2196
1050.3301954138697,2223
1052.513487059818,2235
1054.69619238953,2108
1056.8783116350783,2167
1059.0598450286152,2144
1061.2407928023704,2188
1063.4211551886528,2134
1065.6009324198508,2166
1067.780124728432,2191
1069.9587323469414,2184
1072.1367555080046,2130
1074.314194444325,2138
1076.4910493886855,2226
1078.667320573947,2112
1080.843008233051,2098
1083.0181125990161,2110
1085.1926339049414,2110
1087.3665723840027,2109
1089.5399282694575,2069
1091.7127017946405,2102
1093.8848931929647,2133
1096.0565026979243,2139
1098.2275305430899,2150
1100.3979769621128,2134
1102.567842188722,2054
1104.737126456726,2090
1106.9058300000124,2131
1109.0739530525475,2078
1111.2414958483764,2147
1113.4084586216231,2038
1115.5748416064907,2051
1117.7406450372605,2081
1119.9058691482942,2112
1122.0705141740304,2117
1124.2345803489884,2110
1126.3980679077658,2112
1128.5609770850388,2136
1130.7233081155623,2053
1132.8850612341707,2107
1135.0462366757774,2075
1137.2068346753745,2107
1139.3668554680326,2113
1141.526299288901,2105
1143.68516637321,2061
1145.8434569562655,2026
1148.001171273455,2076
1150.158309560244,2033
1152.3148720521767,2033
1154.470858984876,2136
1156.626270594044,2025
1158.7811071154629,2072
1160.9353687849912,2049
1163.089055838569,2045
1165.242168512213,2119
1167.3947070420209,2055
1169.5466716641677,2112
1171.6980626149075,2077
1173.8488801305748,2055
1175.9991244475814,2059
1178.1487958024186,2088
1180.2978944316555,2091
1182.4464205719428,2016
1184.5943744600072,2021
1186.7417563326567,2046
1188.8885664267755,2100
1191.0348049793297,2034
1193.1804722273619,2005
1195.325568407995,2112
1197.4700937584303,2042
1199.614048515948,2080
1201.7574329179074,2098
1203.900247201746,2141
1206.042491604982,2117
1208.1841663652099,2090
1210.3252717201053,2081
1212.465807907422,2121
1214.6057751649923,2085
1216.7451737307279,2149
1218.8840038426192,2085
1221.0222657387353,2079
1223.1599596572241,2121
1225.2970858363137,2101
1227.4336445143094,2161
1229.5696359295966,2172
1231.705060320639,2142
1233.8399179259786,2097
1235.9742089842384,2204
1238.107933734118,2181
1240.2410924143974,2081
1242.373685263935,2170
1244.5057125216676,2212
1246.6371744266116,2145
1248.7680712178621,2130
1250.898403134593,2133
1253.028170416058,2238
1255.1573733015875,2080
1257.2860120305932,2113
1259.4140868425648,2157
1261.54159797707,2137
1263.6685456737569,2134
1265.7949301723515,2108
1267.9207517126597,2223
1270.046010534565,2168
1272.1707068780306,2154
1274.2948409830983,2173
1276.4184130898889,2142
1278.541423438603,2197
1280.6638722695184,2192
1282.785759822993,2280
1284.9070863394636,2118
1287.0278520594447,2223
1289.1480572235314,2237
1291.2677020723963,2162
1293.3867868467923,2274
1295.5053117875495,2231
1297.623277135579,2291
1299.740683131868,2198
1301.8575300174857,2207
1303.973818033578,2232
1306.0895474213703,2311
1308.2047184221678,2264
1310.3193312773528,2337
1312.4333862283888,2284
1314.5468835168163,2255
1316.659823384255,2274
1318.7722060724045,2329
1320.8840318230418,2237
1322.9953008780249,2249
1325.1060134792888,2390
1327.2161698688478,2309
1329.3257702887959,2278
1331.4348149813054,2325
1333.5433041886276,2292
1335.6512381530933,2314
1337.7586171171101,2253
1339.8654413231675,2267
1341.9717110138317,2342
1344.0774264317488,2301
1346.1825878196432,2262
1348.2871954203192,2289
1350.3912494766587,2365
1352.4947502316231,2291
1354.5976979282532,2226
1356.7000928096686,2216
1358.8019351190665,2264
1360.9032250997243,2301
1363.0039629949988,2245
1365.1041490483235,2234
1367.2037835032133,2246
1369.3028666032606,2246
1371.401398592137,2252
1373.4993797135926,2280
1375.5968102114575,2178
1377.6936903296396,2240
1379.7900203121262,2283
1381.8858004029835,2234
1383.9810308463561,2257
1386.075711886469,2224
1388.1698437676241,2208
1390.2634267342032,2258
1392.356461030667,2238
1394.4489469015557,2266
1396.5408845914872,2176
1398.6322743451592,2256
1400.7231164073469,2305
1402.813411022907,2326
1404.903158436773,2244
1406.9923588939578,2249
1409.0810126395531,2293
1411.1691199187303,2313
1413.2566809767386,2293
1415.343696058907,2316
1417.4301654106425,2282
1419.5160892774315,2311
1421.6014679048399,2268
1423.6863015385125,2263
1425.7705904241707,2372
1427.8543348076178,2242
1429.9375349347342,2335
1432.0201910514802,2279
1434.102303403894,2267
1436.1838722380944,2289
1438.2648978002767,2242
1440.3453803367174,2336
1442.4253200937692,2337
1444.5047173178677,2307
1446.5835722555234,2320
1448.6618851533285,2349
1450.739656257952,2341
1452.8168858161434,2280
1454.8935740747306,2418
1456.96972128062,2394
1459.045327680797,2350
1461.120393522327,2399
1463.1949190523528,2408
1465.2689045180973,2365
1467.3423501668608,2436
1469.415256246024,2390
1471.4876230030463,2365
1473.559450685465,2390
1475.6307395408976,2427
1477.7014898170391,2483
1479.771701761665,2491
1481.8413756226287,2510
1483.9105116478618,2531
1485.9791100853772,2565
1488.0471711832643,2468
1490.1146951896926,2478
1492.1816823529098,2454
1494.2481329212433,2572
1496.3140471430984,2541
1498.3794252669609,2617
1500.4442675413939,2584
1502.5085742150404,2526
1504.572345536622,2497
1506.6355817549388,2544
1508.6982831188702,2594
1510.7604498773744,2504
1512.8220822794883,2607
1514.8831805743293,2646
1516.9437450110909,2670
1519.003775839048,2678
1521.0632733075522,2613
1523.1222376660367,2581
1525.1806691640113,2633
1527.2385680510652,2694
1529.2959345768668,2794
1531.3527689911643,2742
1533.4090715437833,2681
1535.4648424846291,2766
1537.5200820636855,2714
1539.5747905310159,2773
1541.6289681367616,2807
1543.6826151311434,2781
1545.7357317644614,2775
1547.7883182870937,2877
1549.8403749494987,2915
1551.8919020022113,2857
1553.9428996958477,3002
1555.9933682811015,2910
1558.0433080087469,2921
1560.0927191296346,2997
1562.1416018946961,3009
1564.1899565549415,2999
1566.2377833614592,3098
1568.2850825654164,2980
1570.3318544180606,2947
1572.3780991707158,2963
1574.423817074788,2841
1576.4690083817595,2809
1578.5136733431923,2841
1580.5578122107272,2734
1582.601425236085,2676
1584.6445126710646,2698
1586.6870747675434,2650
1588.7291117774776,2596
1590.7706239529034,2549
1592.8116115459347,2684
1594.8520748087658,2500
1596.8920139936686,2421
1598.9314293529933,2576
1600.9703211391711,2454
1603.008689604711,2409
1605.0465350022005,2389
1607.0838575843068,2419
1609.1206576037753,2371
1611.1569353134305,2337
1613.1926909661765,2348
1615.2279248149953,2347
1617.2626371129481,2267
1619.2968281131757,2347
1621.3304980688963,2359
1623.3636472334088,2325
1625.39627586009,2278
1627.428384202396,2347
1629.459972513861,2203
1631.4910410480993,2261
1633.5215900588028,2290
1635.551619799744,2275
1637.5811305247717,2278
1639.6101224878166,2239
1641.6385959428862,2219
1643.6665511440683,2233
1645.693988345528,2175
1647.7209078015112,2231
1649.7473097663405,2248
1651.7731944944203,2208
1653.7985622402307,2226
1655.823413258333,2225
1657.847747803366,2256
1659.8715661300494,2173
1661.8948684931793,2198
1663.9176551476316,2153
1665.9399263483624,2140
1667.9616823504057,2239
1669.982923408873,2224
1672.0036497789574,2212
1674.0238617159293,2164
1676.043559475138,2122
1678.0627433120121,2203
1680.081413482059,2196
1682.0995702408654,2170
1684.117213844096,2200
1686.134344547495,2180
1688.1509626068864,2192
1690.1670682781705,2162
1692.182661817329,2194
1694.1977434804217,2150
1696.2123135235875,2196
1698.226372203043,2166
1700.2399197750851,2175
1702.2529564960905,2163
1704.2654826225112,2185
1706.277498410882,2121
1708.2890041178139,2224
1710.2999999999988,2150
1712.3104863142066,2245
1714.3204633172854,2151
1716.329931266163,2190
1718.3388904178469,2095
1720.3473410294214,2177
1722.3552833580516,2214
1724.3627176609807,2150
1726.3696441955308,2165
1728.3760632191033,2200
1730.3819749891782,2155
1732.3873797633146,2143
1734.3922777991502,2102
1736.3966693544012,2136
1738.4005546868639,2209
1740.4039340544127,2175
1742.406807715001,2073
1744.4091759266616,2139
1746.4110389475054,2159
1748.4123970357223,2134
1750.413250449582,2184
1752.4135994474318,2167
1754.4134442876993,2107
1756.4127852288902,2194
1758.4116225295893,2191
1760.4099564484595,2131
1762.407787244244,2082
1764.405115175764,2113
1766.4019405019203,2156
1768.3982634816916,2156
1770.3940843741357,2082
1772.3894034383907,2180
1774.3842209336717,2099
1776.378537119274,2175
1778.372352254571,2096
1780.3656665990156,2195
1782.3584804121397,2180
1784.3507939535534,2162
1786.3426074829463,2133
1788.3339212600863,2128
1790.3247355448211,2186
1792.3150505970766,2169
1794.3048666768573,2114
1796.2941840442477,2175
1798.2830029594106,2154
1800.2713236825884,2175
1802.2591464741004,2162
1804.2464715943465,2205
1806.2332993038058,2187
1808.2196298630352,2247
1810.2054635326708,2230
1812.190800573428,2151
1814.175641246101,2199
1816.1599858115628,2141
1818.1438345307652,2133
1820.127187664738,2161
1822.1100454745924,2211
1824.092408221516,2204
1826.0742761667766,2151
1828.055649571721,2189
1830.0365286977735,2204
1832.0169138064398,2256
1833.9968051593014,2191
1835.9762030180214,2164
1837.9551076443408,2223
1839.9335193000788,2193
1841.9114382471344,2224
1843.888864747485,2151
1845.8657990631878,2189
1847.842241456378,2162
1849.8181921892697,2276
1851.7936515241558,2186
1853.7686197234098,2157
1855.7430970494815,2144
1857.7170837649014,2272
1859.6905801322787,2212
1861.6635864143004,2195
1863.6361028737338,2188
1865.608129773424,2190
1867.5796673762961,2164
1869.5507159453537,2239
1871.521275743678,2173
1873.4913470344313,2189
1875.4609300808534,2226
1877.4300251462632,2135
1879.3986324940588,2131
1881.366752387717,2155
1883.3343850907936,2188
1885.3015308669228,2157
1887.268189979819,2148
1889.2343626932739,2193
1891.2000492711595,2202
1893.1652499774254,2264
1895.1299650761011,2137
1897.0941948312952,2242
1899.0579395071945,2261
1901.0211993680641,2244
1902.98397467825,2306
1904.9462657021745,2212
1906.9080727043415,2310
1908.869395949332,2270
1910.8302357018065,2176
1912.790592226504,2212
1914.7504657882428,2209
1916.7098566519212,2230
1918.6687650825133,2169
1920.6271913450764,2213
1922.5851357047422,2252
1924.5425984267245,2191
1926.499579776314,2303
1928.4560800188833,2192
1930.4120994198802,2206
1932.367638244833,2299
1934.32269675935,2185
1936.2772752291175,2215
1938.231373919899,2227
1940.1849930975404,2203
1942.1381330279637,2176
1944.0907939771696,2196
1946.0429762112412,2247
1947.9946799963363,2277
1949.9459055986945,2207
1951.896653284633,2229
1953.8469233205478,2262
1955.7967159729142,2220
1957.7460315082863,2277
1959.6948701932974,2232
1961.6432322946594,2227
1963.5911180791632,2224
1965.5385278136787,2221
1967.4854617651545,2259
1969.4319202006182,2194
1971.377903387176,2234
1973.3234115920136,2214
1975.268445082395,2186
1977.2130041256642,2231
1979.1570889892423,2188
1981.1006999406304,2145
1983.04383724741,2305
1984.986501177238,2212
1986.928691997853,2215
1988.8704099770712,2181
1990.811655382789,2271
1992.7524284829801,2275
1994.692729545698,2242
1996.6325588390755,2237
1998.5719166313224,2270
2000.5108031907307,2184
2002.4492187856677,2177
2004.387163684583,2256
2006.3246381560011,2202
2008.2616424685298,2204
2010.1981768908527,2174
2012.1342416917332,2193
2014.069837140014,2221
2016.0049635046162,2216
2017.9396210545406,2303
2019.8738100588666,2262
2021.8075307867502,2163
2023.740783507431,2147
2025.6735684902228,2219
2027.6058860045214,2138
2029.5377363198004,2246
2031.4691197056118,2207
2033.4000364315875,2170
2035.3304867674374,2187
2037.260470982952,2225
2039.189989347998,2158
2041.1190421325232,2280
2043.047629606554,2220
2044.9757520401945,2197
2046.9034097036288,2272
2048.8306028671195,2315
2050.7573318010086,2229
2052.683596775716,2083
2054.609398061742,2238
2056.5347359296647,2179
2058.4596106501403,2191
2060.384022493906,2197
2062.3079717317764,2243
2064.231458634646,2129
2066.1544834734873,2270
2068.077046519352,2258
2069.99914804337,2289
2071.9207883167524,2178
2073.8419676107865,2234
2075.7626861968406,2274
2077.6829443463607,2223
2079.6027423308715,2286
2081.522080421977,2243
2083.440958891362,2259
2085.359378010786,2278
2087.2773380520907,2198
2089.194839287196,2228
2091.111881988101,2343
2093.0284664268825,2271
2094.9445928756973,2228
2096.86026160678,2243
2098.775472892446,2256
2100.690227005088,2288
2102.604524217178,2302
2104.5183648012676,2305
2106.431749029985,2300
2108.34467717604,2268
2110.2571495122206,2214
2112.169166311393,2286
2114.080727846503,2248
2115.9918343905747,2329
2117.902486216711,2290
2119.8126835980956,2206
2121.722426807987,2245
2123.6317161197285,2346
2125.5405518067364,2326
2127.448934142509,2276
2129.356863400624,2293
2131.264339854737,2286
2133.1713637785815,2412
2135.077935445972,2335
2136.9840551308002,2324
2138.889723107037,2268
2140.7949396487334,2238
2142.699705030018,2204
2144.6040195250994,2229
2146.507883408264,2306
2148.4112969538774,2300
2150.3142604363848,2303
2152.2167741303097,2210
2154.1188383102535,2312
2156.0204532508997,2326
2157.9216192270064,2280
2159.822336513414,2407
2161.7226053850413,2252
2163.622426116884,2386
2165.5217989840185,2408
2167.4207242616,2351
2169.319202224862,2326
2171.2172331491165,2352
2173.1148173097563,2298
2175.0119549822507,2313
2176.90864644215,2371
2178.8048919650823,2395
2180.7006918267534,2279
2182.596046302952,2300
2184.4909556695407,2340
2186.3854202024645,2353
2188.279440177746,2410
2190.173015871487,2436
2192.066147559868,2293
2193.958835519149,2353
2195.851080025667,2416
2197.7428813558417,2342
2199.6342397861667,2426
2201.5251555932186,2338
2203.415629053651,2377
2205.3056604441986,2338
2207.19525004167,2436
2209.084398122958,2392
2210.9731049650327,2407
2212.861370844941,2369
2214.749196039812,2384
2216.636580826851,2452
2218.523525483344,2449
2220.410030286655,2415
2222.296095514226,2419
2224.1817214435805,2404
2226.066908352319,2432
2227.951656518121,2371
2229.835966218746,2323
2231.71983773203,2392
2233.6032713358913,2397
2235.486267308324,2467
2237.3688259274036,2392
2239.2509474712824,2356
2241.132632218193,2370
2243.013880446447,2359
2244.8946924344323,2459
2246.7750684606203,2470
2248.6550088035574,2390
2250.534513741871,2378
2252.413583554265,2332
2254.292218519526,2395
2256.170418916517,2441
2258.0481850241786,2355
2259.925517121534,2360
2261.8024154876825,2348
2263.678880401803,2416
2265.5549121431536,2411
2267.430510991071,2378
2269.305677224971,2346
2271.180411124348,2368
2273.0547129687766,2331
2274.9285830379076,2336
2276.8020216114737,2358
2278.6750289692845,2303
2280.5476053912294,2386
2282.4197511572766,2402
2284.2914665474727,2347
2286.162751841943,2506
2288.0336073208937,2496
2289.904033264608,2337
2291.774029953448,2445
2293.6435976678554,2384
2295.5127366883517,2357
2297.381447295534,2401
2299.2497297700825,2361
2301.1175843927526,2345
2302.9850114443825,2306
2304.852011205885,2249
2306.7185839582553,2308
2308.5847299825664,2264
2310.4504495599676,2263
2312.3157429716925,2209
2314.1806104990483,2272
2316.0450524234247,2185
2317.9090690262888,2245
2319.772660589186,2249
2321.635827393742,2293
2323.498569721661,2227
2325.3608878547248,2208
2327.2227820747967,2273
2329.0842526638157,2281
2330.945299903803,2211
2332.805924076857,2275
2334.6661254651535,2208
2336.525904350951,2216
2338.3852610165827,2228
2340.244195744464,2295
2342.102708817088,2186
2343.9608005170253,2216
2345.8184711269287,2265
2347.675720929526,2287
2349.532550207628,2191
2351.38895924412,2171
2353.24494832197,2238
2355.100517724223,2260
2356.955667734004,2236
2358.810398634514,2259
2360.664710709037,2201
2362.5186042409337,2217
2364.3720795136437,2252
2366.225136810686,2218
2368.0777764156583,2273
2369.929998612237,2259
2371.7818036841777,2208
2373.633191915315,2160
2375.484163589562,2223
2377.3347189909114,2222
2379.184858403434,2207
2381.03458211128,2204
2382.8838903986775,2280
2384.732783549936,2151
2386.5812618494406,2249
2388.4293255816588,2272
2390.2769750311327,2200
2392.1242104824883,2181
2393.971032220427,2346
2395.8174405297295,2319
2397.6634356952563,2258
2399.509018001947,2235
2401.3541877348193,2195
2403.1989451789705,2309
2405.043290619576,2231
2406.8872243418905,2269
2408.730746631247,2249
2410.5738577730594,2241
2412.4165580528183,2214
2414.258847756095,2253
2416.100727168537,2295
2417.9421965758734,2284
2419.783256263912,2263
2421.623906518538,2306
2423.4641476257157,2312
2425.303979871491,2238
2427.143403541984,2330
2428.9824189233977,2321
2430.821026302012,2313
2432.6592259641866,2274
2434.497018196361,2220
2436.33440328505,2349
2438.171381516851,2241
2440.00795317844,2361
2441.844118556569,2308
2443.6798779380724,2275
2445.5152316098606,2300
2447.3501798589255,2302
2449.1847229723357,2298
2451.0188612372403,2325
2452.8525949408663,2263
2454.6859243705203,2290
2456.518849813587,2354
2458.3513715575314,2242
2460.183489889895,2324
2462.015205098301,2329
2463.8465174704493,2265
2465.67742729412,2296
2467.5079348571717,2249
2469.338040447542,2210
2471.1677443532476,2199
2472.9970468623833,2270
2474.825948263123,2294
2476.6544488437207,2278
2478.482548892508,2277
2480.310248697896,2261
2482.137548548374,2226
2483.9644487325118,2270
2485.790949538956,2310
2487.617051256433,2349
2489.44275417375,2288
2491.26805857979,2266
2493.0929647635157,2305
2494.917473013971,2358
2496.741583620276,2312
2498.5652968716304,2368
2500.3886130573137,2310
2502.2115324666834,2304
2504.0340553891765,2375
2505.856182114308,2380
2507.6779129316733,2345
2509.499248130945,2326
2511.3201880018764,2294
2513.140732834298,2258
2514.9608829181198,2240
2516.780638543331,2325
2518.6,2290
2520.418967578273,2338
2522.237541568376,2367
2524.0557222606144,2319
2525.8735099453706,2338
2527.6909049131086,2311
2529.507907454368,2276
2531.32451785977,2311
2533.140736420014,2304
2534.9565634258774,2275
2536.771999168218,2299
2538.5870439379714,2374
2540.4016980261526,2363
2542.2159617238544,2398
2544.02983532225,2354
2545.8433191125914,2309
2547.656413386209,2366
2549.4691184345115,2318
2551.2814345489874,2356
2553.093362021204,2351
2554.904901142808,2433
2556.716052205523,2355
2558.526815501153,2333
2560.3371913215824,2360
2562.147179958771,2384
2563.956781704761,2332
2565.7659968516705,2386
2567.5748256916986,2333
2569.3832685171224,2319
2571.1913256202984,2342
2572.9989972936614,2433
2574.806283829725,2426
2576.613185521084,2384
2578.4197026604074,2402
2580.2258355404483,2398
2582.031584454035,2454
2583.836949694077,2337
2585.6419315535613,2335
2587.4465303255533,2395
2589.2507463032002,2437
2591.0545797797245,2382
2592.8580310484303,2354
2594.6611004026995,2379
2596.463788135992,2468
2598.266094541849,2374
2600.0680199138874,2439
2601.869564545807,2460
2603.670728731383,2384
2605.4715127644704,2438
2607.2719169390048,2484
2609.071941548998,2445
2610.8715868885433,2418
2612.670853251811,2391
2614.469740933052,2419
2616.268250226594,2439
2618.0663814268455,2436
2619.864134828292,2437
2621.6615107255006,2435
2623.458509413115,2425
2625.2551311858597,2433
2627.0513763385347,2397
2628.8472451660223,2396
2630.6427379632833,2483
2632.4378550253564,2513
2634.232596647359,2399
2636.026963124488,2437
2637.8209547520187,2443
2639.6145718253065,2353
2641.407814639785,2477
2643.200683490966,2467
2644.9931786744414,2409
2646.7853004858807,2321
2648.577049221034,2387
2650.3684251757277,2379
2652.1594286458712,2330
2653.9500599274484,2340
2655.740319316525,2397
2657.5302071092437,2359
2659.3197236018286,2323
2661.10886909058,2341
2662.8976438718782,2486
2664.686048242183,2408
2666.4740824980327,2431
2668.2617469360443,2387
2670.0490418529134,2330
2671.8359675454153,2364
2673.622524310403,2369
2675.408712444811,2339
2677.1945322456495,2306
2678.979984010009,2349
2680.76506803506,2291
2682.5497846180497,2374
2684.334134056306,2252
2686.1181166472343,2299
2687.9017326883213,2329
2689.6849824771293,2337
2691.4678663113013,2346
2693.2503844885596,2398
2695.032537306705,2314
2696.8143250636167,2435
2698.5957480572542,2329
2700.3768065856534,2365
2702.1575009469316,2302
2703.937831439283,2351
2705.717798360982,2344
2707.4974020103837,2301
2709.276642685917,2293
2711.055520686095,2269
2712.834036309506,2336
2714.612189854819,2339
2716.389981620782,2270
2718.1674119062204,2299
2719.944481010041,2268
2721.721189231226,2221
2723.4975368688415,2313
2725.273524222027,2307
2727.0491515900053,2451
2728.824419272075,2389
2730.5993275676146,2295
2732.3738767760838,2297
2734.148067197016,2328
2735.921899130031,2321
2737.6953728748194,2284
2739.468488731156,2263
2741.2412469988926,2384
2743.0136479779617,2304
2744.785691968372,2258
2746.5573792702116,2280
2748.3287101836504,2241
2750.099685008934,2320
2751.870304046388,2304
2753.640567596418,2357
2755.4104759595057,2392
2757.1800294362156,2274
2758.949228327187,2268
2760.7180729331412,2243
2762.486563554877,2276
2764.254700493272,2317
2766.022484049284,2310
2767.789914523947,2234
2769.5569922183786,2323
2771.3237174337705,2218
2773.090090471394,2252
2774.8561116326036,2287
2776.6217812188274,2318
2778.3870995315756,2253
2780.1520668724356,2269
2781.9166835430747,2409
2783.6809498452394,2303
2785.444866080754,2360
2787.2084325515225,2338
2788.971649559527,2240
2790.73451740683,2378
2792.4970363955713,2377
2794.2592068279705,2314
2796.0210290063264,2290
2797.7825032330147,2268
2799.543629810493,2283
2801.304409041296,2303
2803.0648412280366,2318
2804.8249266734088,2399
2806.5846656801846,2326
2808.344058551212,2433
2810.1031055894246,2401
2811.8618070978273,2457
2813.6201633795085,2323
2815.378174737636,2264
2817.1358414754536,2412
2818.893163896285,2414
2820.6501423035334,2356
2822.4067770006814,2323
2824.1630682912883,2330
2825.9190164789957,2396
2827.6746218675207,2377
2829.429884760661,2387
2831.184805462294,2402
2832.9393842763743,2373
2834.693621506936,2306
2836.4475174580916,2364
2838.201072434034,2407
2839.954286739034,2358
2841.707160677441,2345
2843.459694553685,2301
2845.2118886722724,2336
2846.96374333779,2318
2848.7152588549034,2317
2850.4664355283567,2297
2852.217273662973,2349
2853.9677735636546,2304
2855.7179355353833,2357
2857.4677598832186,2362
2859.217246912299,2314
2860.9663969278427,2374
2862.715210235146,2319
2864.4636871395846,2310
2866.211827946614,2332
2867.9596329617652,2280
2869.7071024906536,2332
2871.4542368389684,2342
2873.20103631248,2281
2874.947501217038,2355
2876.6936318585695,2358
2878.4394285430812,2394
2880.1848915766604,2390
2881.9300212654707,2315
2883.6748179157553,2399
2885.4192818338374,2299
2887.1634133261173,2394
2888.907212699077,2315
2890.6506802592744,2360
2892.393816313348,2475
2894.1366211680142,2328
2895.8790951300693,2288
2897.621238506388,2314
2899.363051603925,2312
2901.1045347297118,2310
2902.8456881908596,2361
2904.58651229456,2367
2906.327007348081,2384
2908.067173658772,2369
2909.8070115340597,2368
2911.5465212814497,2337
2913.285703208527,2350
2915.0245576229563,2272
2916.7630848324807,2390
2918.5012851449196,2288
2920.2391588681758,2297
2921.976706310227,2351
2923.7139277791334,2373
2925.4508235830313,2366
2927.187394030137,2336
2928.923639428745,2370
2930.6595600872306,2387
2932.395156314046,2370
2934.1304284177218,2386
2935.8653767068713,2391
2937.6000014901815,2337
2939.3343030764227,2323
2941.068281774442,2351
2942.8019378931644,2347
2944.5352717415976,2402
2946.2682836288236,2392
2948.0009738640065,2459
2949.7333427563885,2452
2951.465390615289,2387
2953.1971177501086,2483
2954.9285244703265,2388
2956.6596110855,2370
2958.3903779052657,2405
2960.1208252393385,2349
2961.8509533975125,2391
2963.5807626896617,2382
2965.3102534257378,2349
2967.0394259157715,2364
2968.768280469873,2356
2970.496817398232,2317
2972.2250370111146,2377
2973.952939618869,2431
2975.6805255319196,2341
2977.4077950607707,2362
2979.134748516006,2351
2980.861386208289,2384
2982.587708448359,2383
2984.313715547037,2384
2986.039407815222,2402
2987.764785563891,2448
2989.489849104102,2430
2991.2145987469908,2376
2992.9390348037705,2372
2994.6631575857346,2401
2996.3869674042576,2334
2998.1104645707887,2427
2999.83364939686,2406
3001.5565221940783,2375
3003.2790832741334,2390
3005.0013329487924,2371
3006.7232715298996,2417
3008.4448993293804,2327
3010.166216659239,2411
3011.887223831558,2388
3013.607921158498,2436
3015.3283089522993,2355
3017.0483875252826,2329
3018.7681571898443,2466
3020.4876182584626,2319
3022.2067710436927,2389
3023.9256158581707,2339
3025.644153014609,2363
3027.362382825801,2392
3029.0803056046193,2385
3030.797921664012,2441
3032.5152313170106,2396
3034.2322348767225,2385
3035.9489326563353,2415
3037.665324969115,2417
3039.3814121284063,2409
3041.097194447633,2405
3042.812672240299,2389
3044.5278458199855,2314
3046.2427155003525,2395
3047.9572815951406,2430
3049.671544418167,2337
3051.38550428333,2363
3053.0991615046073,2398
3054.812516396051,2357
3056.5255692717974,2386
3058.2383204460575,2385
3059.9507702331257,2404
3061.662918947372,2326
3063.3747669032446,2445
3065.0863144152736,2348
3066.7975617980674,2391
3068.508509366309,2398
3070.219157434767,2410
3071.9295063182844,2337
3073.639556331785,2343
3075.3493077902704,2389
3077.058761008821,2398
3078.7679163025964,2457
3080.476773986837,2421
3082.1853343768594,2498
3083.89359778806,2355
3085.6015645359153,2391
3087.3092349359786,2440
3089.016609303884,2400
3090.7236879553434,2392
3092.4304712061476,2362
3094.136959372166,2474
3095.843152769349,2408
3097.5490517137237,2363
3099.2546565213966,2427
3100.959967508554,2405
3102.66498499146,2321
3104.3697092864577,2418
3106.0741407099695,2468
3107.778279578498,2355
3109.482126208622,2449
3111.1856809170004,2458
3112.8889440203716,2421
3114.5919158355528,2436
3116.294596679439,2490
3117.996986869006,2505
3119.6990867213062,2367
3121.4008965534726,2439
3123.102416682717,2429
3124.803647426329,2450
3126.5045891016784,2467
3128.205242026213,2475
3129.90560651746,2475
3131.605682893025,2420
3133.3054714705922,2456
3135.0049725679282,2464
3136.7041865028714,2415
3138.4031135933465,2403
3140.101754157353,2454
3141.800108512971,2438
3143.498176978357,2484
3145.1959598717494,2421
3146.8934575114636,2473
3148.5906702158954,2480
3150.2875983035183,2448
3151.9842420928853,2359
3153.680601902627,2423
3155.376678051456,2405
3157.07247085816,2376
3158.767980641609,2415
3160.463207720748,2450
3162.158152414606,2407
3163.8528150422862,2383
3165.5471959229726,2434
3167.2412953759303,2481
3168.9351137204976,2416
3170.628651276098,2446
3172.3219083622307,2472
3174.014885298474,2467
3175.707582404485,2515
3177.4000000000005,2392
3179.092138404835,2525
3180.7839979388846,2437
3182.47557892212,2526
3184.166881674594,2501
3185.8579065164386,2506
3187.5486537678626,2415
3189.2391237491547,2446
3190.9293167806827,2442
3192.6192331828934,2454
3194.3088732763117,2480
3195.998237381542,2471
3197.687325819268,2411
3199.376138910251,2495
3201.064676975334,2489
3202.7529403354347,2424
3204.4409293115523,2453
3206.1286442247647,2558
3207.816085396229,2443
3209.5032531471825,2402
3211.190147798936,2385
3212.8767696728846,2464
3214.5631190905015,2432
3216.2491963733373,2432
3217.9350018430214,2368
3219.6205358212637,2448
3221.305798629851,2329
3222.990790590651,2415
3224.6755120256103,2433
3226.359963256751,2345
3228.0441446061795,2386
3229.7280563960758,2415
3231.411698948703,2445
3233.0950725863995,2385
3234.778177631587,2495
3236.461014406761,2395
3238.1435832345005,2506
3239.8258844374595,2505
3241.507918338374,2501
3243.1896852600576,2446
3244.8711855254023,2462
3246.552419457381,2524
3248.233387379042,2444
3249.914089613516,2439
3251.59452648401,2468
3253.274698313813,2453
3254.95460542629,2476
3256.6342481448855,2434
3258.313626793125,2432
3259.9927416946084,2480
3261.6715931730196,2401
3263.3501815521176,2419
3265.0285071557437,2348
3266.706570307815,2394
3268.3843713323286,2356
3270.0619105533615,2385
3271.739188295068,2383
3273.4162048816834,2477
3275.0929606375184,2495
3276.769455886966,2430
3278.445690954498,2443
3280.1216661646613,2514
3281.797381842087,2424
3283.4728383114807,2447
3285.1480358976296,2464
3286.8229749253996,2391
3288.4976557197333,2438
3290.172078605655,2450
3291.846243908266,2366
3293.5201519527463,2423
3295.193803064357,2423
3296.8671975684374,2405
3298.5403357904024,2414
3300.21321805575,2385
3301.8858446900567,2418
3303.558216018975,2471
3305.23033236824,2428
3306.9021940636603,2472
3308.57380143113,2421
3310.2451547966184,2539
3311.916254486174,2466
3313.5871008259246,2490
3315.2576941420766,2502
3316.9280347609147,2406
3318.5981230088046,2460
3320.2679592121895,2430
3321.9375436975924,2311
3323.606876791612,2358
3325.27595882093,2406
3326.944790112305,2434
3328.6133709925753,2506
3330.2817017886573,2554
3331.949782827547,2482
3333.617614436319,2447
3335.2851969421245,2430
3336.952530672199,2486
3338.619615953853,2463
3340.286453114475,2440
3341.9530424815357,2483
3343.619384382583,2467
3345.2854791452437,2494
3346.951327097224,2475
3348.6169285663073,2453
3350.2822838803577,2478
3351.947393367319,2495
3353.61225735521,2476
3355.2768761721345,2443
3356.9412501462693,2557
3358.605379605873,2465
3360.2692648792827,2495
3361.9329062949146,2535
3363.596304181263,2427
