CollectionTime,7/9/2024 4:48:06 PM
ExposureUsed,3
CalibratedSpectrum
-962.7078968117929,1359
-959.9714848408522,1397
-957.2358232597828,1468
-954.5009119013725,1453
-951.7667505983302,1372
-949.0333391832855,1402
-946.3006774887896,1433
-943.5687653473143,1440
-940.837602591253,1437
-938.1071890529199,1436
-935.3775245645503,1491
-932.6486089583007,1457
-929.9204420662485,1455
-927.1930237203925,1387
-924.4663537526524,1421
-921.7404319948689,1474
-919.0152582788041,1459
-916.2908324361409,1497
-913.5671542984834,1468
-910.8442236973568,1400
-908.1220404642074,1385
-905.4006044304027,1408
-902.679915427231,1453
-899.959973285902,1430
-897.2407778375464,1458
-894.5223289132158,1431
-891.8046263438832,1466
-889.0876699604426,1416
-886.3714595937089,1362
-883.6559950744183,1373
-880.9412762332282,1417
-878.2273029007168,1429
-875.5140749073835,1427
-872.8015920836489,1463
-870.0898542598545,1450
-867.3788612662631,1482
-864.6686129330585,1458
-861.9591090903457,1436
-859.2503495681506,1515
-856.5423341964203,1396
-853.8350628050229,1429
-851.1285352237478,1476
-848.4227512823054,1423
-845.7177108103272,1414
-843.0134136373656,1527
-840.3098595928943,1439
-837.6070485063082,1444
-834.9049802069229,1501
-832.2036545239757,1523
-829.5030712866244,1479
-826.8032303239481,1535
-824.1041314649472,1446
-821.4057745385428,1463
-818.7081593735775,1468
-816.0112857988148,1453
-813.3151536429393,1453
-810.6197627345566,1477
-807.9251129021936,1519
-805.2312039742981,1448
-802.5380357792392,1482
-799.8456081453069,1382
-797.1539209007124,1397
-794.462973873588,1463
-791.772766891987,1458
-789.083299783884,1498
-786.3945723771743,1515
-783.7065844996748,1481
-781.0193359791231,1426
-778.3328266431781,1501
-775.6470563194197,1491
-772.9620248353489,1455
-770.2777320183878,1449
-767.5941776958798,1481
-764.9113616950891,1388
-762.2292838432011,1432
-759.5479439673222,1488
-756.8673418944801,1433
-754.1874774516235,1457
-751.5083504656222,1472
-748.8299607632671,1469
-746.15230817127,1551
-743.475392516264,1446
-740.7992136248035,1412
-738.1237713233636,1499
-735.4490654383407,1372
-732.7750957960521,1498
-730.1018622227365,1440
-727.4293645445534,1494
-724.7576025875837,1471
-722.0865761778291,1449
-719.4162851412126,1443
-716.7467293035781,1485
-714.0779084906909,1486
-711.409822528237,1499
-708.7424712418238,1446
-706.0758544569796,1497
-703.4099719991541,1437
-700.7448236937178,1503
-698.0804093659622,1479
-695.4167288411002,1466
-692.7537819442656,1477
-690.0915685005134,1423
-687.4300883348199,1428
-684.7693412720819,1499
-682.1093271371178,1442
-679.4500457546669,1521
-676.7914969493897,1503
-674.1336805458676,1465
-671.4765963686034,1474
-668.8202442420206,1447
-666.1646239904642,1544
-663.5097354382001,1498
-660.8555784094151,1457
-658.2021527282176,1502
-655.5494582186366,1474
-652.8974947046223,1496
-650.2462620100463,1491
-647.5957599587009,1497
-644.9459883742998,1539
-642.2969470804776,1541
-639.6486359007902,1507
-637.0010546587141,1508
-634.3542031776476,1507
-631.7080812809096,1511
-629.0626887917401,1418
-626.4180255333008,1522
-623.7740913286734,1487
-621.1308860008619,1467
-618.4884093727904,1495
-615.8466612673046,1461
-613.2056415071715,1541
-610.5653499150785,1547
-607.9257863136347,1523
-605.28695052537,1515
-602.6488423727357,1521
-600.0114616781036,1459
-597.3748082637674,1444
-594.7388819519412,1453
-592.1036825647604,1563
-589.4692099242818,1486
-586.8354638524829,1553
-584.2024441712624,1551
-581.5701507024403,1512
-578.9385832677575,1464
-576.3077416888759,1539
-573.6776257873787,1473
-571.0482353847704,1504
-568.4195703024757,1516
-565.7916303618415,1579
-563.164415384135,1540
-560.5379251905453,1522
-557.9121596021815,1497
-555.2871184400748,1505
-552.6628015251767,1520
-550.0392086783606,1515
-547.4163397204204,1499
-544.794194472071,1545
-542.1727727539491,1503
-539.5520743866118,1500
-536.9320991905377,1580
-534.3128469861261,1579
-531.6943175936979,1635
-529.0765108334947,1650
-526.4594265256793,1648
-523.8430644903358,1763
-521.2274245474689,1798
-518.612506517005,1788
-515.9983102187913,1793
-513.3848354725959,1910
-510.77208209810846,1893
-508.16004991493924,1969
-505.5487387426199,2224
-502.9381484006032,2330
-500.3282787082628,2169
-497.71912948489364,2141
-495.1107005497117,1982
-492.5029917218539,1926
-489.8960028203786,1803
-487.28973366426493,1821
-484.68418407241325,1671
-482.07935386364494,1700
-479.47524285670266,1633
-476.87185087025,1608
-474.2691777228715,1644
-471.66722323307334,1690
-469.0659872192821,1591
-466.4654694998459,1665
-463.86566989303384,1623
-461.26658821703614,1554
-458.66822428996414,1641
-456.07057792985,1566
-453.4736489546475,1650
-450.877437182231,1628
-448.28194243039627,1581
-445.68716451686,1651
-443.09310325926003,1620
-440.49975847515555,1620
-437.9071299820263,1532
-435.31521759727354,1556
-432.72402113821954,1666
-430.13354042210767,1532
-427.5437752661022,1606
-424.95472548728867,1613
-422.36639090267386,1578
-419.7787713291855,1621
-417.1918665836721,1689
-414.60567648290385,1642
-412.0202008435715,1621
-409.4354394822874,1645
-406.8513922155845,1677
-404.26805885991723,1698
-401.685439231661,1712
-399.103533147112,1628
-396.522340422488,1696
-393.9418608739278,1627
-391.3620943174908,1618
-388.7830405691583,1503
-386.2046994448317,1490
-383.6270707603344,1409
-381.05015433141045,1347
-378.473949973725,1264
-375.8984575028645,1157
-373.32367673433623,1054
-370.74960748356875,933
-368.1762495659117,821
-365.60360279663576,760
-363.03166699093265,621
-360.4604419639154,587
-357.8899275306178,540
-355.32012350599507,514
-352.7510297049233,506
-350.1826459421999,479
-347.61497203254316,469
-345.04800779059235,455
-342.4817530309082,438
-339.91620756797226,452
-337.35137121618743,465
-334.7872437898774,469
-332.22382510328725,438
-329.66111497058273,449
-327.09911320585127,474
-324.53781962310075,484
-321.9772340362607,515
-319.4173562591816,453
-316.8581861056348,431
-314.2997233893127,444
-311.7419679238294,455
-309.1849195227194,459
-306.62857799943856,467
-304.0729431673641,497
-301.51801483979375,506
-298.963792829947,497
-296.41027695096386,519
-293.85746701590574,484
-291.3053628377552,500
-288.7539642294155,515
-286.2032710037115,516
-283.65328297338897,517
-281.1039999511146,507
-278.5554217494762,503
-276.007548180983,508
-273.4603790580651,507
-270.9139141930734,494
-268.3681533982807,513
-265.8230964858798,532
-263.27874326798565,542
-260.7350935566336,562
-258.1921471637804,560
-255.6499039013039,516
-253.10836358100266,568
-250.56752601459698,563
-248.02739101372765,549
-245.48795838995704,598
-242.94922795476816,567
-240.41119951956557,576
-237.8738728956746,607
-235.33724789434166,643
-232.80132432673452,569
-230.2661020039418,559
-227.73158073697357,586
-225.19776033676033,624
-222.66464061415422,623
-220.1322213799284,603
-217.60050244477725,572
-215.06948361931552,573
-212.53916471408013,608
-210.00954553952818,651
-207.48062590603843,600
-204.9524056239104,650
-202.4248845033651,673
-199.8980623545441,694
-197.37193898751036,658
-194.84651421224817,642
-192.32178783866232,721
-189.79775967657952,696
-187.27442953574644,728
-184.7517972258321,695
-182.2298625564256,760
-179.7086253370378,699
-177.18808537710026,643
-174.66824248596583,706
-172.14909647290835,757
-169.6306471471229,794
-167.11289431772548,771
-164.59583779375328,732
-162.07947738416453,712
-159.5638128978386,753
-157.04884414357605,910
-154.53457093009854,985
-152.02099306604828,929
-149.50811035998936,788
-146.99592262040665,731
-144.48442965570587,746
-141.97363127421409,749
-139.46352728417958,864
-136.95411749377126,1010
-134.44540171107985,967
-131.93737974411636,825
-129.43005140081357,822
-126.92341648902493,1171
-124.41747481652521,1241
-121.91222619101006,1321
-119.40767042009657,1485
-116.90380731132257,1795
-114.40063667214702,1790
-111.8981583099503,1514
-109.3963720320337,1208
-106.89527764561933,1311
-104.39487495785067,1381
-101.89516377579241,1683
-99.39614390642998,1932
-96.89781515667039,2366
-94.40017733334128,2177
-91.90323024319173,1845
-89.40697369289148,1801
-86.91140748903172,2371
-84.41653143812482,3141
-81.92234534660395,3030
-79.42884902082358,3077
-76.93604226705907,4855
-74.4439248915071,8575
-71.95249670028534,11885
-69.46175749943245,13262
-66.97170709490854,13402
-64.48234529259423,11718
-61.99367189829195,9513
-59.50568671772464,7481
-57.01838955653636,6899
-54.53178022029283,6918
-52.045858514480074,7377
-49.560624244506016,8591
-47.07607721569923,9439
-44.59221723330904,9005
-42.10904410250669,8344
-39.62655762838392,7172
-37.14475761595372,6797
-34.66364387015028,6964
-32.18321619582866,7643
-29.70347439776515,9327
-27.224418280657005,9257
-24.74604764912317,9015
-22.26836230770266,12636
-19.7913620608565,22178
-17.315046712966478,38673
-14.83941606833514,54716
-12.36446993118659,65038
-9.89020810566592,65038
-7.416630395839093,65038
-4.94373660569363,65038
-2.471526539137585,65038
-6.821210263296962E-13,65038
2.47084320796705,65038
4.941003281093458,65038
7.410480415786196,65038
9.879274808531363,65038
12.347386655893956,65038
14.814816154518212,65038
17.28156350112681,65038
19.74762889252179,65038
22.21301252558385,65038
24.67771459727237,18207
27.141735304626195,3222
29.605074844762612,1870
32.06773341487792,1589
34.52971121224755,1517
36.99100843422559,1472
39.45162527824516,1456
41.91156194181792,1481
44.370818622535126,1273
46.82939551806646,1137
49.287292826160524,1305
51.74451074464503,1311
54.201049471426245,1095
56.65690920448981,971
59.112090141899785,1007
61.56659248179983,960
64.02041642241159,837
66.4735621620365,786
68.92602989905402,895
71.37781983192338,893
73.82893215918205,984
76.27936707944684,1037
78.72912479141326,1048
81.17820549385567,1103
83.62660938562783,1110
86.07433666566146,942
88.5213875329681,821
90.96776218663751,928
93.41346082583925,890
95.85848364982041,799
98.30283085790859,919
100.7465026495089,896
103.18949922410604,864
105.63182078126385,853
108.07346752062438,956
110.51443964190923,923
112.95473734491827,843
115.39436082953114,830
117.83331029570547,876
120.27158594347827,847
122.7091879729652,831
125.1461165843615,982
127.58237197794062,877
130.01795435405518,836
132.4528639131364,826
134.88710085569494,812
137.32066538231982,773
139.75355769367923,739
142.1857779905207,744
144.61732647366978,759
147.04820334403132,763
149.47840880258934,801
151.90794305040674,823
154.33680628862487,921
156.76499871846443,1107
159.19252054122433,1204
161.61937195828352,1318
164.04555317109896,1551
166.47106438120693,1709
168.89590579022217,1895
171.320077599839,2059
173.7435800118302,1869
176.16641322804742,2058
178.58857745042144,2285
181.01007288096173,2283
183.43089972175687,2375
185.85105817497413,2473
188.27054844285988,2480
190.6893707277394,2593
193.10752523201643,2654
195.5250121581745,2713
197.9418317087751,2732
200.3579840864594,2776
202.7734694939469,2931
205.18828813403627,2827
207.6024402096051,2931
210.01592592360964,2994
212.42874547908548,3035
214.84089907914665,3089
217.2523869269868,2938
219.66320922587727,2983
222.0733661791695,3021
224.48285799029293,2972
226.8916848627572,3019
229.29984700014882,3094
231.7073446061355,3052
234.11417788446204,3039
236.520347038953,3020
238.92585227351185,3036
241.33069379212054,3031
243.73487179884035,3088
246.1383864978112,3117
248.541238093252,3090
250.9434267894609,3025
253.34495279081432,3136
255.74581630176783,3092
258.1460175268563,3106
260.54555667069314,3118
262.9444339379703,3077
265.3426495334594,3137
267.7402036620107,3202
270.1370965285529,3069
272.53332833809407,3081
274.9288992957214,3029
277.32380960660055,3066
279.718059475976,3041
282.1116491091717,3027
284.5045787115897,3045
286.89684848871195,3093
289.2884586460981,2988
291.67940938938807,3126
294.0697009242996,3065
296.4593334566299,3102
298.84830719225477,3020
301.23662233712923,2981
303.6242790972866,3005
306.01127767884,3004
308.39761828798066,3062
310.78330113097934,2954
313.16832641418534,3002
315.5526943440269,2934
317.9364051270112,2935
320.3194589697242,3000
322.70185607883093,2987
325.0835966610754,2909
327.4646809232805,2820
329.8451090723478,2884
332.2248813152577,2867
334.6039978590701,2822
336.9824589109231,2866
339.36026467803447,2919
341.7374153677,2859
344.113911187295,2807
346.48975234427337,2778
348.8649390461686,2836
351.2394715005918,2887
353.61334991523415,2899
355.9865744978655,2824
358.35914545633375,2872
360.73106299856715,2769
363.10232733257146,2865
365.47293866643247,2831
367.84289720831396,2828
370.2122031664593,2792
372.5808567491905,2858
374.9488581649083,2854
377.31620762209275,2824
379.6829053293021,2817
382.0489514951745,2747
384.4143463284262,2724
386.7790900378528,2806
389.14318283232853,2730
391.50662492080653,2844
393.86941651231916,2842
396.23155781597745,2856
398.5930490409713,2785
400.9538903965696,2821
403.3140820921202,2784
405.6736243370498,2795
408.03251734086336,2667
410.3907613131465,2757
412.74835646356166,2762
415.10530300185144,2690
417.4616011378372,2785
419.81725108141893,2715
422.1722530425758,2768
424.5266072313656,2789
426.880313857925,2713
429.2333731324701,2676
431.58578526529516,2842
433.9375504667738,2759
436.2886689473588,2744
438.63914091758113,2807
440.9889665880513,2760
443.33814616945835,2699
445.68667987257015,2757
448.03456790823395,2758
450.3818104873759,2741
452.72840782100013,2736
455.07436012019105,2823
457.41966759611057,2770
459.7643304600007,2720
462.10834892318155,2781
464.4517231970525,2790
466.79445349309174,2760
469.1365400228566,2797
471.4779829979826,2819
473.81878263018564,2901
476.15893913125876,2747
478.4984527130747,2887
480.8373235875855,2863
483.17555196682144,2927
485.5131380628919,2911
487.8500820879857,3006
490.1863842543697,3156
492.52204477439034,3207
494.8570638604725,3379
497.1914417251204,3659
499.52517858091653,3950
501.85827464052306,4242
504.19073011668036,4377
506.5225452222086,4448
508.85372017000566,4320
511.18425517304956,4278
513.514150444396,4488
515.8434061971808,5027
518.1720226446176,5966
520.4999999999999,6185
522.8273384766991,5842
525.1540382881666,5229
527.480099647932,4753
529.8055227696037,4143
532.1303078668694,3562
534.454455153496,3295
536.777964843328,3138
539.1008371502907,3122
541.4230722883866,3131
543.744670471698,3152
546.0656319143858,3090
548.3859568306899,3067
550.7056454349294,3026
553.0246979415016,3013
555.3431145648834,3031
557.6608955196306,2977
559.978041020377,2989
562.2945512818363,2992
564.6104265188006,2940
566.9256669461412,3000
569.2402727788082,3007
571.5542442318302,3074
573.8675815203156,3039
576.1802848594508,3141
578.4923544645015,3114
580.8037905508126,3114
583.114593333807,3069
585.4247630289875,3107
587.7342998519354,3087
590.0432040183106,3119
592.3514757438526,3188
594.6591152443794,3206
596.9661227357875,3169
599.2724984340531,3128
601.578242555231,3029
603.8833553154542,3099
606.1878369309362,3106
608.4916876179676,3159
610.7949075929192,3126
613.0974970722403,3052
615.3994562724587,3100
617.7007854101818,3008
620.0014847020951,3114
622.3015543649641,3110
624.6009946156324,3064
626.8998056710224,3146
629.1979877481361,3080
631.4955410640538,3156
633.7924658359349,3068
636.0887622810175,3118
638.3844306166192,3148
640.6794710601358,3181
642.9738838290426,3095
645.2676691408932,3222
647.5608272133207,3087
649.853358264037,3212
652.1452625108324,3166
654.4365401715764,3262
656.7271914642178,3266
659.0172166067838,3233
661.3066158173809,3239
663.5953893141935,3265
665.8835373154867,3323
668.1710600396028,3328
670.4579577049639,3272
672.7442305300709,3256
675.0298787335033,3375
677.3149025339197,3313
679.599302150058,3212
681.8830778007342,3310
684.1662297048437,3284
686.4487580813608,3343
688.7306631493387,3302
691.0119451279091,3250
693.2926042362834,3246
695.5726406937516,3274
697.8520547196814,3308
700.1308465335215,3306
702.4090163547982,3291
704.6865644031171,3256
706.9634908981619,3277
709.2397960596965,3359
711.5154801075631,3330
713.7905432616823,3290
716.0649857420548,3315
718.3388077687592,3369
720.612009561953,3267
722.8845913418733,3361
725.1565533288352,3360
727.427895743234,3364
729.6986188055427,3287
731.9687227363137,3469
734.238207756178,3374
736.5070740858458,3424
738.7753219461066,3387
741.0429515578281,3456
743.3099631419569,3359
745.5763569195191,3421
747.8421331116193,3370
750.1072919394409,3411
752.3718336242467,3547
754.6357583873777,3446
756.8990664502545,3397
759.1617580343765,3439
761.423833361321,3370
763.6852926527457,3446
765.9461361303862,3475
768.206364016058,3479
770.4659765316536,3535
772.7249738991469,3508
774.9833563405886,3516
777.2411240781092,3527
779.4982773339183,3511
781.7548163303044,3558
784.010741289634,3413
786.2660524343538,3560
788.5207499869881,3505
790.7748341701416,3564
793.0283052064964,3524
795.2811633188143,3491
797.5334087299362,3533
799.7850416627813,3573
802.0360623403484,3584
804.2864709857143,3582
806.5362678220353,3488
808.7854530725468,3590
811.0340269605625,3499
813.2819897094754,3570
815.5293415427581,3489
817.77608268396,3588
820.0222133567116,3487
822.2677337847211,3637
824.5126441917765,3596
826.7569448017433,3591
829.0006358385675,3722
831.2437175262731,3665
833.4861900889629,3606
835.7280537508192,3610
837.9693087361026,3621
840.2099552691533,3510
842.4499935743896,3537
844.689423876309,3623
846.9282463994886,3618
849.1664613685833,3627
851.4040690083276,3603
853.6410695435349,3582
855.877463199097,3603
858.1132501999847,3647
860.3484307712487,3588
862.5830051380175,3713
864.8169735254988,3661
867.0503361589791,3686
869.2830932638243,3648
871.5152450654786,3679
873.7467917894654,3714
875.9777336613873,3720
878.2080709069252,3655
880.4378037518389,3725
882.666932421968,3750
884.8954571432301,3834
887.1233781416219,3797
889.3506956432192,3833
891.5774098741766,3780
893.803521060728,3761
896.0290294291852,3647
898.2539352059397,3800
900.4782386174619,3822
902.7019398903011,3746
904.925039251085,3747
907.147536926521,3801
909.3694331433943,3791
911.59072812857,3753
913.8114221089921,3751
916.0315153116827,3722
918.2510079637437,3813
920.4699002923547,3805
922.6881925247761,3752
924.905884888345,3857
927.1229776104793,3792
929.3394709186747,3831
931.555365040506,3797
933.7706602036275,3794
935.9853566357709,3831
938.1994545647489,3792
940.4129542184515,3740
942.6258558248488,3756
944.8381596119883,3868
947.0498658079974,3763
949.2609746410825,3783
951.4714863395287,3705
953.6814011316998,3753
955.8907192460387,3804
958.0994409110671,3738
960.3075663553858,3860
962.5150958076741,3750
964.7220294966913,3755
966.928367651274,3817
969.1341105003388,3891
971.3392582728806,3835
973.5438111979742,3736
975.747769504772,3890
977.9511334225061,3860
980.153903180487,3772
982.3560790081052,3822
984.5576611348289,3830
986.7586497902058,3859
988.9590452038618,3770
991.158847605503,3933
993.3580572249133,3845
995.5566742919558,3823
997.7546990365728,3675
999.952131688785,3726
1002.1489724786926,3712
1004.3452216364743,3662
1006.5408793923874,3657
1008.7359459767691,3645
1010.9304216200343,3755
1013.1243065526781,3668
1015.3176010052733,3798
1017.510305208472,3711
1019.7024193930064,3523
1021.8939437896848,3573
1024.0848786293977,3785
1026.2752241431122,3747
1028.4649805618747,3620
1030.6541481168115,3592
1032.842727039127,3637
1035.0307175601051,3593
1037.2181199111074,3677
1039.4049343235752,3644
1041.591161029029,3663
1043.7768002590683,3665
1045.9618522453698,3807
1048.1463172196918,3684
1050.3301954138697,3708
1052.513487059818,3723
1054.69619238953,3802
1056.8783116350783,3660
1059.0598450286152,3822
1061.2407928023704,3673
1063.4211551886528,3733
1065.6009324198508,3750
1067.780124728432,3648
1069.9587323469414,3632
1072.1367555080046,3667
1074.314194444325,3681
1076.4910493886855,3738
1078.667320573947,3710
1080.843008233051,3770
1083.0181125990161,3830
1085.1926339049414,3727
1087.3665723840027,3736
1089.5399282694575,3731
1091.7127017946405,3695
1093.8848931929647,3701
1096.0565026979243,3824
1098.2275305430899,3744
1100.3979769621128,3767
1102.567842188722,3723
1104.737126456726,3619
1106.9058300000124,3847
1109.0739530525475,3726
1111.2414958483764,3751
1113.4084586216231,3630
1115.5748416064907,3769
1117.7406450372605,3707
1119.9058691482942,3729
1122.0705141740304,3795
1124.2345803489884,3720
1126.3980679077658,3750
1128.5609770850388,3821
1130.7233081155623,3825
1132.8850612341707,3762
1135.0462366757774,3711
1137.2068346753745,3847
1139.3668554680326,3873
1141.526299288901,3826
1143.68516637321,3830
1145.8434569562655,3951
1148.001171273455,3913
1150.158309560244,3757
1152.3148720521767,3771
1154.470858984876,3795
1156.626270594044,3809
1158.7811071154629,3807
1160.9353687849912,3812
1163.089055838569,3762
1165.242168512213,3769
1167.3947070420209,3888
1169.5466716641677,3831
1171.6980626149075,3852
1173.8488801305748,3810
1175.9991244475814,3823
1178.1487958024186,3744
1180.2978944316555,3843
1182.4464205719428,3905
1184.5943744600072,3795
1186.7417563326567,3749
1188.8885664267755,3797
1191.0348049793297,3683
1193.1804722273619,3746
1195.325568407995,3868
1197.4700937584303,3834
1199.614048515948,3836
1201.7574329179074,3923
1203.900247201746,3822
1206.042491604982,3870
1208.1841663652099,3941
1210.3252717201053,3820
1212.465807907422,3986
1214.6057751649923,3914
1216.7451737307279,3890
1218.8840038426192,3965
1221.0222657387353,3971
1223.1599596572241,3928
1225.2970858363137,3939
1227.4336445143094,3865
1229.5696359295966,3890
1231.705060320639,4064
1233.8399179259786,3987
1235.9742089842384,3952
1238.107933734118,3930
1240.2410924143974,3983
1242.373685263935,4028
1244.5057125216676,3913
1246.6371744266116,4012
1248.7680712178621,3937
1250.898403134593,3903
1253.028170416058,3950
1255.1573733015875,3964
1257.2860120305932,4018
1259.4140868425648,3929
1261.54159797707,3924
1263.6685456737569,4040
1265.7949301723515,3932
1267.9207517126597,3948
1270.046010534565,4026
1272.1707068780306,4024
1274.2948409830983,4053
1276.4184130898889,4053
1278.541423438603,3989
1280.6638722695184,4026
1282.785759822993,4144
1284.9070863394636,4091
1287.0278520594447,4032
1289.1480572235314,4161
1291.2677020723963,4121
1293.3867868467923,4159
1295.5053117875495,4101
1297.623277135579,4108
1299.740683131868,4131
1301.8575300174857,4150
1303.973818033578,4089
1306.0895474213703,4142
1308.2047184221678,4145
1310.3193312773528,4191
1312.4333862283888,4137
1314.5468835168163,4133
1316.659823384255,4192
1318.7722060724045,4250
1320.8840318230418,4216
1322.9953008780249,4170
1325.1060134792888,4212
1327.2161698688478,4231
1329.3257702887959,4209
1331.4348149813054,4165
1333.5433041886276,4271
1335.6512381530933,4176
1337.7586171171101,4337
1339.8654413231675,4196
1341.9717110138317,4154
1344.0774264317488,4152
1346.1825878196432,4178
1348.2871954203192,4135
1350.3912494766587,4260
1352.4947502316231,4198
1354.5976979282532,4119
1356.7000928096686,4195
1358.8019351190665,4325
1360.9032250997243,4116
1363.0039629949988,4110
1365.1041490483235,4052
1367.2037835032133,4098
1369.3028666032606,4223
1371.401398592137,4251
1373.4993797135926,4155
1375.5968102114575,4199
1377.6936903296396,4235
1379.7900203121262,4171
1381.8858004029835,4361
1383.9810308463561,4240
1386.075711886469,4101
1388.1698437676241,4171
1390.2634267342032,4291
1392.356461030667,4259
1394.4489469015557,4329
1396.5408845914872,4250
1398.6322743451592,4344
1400.7231164073469,4240
1402.813411022907,4263
1404.903158436773,4356
1406.9923588939578,4263
1409.0810126395531,4390
1411.1691199187303,4310
1413.2566809767386,4311
1415.343696058907,4234
1417.4301654106425,4283
1419.5160892774315,4267
1421.6014679048399,4332
1423.6863015385125,4230
1425.7705904241707,4210
1427.8543348076178,4205
1429.9375349347342,4349
1432.0201910514802,4315
1434.102303403894,4320
1436.1838722380944,4240
1438.2648978002767,4289
1440.3453803367174,4288
1442.4253200937692,4281
1444.5047173178677,4287
1446.5835722555234,4356
1448.6618851533285,4348
1450.739656257952,4367
1452.8168858161434,4457
1454.8935740747306,4351
1456.96972128062,4484
1459.045327680797,4495
1461.120393522327,4524
1463.1949190523528,4435
1465.2689045180973,4425
1467.3423501668608,4532
1469.415256246024,4542
1471.4876230030463,4455
1473.559450685465,4548
1475.6307395408976,4442
1477.7014898170391,4428
1479.771701761665,4612
1481.8413756226287,4475
1483.9105116478618,4489
1485.9791100853772,4646
1488.0471711832643,4590
1490.1146951896926,4551
1492.1816823529098,4515
1494.2481329212433,4649
1496.3140471430984,4620
1498.3794252669609,4725
1500.4442675413939,4628
1502.5085742150404,4713
1504.572345536622,4782
1506.6355817549388,4745
1508.6982831188702,4636
1510.7604498773744,4670
1512.8220822794883,4664
1514.8831805743293,4597
1516.9437450110909,4726
1519.003775839048,4725
1521.0632733075522,4734
1523.1222376660367,4642
1525.1806691640113,4770
1527.2385680510652,4769
1529.2959345768668,4803
1531.3527689911643,4822
1533.4090715437833,4764
1535.4648424846291,4822
1537.5200820636855,4865
1539.5747905310159,4937
1541.6289681367616,4733
1543.6826151311434,4840
1545.7357317644614,4912
1547.7883182870937,4893
1549.8403749494987,4871
1551.8919020022113,4901
1553.9428996958477,5043
1555.9933682811015,4937
1558.0433080087469,5036
1560.0927191296346,5066
1562.1416018946961,5109
1564.1899565549415,5068
1566.2377833614592,4991
1568.2850825654164,5142
1570.3318544180606,5115
1572.3780991707158,5077
1574.423817074788,5034
1576.4690083817595,4965
1578.5136733431923,4916
1580.5578122107272,4889
1582.601425236085,4881
1584.6445126710646,4804
1586.6870747675434,4632
1588.7291117774776,4720
1590.7706239529034,4779
1592.8116115459347,4695
1594.8520748087658,4615
1596.8920139936686,4688
1598.9314293529933,4570
1600.9703211391711,4611
1603.008689604711,4502
1605.0465350022005,4475
1607.0838575843068,4483
1609.1206576037753,4476
1611.1569353134305,4524
1613.1926909661765,4506
1615.2279248149953,4423
1617.2626371129481,4471
1619.2968281131757,4482
1621.3304980688963,4362
1623.3636472334088,4369
1625.39627586009,4385
1627.428384202396,4417
1629.459972513861,4370
1631.4910410480993,4464
1633.5215900588028,4280
1635.551619799744,4381
1637.5811305247717,4362
1639.6101224878166,4317
1641.6385959428862,4392
1643.6665511440683,4262
1645.693988345528,4407
1647.7209078015112,4291
1649.7473097663405,4311
1651.7731944944203,4247
1653.7985622402307,4443
1655.823413258333,4386
1657.847747803366,4210
1659.8715661300494,4239
1661.8948684931793,4261
1663.9176551476316,4237
1665.9399263483624,4205
1667.9616823504057,4212
1669.982923408873,4192
1672.0036497789574,4349
1674.0238617159293,4262
1676.043559475138,4207
1678.0627433120121,4286
1680.081413482059,4191
1682.0995702408654,4166
1684.117213844096,4268
1686.134344547495,4273
1688.1509626068864,4355
1690.1670682781705,4329
1692.182661817329,4315
1694.1977434804217,4248
1696.2123135235875,4244
1698.226372203043,4246
1700.2399197750851,4310
1702.2529564960905,4237
1704.2654826225112,4195
1706.277498410882,4253
1708.2890041178139,4310
1710.2999999999988,4287
1712.3104863142066,4217
1714.3204633172854,4322
1716.329931266163,4236
1718.3388904178469,4225
1720.3473410294214,4174
1722.3552833580516,4223
1724.3627176609807,4197
1726.3696441955308,4273
1728.3760632191033,4116
1730.3819749891782,4125
1732.3873797633146,4227
1734.3922777991502,4140
1736.3966693544012,4317
1738.4005546868639,4241
1740.4039340544127,4165
1742.406807715001,4251
1744.4091759266616,4136
1746.4110389475054,4152
1748.4123970357223,4152
1750.413250449582,4196
1752.4135994474318,4029
1754.4134442876993,4167
1756.4127852288902,4101
1758.4116225295893,4166
1760.4099564484595,4166
1762.407787244244,4154
1764.405115175764,4237
1766.4019405019203,4185
1768.3982634816916,4146
1770.3940843741357,4126
1772.3894034383907,4154
1774.3842209336717,4119
1776.378537119274,4096
1778.372352254571,4111
1780.3656665990156,4109
1782.3584804121397,4065
1784.3507939535534,4078
1786.3426074829463,4076
1788.3339212600863,4122
1790.3247355448211,4018
1792.3150505970766,4102
1794.3048666768573,4090
1796.2941840442477,4145
1798.2830029594106,4132
1800.2713236825884,4127
1802.2591464741004,4173
1804.2464715943465,4187
1806.2332993038058,4155
1808.2196298630352,4232
1810.2054635326708,4197
1812.190800573428,4256
1814.175641246101,4158
1816.1599858115628,4236
1818.1438345307652,4186
1820.127187664738,4143
1822.1100454745924,4145
1824.092408221516,4133
1826.0742761667766,4188
1828.055649571721,4131
1830.0365286977735,4176
1832.0169138064398,4234
1833.9968051593014,4171
1835.9762030180214,4141
1837.9551076443408,4163
1839.9335193000788,4179
1841.9114382471344,4185
1843.888864747485,4007
1845.8657990631878,4107
1847.842241456378,4045
1849.8181921892697,4070
1851.7936515241558,4195
1853.7686197234098,4010
1855.7430970494815,4121
1857.7170837649014,4125
1859.6905801322787,4086
1861.6635864143004,4126
1863.6361028737338,4018
1865.608129773424,4081
1867.5796673762961,4074
1869.5507159453537,4142
1871.521275743678,4134
1873.4913470344313,4127
1875.4609300808534,4098
1877.4300251462632,4187
1879.3986324940588,4131
1881.366752387717,4092
1883.3343850907936,4111
1885.3015308669228,4111
1887.268189979819,4227
1889.2343626932739,4073
1891.2000492711595,4073
1893.1652499774254,4149
1895.1299650761011,4055
1897.0941948312952,4225
1899.0579395071945,4230
1901.0211993680641,4170
1902.98397467825,4181
1904.9462657021745,4224
1906.9080727043415,4240
1908.869395949332,4102
1910.8302357018065,4100
1912.790592226504,4170
1914.7504657882428,4285
1916.7098566519212,4074
1918.6687650825133,4094
1920.6271913450764,4085
1922.5851357047422,4164
1924.5425984267245,4065
1926.499579776314,4074
1928.4560800188833,4041
1930.4120994198802,4089
1932.367638244833,4051
1934.32269675935,4123
1936.2772752291175,4082
1938.231373919899,4100
1940.1849930975404,4188
1942.1381330279637,4160
1944.0907939771696,4158
1946.0429762112412,4103
1947.9946799963363,4107
1949.9459055986945,4065
1951.896653284633,4031
1953.8469233205478,4040
1955.7967159729142,4036
1957.7460315082863,4052
1959.6948701932974,4141
1961.6432322946594,4195
1963.5911180791632,4048
1965.5385278136787,4140
1967.4854617651545,4154
1969.4319202006182,3999
1971.377903387176,4015
1973.3234115920136,4125
1975.268445082395,4079
1977.2130041256642,4122
1979.1570889892423,4114
1981.1006999406304,3924
1983.04383724741,4007
1984.986501177238,4267
1986.928691997853,4056
1988.8704099770712,4029
1990.811655382789,4035
1992.7524284829801,4035
1994.692729545698,4075
1996.6325588390755,4155
1998.5719166313224,4112
2000.5108031907307,4122
2002.4492187856677,4027
2004.387163684583,4045
2006.3246381560011,4062
2008.2616424685298,4062
2010.1981768908527,4124
2012.1342416917332,3917
2014.069837140014,3928
2016.0049635046162,4063
2017.9396210545406,3925
2019.8738100588666,4093
2021.8075307867502,4054
2023.740783507431,4002
2025.6735684902228,3972
2027.6058860045214,4070
2029.5377363198004,3951
2031.4691197056118,4010
2033.4000364315875,4027
2035.3304867674374,3980
2037.260470982952,4004
2039.189989347998,4074
2041.1190421325232,4091
2043.047629606554,3909
2044.9757520401945,4015
2046.9034097036288,3926
2048.8306028671195,3972
2050.7573318010086,4111
2052.683596775716,3903
2054.609398061742,4050
2056.5347359296647,4088
2058.4596106501403,4033
2060.384022493906,3954
2062.3079717317764,3987
2064.231458634646,3966
2066.1544834734873,3998
2068.077046519352,3936
2069.99914804337,3986
2071.9207883167524,4036
2073.8419676107865,4030
2075.7626861968406,3923
2077.6829443463607,4011
2079.6027423308715,4043
2081.522080421977,3963
2083.440958891362,4064
2085.359378010786,3996
2087.2773380520907,3986
2089.194839287196,3998
2091.111881988101,3944
2093.0284664268825,4008
2094.9445928756973,3990
2096.86026160678,3971
2098.775472892446,4044
2100.690227005088,3960
2102.604524217178,3976
2104.5183648012676,3947
2106.431749029985,4078
2108.34467717604,3993
2110.2571495122206,3973
2112.169166311393,3962
2114.080727846503,3956
2115.9918343905747,4029
2117.902486216711,3936
2119.8126835980956,4010
2121.722426807987,4014
2123.6317161197285,3929
2125.5405518067364,4031
2127.448934142509,4001
2129.356863400624,4018
2131.264339854737,3966
2133.1713637785815,3925
2135.077935445972,4018
2136.9840551308002,4047
2138.889723107037,3991
2140.7949396487334,3972
2142.699705030018,3872
2144.6040195250994,4033
2146.507883408264,4001
2148.4112969538774,4049
2150.3142604363848,4007
2152.2167741303097,4010
2154.1188383102535,3997
2156.0204532508997,3970
2157.9216192270064,3937
2159.822336513414,3900
2161.7226053850413,3939
2163.622426116884,3857
2165.5217989840185,3997
2167.4207242616,3962
2169.319202224862,4025
2171.2172331491165,3996
2173.1148173097563,3955
2175.0119549822507,3962
2176.90864644215,3974
2178.8048919650823,3844
2180.7006918267534,3985
2182.596046302952,4001
2184.4909556695407,3935
2186.3854202024645,4030
2188.279440177746,3872
2190.173015871487,3909
2192.066147559868,3945
2193.958835519149,3814
2195.851080025667,3876
2197.7428813558417,3804
2199.6342397861667,3906
2201.5251555932186,3985
2203.415629053651,3914
2205.3056604441986,3864
2207.19525004167,3945
2209.084398122958,4027
2210.9731049650327,3942
2212.861370844941,3962
2214.749196039812,3901
2216.636580826851,4033
2218.523525483344,3977
2220.410030286655,3973
2222.296095514226,3981
2224.1817214435805,3944
2226.066908352319,3987
2227.951656518121,3910
2229.835966218746,3974
2231.71983773203,3869
2233.6032713358913,3962
2235.486267308324,3919
2237.3688259274036,3961
2239.2509474712824,3867
2241.132632218193,3858
2243.013880446447,3915
2244.8946924344323,3770
2246.7750684606203,3842
2248.6550088035574,3844
2250.534513741871,3851
2252.413583554265,3813
2254.292218519526,3868
2256.170418916517,3755
2258.0481850241786,3770
2259.925517121534,3791
2261.8024154876825,3815
2263.678880401803,3763
2265.5549121431536,3650
2267.430510991071,3775
2269.305677224971,3599
2271.180411124348,3862
2273.0547129687766,3661
2274.9285830379076,3776
2276.8020216114737,3723
2278.6750289692845,3676
2280.5476053912294,3694
2282.4197511572766,3710
2284.2914665474727,3792
2286.162751841943,3723
2288.0336073208937,3736
2289.904033264608,3850
2291.774029953448,3747
2293.6435976678554,3682
2295.5127366883517,3632
2297.381447295534,3618
2299.2497297700825,3625
2301.1175843927526,3658
2302.9850114443825,3561
2304.852011205885,3600
2306.7185839582553,3516
2308.5847299825664,3430
2310.4504495599676,3569
2312.3157429716925,3475
2314.1806104990483,3455
2316.0450524234247,3541
2317.9090690262888,3494
2319.772660589186,3454
2321.635827393742,3438
2323.498569721661,3466
2325.3608878547248,3469
2327.2227820747967,3498
2329.0842526638157,3462
2330.945299903803,3377
2332.805924076857,3364
2334.6661254651535,3351
2336.525904350951,3361
2338.3852610165827,3479
2340.244195744464,3396
2342.102708817088,3400
2343.9608005170253,3503
2345.8184711269287,3379
2347.675720929526,3455
2349.532550207628,3358
2351.38895924412,3400
2353.24494832197,3414
2355.100517724223,3478
2356.955667734004,3401
2358.810398634514,3295
2360.664710709037,3394
2362.5186042409337,3278
2364.3720795136437,3244
2366.225136810686,3394
2368.0777764156583,3348
2369.929998612237,3303
2371.7818036841777,3385
2373.633191915315,3336
2375.484163589562,3357
2377.3347189909114,3309
2379.184858403434,3224
2381.03458211128,3424
2382.8838903986775,3383
2384.732783549936,3251
2386.5812618494406,3370
2388.4293255816588,3296
2390.2769750311327,3371
2392.1242104824883,3330
2393.971032220427,3330
2395.8174405297295,3409
2397.6634356952563,3388
2399.509018001947,3428
2401.3541877348193,3308
2403.1989451789705,3335
2405.043290619576,3331
2406.8872243418905,3329
2408.730746631247,3310
2410.5738577730594,3344
2412.4165580528183,3320
2414.258847756095,3275
2416.100727168537,3339
2417.9421965758734,3327
2419.783256263912,3334
2421.623906518538,3336
2423.4641476257157,3343
2425.303979871491,3356
2427.143403541984,3195
2428.9824189233977,3329
2430.821026302012,3311
2432.6592259641866,3291
2434.497018196361,3265
2436.33440328505,3253
2438.171381516851,3263
2440.00795317844,3239
2441.844118556569,3236
2443.6798779380724,3317
2445.5152316098606,3232
2447.3501798589255,3229
2449.1847229723357,3261
2451.0188612372403,3187
2452.8525949408663,3250
2454.6859243705203,3190
2456.518849813587,3257
2458.3513715575314,3190
2460.183489889895,3102
2462.015205098301,3182
2463.8465174704493,3159
2465.67742729412,3215
2467.5079348571717,3254
2469.338040447542,3196
2471.1677443532476,3162
2472.9970468623833,3223
2474.825948263123,3158
2476.6544488437207,3209
2478.482548892508,3237
2480.310248697896,3096
2482.137548548374,3183
2483.9644487325118,3175
2485.790949538956,3125
2487.617051256433,3217
2489.44275417375,3163
2491.26805857979,3108
2493.0929647635157,3147
2494.917473013971,3117
2496.741583620276,3080
2498.5652968716304,3076
2500.3886130573137,3254
2502.2115324666834,3145
2504.0340553891765,3126
2505.856182114308,3222
2507.6779129316733,3222
2509.499248130945,3172
2511.3201880018764,3089
2513.140732834298,3153
2514.9608829181198,3083
2516.780638543331,3175
2518.6,3143
2520.418967578273,3059
2522.237541568376,3053
2524.0557222606144,3141
2525.8735099453706,3035
2527.6909049131086,3195
2529.507907454368,3057
2531.32451785977,3166
2533.140736420014,3184
2534.9565634258774,3096
2536.771999168218,3105
2538.5870439379714,3108
2540.4016980261526,3049
2542.2159617238544,3013
2544.02983532225,3097
2545.8433191125914,3105
2547.656413386209,3073
2549.4691184345115,3034
2551.2814345489874,3069
2553.093362021204,3064
2554.904901142808,3055
2556.716052205523,3020
2558.526815501153,3103
2560.3371913215824,3090
2562.147179958771,3084
2563.956781704761,3055
2565.7659968516705,3098
2567.5748256916986,3139
2569.3832685171224,3051
2571.1913256202984,2992
2572.9989972936614,3003
2574.806283829725,3068
2576.613185521084,3067
2578.4197026604074,3031
2580.2258355404483,3060
2582.031584454035,3051
2583.836949694077,2942
2585.6419315535613,3079
2587.4465303255533,3077
2589.2507463032002,3039
2591.0545797797245,3001
2592.8580310484303,3050
2594.6611004026995,3093
2596.463788135992,2988
2598.266094541849,3077
2600.0680199138874,3040
2601.869564545807,3042
2603.670728731383,3096
2605.4715127644704,3021
2607.2719169390048,3014
2609.071941548998,3019
2610.8715868885433,3108
2612.670853251811,3110
2614.469740933052,3013
2616.268250226594,3038
2618.0663814268455,2991
2619.864134828292,3023
2621.6615107255006,3011
2623.458509413115,3025
2625.2551311858597,2986
2627.0513763385347,3008
2628.8472451660223,2911
2630.6427379632833,2960
2632.4378550253564,3101
2634.232596647359,2977
2636.026963124488,2945
2637.8209547520187,3061
2639.6145718253065,2942
2641.407814639785,2883
2643.200683490966,2920
2644.9931786744414,2931
2646.7853004858807,2927
2648.577049221034,3013
2650.3684251757277,2871
2652.1594286458712,2879
2653.9500599274484,2895
2655.740319316525,2886
2657.5302071092437,2823
2659.3197236018286,2907
2661.10886909058,2941
2662.8976438718782,2934
2664.686048242183,2811
2666.4740824980327,2886
2668.2617469360443,2918
2670.0490418529134,2881
2671.8359675454153,2839
2673.622524310403,2842
2675.408712444811,2944
2677.1945322456495,2909
2678.979984010009,2793
2680.76506803506,2840
2682.5497846180497,2928
2684.334134056306,2855
2686.1181166472343,2834
2687.9017326883213,2836
2689.6849824771293,2806
2691.4678663113013,2774
2693.2503844885596,2859
2695.032537306705,2745
2696.8143250636167,2840
2698.5957480572542,2816
2700.3768065856534,2824
2702.1575009469316,2826
2703.937831439283,2760
2705.717798360982,2791
2707.4974020103837,2727
2709.276642685917,2751
2711.055520686095,2749
2712.834036309506,2764
2714.612189854819,2754
2716.389981620782,2709
2718.1674119062204,2744
2719.944481010041,2729
2721.721189231226,2794
2723.4975368688415,2748
2725.273524222027,2748
2727.0491515900053,2691
2728.824419272075,2712
2730.5993275676146,2718
2732.3738767760838,2762
2734.148067197016,2697
2735.921899130031,2726
2737.6953728748194,2752
2739.468488731156,2826
2741.2412469988926,2680
2743.0136479779617,2718
2744.785691968372,2701
2746.5573792702116,2742
2748.3287101836504,2796
2750.099685008934,2688
2751.870304046388,2734
2753.640567596418,2713
2755.4104759595057,2729
2757.1800294362156,2637
2758.949228327187,2696
2760.7180729331412,2720
2762.486563554877,2691
2764.254700493272,2725
2766.022484049284,2654
2767.789914523947,2718
2769.5569922183786,2706
2771.3237174337705,2671
2773.090090471394,2633
2774.8561116326036,2692
2776.6217812188274,2596
2778.3870995315756,2667
2780.1520668724356,2692
2781.9166835430747,2679
2783.6809498452394,2652
2785.444866080754,2604
2787.2084325515225,2651
2788.971649559527,2710
2790.73451740683,2665
2792.4970363955713,2671
2794.2592068279705,2641
2796.0210290063264,2632
2797.7825032330147,2631
2799.543629810493,2739
2801.304409041296,2669
2803.0648412280366,2681
2804.8249266734088,2587
2806.5846656801846,2660
2808.344058551212,2675
2810.1031055894246,2558
2811.8618070978273,2641
2813.6201633795085,2625
2815.378174737636,2739
2817.1358414754536,2677
2818.893163896285,2687
2820.6501423035334,2648
2822.4067770006814,2576
2824.1630682912883,2653
2825.9190164789957,2584
2827.6746218675207,2545
2829.429884760661,2578
2831.184805462294,2658
2832.9393842763743,2680
2834.693621506936,2603
2836.4475174580916,2620
2838.201072434034,2654
2839.954286739034,2635
2841.707160677441,2717
2843.459694553685,2650
2845.2118886722724,2650
2846.96374333779,2656
2848.7152588549034,2656
2850.4664355283567,2581
2852.217273662973,2576
2853.9677735636546,2656
2855.7179355353833,2647
2857.4677598832186,2543
2859.217246912299,2664
2860.9663969278427,2475
2862.715210235146,2520
2864.4636871395846,2564
2866.211827946614,2612
2867.9596329617652,2582
2869.7071024906536,2602
2871.4542368389684,2554
2873.20103631248,2523
2874.947501217038,2502
2876.6936318585695,2579
2878.4394285430812,2531
2880.1848915766604,2539
2881.9300212654707,2602
2883.6748179157553,2591
2885.4192818338374,2561
2887.1634133261173,2504
2888.907212699077,2590
2890.6506802592744,2573
2892.393816313348,2521
2894.1366211680142,2538
2895.8790951300693,2538
2897.621238506388,2631
2899.363051603925,2539
2901.1045347297118,2593
2902.8456881908596,2483
2904.58651229456,2570
2906.327007348081,2566
2908.067173658772,2594
2909.8070115340597,2551
2911.5465212814497,2507
2913.285703208527,2588
2915.0245576229563,2439
2916.7630848324807,2481
2918.5012851449196,2571
2920.2391588681758,2447
2921.976706310227,2490
2923.7139277791334,2464
2925.4508235830313,2530
2927.187394030137,2547
2928.923639428745,2577
2930.6595600872306,2549
2932.395156314046,2476
2934.1304284177218,2567
2935.8653767068713,2492
2937.6000014901815,2508
2939.3343030764227,2458
2941.068281774442,2524
2942.8019378931644,2485
2944.5352717415976,2543
2946.2682836288236,2538
2948.0009738640065,2557
2949.7333427563885,2534
2951.465390615289,2449
2953.1971177501086,2479
2954.9285244703265,2517
2956.6596110855,2529
2958.3903779052657,2522
2960.1208252393385,2546
2961.8509533975125,2547
2963.5807626896617,2424
2965.3102534257378,2482
2967.0394259157715,2481
2968.768280469873,2474
2970.496817398232,2392
2972.2250370111146,2531
2973.952939618869,2531
2975.6805255319196,2490
2977.4077950607707,2490
2979.134748516006,2464
2980.861386208289,2507
2982.587708448359,2514
2984.313715547037,2567
2986.039407815222,2551
2987.764785563891,2458
2989.489849104102,2434
2991.2145987469908,2444
2992.9390348037705,2464
2994.6631575857346,2456
2996.3869674042576,2369
2998.1104645707887,2398
2999.83364939686,2336
3001.5565221940783,2431
3003.2790832741334,2447
3005.0013329487924,2473
3006.7232715298996,2493
3008.4448993293804,2473
3010.166216659239,2389
3011.887223831558,2493
3013.607921158498,2452
3015.3283089522993,2476
3017.0483875252826,2407
3018.7681571898443,2484
3020.4876182584626,2447
3022.2067710436927,2401
3023.9256158581707,2491
3025.644153014609,2435
3027.362382825801,2395
3029.0803056046193,2436
3030.797921664012,2413
3032.5152313170106,2423
3034.2322348767225,2380
3035.9489326563353,2420
3037.665324969115,2386
3039.3814121284063,2375
3041.097194447633,2432
3042.812672240299,2459
3044.5278458199855,2385
3046.2427155003525,2397
3047.9572815951406,2413
3049.671544418167,2392
3051.38550428333,2372
3053.0991615046073,2500
3054.812516396051,2410
3056.5255692717974,2380
3058.2383204460575,2380
3059.9507702331257,2376
3061.662918947372,2436
3063.3747669032446,2405
3065.0863144152736,2448
3066.7975617980674,2450
3068.508509366309,2364
3070.219157434767,2451
3071.9295063182844,2464
3073.639556331785,2348
3075.3493077902704,2424
3077.058761008821,2424
3078.7679163025964,2381
3080.476773986837,2421
3082.1853343768594,2392
3083.89359778806,2415
3085.6015645359153,2379
3087.3092349359786,2422
3089.016609303884,2378
3090.7236879553434,2389
3092.4304712061476,2482
3094.136959372166,2316
3095.843152769349,2419
3097.5490517137237,2457
3099.2546565213966,2392
3100.959967508554,2472
3102.66498499146,2413
3104.3697092864577,2383
3106.0741407099695,2422
3107.778279578498,2443
3109.482126208622,2387
3111.1856809170004,2465
3112.8889440203716,2477
3114.5919158355528,2482
3116.294596679439,2434
3117.996986869006,2512
3119.6990867213062,2427
3121.4008965534726,2384
3123.102416682717,2437
3124.803647426329,2497
3126.5045891016784,2438
3128.205242026213,2456
3129.90560651746,2458
3131.605682893025,2448
3133.3054714705922,2476
3135.0049725679282,2493
3136.7041865028714,2431
3138.4031135933465,2457
3140.101754157353,2456
3141.800108512971,2487
3143.498176978357,2342
3145.1959598717494,2435
3146.8934575114636,2453
3148.5906702158954,2495
3150.2875983035183,2454
3151.9842420928853,2388
3153.680601902627,2325
3155.376678051456,2461
3157.07247085816,2421
3158.767980641609,2559
3160.463207720748,2429
3162.158152414606,2337
3163.8528150422862,2438
3165.5471959229726,2465
3167.2412953759303,2402
3168.9351137204976,2402
3170.628651276098,2377
3172.3219083622307,2507
3174.014885298474,2477
3175.707582404485,2482
3177.4000000000005,2396
3179.092138404835,2552
3180.7839979388846,2474
3182.47557892212,2579
3184.166881674594,2432
3185.8579065164386,2451
3187.5486537678626,2462
3189.2391237491547,2458
3190.9293167806827,2561
3192.6192331828934,2412
3194.3088732763117,2410
3195.998237381542,2478
3197.687325819268,2430
3199.376138910251,2458
3201.064676975334,2487
3202.7529403354347,2480
3204.4409293115523,2456
3206.1286442247647,2427
3207.816085396229,2400
3209.5032531471825,2446
3211.190147798936,2390
3212.8767696728846,2304
3214.5631190905015,2371
3216.2491963733373,2404
3217.9350018430214,2403
3219.6205358212637,2392
3221.305798629851,2408
3222.990790590651,2409
3224.6755120256103,2364
3226.359963256751,2417
3228.0441446061795,2425
3229.7280563960758,2434
3231.411698948703,2473
3233.0950725863995,2394
3234.778177631587,2452
3236.461014406761,2458
3238.1435832345005,2394
3239.8258844374595,2447
3241.507918338374,2479
3243.1896852600576,2398
3244.8711855254023,2465
3246.552419457381,2414
3248.233387379042,2385
3249.914089613516,2414
3251.59452648401,2484
3253.274698313813,2495
3254.95460542629,2394
3256.6342481448855,2361
3258.313626793125,2318
3259.9927416946084,2476
3261.6715931730196,2448
3263.3501815521176,2384
3265.0285071557437,2444
3266.706570307815,2410
3268.3843713323286,2338
3270.0619105533615,2387
3271.739188295068,2414
3273.4162048816834,2421
3275.0929606375184,2418
3276.769455886966,2391
3278.445690954498,2491
3280.1216661646613,2446
3281.797381842087,2426
3283.4728383114807,2427
3285.1480358976296,2465
3286.8229749253996,2416
3288.4976557197333,2454
3290.172078605655,2403
3291.846243908266,2415
3293.5201519527463,2411
3295.193803064357,2388
3296.8671975684374,2372
3298.5403357904024,2374
3300.21321805575,2493
3301.8858446900567,2354
3303.558216018975,2399
3305.23033236824,2465
3306.9021940636603,2450
3308.57380143113,2491
3310.2451547966184,2447
3311.916254486174,2461
3313.5871008259246,2461
3315.2576941420766,2443
3316.9280347609147,2512
3318.5981230088046,2437
3320.2679592121895,2474
3321.9375436975924,2416
3323.606876791612,2416
3325.27595882093,2337
3326.944790112305,2407
3328.6133709925753,2408
3330.2817017886573,2496
3331.949782827547,2360
3333.617614436319,2504
3335.2851969421245,2459
3336.952530672199,2570
3338.619615953853,2501
3340.286453114475,2437
3341.9530424815357,2470
3343.619384382583,2496
3345.2854791452437,2595
3346.951327097224,2540
3348.6169285663073,2427
3350.2822838803577,2466
3351.947393367319,2530
3353.61225735521,2497
3355.2768761721345,2535
3356.9412501462693,2489
3358.605379605873,2494
3360.2692648792827,2531
3361.9329062949146,2541
3363.596304181263,2503
