CollectionTime,9/20/2024 11:12:24 AM
ExposureUsed,3
CalibratedSpectrum
-962.7078968117929,1824
-959.9714848408522,1945
-957.2358232597828,1969
-954.5009119013725,1965
-951.7667505983302,1983
-949.0333391832855,1991
-946.3006774887896,1936
-943.5687653473143,1991
-940.837602591253,1978
-938.1071890529199,2027
-935.3775245645503,1941
-932.6486089583007,2014
-929.9204420662485,2032
-927.1930237203925,2058
-924.4663537526524,2046
-921.7404319948689,2028
-919.0152582788041,2084
-916.2908324361409,2027
-913.5671542984834,2015
-910.8442236973568,1995
-908.1220404642074,2039
-905.4006044304027,1952
-902.679915427231,1967
-899.959973285902,1973
-897.2407778375464,2011
-894.5223289132158,2024
-891.8046263438832,2036
-889.0876699604426,1974
-886.3714595937089,2001
-883.6559950744183,2130
-880.9412762332282,2038
-878.2273029007168,1941
-875.5140749073835,2018
-872.8015920836489,2008
-870.0898542598545,1984
-867.3788612662631,2051
-864.6686129330585,2062
-861.9591090903457,2067
-859.2503495681506,1927
-856.5423341964203,1988
-853.8350628050229,2025
-851.1285352237478,2103
-848.4227512823054,2097
-845.7177108103272,2037
-843.0134136373656,2124
-840.3098595928943,2016
-837.6070485063082,2080
-834.9049802069229,2037
-832.2036545239757,2085
-829.5030712866244,2110
-826.8032303239481,2074
-824.1041314649472,2077
-821.4057745385428,2078
-818.7081593735775,2099
-816.0112857988148,2046
-813.3151536429393,2105
-810.6197627345566,2128
-807.9251129021936,2081
-805.2312039742981,2067
-802.5380357792392,2113
-799.8456081453069,2193
-797.1539209007124,2155
-794.462973873588,2088
-791.772766891987,2128
-789.083299783884,2123
-786.3945723771743,2104
-783.7065844996748,2134
-781.0193359791231,2131
-778.3328266431781,2103
-775.6470563194197,2085
-772.9620248353489,2071
-770.2777320183878,2108
-767.5941776958798,2168
-764.9113616950891,2140
-762.2292838432011,2143
-759.5479439673222,2135
-756.8673418944801,2146
-754.1874774516235,2191
-751.5083504656222,2103
-748.8299607632671,2159
-746.15230817127,2153
-743.475392516264,2086
-740.7992136248035,2115
-738.1237713233636,2179
-735.4490654383407,2132
-732.7750957960521,2198
-730.1018622227365,2109
-727.4293645445534,2129
-724.7576025875837,2202
-722.0865761778291,2218
-719.4162851412126,2197
-716.7467293035781,2185
-714.0779084906909,2248
-711.409822528237,2290
-708.7424712418238,2297
-706.0758544569796,2287
-703.4099719991541,2298
-700.7448236937178,2240
-698.0804093659622,2261
-695.4167288411002,2256
-692.7537819442656,2258
-690.0915685005134,2263
-687.4300883348199,2274
-684.7693412720819,2307
-682.1093271371178,2287
-679.4500457546669,2261
-676.7914969493897,2241
-674.1336805458676,2250
-671.4765963686034,2290
-668.8202442420206,2294
-666.1646239904642,2258
-663.5097354382001,2175
-660.8555784094151,2313
-658.2021527282176,2296
-655.5494582186366,2281
-652.8974947046223,2331
-650.2462620100463,2396
-647.5957599587009,2381
-644.9459883742998,2376
-642.2969470804776,2324
-639.6486359007902,2437
-637.0010546587141,2436
-634.3542031776476,2414
-631.7080812809096,2410
-629.0626887917401,2351
-626.4180255333008,2420
-623.7740913286734,2468
-621.1308860008619,2479
-618.4884093727904,2478
-615.8466612673046,2379
-613.2056415071715,2433
-610.5653499150785,2405
-607.9257863136347,2394
-605.28695052537,2442
-602.6488423727357,2478
-600.0114616781036,2415
-597.3748082637674,2497
-594.7388819519412,2469
-592.1036825647604,2555
-589.4692099242818,2444
-586.8354638524829,2502
-584.2024441712624,2484
-581.5701507024403,2518
-578.9385832677575,2524
-576.3077416888759,2580
-573.6776257873787,2485
-571.0482353847704,2468
-568.4195703024757,2492
-565.7916303618415,2456
-563.164415384135,2564
-560.5379251905453,2473
-557.9121596021815,2432
-555.2871184400748,2416
-552.6628015251767,2552
-550.0392086783606,2534
-547.4163397204204,2559
-544.794194472071,2564
-542.1727727539491,2586
-539.5520743866118,2466
-536.9320991905377,2527
-534.3128469861261,2548
-531.6943175936979,2528
-529.0765108334947,2557
-526.4594265256793,2681
-523.8430644903358,2860
-521.2274245474689,3039
-518.612506517005,3025
-515.9983102187913,3063
-513.3848354725959,3095
-510.77208209810846,3268
-508.16004991493924,3219
-505.5487387426199,3311
-502.9381484006032,3287
-500.3282787082628,3428
-497.71912948489364,3357
-495.1107005497117,3248
-492.5029917218539,3214
-489.8960028203786,3158
-487.28973366426493,2932
-484.68418407241325,2825
-482.07935386364494,2895
-479.47524285670266,2911
-476.87185087025,2746
-474.2691777228715,2868
-471.66722323307334,2836
-469.0659872192821,2843
-466.4654694998459,2954
-463.86566989303384,2831
-461.26658821703614,2795
-458.66822428996414,2863
-456.07057792985,2816
-453.4736489546475,2856
-450.877437182231,2733
-448.28194243039627,2750
-445.68716451686,2715
-443.09310325926003,2766
-440.49975847515555,2759
-437.9071299820263,2727
-435.31521759727354,2713
-432.72402113821954,2666
-430.13354042210767,2733
-427.5437752661022,2657
-424.95472548728867,2756
-422.36639090267386,2867
-419.7787713291855,2917
-417.1918665836721,2856
-414.60567648290385,2864
-412.0202008435715,2831
-409.4354394822874,2933
-406.8513922155845,2954
-404.26805885991723,3010
-401.685439231661,2990
-399.103533147112,3035
-396.522340422488,2876
-393.9418608739278,2858
-391.3620943174908,2854
-388.7830405691583,2576
-386.2046994448317,2472
-383.6270707603344,2378
-381.05015433141045,2290
-378.473949973725,2155
-375.8984575028645,1883
-373.32367673433623,1740
-370.74960748356875,1658
-368.1762495659117,1301
-365.60360279663576,1175
-363.03166699093265,1003
-360.4604419639154,874
-357.8899275306178,787
-355.32012350599507,741
-352.7510297049233,704
-350.1826459421999,615
-347.61497203254316,612
-345.04800779059235,643
-342.4817530309082,671
-339.91620756797226,683
-337.35137121618743,664
-334.7872437898774,662
-332.22382510328725,630
-329.66111497058273,584
-327.09911320585127,606
-324.53781962310075,615
-321.9772340362607,586
-319.4173562591816,557
-316.8581861056348,570
-314.2997233893127,615
-311.7419679238294,729
-309.1849195227194,773
-306.62857799943856,724
-304.0729431673641,614
-301.51801483979375,680
-298.963792829947,668
-296.41027695096386,616
-293.85746701590574,660
-291.3053628377552,721
-288.7539642294155,685
-286.2032710037115,684
-283.65328297338897,742
-281.1039999511146,719
-278.5554217494762,674
-276.007548180983,733
-273.4603790580651,746
-270.9139141930734,760
-268.3681533982807,873
-265.8230964858798,858
-263.27874326798565,886
-260.7350935566336,843
-258.1921471637804,870
-255.6499039013039,1044
-253.10836358100266,1030
-250.56752601459698,878
-248.02739101372765,952
-245.48795838995704,946
-242.94922795476816,974
-240.41119951956557,957
-237.8738728956746,908
-235.33724789434166,884
-232.80132432673452,937
-230.2661020039418,876
-227.73158073697357,1059
-225.19776033676033,1003
-222.66464061415422,1071
-220.1322213799284,1214
-217.60050244477725,1122
-215.06948361931552,1056
-212.53916471408013,1158
-210.00954553952818,1226
-207.48062590603843,1163
-204.9524056239104,1136
-202.4248845033651,1171
-199.8980623545441,1254
-197.37193898751036,1307
-194.84651421224817,1314
-192.32178783866232,1139
-189.79775967657952,1141
-187.27442953574644,1304
-184.7517972258321,1454
-182.2298625564256,1157
-179.7086253370378,1065
-177.18808537710026,1130
-174.66824248596583,1323
-172.14909647290835,1492
-169.6306471471229,1539
-167.11289431772548,1318
-164.59583779375328,1198
-162.07947738416453,1362
-159.5638128978386,1900
-157.04884414357605,1970
-154.53457093009854,1794
-152.02099306604828,1400
-149.50811035998936,1390
-146.99592262040665,1850
-144.48442965570587,2051
-141.97363127421409,2075
-139.46352728417958,2034
-136.95411749377126,1953
-134.44540171107985,1596
-131.93737974411636,1398
-129.43005140081357,1483
-126.92341648902493,2257
-124.41747481652521,2596
-121.91222619101006,3051
-119.40767042009657,3002
-116.90380731132257,2687
-114.40063667214702,3161
-111.8981583099503,4368
-109.3963720320337,6401
-106.89527764561933,9513
-104.39487495785067,11389
-101.89516377579241,15584
-99.39614390642998,20511
-96.89781515667039,26474
-94.40017733334128,31421
-91.90323024319173,28873
-89.40697369289148,19277
-86.91140748903172,12431
-84.41653143812482,9616
-81.92234534660395,13575
-79.42884902082358,22215
-76.93604226705907,27401
-74.4439248915071,27028
-71.95249670028534,22792
-69.46175749943245,16345
-66.97170709490854,10913
-64.48234529259423,8684
-61.99367189829195,8873
-59.50568671772464,8373
-57.01838955653636,10242
-54.53178022029283,15384
-52.045858514480074,21810
-49.560624244506016,30203
-47.07607721569923,34513
-44.59221723330904,38815
-42.10904410250669,44062
-39.62655762838392,46265
-37.14475761595372,50226
-34.66364387015028,49180
-32.18321619582866,48641
-29.70347439776515,53764
-27.224418280657005,50161
-24.74604764912317,52941
-22.26836230770266,65036
-19.7913620608565,65036
-17.315046712966478,65036
-14.83941606833514,65036
-12.36446993118659,65036
-9.89020810566592,65036
-7.416630395839093,65036
-4.94373660569363,65036
-2.471526539137585,65036
-6.821210263296962E-13,65036
2.47084320796705,65036
4.941003281093458,65036
7.410480415786196,65036
9.879274808531363,65036
12.347386655893956,65036
14.814816154518212,65036
17.28156350112681,65036
19.74762889252179,65036
22.21301252558385,27861
24.67771459727237,9400
27.141735304626195,8871
29.605074844762612,8060
32.06773341487792,5601
34.52971121224755,5140
36.99100843422559,4974
39.45162527824516,4192
41.91156194181792,4074
44.370818622535126,4312
46.82939551806646,4479
49.287292826160524,6730
51.74451074464503,6517
54.201049471426245,4250
56.65690920448981,3455
59.112090141899785,3208
61.56659248179983,3193
64.02041642241159,3169
66.4735621620365,3365
68.92602989905402,4021
71.37781983192338,4097
73.82893215918205,3412
76.27936707944684,2430
78.72912479141326,2511
81.17820549385567,2413
83.62660938562783,2109
86.07433666566146,1814
88.5213875329681,1935
90.96776218663751,2207
93.41346082583925,2542
95.85848364982041,2900
98.30283085790859,2439
100.7465026495089,1869
103.18949922410604,1659
105.63182078126385,1531
108.07346752062438,1838
110.51443964190923,1766
112.95473734491827,2040
115.39436082953114,2003
117.83331029570547,1981
120.27158594347827,2055
122.7091879729652,1829
125.1461165843615,1971
127.58237197794062,1882
130.01795435405518,1885
132.4528639131364,1918
134.88710085569494,2000
137.32066538231982,2179
139.75355769367923,1938
142.1857779905207,1656
144.61732647366978,1256
147.04820334403132,1289
149.47840880258934,1456
151.90794305040674,1896
154.33680628862487,2230
156.76499871846443,2390
159.19252054122433,2415
161.61937195828352,2519
164.04555317109896,2847
166.47106438120693,3000
168.89590579022217,3246
171.320077599839,3700
173.7435800118302,4140
176.16641322804742,4264
178.58857745042144,4409
181.01007288096173,4545
183.43089972175687,4434
185.85105817497413,4500
188.27054844285988,4723
190.6893707277394,4884
193.10752523201643,5035
195.5250121581745,5378
197.9418317087751,5509
200.3579840864594,5380
202.7734694939469,5519
205.18828813403627,5546
207.6024402096051,5507
210.01592592360964,5420
212.42874547908548,5499
214.84089907914665,5453
217.2523869269868,5526
219.66320922587727,5536
222.0733661791695,5481
224.48285799029293,5272
226.8916848627572,5485
229.29984700014882,5468
231.7073446061355,5472
234.11417788446204,5541
236.520347038953,5744
238.92585227351185,5773
241.33069379212054,5783
243.73487179884035,5840
246.1383864978112,5906
248.541238093252,6064
250.9434267894609,5889
253.34495279081432,5885
255.74581630176783,5872
258.1460175268563,5733
260.54555667069314,5775
262.9444339379703,5874
265.3426495334594,5828
267.7402036620107,5932
270.1370965285529,5824
272.53332833809407,5554
274.9288992957214,5437
277.32380960660055,5408
279.718059475976,5215
282.1116491091717,5238
284.5045787115897,5377
286.89684848871195,5347
289.2884586460981,5292
291.67940938938807,5420
294.0697009242996,5372
296.4593334566299,5458
298.84830719225477,5376
301.23662233712923,5277
303.6242790972866,5317
306.01127767884,5266
308.39761828798066,5292
310.78330113097934,5157
313.16832641418534,5213
315.5526943440269,5078
317.9364051270112,5185
320.3194589697242,5290
322.70185607883093,5222
325.0835966610754,5042
327.4646809232805,5099
329.8451090723478,5015
332.2248813152577,4951
334.6039978590701,5048
336.9824589109231,4998
339.36026467803447,4973
341.7374153677,4948
344.113911187295,4968
346.48975234427337,4976
348.8649390461686,5038
351.2394715005918,5085
353.61334991523415,4897
355.9865744978655,5008
358.35914545633375,4946
360.73106299856715,5004
363.10232733257146,4907
365.47293866643247,4908
367.84289720831396,4786
370.2122031664593,4920
372.5808567491905,4925
374.9488581649083,4838
377.31620762209275,4891
379.6829053293021,4769
382.0489514951745,4920
384.4143463284262,5005
386.7790900378528,4954
389.14318283232853,4913
391.50662492080653,4773
393.86941651231916,4810
396.23155781597745,4911
398.5930490409713,4955
400.9538903965696,4857
403.3140820921202,4680
405.6736243370498,4653
408.03251734086336,4768
410.3907613131465,4779
412.74835646356166,4644
415.10530300185144,4798
417.4616011378372,4756
419.81725108141893,4704
422.1722530425758,4803
424.5266072313656,4764
426.880313857925,4877
429.2333731324701,4628
431.58578526529516,4619
433.9375504667738,4664
436.2886689473588,4769
438.63914091758113,4844
440.9889665880513,4872
443.33814616945835,4778
445.68667987257015,4759
448.03456790823395,4835
450.3818104873759,4791
452.72840782100013,4643
455.07436012019105,4689
457.41966759611057,4734
459.7643304600007,4615
462.10834892318155,4679
464.4517231970525,4651
466.79445349309174,4713
469.1365400228566,4923
471.4779829979826,4885
473.81878263018564,4776
476.15893913125876,4725
478.4984527130747,4847
480.8373235875855,5136
483.17555196682144,5080
485.5131380628919,5126
487.8500820879857,5047
490.1863842543697,5146
492.52204477439034,5277
494.8570638604725,5609
497.1914417251204,5737
499.52517858091653,6042
501.85827464052306,6235
504.19073011668036,6247
506.5225452222086,6278
508.85372017000566,6256
511.18425517304956,6121
513.514150444396,6534
515.8434061971808,7826
518.1720226446176,8614
520.4999999999999,8663
522.8273384766991,8378
525.1540382881666,8228
527.480099647932,7733
529.8055227696037,6746
532.1303078668694,5682
534.454455153496,5361
536.777964843328,4998
539.1008371502907,4918
541.4230722883866,4870
543.744670471698,5018
546.0656319143858,4987
548.3859568306899,4835
550.7056454349294,4823
553.0246979415016,4860
555.3431145648834,4929
557.6608955196306,4915
559.978041020377,4836
562.2945512818363,4975
564.6104265188006,4916
566.9256669461412,4877
569.2402727788082,4865
571.5542442318302,4846
573.8675815203156,5048
576.1802848594508,5138
578.4923544645015,4977
580.8037905508126,5018
583.114593333807,5001
585.4247630289875,4950
587.7342998519354,4911
590.0432040183106,4939
592.3514757438526,4933
594.6591152443794,4823
596.9661227357875,4942
599.2724984340531,4889
601.578242555231,4888
603.8833553154542,4831
606.1878369309362,4886
608.4916876179676,4964
610.7949075929192,5038
613.0974970722403,4882
615.3994562724587,4925
617.7007854101818,4943
620.0014847020951,4792
622.3015543649641,4895
624.6009946156324,5035
626.8998056710224,4987
629.1979877481361,4972
631.4955410640538,4906
633.7924658359349,4891
636.0887622810175,4963
638.3844306166192,4905
640.6794710601358,5010
642.9738838290426,4983
645.2676691408932,5051
647.5608272133207,4960
649.853358264037,5041
652.1452625108324,5089
654.4365401715764,5158
656.7271914642178,5014
659.0172166067838,5051
661.3066158173809,5125
663.5953893141935,5000
665.8835373154867,5105
668.1710600396028,5125
670.4579577049639,4957
672.7442305300709,5041
675.0298787335033,4970
677.3149025339197,5037
679.599302150058,5018
681.8830778007342,5089
684.1662297048437,5211
686.4487580813608,5268
688.7306631493387,5046
691.0119451279091,5080
693.2926042362834,5112
695.5726406937516,4945
697.8520547196814,5087
700.1308465335215,4951
702.4090163547982,5083
704.6865644031171,5136
706.9634908981619,5207
709.2397960596965,5091
711.5154801075631,5152
713.7905432616823,5085
716.0649857420548,5120
718.3388077687592,5180
720.612009561953,5136
722.8845913418733,5094
725.1565533288352,5062
727.427895743234,5107
729.6986188055427,5014
731.9687227363137,4997
734.238207756178,5070
736.5070740858458,5094
738.7753219461066,4962
741.0429515578281,5112
743.3099631419569,5091
745.5763569195191,5004
747.8421331116193,5078
750.1072919394409,5072
752.3718336242467,5109
754.6357583873777,5228
756.8990664502545,5099
759.1617580343765,5052
761.423833361321,5075
763.6852926527457,5058
765.9461361303862,5248
768.206364016058,5060
770.4659765316536,5167
772.7249738991469,5113
774.9833563405886,5067
777.2411240781092,5267
779.4982773339183,5209
781.7548163303044,5098
784.010741289634,5114
786.2660524343538,5245
788.5207499869881,5130
790.7748341701416,5201
793.0283052064964,5156
795.2811633188143,5209
797.5334087299362,5205
799.7850416627813,5388
802.0360623403484,5345
804.2864709857143,5228
806.5362678220353,5297
808.7854530725468,5307
811.0340269605625,5332
813.2819897094754,5256
815.5293415427581,5268
817.77608268396,5269
820.0222133567116,5225
822.2677337847211,5209
824.5126441917765,5225
826.7569448017433,5148
829.0006358385675,5120
831.2437175262731,5166
833.4861900889629,5297
835.7280537508192,5205
837.9693087361026,5130
840.2099552691533,5156
842.4499935743896,5179
844.689423876309,5246
846.9282463994886,5336
849.1664613685833,5230
851.4040690083276,5168
853.6410695435349,5249
855.877463199097,5240
858.1132501999847,5182
860.3484307712487,5240
862.5830051380175,5254
864.8169735254988,5267
867.0503361589791,5321
869.2830932638243,5297
871.5152450654786,5273
873.7467917894654,5339
875.9777336613873,5211
878.2080709069252,5377
880.4378037518389,5260
882.666932421968,5300
884.8954571432301,5348
887.1233781416219,5486
889.3506956432192,5294
891.5774098741766,5392
893.803521060728,5259
896.0290294291852,5462
898.2539352059397,5341
900.4782386174619,5258
902.7019398903011,5243
904.925039251085,5267
907.147536926521,5388
909.3694331433943,5353
911.59072812857,5308
913.8114221089921,5265
916.0315153116827,5430
918.2510079637437,5016
920.4699002923547,5099
922.6881925247761,5354
924.905884888345,5183
927.1229776104793,5268
929.3394709186747,5196
931.555365040506,5154
933.7706602036275,5144
935.9853566357709,5299
938.1994545647489,5338
940.4129542184515,5275
942.6258558248488,5317
944.8381596119883,5223
947.0498658079974,5237
949.2609746410825,5156
951.4714863395287,5326
953.6814011316998,5310
955.8907192460387,5284
958.0994409110671,5245
960.3075663553858,5325
962.5150958076741,5333
964.7220294966913,5376
966.928367651274,5231
969.1341105003388,5296
971.3392582728806,5305
973.5438111979742,5213
975.747769504772,5153
977.9511334225061,5283
980.153903180487,5324
982.3560790081052,5285
984.5576611348289,5265
986.7586497902058,5175
988.9590452038618,5222
991.158847605503,5136
993.3580572249133,5173
995.5566742919558,5158
997.7546990365728,5060
999.952131688785,5067
1002.1489724786926,5150
1004.3452216364743,5047
1006.5408793923874,5034
1008.7359459767691,4956
1010.9304216200343,5048
1013.1243065526781,4952
1015.3176010052733,4990
1017.510305208472,4904
1019.7024193930064,4922
1021.8939437896848,4952
1024.0848786293977,4861
1026.2752241431122,4981
1028.4649805618747,5005
1030.6541481168115,4855
1032.842727039127,4881
1035.0307175601051,4924
1037.2181199111074,4885
1039.4049343235752,4908
1041.591161029029,5006
1043.7768002590683,5058
1045.9618522453698,4929
1048.1463172196918,4994
1050.3301954138697,4989
1052.513487059818,4892
1054.69619238953,4897
1056.8783116350783,4872
1059.0598450286152,5036
1061.2407928023704,4963
1063.4211551886528,5003
1065.6009324198508,5014
1067.780124728432,5044
1069.9587323469414,4898
1072.1367555080046,4948
1074.314194444325,4928
1076.4910493886855,4928
1078.667320573947,4912
1080.843008233051,4860
1083.0181125990161,4805
1085.1926339049414,4813
1087.3665723840027,4837
1089.5399282694575,4944
1091.7127017946405,4850
1093.8848931929647,4850
1096.0565026979243,4901
1098.2275305430899,4820
1100.3979769621128,4838
1102.567842188722,4813
1104.737126456726,4701
1106.9058300000124,4821
1109.0739530525475,4912
1111.2414958483764,4863
1113.4084586216231,4801
1115.5748416064907,4769
1117.7406450372605,4906
1119.9058691482942,4984
1122.0705141740304,4764
1124.2345803489884,4914
1126.3980679077658,4792
1128.5609770850388,4943
1130.7233081155623,4876
1132.8850612341707,4812
1135.0462366757774,4896
1137.2068346753745,4870
1139.3668554680326,4860
1141.526299288901,4774
1143.68516637321,4922
1145.8434569562655,4811
1148.001171273455,4919
1150.158309560244,4855
1152.3148720521767,4693
1154.470858984876,4912
1156.626270594044,4853
1158.7811071154629,4840
1160.9353687849912,4756
1163.089055838569,4860
1165.242168512213,4764
1167.3947070420209,4844
1169.5466716641677,4872
1171.6980626149075,4823
1173.8488801305748,4813
1175.9991244475814,4806
1178.1487958024186,4778
1180.2978944316555,4850
1182.4464205719428,4869
1184.5943744600072,4879
1186.7417563326567,4728
1188.8885664267755,4711
1191.0348049793297,4743
1193.1804722273619,4713
1195.325568407995,4694
1197.4700937584303,4923
1199.614048515948,4800
1201.7574329179074,4735
1203.900247201746,4905
1206.042491604982,4827
1208.1841663652099,4887
1210.3252717201053,4877
1212.465807907422,4935
1214.6057751649923,4947
1216.7451737307279,4887
1218.8840038426192,4969
1221.0222657387353,5000
1223.1599596572241,4867
1225.2970858363137,4961
1227.4336445143094,4781
1229.5696359295966,4873
1231.705060320639,4821
1233.8399179259786,4916
1235.9742089842384,4912
1238.107933734118,4906
1240.2410924143974,4885
1242.373685263935,4861
1244.5057125216676,4902
1246.6371744266116,5044
1248.7680712178621,4979
1250.898403134593,4888
1253.028170416058,4945
1255.1573733015875,4904
1257.2860120305932,4945
1259.4140868425648,4993
1261.54159797707,4976
1263.6685456737569,5011
1265.7949301723515,4914
1267.9207517126597,4958
1270.046010534565,4908
1272.1707068780306,5039
1274.2948409830983,4938
1276.4184130898889,5015
1278.541423438603,4974
1280.6638722695184,5118
1282.785759822993,5002
1284.9070863394636,5102
1287.0278520594447,5155
1289.1480572235314,4996
1291.2677020723963,5155
1293.3867868467923,5099
1295.5053117875495,5128
1297.623277135579,5165
1299.740683131868,5166
1301.8575300174857,5131
1303.973818033578,5160
1306.0895474213703,5232
1308.2047184221678,5114
1310.3193312773528,5236
1312.4333862283888,5233
1314.5468835168163,5220
1316.659823384255,5147
1318.7722060724045,5180
1320.8840318230418,5264
1322.9953008780249,5198
1325.1060134792888,5061
1327.2161698688478,5228
1329.3257702887959,5259
1331.4348149813054,5326
1333.5433041886276,5227
1335.6512381530933,5256
1337.7586171171101,5197
1339.8654413231675,5208
1341.9717110138317,5151
1344.0774264317488,5127
1346.1825878196432,5137
1348.2871954203192,5301
1350.3912494766587,5096
1352.4947502316231,5074
1354.5976979282532,5184
1356.7000928096686,5135
1358.8019351190665,5088
1360.9032250997243,5064
1363.0039629949988,5139
1365.1041490483235,5263
1367.2037835032133,5261
1369.3028666032606,5173
1371.401398592137,5214
1373.4993797135926,5100
1375.5968102114575,5058
1377.6936903296396,5218
1379.7900203121262,5109
1381.8858004029835,5105
1383.9810308463561,5306
1386.075711886469,5150
1388.1698437676241,5095
1390.2634267342032,5216
1392.356461030667,5141
1394.4489469015557,5188
1396.5408845914872,5271
1398.6322743451592,5123
1400.7231164073469,5270
1402.813411022907,5165
1404.903158436773,5148
1406.9923588939578,5288
1409.0810126395531,5380
1411.1691199187303,5297
1413.2566809767386,5328
1415.343696058907,5147
1417.4301654106425,5264
1419.5160892774315,5230
1421.6014679048399,5293
1423.6863015385125,5165
1425.7705904241707,5251
1427.8543348076178,5246
1429.9375349347342,5233
1432.0201910514802,5266
1434.102303403894,5286
1436.1838722380944,5248
1438.2648978002767,5316
1440.3453803367174,5433
1442.4253200937692,5414
1444.5047173178677,5437
1446.5835722555234,5441
1448.6618851533285,5577
1450.739656257952,5557
1452.8168858161434,5583
1454.8935740747306,5749
1456.96972128062,5696
1459.045327680797,5736
1461.120393522327,5773
1463.1949190523528,5708
1465.2689045180973,5836
1467.3423501668608,5747
1469.415256246024,5800
1471.4876230030463,5969
1473.559450685465,5865
1475.6307395408976,6033
1477.7014898170391,5941
1479.771701761665,6097
1481.8413756226287,6063
1483.9105116478618,6080
1485.9791100853772,6092
1488.0471711832643,6047
1490.1146951896926,6236
1492.1816823529098,6216
1494.2481329212433,6238
1496.3140471430984,6322
1498.3794252669609,6280
1500.4442675413939,6211
1502.5085742150404,6469
1504.572345536622,6320
1506.6355817549388,6208
1508.6982831188702,6340
1510.7604498773744,6549
1512.8220822794883,6455
1514.8831805743293,6537
1516.9437450110909,6503
1519.003775839048,6476
1521.0632733075522,6614
1523.1222376660367,6490
1525.1806691640113,6497
1527.2385680510652,6702
1529.2959345768668,6630
1531.3527689911643,6653
1533.4090715437833,6827
1535.4648424846291,6850
1537.5200820636855,6958
1539.5747905310159,7018
1541.6289681367616,6980
1543.6826151311434,6983
1545.7357317644614,6970
1547.7883182870937,7139
1549.8403749494987,7150
1551.8919020022113,7188
1553.9428996958477,7400
1555.9933682811015,7263
1558.0433080087469,7368
1560.0927191296346,7347
1562.1416018946961,7411
1564.1899565549415,7534
1566.2377833614592,7322
1568.2850825654164,7248
1570.3318544180606,7042
1572.3780991707158,6969
1574.423817074788,6860
1576.4690083817595,6624
1578.5136733431923,6613
1580.5578122107272,6458
1582.601425236085,6493
1584.6445126710646,6324
1586.6870747675434,6083
1588.7291117774776,5936
1590.7706239529034,5974
1592.8116115459347,5827
1594.8520748087658,5671
1596.8920139936686,5678
1598.9314293529933,5631
1600.9703211391711,5605
1603.008689604711,5477
1605.0465350022005,5427
1607.0838575843068,5363
1609.1206576037753,5475
1611.1569353134305,5363
1613.1926909661765,5339
1615.2279248149953,5269
1617.2626371129481,5208
1619.2968281131757,5240
1621.3304980688963,5171
1623.3636472334088,5221
1625.39627586009,5211
1627.428384202396,5192
1629.459972513861,5090
1631.4910410480993,5072
1633.5215900588028,5127
1635.551619799744,5123
1637.5811305247717,5115
1639.6101224878166,5048
1641.6385959428862,5068
1643.6665511440683,5055
1645.693988345528,5036
1647.7209078015112,5104
1649.7473097663405,5066
1651.7731944944203,5111
1653.7985622402307,5113
1655.823413258333,4937
1657.847747803366,4970
1659.8715661300494,5048
1661.8948684931793,5077
1663.9176551476316,5018
1665.9399263483624,4980
1667.9616823504057,5038
1669.982923408873,4980
1672.0036497789574,4947
1674.0238617159293,4822
1676.043559475138,4934
1678.0627433120121,5056
1680.081413482059,4925
1682.0995702408654,4862
1684.117213844096,4955
1686.134344547495,5027
1688.1509626068864,4930
1690.1670682781705,4972
1692.182661817329,4879
1694.1977434804217,4927
1696.2123135235875,4874
1698.226372203043,4910
1700.2399197750851,4952
1702.2529564960905,4937
1704.2654826225112,4820
1706.277498410882,4879
1708.2890041178139,4875
1710.2999999999988,4840
1712.3104863142066,4821
1714.3204633172854,4933
1716.329931266163,4929
1718.3388904178469,4772
1720.3473410294214,4903
1722.3552833580516,4922
1724.3627176609807,4843
1726.3696441955308,5011
1728.3760632191033,4875
1730.3819749891782,4880
1732.3873797633146,4882
1734.3922777991502,4877
1736.3966693544012,4776
1738.4005546868639,4777
1740.4039340544127,4840
1742.406807715001,4869
1744.4091759266616,4869
1746.4110389475054,4889
1748.4123970357223,4898
1750.413250449582,4921
1752.4135994474318,4802
1754.4134442876993,4836
1756.4127852288902,4746
1758.4116225295893,4843
1760.4099564484595,4784
1762.407787244244,4784
1764.405115175764,4739
1766.4019405019203,4801
1768.3982634816916,4790
1770.3940843741357,4796
1772.3894034383907,4782
1774.3842209336717,4784
1776.378537119274,4790
1778.372352254571,4730
1780.3656665990156,4646
1782.3584804121397,4800
1784.3507939535534,4877
1786.3426074829463,4874
1788.3339212600863,4889
1790.3247355448211,4889
1792.3150505970766,4713
1794.3048666768573,4750
1796.2941840442477,4819
1798.2830029594106,4782
1800.2713236825884,4826
1802.2591464741004,4873
1804.2464715943465,4807
1806.2332993038058,4845
1808.2196298630352,4820
1810.2054635326708,4862
1812.190800573428,4823
1814.175641246101,4854
1816.1599858115628,4830
1818.1438345307652,4864
1820.127187664738,4802
1822.1100454745924,4837
1824.092408221516,4809
1826.0742761667766,4819
1828.055649571721,4698
1830.0365286977735,4832
1832.0169138064398,4844
1833.9968051593014,4748
1835.9762030180214,4690
1837.9551076443408,4783
1839.9335193000788,4893
1841.9114382471344,4701
1843.888864747485,4791
1845.8657990631878,4814
1847.842241456378,4752
1849.8181921892697,4777
1851.7936515241558,4637
1853.7686197234098,4753
1855.7430970494815,4727
1857.7170837649014,4752
1859.6905801322787,4829
1861.6635864143004,4812
1863.6361028737338,4772
1865.608129773424,4656
1867.5796673762961,4815
1869.5507159453537,4802
1871.521275743678,4917
1873.4913470344313,4852
1875.4609300808534,4883
1877.4300251462632,4802
1879.3986324940588,4929
1881.366752387717,4819
1883.3343850907936,4825
1885.3015308669228,4845
1887.268189979819,4848
1889.2343626932739,4908
1891.2000492711595,4817
1893.1652499774254,4882
1895.1299650761011,4805
1897.0941948312952,4833
1899.0579395071945,4849
1901.0211993680641,4878
1902.98397467825,4824
1904.9462657021745,4899
1906.9080727043415,4776
1908.869395949332,4756
1910.8302357018065,4772
1912.790592226504,4877
1914.7504657882428,4819
1916.7098566519212,4869
1918.6687650825133,4882
1920.6271913450764,4790
1922.5851357047422,4917
1924.5425984267245,4841
1926.499579776314,4798
1928.4560800188833,4785
1930.4120994198802,4745
1932.367638244833,4707
1934.32269675935,4812
1936.2772752291175,4862
1938.231373919899,4697
1940.1849930975404,4888
1942.1381330279637,4702
1944.0907939771696,4824
1946.0429762112412,4831
1947.9946799963363,4774
1949.9459055986945,4800
1951.896653284633,4888
1953.8469233205478,4822
1955.7967159729142,4779
1957.7460315082863,4792
1959.6948701932974,4748
1961.6432322946594,4813
1963.5911180791632,4909
1965.5385278136787,4849
1967.4854617651545,4941
1969.4319202006182,4911
1971.377903387176,4947
1973.3234115920136,4803
1975.268445082395,4787
1977.2130041256642,4863
1979.1570889892423,4937
1981.1006999406304,4838
1983.04383724741,4800
1984.986501177238,4749
1986.928691997853,4795
1988.8704099770712,4694
1990.811655382789,4773
1992.7524284829801,4865
1994.692729545698,4822
1996.6325588390755,4837
1998.5719166313224,4762
2000.5108031907307,4856
2002.4492187856677,4942
2004.387163684583,4644
2006.3246381560011,4881
2008.2616424685298,4890
2010.1981768908527,4849
2012.1342416917332,4776
2014.069837140014,4836
2016.0049635046162,4813
2017.9396210545406,4826
2019.8738100588666,4869
2021.8075307867502,4716
2023.740783507431,4741
2025.6735684902228,4632
2027.6058860045214,4792
2029.5377363198004,4799
2031.4691197056118,4899
2033.4000364315875,4863
2035.3304867674374,4836
2037.260470982952,4695
2039.189989347998,4763
2041.1190421325232,4807
2043.047629606554,4910
2044.9757520401945,4742
2046.9034097036288,4868
2048.8306028671195,4815
2050.7573318010086,4856
2052.683596775716,4716
2054.609398061742,4882
2056.5347359296647,4881
2058.4596106501403,4845
2060.384022493906,4872
2062.3079717317764,4873
2064.231458634646,4827
2066.1544834734873,4900
2068.077046519352,4797
2069.99914804337,4864
2071.9207883167524,4810
2073.8419676107865,4775
2075.7626861968406,4821
2077.6829443463607,4837
2079.6027423308715,4897
2081.522080421977,4713
2083.440958891362,4832
2085.359378010786,4843
2087.2773380520907,4847
2089.194839287196,4879
2091.111881988101,4887
2093.0284664268825,4816
2094.9445928756973,4911
2096.86026160678,4865
2098.775472892446,4877
2100.690227005088,4859
2102.604524217178,4723
2104.5183648012676,4877
2106.431749029985,4632
2108.34467717604,4885
2110.2571495122206,4933
2112.169166311393,4852
2114.080727846503,4870
2115.9918343905747,4842
2117.902486216711,4820
2119.8126835980956,4884
2121.722426807987,4928
2123.6317161197285,4822
2125.5405518067364,4962
2127.448934142509,4885
2129.356863400624,5036
2131.264339854737,5045
2133.1713637785815,4997
2135.077935445972,4936
2136.9840551308002,4943
2138.889723107037,4852
2140.7949396487334,5021
2142.699705030018,4896
2144.6040195250994,4964
2146.507883408264,5042
2148.4112969538774,4936
2150.3142604363848,5059
2152.2167741303097,4902
2154.1188383102535,4917
2156.0204532508997,4941
2157.9216192270064,4993
2159.822336513414,5108
2161.7226053850413,5003
2163.622426116884,5027
2165.5217989840185,5059
2167.4207242616,5074
2169.319202224862,5032
2171.2172331491165,5029
2173.1148173097563,4958
2175.0119549822507,4965
2176.90864644215,5042
2178.8048919650823,5045
2180.7006918267534,4981
2182.596046302952,5005
2184.4909556695407,4954
2186.3854202024645,4985
2188.279440177746,5032
2190.173015871487,4973
2192.066147559868,4976
2193.958835519149,5002
2195.851080025667,5088
2197.7428813558417,5058
2199.6342397861667,5027
2201.5251555932186,5100
2203.415629053651,5115
2205.3056604441986,5078
2207.19525004167,5137
2209.084398122958,5054
2210.9731049650327,5127
2212.861370844941,5066
2214.749196039812,5136
2216.636580826851,5111
2218.523525483344,5295
2220.410030286655,4986
2222.296095514226,5103
2224.1817214435805,5193
2226.066908352319,5035
2227.951656518121,5125
2229.835966218746,5152
2231.71983773203,5124
2233.6032713358913,5136
2235.486267308324,5027
2237.3688259274036,5209
2239.2509474712824,5124
2241.132632218193,5163
2243.013880446447,5138
2244.8946924344323,5058
2246.7750684606203,5129
2248.6550088035574,5164
2250.534513741871,5011
2252.413583554265,5110
2254.292218519526,5058
2256.170418916517,5058
2258.0481850241786,5084
2259.925517121534,5019
2261.8024154876825,5010
2263.678880401803,5010
2265.5549121431536,5093
2267.430510991071,5197
2269.305677224971,5007
2271.180411124348,5069
2273.0547129687766,5163
2274.9285830379076,4987
2276.8020216114737,5085
2278.6750289692845,5188
2280.5476053912294,5105
2282.4197511572766,5169
2284.2914665474727,5281
2286.162751841943,5210
2288.0336073208937,5160
2289.904033264608,5091
2291.774029953448,5175
2293.6435976678554,5085
2295.5127366883517,5165
2297.381447295534,5078
2299.2497297700825,5070
2301.1175843927526,5014
2302.9850114443825,5035
2304.852011205885,4917
2306.7185839582553,4997
2308.5847299825664,5005
2310.4504495599676,4952
2312.3157429716925,4913
2314.1806104990483,4924
2316.0450524234247,5021
2317.9090690262888,4891
2319.772660589186,4973
2321.635827393742,5043
2323.498569721661,4980
2325.3608878547248,4991
2327.2227820747967,4917
2329.0842526638157,4920
2330.945299903803,5076
2332.805924076857,5040
2334.6661254651535,4893
2336.525904350951,5059
2338.3852610165827,5011
2340.244195744464,5006
2342.102708817088,4983
2343.9608005170253,4940
2345.8184711269287,5007
2347.675720929526,5039
2349.532550207628,5108
2351.38895924412,5091
2353.24494832197,4987
2355.100517724223,5028
2356.955667734004,5004
2358.810398634514,4938
2360.664710709037,4987
2362.5186042409337,5007
2364.3720795136437,4990
2366.225136810686,4964
2368.0777764156583,5108
2369.929998612237,5027
2371.7818036841777,4947
2373.633191915315,5010
2375.484163589562,5051
2377.3347189909114,5013
2379.184858403434,5112
2381.03458211128,4878
2382.8838903986775,4991
2384.732783549936,5017
2386.5812618494406,4998
2388.4293255816588,4966
2390.2769750311327,5071
2392.1242104824883,5096
2393.971032220427,5071
2395.8174405297295,5133
2397.6634356952563,5043
2399.509018001947,5055
2401.3541877348193,5122
2403.1989451789705,5081
2405.043290619576,5019
2406.8872243418905,5016
2408.730746631247,5064
2410.5738577730594,5054
2412.4165580528183,5156
2414.258847756095,5001
2416.100727168537,5030
2417.9421965758734,5094
2419.783256263912,5076
2421.623906518538,5136
2423.4641476257157,5118
2425.303979871491,5030
2427.143403541984,5058
2428.9824189233977,5181
2430.821026302012,5042
2432.6592259641866,5132
2434.497018196361,5085
2436.33440328505,5085
2438.171381516851,5012
2440.00795317844,5063
2441.844118556569,5064
2443.6798779380724,5224
2445.5152316098606,5140
2447.3501798589255,5150
2449.1847229723357,5163
2451.0188612372403,5075
2452.8525949408663,5100
2454.6859243705203,5175
2456.518849813587,5093
2458.3513715575314,4970
2460.183489889895,5134
2462.015205098301,5160
2463.8465174704493,5138
2465.67742729412,5014
2467.5079348571717,5155
2469.338040447542,5186
2471.1677443532476,5218
2472.9970468623833,4995
2474.825948263123,5024
2476.6544488437207,5150
2478.482548892508,5118
2480.310248697896,5196
2482.137548548374,5224
2483.9644487325118,5300
2485.790949538956,5183
2487.617051256433,5252
2489.44275417375,5291
2491.26805857979,5222
2493.0929647635157,5199
2494.917473013971,5361
2496.741583620276,5093
2498.5652968716304,5217
2500.3886130573137,5274
2502.2115324666834,5182
2504.0340553891765,5266
2505.856182114308,5232
2507.6779129316733,5104
2509.499248130945,5258
2511.3201880018764,5202
2513.140732834298,5363
2514.9608829181198,5111
2516.780638543331,5230
2518.6,5136
2520.418967578273,5227
2522.237541568376,5269
2524.0557222606144,5303
2525.8735099453706,5251
2527.6909049131086,5260
2529.507907454368,5210
2531.32451785977,5184
2533.140736420014,5330
2534.9565634258774,5253
2536.771999168218,5259
2538.5870439379714,5393
2540.4016980261526,5334
2542.2159617238544,5327
2544.02983532225,5252
2545.8433191125914,5403
2547.656413386209,5309
2549.4691184345115,5425
2551.2814345489874,5267
2553.093362021204,5414
2554.904901142808,5499
2556.716052205523,5503
2558.526815501153,5428
2560.3371913215824,5452
2562.147179958771,5441
2563.956781704761,5554
2565.7659968516705,5356
2567.5748256916986,5379
2569.3832685171224,5525
2571.1913256202984,5377
2572.9989972936614,5380
2574.806283829725,5467
2576.613185521084,5488
2578.4197026604074,5464
2580.2258355404483,5528
2582.031584454035,5524
2583.836949694077,5511
2585.6419315535613,5511
2587.4465303255533,5501
2589.2507463032002,5583
2591.0545797797245,5688
2592.8580310484303,5472
2594.6611004026995,5474
2596.463788135992,5452
2598.266094541849,5476
2600.0680199138874,5570
2601.869564545807,5501
2603.670728731383,5579
2605.4715127644704,5462
2607.2719169390048,5579
2609.071941548998,5544
2610.8715868885433,5467
2612.670853251811,5565
2614.469740933052,5577
2616.268250226594,5381
2618.0663814268455,5717
2619.864134828292,5614
2621.6615107255006,5496
2623.458509413115,5387
2625.2551311858597,5512
2627.0513763385347,5356
2628.8472451660223,5412
2630.6427379632833,5395
2632.4378550253564,5430
2634.232596647359,5593
2636.026963124488,5527
2637.8209547520187,5411
2639.6145718253065,5451
2641.407814639785,5451
2643.200683490966,5420
2644.9931786744414,5450
2646.7853004858807,5394
2648.577049221034,5379
2650.3684251757277,5400
2652.1594286458712,5233
2653.9500599274484,5399
2655.740319316525,5472
2657.5302071092437,5407
2659.3197236018286,5394
2661.10886909058,5369
2662.8976438718782,5350
2664.686048242183,5377
2666.4740824980327,5301
2668.2617469360443,5305
2670.0490418529134,5350
2671.8359675454153,5313
2673.622524310403,5169
2675.408712444811,5369
2677.1945322456495,5247
2678.979984010009,5422
2680.76506803506,5296
2682.5497846180497,5226
2684.334134056306,5327
2686.1181166472343,5384
2687.9017326883213,5333
2689.6849824771293,5243
2691.4678663113013,5198
2693.2503844885596,5293
2695.032537306705,5290
2696.8143250636167,5226
2698.5957480572542,5290
2700.3768065856534,5330
2702.1575009469316,5266
2703.937831439283,5225
2705.717798360982,5313
2707.4974020103837,5254
2709.276642685917,5347
2711.055520686095,5158
2712.834036309506,5186
2714.612189854819,5252
2716.389981620782,5147
2718.1674119062204,5177
2719.944481010041,5124
2721.721189231226,5218
2723.4975368688415,5330
2725.273524222027,5150
2727.0491515900053,5154
2728.824419272075,5195
2730.5993275676146,5275
2732.3738767760838,5311
2734.148067197016,5182
2735.921899130031,5222
2737.6953728748194,5293
2739.468488731156,5286
2741.2412469988926,5030
2743.0136479779617,5192
2744.785691968372,5283
2746.5573792702116,5171
2748.3287101836504,5172
2750.099685008934,5194
2751.870304046388,5190
2753.640567596418,5238
2755.4104759595057,5179
2757.1800294362156,5144
2758.949228327187,5153
2760.7180729331412,5121
2762.486563554877,5284
2764.254700493272,5213
2766.022484049284,5154
2767.789914523947,5219
2769.5569922183786,5277
2771.3237174337705,5122
2773.090090471394,5147
2774.8561116326036,5197
2776.6217812188274,5204
2778.3870995315756,5194
2780.1520668724356,5208
2781.9166835430747,5121
2783.6809498452394,5236
2785.444866080754,5240
2787.2084325515225,5261
2788.971649559527,5148
2790.73451740683,5203
2792.4970363955713,5214
2794.2592068279705,5066
2796.0210290063264,5191
2797.7825032330147,5288
2799.543629810493,5130
2801.304409041296,5154
2803.0648412280366,5245
2804.8249266734088,5265
2806.5846656801846,5303
2808.344058551212,5274
2810.1031055894246,5236
2811.8618070978273,5224
2813.6201633795085,5331
2815.378174737636,5381
2817.1358414754536,5285
2818.893163896285,5353
2820.6501423035334,5186
2822.4067770006814,5224
2824.1630682912883,5191
2825.9190164789957,5231
2827.6746218675207,5286
2829.429884760661,5112
2831.184805462294,5242
2832.9393842763743,5339
2834.693621506936,5390
2836.4475174580916,5307
2838.201072434034,5149
2839.954286739034,5298
2841.707160677441,5236
2843.459694553685,5260
2845.2118886722724,5291
2846.96374333779,5305
2848.7152588549034,5369
2850.4664355283567,5395
2852.217273662973,5286
2853.9677735636546,5301
2855.7179355353833,5217
2857.4677598832186,5264
2859.217246912299,5294
2860.9663969278427,5386
2862.715210235146,5357
2864.4636871395846,5273
2866.211827946614,5286
2867.9596329617652,5205
2869.7071024906536,5214
2871.4542368389684,5258
2873.20103631248,5286
2874.947501217038,5279
2876.6936318585695,5258
2878.4394285430812,5220
2880.1848915766604,5240
2881.9300212654707,5159
2883.6748179157553,5301
2885.4192818338374,5228
2887.1634133261173,5389
2888.907212699077,5318
2890.6506802592744,5238
2892.393816313348,5227
2894.1366211680142,5439
2895.8790951300693,5296
2897.621238506388,5191
2899.363051603925,5308
2901.1045347297118,5253
2902.8456881908596,5301
2904.58651229456,5191
2906.327007348081,5166
2908.067173658772,5372
2909.8070115340597,5374
2911.5465212814497,5304
2913.285703208527,5325
2915.0245576229563,5172
2916.7630848324807,5149
2918.5012851449196,5154
2920.2391588681758,5212
2921.976706310227,5106
2923.7139277791334,5071
2925.4508235830313,5194
2927.187394030137,5277
2928.923639428745,5340
2930.6595600872306,5332
2932.395156314046,5283
2934.1304284177218,5207
2935.8653767068713,5354
2937.6000014901815,5259
2939.3343030764227,5225
2941.068281774442,5311
2942.8019378931644,5299
2944.5352717415976,5419
2946.2682836288236,5316
2948.0009738640065,5284
2949.7333427563885,5292
2951.465390615289,5276
2953.1971177501086,5263
2954.9285244703265,5325
2956.6596110855,5188
2958.3903779052657,5346
2960.1208252393385,5144
2961.8509533975125,5380
2963.5807626896617,5233
2965.3102534257378,5266
2967.0394259157715,5231
2968.768280469873,5233
2970.496817398232,5208
2972.2250370111146,5195
2973.952939618869,5357
2975.6805255319196,5339
2977.4077950607707,5328
2979.134748516006,5272
2980.861386208289,5232
2982.587708448359,5308
2984.313715547037,5324
2986.039407815222,5287
2987.764785563891,5240
2989.489849104102,5331
2991.2145987469908,5202
2992.9390348037705,5358
2994.6631575857346,5360
2996.3869674042576,5351
2998.1104645707887,5259
2999.83364939686,5300
3001.5565221940783,5138
3003.2790832741334,5223
3005.0013329487924,5234
3006.7232715298996,5378
3008.4448993293804,5199
3010.166216659239,5248
3011.887223831558,5294
3013.607921158498,5284
3015.3283089522993,5209
3017.0483875252826,5261
3018.7681571898443,5366
3020.4876182584626,5341
3022.2067710436927,5396
3023.9256158581707,5315
3025.644153014609,5221
3027.362382825801,5215
3029.0803056046193,5379
3030.797921664012,5348
3032.5152313170106,5330
3034.2322348767225,5302
3035.9489326563353,5319
3037.665324969115,5310
3039.3814121284063,5366
3041.097194447633,5264
3042.812672240299,5216
3044.5278458199855,5295
3046.2427155003525,5338
3047.9572815951406,5232
3049.671544418167,5346
3051.38550428333,5324
3053.0991615046073,5371
3054.812516396051,5341
3056.5255692717974,5339
3058.2383204460575,5323
3059.9507702331257,5332
3061.662918947372,5389
3063.3747669032446,5293
3065.0863144152736,5334
3066.7975617980674,5237
3068.508509366309,5125
3070.219157434767,5151
3071.9295063182844,5323
3073.639556331785,5355
3075.3493077902704,5286
3077.058761008821,5458
3078.7679163025964,5273
3080.476773986837,5333
3082.1853343768594,5367
3083.89359778806,5294
3085.6015645359153,5245
3087.3092349359786,5302
3089.016609303884,5402
3090.7236879553434,5367
3092.4304712061476,5242
3094.136959372166,5305
3095.843152769349,5260
3097.5490517137237,5338
3099.2546565213966,5353
3100.959967508554,5386
3102.66498499146,5308
3104.3697092864577,5301
3106.0741407099695,5320
3107.778279578498,5215
3109.482126208622,5424
3111.1856809170004,5299
3112.8889440203716,5402
3114.5919158355528,5419
3116.294596679439,5404
3117.996986869006,5266
3119.6990867213062,5412
3121.4008965534726,5428
3123.102416682717,5415
3124.803647426329,5467
3126.5045891016784,5397
3128.205242026213,5414
3129.90560651746,5346
3131.605682893025,5442
3133.3054714705922,5402
3135.0049725679282,5358
3136.7041865028714,5358
3138.4031135933465,5373
3140.101754157353,5422
3141.800108512971,5336
3143.498176978357,5189
3145.1959598717494,5287
3146.8934575114636,5385
3148.5906702158954,5360
3150.2875983035183,5309
3151.9842420928853,5264
3153.680601902627,5252
3155.376678051456,5254
3157.07247085816,5361
3158.767980641609,5365
3160.463207720748,5411
3162.158152414606,5345
3163.8528150422862,5357
3165.5471959229726,5348
3167.2412953759303,5275
3168.9351137204976,5435
3170.628651276098,5275
3172.3219083622307,5370
3174.014885298474,5263
3175.707582404485,5300
3177.4000000000005,5504
3179.092138404835,5379
3180.7839979388846,5481
3182.47557892212,5335
3184.166881674594,5361
3185.8579065164386,5436
3187.5486537678626,5471
3189.2391237491547,5442
3190.9293167806827,5391
3192.6192331828934,5461
3194.3088732763117,5314
3195.998237381542,5326
3197.687325819268,5316
3199.376138910251,5354
3201.064676975334,5311
3202.7529403354347,5357
3204.4409293115523,5376
3206.1286442247647,5365
3207.816085396229,5365
3209.5032531471825,5375
3211.190147798936,5398
3212.8767696728846,5403
3214.5631190905015,5254
3216.2491963733373,5105
3217.9350018430214,5306
3219.6205358212637,5206
3221.305798629851,5241
3222.990790590651,5262
3224.6755120256103,5362
3226.359963256751,5155
3228.0441446061795,5222
3229.7280563960758,5202
3231.411698948703,5356
3233.0950725863995,5353
3234.778177631587,5413
3236.461014406761,5329
3238.1435832345005,5312
3239.8258844374595,5475
3241.507918338374,5376
3243.1896852600576,5460
3244.8711855254023,5426
3246.552419457381,5383
3248.233387379042,5328
3249.914089613516,5403
3251.59452648401,5332
3253.274698313813,5360
3254.95460542629,5343
3256.6342481448855,5436
3258.313626793125,5345
3259.9927416946084,5282
3261.6715931730196,5299
3263.3501815521176,5216
3265.0285071557437,5257
3266.706570307815,5254
3268.3843713323286,5247
3270.0619105533615,5395
3271.739188295068,5279
3273.4162048816834,5281
3275.0929606375184,5361
3276.769455886966,5336
3278.445690954498,5440
3280.1216661646613,5328
3281.797381842087,5385
3283.4728383114807,5394
3285.1480358976296,5413
3286.8229749253996,5279
3288.4976557197333,5248
3290.172078605655,5453
3291.846243908266,5259
3293.5201519527463,5304
3295.193803064357,5359
3296.8671975684374,5296
3298.5403357904024,5334
3300.21321805575,5416
3301.8858446900567,5178
3303.558216018975,5384
3305.23033236824,5468
3306.9021940636603,5320
3308.57380143113,5333
3310.2451547966184,5257
3311.916254486174,5453
3313.5871008259246,5395
3315.2576941420766,5504
3316.9280347609147,5340
3318.5981230088046,5322
3320.2679592121895,5289
3321.9375436975924,5261
3323.606876791612,5140
3325.27595882093,5151
3326.944790112305,5221
3328.6133709925753,5409
3330.2817017886573,5269
3331.949782827547,5326
3333.617614436319,5361
3335.2851969421245,5298
3336.952530672199,5174
3338.619615953853,5328
3340.286453114475,5354
3341.9530424815357,5320
3343.619384382583,5481
3345.2854791452437,5479
3346.951327097224,5480
3348.6169285663073,5306
3350.2822838803577,5418
3351.947393367319,5408
3353.61225735521,5456
3355.2768761721345,5500
3356.9412501462693,5447
3358.605379605873,5337
3360.2692648792827,5453
3361.9329062949146,5386
3363.596304181263,5278
