CollectionTime,9/20/2024 11:12:37 AM
ExposureUsed,3
CalibratedSpectrum
-962.7078968117929,2140
-959.9714848408522,2232
-957.2358232597828,2274
-954.5009119013725,2285
-951.7667505983302,2241
-949.0333391832855,2240
-946.3006774887896,2321
-943.5687653473143,2313
-940.837602591253,2303
-938.1071890529199,2341
-935.3775245645503,2292
-932.6486089583007,2318
-929.9204420662485,2276
-927.1930237203925,2335
-924.4663537526524,2320
-921.7404319948689,2440
-919.0152582788041,2425
-916.2908324361409,2373
-913.5671542984834,2271
-910.8442236973568,2209
-908.1220404642074,2324
-905.4006044304027,2312
-902.679915427231,2328
-899.959973285902,2337
-897.2407778375464,2263
-894.5223289132158,2364
-891.8046263438832,2317
-889.0876699604426,2341
-886.3714595937089,2301
-883.6559950744183,2345
-880.9412762332282,2362
-878.2273029007168,2341
-875.5140749073835,2413
-872.8015920836489,2382
-870.0898542598545,2363
-867.3788612662631,2385
-864.6686129330585,2329
-861.9591090903457,2333
-859.2503495681506,2346
-856.5423341964203,2394
-853.8350628050229,2377
-851.1285352237478,2393
-848.4227512823054,2406
-845.7177108103272,2347
-843.0134136373656,2429
-840.3098595928943,2366
-837.6070485063082,2382
-834.9049802069229,2393
-832.2036545239757,2443
-829.5030712866244,2420
-826.8032303239481,2397
-824.1041314649472,2462
-821.4057745385428,2415
-818.7081593735775,2378
-816.0112857988148,2385
-813.3151536429393,2445
-810.6197627345566,2419
-807.9251129021936,2403
-805.2312039742981,2422
-802.5380357792392,2494
-799.8456081453069,2392
-797.1539209007124,2483
-794.462973873588,2574
-791.772766891987,2498
-789.083299783884,2569
-786.3945723771743,2523
-783.7065844996748,2533
-781.0193359791231,2533
-778.3328266431781,2436
-775.6470563194197,2473
-772.9620248353489,2528
-770.2777320183878,2548
-767.5941776958798,2537
-764.9113616950891,2567
-762.2292838432011,2545
-759.5479439673222,2497
-756.8673418944801,2565
-754.1874774516235,2535
-751.5083504656222,2579
-748.8299607632671,2600
-746.15230817127,2547
-743.475392516264,2533
-740.7992136248035,2562
-738.1237713233636,2515
-735.4490654383407,2618
-732.7750957960521,2496
-730.1018622227365,2626
-727.4293645445534,2504
-724.7576025875837,2570
-722.0865761778291,2560
-719.4162851412126,2642
-716.7467293035781,2623
-714.0779084906909,2629
-711.409822528237,2678
-708.7424712418238,2685
-706.0758544569796,2595
-703.4099719991541,2748
-700.7448236937178,2643
-698.0804093659622,2606
-695.4167288411002,2657
-692.7537819442656,2689
-690.0915685005134,2667
-687.4300883348199,2720
-684.7693412720819,2702
-682.1093271371178,2756
-679.4500457546669,2755
-676.7914969493897,2826
-674.1336805458676,2727
-671.4765963686034,2671
-668.8202442420206,2700
-666.1646239904642,2746
-663.5097354382001,2736
-660.8555784094151,2728
-658.2021527282176,2788
-655.5494582186366,2747
-652.8974947046223,2750
-650.2462620100463,2823
-647.5957599587009,2820
-644.9459883742998,2881
-642.2969470804776,2913
-639.6486359007902,2901
-637.0010546587141,2793
-634.3542031776476,2930
-631.7080812809096,2823
-629.0626887917401,2858
-626.4180255333008,2898
-623.7740913286734,2961
-621.1308860008619,2895
-618.4884093727904,2845
-615.8466612673046,2931
-613.2056415071715,2906
-610.5653499150785,2853
-607.9257863136347,2956
-605.28695052537,2926
-602.6488423727357,2905
-600.0114616781036,2782
-597.3748082637674,2903
-594.7388819519412,3022
-592.1036825647604,3040
-589.4692099242818,2939
-586.8354638524829,2916
-584.2024441712624,2931
-581.5701507024403,3058
-578.9385832677575,3079
-576.3077416888759,3079
-573.6776257873787,3003
-571.0482353847704,2961
-568.4195703024757,2951
-565.7916303618415,3013
-563.164415384135,3036
-560.5379251905453,2978
-557.9121596021815,2990
-555.2871184400748,3015
-552.6628015251767,3051
-550.0392086783606,3039
-547.4163397204204,3069
-544.794194472071,3064
-542.1727727539491,3130
-539.5520743866118,3046
-536.9320991905377,3155
-534.3128469861261,3181
-531.6943175936979,3131
-529.0765108334947,3133
-526.4594265256793,3279
-523.8430644903358,3369
-521.2274245474689,3465
-518.612506517005,3706
-515.9983102187913,3536
-513.3848354725959,3630
-510.77208209810846,3729
-508.16004991493924,3714
-505.5487387426199,3769
-502.9381484006032,3795
-500.3282787082628,3912
-497.71912948489364,3906
-495.1107005497117,3867
-492.5029917218539,3712
-489.8960028203786,3674
-487.28973366426493,3550
-484.68418407241325,3454
-482.07935386364494,3290
-479.47524285670266,3390
-476.87185087025,3401
-474.2691777228715,3412
-471.66722323307334,3440
-469.0659872192821,3387
-466.4654694998459,3421
-463.86566989303384,3401
-461.26658821703614,3387
-458.66822428996414,3364
-456.07057792985,3463
-453.4736489546475,3436
-450.877437182231,3300
-448.28194243039627,3227
-445.68716451686,3360
-443.09310325926003,3250
-440.49975847515555,3240
-437.9071299820263,3284
-435.31521759727354,3283
-432.72402113821954,3289
-430.13354042210767,3252
-427.5437752661022,3198
-424.95472548728867,3326
-422.36639090267386,3409
-419.7787713291855,3422
-417.1918665836721,3403
-414.60567648290385,3429
-412.0202008435715,3517
-409.4354394822874,3518
-406.8513922155845,3569
-404.26805885991723,3613
-401.685439231661,3546
-399.103533147112,3607
-396.522340422488,3404
-393.9418608739278,3444
-391.3620943174908,3377
-388.7830405691583,3222
-386.2046994448317,2980
-383.6270707603344,2829
-381.05015433141045,2719
-378.473949973725,2525
-375.8984575028645,2336
-373.32367673433623,1992
-370.74960748356875,1838
-368.1762495659117,1538
-365.60360279663576,1285
-363.03166699093265,1147
-360.4604419639154,931
-357.8899275306178,810
-355.32012350599507,774
-352.7510297049233,658
-350.1826459421999,638
-347.61497203254316,593
-345.04800779059235,646
-342.4817530309082,643
-339.91620756797226,699
-337.35137121618743,705
-334.7872437898774,653
-332.22382510328725,593
-329.66111497058273,557
-327.09911320585127,556
-324.53781962310075,635
-321.9772340362607,607
-319.4173562591816,566
-316.8581861056348,560
-314.2997233893127,626
-311.7419679238294,689
-309.1849195227194,635
-306.62857799943856,673
-304.0729431673641,654
-301.51801483979375,601
-298.963792829947,619
-296.41027695096386,639
-293.85746701590574,688
-291.3053628377552,636
-288.7539642294155,637
-286.2032710037115,657
-283.65328297338897,719
-281.1039999511146,810
-278.5554217494762,786
-276.007548180983,702
-273.4603790580651,725
-270.9139141930734,757
-268.3681533982807,843
-265.8230964858798,864
-263.27874326798565,861
-260.7350935566336,755
-258.1921471637804,815
-255.6499039013039,1038
-253.10836358100266,988
-250.56752601459698,894
-248.02739101372765,981
-245.48795838995704,960
-242.94922795476816,933
-240.41119951956557,989
-237.8738728956746,844
-235.33724789434166,831
-232.80132432673452,876
-230.2661020039418,916
-227.73158073697357,1071
-225.19776033676033,1001
-222.66464061415422,1099
-220.1322213799284,1152
-217.60050244477725,999
-215.06948361931552,993
-212.53916471408013,1127
-210.00954553952818,1135
-207.48062590603843,1153
-204.9524056239104,1081
-202.4248845033651,1209
-199.8980623545441,1262
-197.37193898751036,1248
-194.84651421224817,1236
-192.32178783866232,1105
-189.79775967657952,1059
-187.27442953574644,1231
-184.7517972258321,1366
-182.2298625564256,1165
-179.7086253370378,1082
-177.18808537710026,1100
-174.66824248596583,1374
-172.14909647290835,1581
-169.6306471471229,1452
-167.11289431772548,1277
-164.59583779375328,1168
-162.07947738416453,1351
-159.5638128978386,1767
-157.04884414357605,1777
-154.53457093009854,1702
-152.02099306604828,1367
-149.50811035998936,1287
-146.99592262040665,1725
-144.48442965570587,2092
-141.97363127421409,2044
-139.46352728417958,1918
-136.95411749377126,1941
-134.44540171107985,1515
-131.93737974411636,1383
-129.43005140081357,1472
-126.92341648902493,2214
-124.41747481652521,2263
-121.91222619101006,2885
-119.40767042009657,3005
-116.90380731132257,2773
-114.40063667214702,3225
-111.8981583099503,4345
-109.3963720320337,6341
-106.89527764561933,9992
-104.39487495785067,11722
-101.89516377579241,16050
-99.39614390642998,20883
-96.89781515667039,27731
-94.40017733334128,33555
-91.90323024319173,30433
-89.40697369289148,19893
-86.91140748903172,12572
-84.41653143812482,10305
-81.92234534660395,14691
-79.42884902082358,23446
-76.93604226705907,29501
-74.4439248915071,29697
-71.95249670028534,26515
-69.46175749943245,19640
-66.97170709490854,13596
-64.48234529259423,11121
-61.99367189829195,10243
-59.50568671772464,9404
-57.01838955653636,12030
-54.53178022029283,17344
-52.045858514480074,23220
-49.560624244506016,32542
-47.07607721569923,39084
-44.59221723330904,40265
-42.10904410250669,42678
-39.62655762838392,41256
-37.14475761595372,42875
-34.66364387015028,40196
-32.18321619582866,40519
-29.70347439776515,42844
-27.224418280657005,39835
-24.74604764912317,45240
-22.26836230770266,65037
-19.7913620608565,65037
-17.315046712966478,65037
-14.83941606833514,65037
-12.36446993118659,65037
-9.89020810566592,65037
-7.416630395839093,65037
-4.94373660569363,65037
-2.471526539137585,65037
-6.821210263296962E-13,65037
2.47084320796705,65037
4.941003281093458,65037
7.410480415786196,65037
9.879274808531363,65037
12.347386655893956,65037
14.814816154518212,65037
17.28156350112681,65037
19.74762889252179,65037
22.21301252558385,27181
24.67771459727237,7992
27.141735304626195,7915
29.605074844762612,8037
32.06773341487792,5547
34.52971121224755,5501
36.99100843422559,5138
39.45162527824516,4109
41.91156194181792,4402
44.370818622535126,4450
46.82939551806646,4448
49.287292826160524,6805
51.74451074464503,6914
54.201049471426245,4146
56.65690920448981,3159
59.112090141899785,2813
61.56659248179983,2964
64.02041642241159,3179
66.4735621620365,3319
68.92602989905402,3608
71.37781983192338,3845
73.82893215918205,3192
76.27936707944684,2364
78.72912479141326,2340
81.17820549385567,2348
83.62660938562783,2356
86.07433666566146,1931
88.5213875329681,1889
90.96776218663751,2366
93.41346082583925,2724
95.85848364982041,2886
98.30283085790859,2430
100.7465026495089,1950
103.18949922410604,1870
105.63182078126385,1656
108.07346752062438,1827
110.51443964190923,1690
112.95473734491827,1821
115.39436082953114,1849
117.83331029570547,1962
120.27158594347827,2272
122.7091879729652,1822
125.1461165843615,1954
127.58237197794062,1797
130.01795435405518,1788
132.4528639131364,1770
134.88710085569494,1989
137.32066538231982,2049
139.75355769367923,2013
142.1857779905207,1472
144.61732647366978,1289
147.04820334403132,1307
149.47840880258934,1504
151.90794305040674,1922
154.33680628862487,2191
156.76499871846443,2338
159.19252054122433,2485
161.61937195828352,2712
164.04555317109896,2849
166.47106438120693,3235
168.89590579022217,3627
171.320077599839,4153
173.7435800118302,4318
176.16641322804742,4508
178.58857745042144,4695
181.01007288096173,4876
183.43089972175687,4831
185.85105817497413,4993
188.27054844285988,5119
190.6893707277394,5310
193.10752523201643,5415
195.5250121581745,5789
197.9418317087751,5970
200.3579840864594,5883
202.7734694939469,5864
205.18828813403627,5980
207.6024402096051,6005
210.01592592360964,6089
212.42874547908548,5885
214.84089907914665,5942
217.2523869269868,6026
219.66320922587727,6089
222.0733661791695,6005
224.48285799029293,5872
226.8916848627572,6012
229.29984700014882,5956
231.7073446061355,6002
234.11417788446204,6177
236.520347038953,6383
238.92585227351185,6396
241.33069379212054,6394
243.73487179884035,6511
246.1383864978112,6524
248.541238093252,6439
250.9434267894609,6481
253.34495279081432,6336
255.74581630176783,6393
258.1460175268563,6298
260.54555667069314,6220
262.9444339379703,6306
265.3426495334594,6586
267.7402036620107,6351
270.1370965285529,6313
272.53332833809407,6118
274.9288992957214,5873
277.32380960660055,5942
279.718059475976,5758
282.1116491091717,5955
284.5045787115897,5703
286.89684848871195,5813
289.2884586460981,5847
291.67940938938807,5876
294.0697009242996,5923
296.4593334566299,5849
298.84830719225477,5816
301.23662233712923,5864
303.6242790972866,5804
306.01127767884,5718
308.39761828798066,5714
310.78330113097934,5676
313.16832641418534,5652
315.5526943440269,5614
317.9364051270112,5607
320.3194589697242,5718
322.70185607883093,5544
325.0835966610754,5451
327.4646809232805,5464
329.8451090723478,5410
332.2248813152577,5552
334.6039978590701,5581
336.9824589109231,5551
339.36026467803447,5416
341.7374153677,5472
344.113911187295,5460
346.48975234427337,5492
348.8649390461686,5453
351.2394715005918,5465
353.61334991523415,5409
355.9865744978655,5363
358.35914545633375,5454
360.73106299856715,5408
363.10232733257146,5405
365.47293866643247,5454
367.84289720831396,5398
370.2122031664593,5433
372.5808567491905,5279
374.9488581649083,5423
377.31620762209275,5440
379.6829053293021,5330
382.0489514951745,5349
384.4143463284262,5430
386.7790900378528,5240
389.14318283232853,5348
391.50662492080653,5358
393.86941651231916,5358
396.23155781597745,5225
398.5930490409713,5441
400.9538903965696,5197
403.3140820921202,5100
405.6736243370498,5254
408.03251734086336,5235
410.3907613131465,5180
412.74835646356166,5257
415.10530300185144,5268
417.4616011378372,5249
419.81725108141893,5307
422.1722530425758,5289
424.5266072313656,5267
426.880313857925,5243
429.2333731324701,5168
431.58578526529516,5185
433.9375504667738,5305
436.2886689473588,5271
438.63914091758113,5325
440.9889665880513,5234
443.33814616945835,5224
445.68667987257015,5288
448.03456790823395,5142
450.3818104873759,5209
452.72840782100013,4958
455.07436012019105,5129
457.41966759611057,5231
459.7643304600007,5203
462.10834892318155,5175
464.4517231970525,5128
466.79445349309174,5119
469.1365400228566,5402
471.4779829979826,5235
473.81878263018564,5228
476.15893913125876,5295
478.4984527130747,5324
480.8373235875855,5297
483.17555196682144,5453
485.5131380628919,5373
487.8500820879857,5559
490.1863842543697,5689
492.52204477439034,5944
494.8570638604725,5913
497.1914417251204,6356
499.52517858091653,6446
501.85827464052306,6712
504.19073011668036,6706
506.5225452222086,6707
508.85372017000566,6712
511.18425517304956,6646
513.514150444396,7129
515.8434061971808,8175
518.1720226446176,9010
520.4999999999999,9271
522.8273384766991,8915
525.1540382881666,8672
527.480099647932,8114
529.8055227696037,7080
532.1303078668694,6080
534.454455153496,5668
536.777964843328,5439
539.1008371502907,5396
541.4230722883866,5436
543.744670471698,5488
546.0656319143858,5456
548.3859568306899,5354
550.7056454349294,5325
553.0246979415016,5402
555.3431145648834,5319
557.6608955196306,5323
559.978041020377,5307
562.2945512818363,5219
564.6104265188006,5160
566.9256669461412,5302
569.2402727788082,5244
571.5542442318302,5273
573.8675815203156,5394
576.1802848594508,5429
578.4923544645015,5377
580.8037905508126,5403
583.114593333807,5458
585.4247630289875,5290
587.7342998519354,5377
590.0432040183106,5354
592.3514757438526,5364
594.6591152443794,5363
596.9661227357875,5339
599.2724984340531,5335
601.578242555231,5323
603.8833553154542,5358
606.1878369309362,5312
608.4916876179676,5260
610.7949075929192,5325
613.0974970722403,5372
615.3994562724587,5293
617.7007854101818,5439
620.0014847020951,5259
622.3015543649641,5300
624.6009946156324,5414
626.8998056710224,5339
629.1979877481361,5278
631.4955410640538,5398
633.7924658359349,5243
636.0887622810175,5277
638.3844306166192,5355
640.6794710601358,5523
642.9738838290426,5372
645.2676691408932,5384
647.5608272133207,5401
649.853358264037,5382
652.1452625108324,5436
654.4365401715764,5437
656.7271914642178,5490
659.0172166067838,5530
661.3066158173809,5601
663.5953893141935,5331
665.8835373154867,5347
668.1710600396028,5436
670.4579577049639,5577
672.7442305300709,5406
675.0298787335033,5483
677.3149025339197,5450
679.599302150058,5439
681.8830778007342,5493
684.1662297048437,5456
686.4487580813608,5555
688.7306631493387,5510
691.0119451279091,5536
693.2926042362834,5601
695.5726406937516,5469
697.8520547196814,5448
700.1308465335215,5438
702.4090163547982,5331
704.6865644031171,5602
706.9634908981619,5368
709.2397960596965,5500
711.5154801075631,5376
713.7905432616823,5614
716.0649857420548,5484
718.3388077687592,5474
720.612009561953,5500
722.8845913418733,5371
725.1565533288352,5365
727.427895743234,5442
729.6986188055427,5513
731.9687227363137,5550
734.238207756178,5468
736.5070740858458,5481
738.7753219461066,5485
741.0429515578281,5519
743.3099631419569,5458
745.5763569195191,5586
747.8421331116193,5476
750.1072919394409,5381
752.3718336242467,5459
754.6357583873777,5576
756.8990664502545,5521
759.1617580343765,5507
761.423833361321,5454
763.6852926527457,5481
765.9461361303862,5538
768.206364016058,5541
770.4659765316536,5462
772.7249738991469,5577
774.9833563405886,5418
777.2411240781092,5550
779.4982773339183,5417
781.7548163303044,5505
784.010741289634,5438
786.2660524343538,5587
788.5207499869881,5517
790.7748341701416,5527
793.0283052064964,5600
795.2811633188143,5562
797.5334087299362,5642
799.7850416627813,5607
802.0360623403484,5559
804.2864709857143,5592
806.5362678220353,5630
808.7854530725468,5620
811.0340269605625,5682
813.2819897094754,5644
815.5293415427581,5441
817.77608268396,5517
820.0222133567116,5537
822.2677337847211,5640
824.5126441917765,5489
826.7569448017433,5577
829.0006358385675,5428
831.2437175262731,5641
833.4861900889629,5491
835.7280537508192,5662
837.9693087361026,5529
840.2099552691533,5527
842.4499935743896,5599
844.689423876309,5545
846.9282463994886,5704
849.1664613685833,5674
851.4040690083276,5546
853.6410695435349,5650
855.877463199097,5692
858.1132501999847,5475
860.3484307712487,5447
862.5830051380175,5601
864.8169735254988,5733
867.0503361589791,5584
869.2830932638243,5595
871.5152450654786,5590
873.7467917894654,5571
875.9777336613873,5824
878.2080709069252,5738
880.4378037518389,5730
882.666932421968,5665
884.8954571432301,5704
887.1233781416219,5666
889.3506956432192,5659
891.5774098741766,5821
893.803521060728,5806
896.0290294291852,5799
898.2539352059397,5691
900.4782386174619,5630
902.7019398903011,5713
904.925039251085,5754
907.147536926521,5745
909.3694331433943,5563
911.59072812857,5785
913.8114221089921,5617
916.0315153116827,5526
918.2510079637437,5613
920.4699002923547,5695
922.6881925247761,5577
924.905884888345,5641
927.1229776104793,5497
929.3394709186747,5607
931.555365040506,5497
933.7706602036275,5481
935.9853566357709,5680
938.1994545647489,5700
940.4129542184515,5658
942.6258558248488,5646
944.8381596119883,5697
947.0498658079974,5664
949.2609746410825,5618
951.4714863395287,5663
953.6814011316998,5640
955.8907192460387,5653
958.0994409110671,5716
960.3075663553858,5635
962.5150958076741,5682
964.7220294966913,5767
966.928367651274,5665
969.1341105003388,5514
971.3392582728806,5580
973.5438111979742,5562
975.747769504772,5651
977.9511334225061,5692
980.153903180487,5618
982.3560790081052,5522
984.5576611348289,5490
986.7586497902058,5600
988.9590452038618,5458
991.158847605503,5470
993.3580572249133,5406
995.5566742919558,5491
997.7546990365728,5457
999.952131688785,5385
1002.1489724786926,5355
1004.3452216364743,5380
1006.5408793923874,5388
1008.7359459767691,5362
1010.9304216200343,5373
1013.1243065526781,5363
1015.3176010052733,5324
1017.510305208472,5340
1019.7024193930064,5271
1021.8939437896848,5310
1024.0848786293977,5190
1026.2752241431122,5304
1028.4649805618747,5276
1030.6541481168115,5372
1032.842727039127,5423
1035.0307175601051,5263
1037.2181199111074,5422
1039.4049343235752,5396
1041.591161029029,5280
1043.7768002590683,5425
1045.9618522453698,5346
1048.1463172196918,5406
1050.3301954138697,5349
1052.513487059818,5326
1054.69619238953,5373
1056.8783116350783,5321
1059.0598450286152,5366
1061.2407928023704,5242
1063.4211551886528,5280
1065.6009324198508,5335
1067.780124728432,5192
1069.9587323469414,5283
1072.1367555080046,5252
1074.314194444325,5292
1076.4910493886855,5402
1078.667320573947,5305
1080.843008233051,5137
1083.0181125990161,5159
1085.1926339049414,5150
1087.3665723840027,5208
1089.5399282694575,5304
1091.7127017946405,5177
1093.8848931929647,5185
1096.0565026979243,5195
1098.2275305430899,5142
1100.3979769621128,5197
1102.567842188722,5088
1104.737126456726,5141
1106.9058300000124,5098
1109.0739530525475,5115
1111.2414958483764,5191
1113.4084586216231,5254
1115.5748416064907,5115
1117.7406450372605,5105
1119.9058691482942,5262
1122.0705141740304,5162
1124.2345803489884,5151
1126.3980679077658,5063
1128.5609770850388,5180
1130.7233081155623,5253
1132.8850612341707,5229
1135.0462366757774,5150
1137.2068346753745,5126
1139.3668554680326,5204
1141.526299288901,5305
1143.68516637321,5261
1145.8434569562655,5260
1148.001171273455,5240
1150.158309560244,5238
1152.3148720521767,5124
1154.470858984876,5211
1156.626270594044,5307
1158.7811071154629,5248
1160.9353687849912,5200
1163.089055838569,5133
1165.242168512213,5138
1167.3947070420209,5255
1169.5466716641677,5170
1171.6980626149075,5189
1173.8488801305748,5150
1175.9991244475814,5155
1178.1487958024186,5225
1180.2978944316555,5227
1182.4464205719428,5141
1184.5943744600072,5133
1186.7417563326567,5167
1188.8885664267755,5105
1191.0348049793297,5140
1193.1804722273619,5076
1195.325568407995,5084
1197.4700937584303,5055
1199.614048515948,5110
1201.7574329179074,5286
1203.900247201746,5183
1206.042491604982,5134
1208.1841663652099,5238
1210.3252717201053,5156
1212.465807907422,5272
1214.6057751649923,5256
1216.7451737307279,5180
1218.8840038426192,5269
1221.0222657387353,5242
1223.1599596572241,5169
1225.2970858363137,5233
1227.4336445143094,5256
1229.5696359295966,5235
1231.705060320639,5352
1233.8399179259786,5230
1235.9742089842384,5321
1238.107933734118,5323
1240.2410924143974,5177
1242.373685263935,5321
1244.5057125216676,5270
1246.6371744266116,5294
1248.7680712178621,5362
1250.898403134593,5242
1253.028170416058,5191
1255.1573733015875,5356
1257.2860120305932,5256
1259.4140868425648,5111
1261.54159797707,5261
1263.6685456737569,5319
1265.7949301723515,5331
1267.9207517126597,5355
1270.046010534565,5368
1272.1707068780306,5428
1274.2948409830983,5426
1276.4184130898889,5259
1278.541423438603,5324
1280.6638722695184,5490
1282.785759822993,5326
1284.9070863394636,5312
1287.0278520594447,5461
1289.1480572235314,5460
1291.2677020723963,5425
1293.3867868467923,5416
1295.5053117875495,5431
1297.623277135579,5513
1299.740683131868,5666
1301.8575300174857,5482
1303.973818033578,5477
1306.0895474213703,5511
1308.2047184221678,5649
1310.3193312773528,5543
1312.4333862283888,5522
1314.5468835168163,5618
1316.659823384255,5614
1318.7722060724045,5493
1320.8840318230418,5427
1322.9953008780249,5576
1325.1060134792888,5621
1327.2161698688478,5504
1329.3257702887959,5557
1331.4348149813054,5626
1333.5433041886276,5411
1335.6512381530933,5362
1337.7586171171101,5595
1339.8654413231675,5499
1341.9717110138317,5527
1344.0774264317488,5398
1346.1825878196432,5513
1348.2871954203192,5364
1350.3912494766587,5444
1352.4947502316231,5482
1354.5976979282532,5405
1356.7000928096686,5385
1358.8019351190665,5368
1360.9032250997243,5363
1363.0039629949988,5358
1365.1041490483235,5520
1367.2037835032133,5402
1369.3028666032606,5451
1371.401398592137,5430
1373.4993797135926,5439
1375.5968102114575,5529
1377.6936903296396,5446
1379.7900203121262,5446
1381.8858004029835,5447
1383.9810308463561,5467
1386.075711886469,5527
1388.1698437676241,5465
1390.2634267342032,5521
1392.356461030667,5586
1394.4489469015557,5470
1396.5408845914872,5476
1398.6322743451592,5446
1400.7231164073469,5691
1402.813411022907,5599
1404.903158436773,5478
1406.9923588939578,5613
1409.0810126395531,5562
1411.1691199187303,5607
1413.2566809767386,5652
1415.343696058907,5602
1417.4301654106425,5484
1419.5160892774315,5564
1421.6014679048399,5498
1423.6863015385125,5557
1425.7705904241707,5666
1427.8543348076178,5580
1429.9375349347342,5654
1432.0201910514802,5613
1434.102303403894,5818
1436.1838722380944,5548
1438.2648978002767,5624
1440.3453803367174,5761
1442.4253200937692,5689
1444.5047173178677,5809
1446.5835722555234,5855
1448.6618851533285,5870
1450.739656257952,5763
1452.8168858161434,5905
1454.8935740747306,5935
1456.96972128062,5985
1459.045327680797,5897
1461.120393522327,5885
1463.1949190523528,6048
1465.2689045180973,6080
1467.3423501668608,6025
1469.415256246024,6113
1471.4876230030463,6198
1473.559450685465,6278
1475.6307395408976,6173
1477.7014898170391,6256
1479.771701761665,6217
1481.8413756226287,6280
1483.9105116478618,6267
1485.9791100853772,6425
1488.0471711832643,6380
1490.1146951896926,6465
1492.1816823529098,6459
1494.2481329212433,6461
1496.3140471430984,6628
1498.3794252669609,6568
1500.4442675413939,6506
1502.5085742150404,6582
1504.572345536622,6665
1506.6355817549388,6762
1508.6982831188702,6727
1510.7604498773744,6563
1512.8220822794883,6718
1514.8831805743293,6755
1516.9437450110909,6809
1519.003775839048,6824
1521.0632733075522,6938
1523.1222376660367,6839
1525.1806691640113,6807
1527.2385680510652,6897
1529.2959345768668,7005
1531.3527689911643,6954
1533.4090715437833,7099
1535.4648424846291,7192
1537.5200820636855,7116
1539.5747905310159,7231
1541.6289681367616,7279
1543.6826151311434,7219
1545.7357317644614,7373
1547.7883182870937,7380
1549.8403749494987,7412
1551.8919020022113,7655
1553.9428996958477,7524
1555.9933682811015,7658
1558.0433080087469,7605
1560.0927191296346,7576
1562.1416018946961,7785
1564.1899565549415,7742
1566.2377833614592,7594
1568.2850825654164,7627
1570.3318544180606,7401
1572.3780991707158,7057
1574.423817074788,7196
1576.4690083817595,7045
1578.5136733431923,6925
1580.5578122107272,6836
1582.601425236085,6727
1584.6445126710646,6466
1586.6870747675434,6443
1588.7291117774776,6377
1590.7706239529034,6121
1592.8116115459347,6028
1594.8520748087658,6047
1596.8920139936686,5905
1598.9314293529933,5949
1600.9703211391711,5902
1603.008689604711,5734
1605.0465350022005,5703
1607.0838575843068,5628
1609.1206576037753,5713
1611.1569353134305,5574
1613.1926909661765,5608
1615.2279248149953,5594
1617.2626371129481,5432
1619.2968281131757,5511
1621.3304980688963,5470
1623.3636472334088,5406
1625.39627586009,5450
1627.428384202396,5477
1629.459972513861,5497
1631.4910410480993,5496
1633.5215900588028,5390
1635.551619799744,5432
1637.5811305247717,5305
1639.6101224878166,5338
1641.6385959428862,5327
1643.6665511440683,5252
1645.693988345528,5239
1647.7209078015112,5182
1649.7473097663405,5270
1651.7731944944203,5379
1653.7985622402307,5390
1655.823413258333,5342
1657.847747803366,5248
1659.8715661300494,5179
1661.8948684931793,5198
1663.9176551476316,5311
1665.9399263483624,5353
1667.9616823504057,5164
1669.982923408873,5185
1672.0036497789574,5169
1674.0238617159293,5152
1676.043559475138,5117
1678.0627433120121,5140
1680.081413482059,5296
1682.0995702408654,5184
1684.117213844096,5269
1686.134344547495,5197
1688.1509626068864,5260
1690.1670682781705,5299
1692.182661817329,5083
1694.1977434804217,5198
1696.2123135235875,5231
1698.226372203043,5187
1700.2399197750851,5276
1702.2529564960905,5221
1704.2654826225112,5279
1706.277498410882,5270
1708.2890041178139,5174
1710.2999999999988,5194
1712.3104863142066,5056
1714.3204633172854,5199
1716.329931266163,5211
1718.3388904178469,5278
1720.3473410294214,5148
1722.3552833580516,5204
1724.3627176609807,5225
1726.3696441955308,5152
1728.3760632191033,5101
1730.3819749891782,5039
1732.3873797633146,5113
1734.3922777991502,5161
1736.3966693544012,5107
1738.4005546868639,5117
1740.4039340544127,5154
1742.406807715001,5196
1744.4091759266616,5172
1746.4110389475054,5135
1748.4123970357223,5059
1750.413250449582,5205
1752.4135994474318,5152
1754.4134442876993,5137
1756.4127852288902,5118
1758.4116225295893,5072
1760.4099564484595,5154
1762.407787244244,5075
1764.405115175764,5105
1766.4019405019203,5039
1768.3982634816916,5076
1770.3940843741357,5017
1772.3894034383907,4961
1774.3842209336717,5059
1776.378537119274,5055
1778.372352254571,4863
1780.3656665990156,5012
1782.3584804121397,5038
1784.3507939535534,5109
1786.3426074829463,5008
1788.3339212600863,5082
1790.3247355448211,5262
1792.3150505970766,5185
1794.3048666768573,5079
1796.2941840442477,5161
1798.2830029594106,5089
1800.2713236825884,5050
1802.2591464741004,5079
1804.2464715943465,5080
1806.2332993038058,4972
1808.2196298630352,5145
1810.2054635326708,5146
1812.190800573428,5077
1814.175641246101,5134
1816.1599858115628,5013
1818.1438345307652,5217
1820.127187664738,5124
1822.1100454745924,5048
1824.092408221516,5239
1826.0742761667766,5044
1828.055649571721,5037
1830.0365286977735,5018
1832.0169138064398,5075
1833.9968051593014,5126
1835.9762030180214,5033
1837.9551076443408,5029
1839.9335193000788,5196
1841.9114382471344,5099
1843.888864747485,5114
1845.8657990631878,5142
1847.842241456378,5109
1849.8181921892697,5057
1851.7936515241558,4951
1853.7686197234098,5008
1855.7430970494815,5169
1857.7170837649014,5125
1859.6905801322787,5012
1861.6635864143004,5039
1863.6361028737338,5157
1865.608129773424,5041
1867.5796673762961,5145
1869.5507159453537,5158
1871.521275743678,5001
1873.4913470344313,5017
1875.4609300808534,5217
1877.4300251462632,5098
1879.3986324940588,5170
1881.366752387717,5109
1883.3343850907936,5055
1885.3015308669228,5245
1887.268189979819,5214
1889.2343626932739,5073
1891.2000492711595,5041
1893.1652499774254,5108
1895.1299650761011,5128
1897.0941948312952,5083
1899.0579395071945,5128
1901.0211993680641,5165
1902.98397467825,5189
1904.9462657021745,5214
1906.9080727043415,5013
1908.869395949332,5073
1910.8302357018065,5083
1912.790592226504,5160
1914.7504657882428,5198
1916.7098566519212,5130
1918.6687650825133,5188
1920.6271913450764,4995
1922.5851357047422,5192
1924.5425984267245,5062
1926.499579776314,5089
1928.4560800188833,5122
1930.4120994198802,5090
1932.367638244833,5112
1934.32269675935,5153
1936.2772752291175,5176
1938.231373919899,5214
1940.1849930975404,5029
1942.1381330279637,5121
1944.0907939771696,5197
1946.0429762112412,5158
1947.9946799963363,5112
1949.9459055986945,5161
1951.896653284633,5063
1953.8469233205478,5187
1955.7967159729142,5105
1957.7460315082863,5095
1959.6948701932974,5206
1961.6432322946594,5173
1963.5911180791632,5035
1965.5385278136787,5152
1967.4854617651545,5132
1969.4319202006182,5215
1971.377903387176,5201
1973.3234115920136,5158
1975.268445082395,5185
1977.2130041256642,5217
1979.1570889892423,5100
1981.1006999406304,5051
1983.04383724741,5159
1984.986501177238,5083
1986.928691997853,5224
1988.8704099770712,5118
1990.811655382789,5057
1992.7524284829801,5178
1994.692729545698,5082
1996.6325588390755,5133
1998.5719166313224,5182
2000.5108031907307,5145
2002.4492187856677,5144
2004.387163684583,5113
2006.3246381560011,5103
2008.2616424685298,5156
2010.1981768908527,5048
2012.1342416917332,5173
2014.069837140014,4999
2016.0049635046162,5095
2017.9396210545406,5057
2019.8738100588666,5194
2021.8075307867502,5046
2023.740783507431,5149
2025.6735684902228,5009
2027.6058860045214,5086
2029.5377363198004,5138
2031.4691197056118,5118
2033.4000364315875,5063
2035.3304867674374,5082
2037.260470982952,5146
2039.189989347998,5156
2041.1190421325232,5056
2043.047629606554,5101
2044.9757520401945,5084
2046.9034097036288,5100
2048.8306028671195,5169
2050.7573318010086,5062
2052.683596775716,5201
2054.609398061742,5113
2056.5347359296647,5126
2058.4596106501403,5054
2060.384022493906,5213
2062.3079717317764,5087
2064.231458634646,5127
2066.1544834734873,5103
2068.077046519352,5075
2069.99914804337,5044
2071.9207883167524,5162
2073.8419676107865,5066
2075.7626861968406,5143
2077.6829443463607,5069
2079.6027423308715,5190
2081.522080421977,4974
2083.440958891362,5140
2085.359378010786,5089
2087.2773380520907,5169
2089.194839287196,5186
2091.111881988101,5285
2093.0284664268825,5078
2094.9445928756973,5173
2096.86026160678,5138
2098.775472892446,5221
2100.690227005088,5170
2102.604524217178,5092
2104.5183648012676,5183
2106.431749029985,5229
2108.34467717604,5195
2110.2571495122206,5165
2112.169166311393,5104
2114.080727846503,5222
2115.9918343905747,5206
2117.902486216711,5235
2119.8126835980956,5057
2121.722426807987,5161
2123.6317161197285,5124
2125.5405518067364,5293
2127.448934142509,5178
2129.356863400624,5116
2131.264339854737,5218
2133.1713637785815,5229
2135.077935445972,5219
2136.9840551308002,5251
2138.889723107037,5342
2140.7949396487334,5108
2142.699705030018,5366
2144.6040195250994,5247
2146.507883408264,5204
2148.4112969538774,5282
2150.3142604363848,5290
2152.2167741303097,5353
2154.1188383102535,5340
2156.0204532508997,5301
2157.9216192270064,5163
2159.822336513414,5177
2161.7226053850413,5324
2163.622426116884,5299
2165.5217989840185,5330
2167.4207242616,5239
2169.319202224862,5243
2171.2172331491165,5339
2173.1148173097563,5321
2175.0119549822507,5309
2176.90864644215,5294
2178.8048919650823,5205
2180.7006918267534,5300
2182.596046302952,5429
2184.4909556695407,5433
2186.3854202024645,5374
2188.279440177746,5368
2190.173015871487,5398
2192.066147559868,5219
2193.958835519149,5283
2195.851080025667,5389
2197.7428813558417,5425
2199.6342397861667,5349
2201.5251555932186,5267
2203.415629053651,5312
2205.3056604441986,5372
2207.19525004167,5333
2209.084398122958,5414
2210.9731049650327,5450
2212.861370844941,5499
2214.749196039812,5385
2216.636580826851,5580
2218.523525483344,5415
2220.410030286655,5368
2222.296095514226,5423
2224.1817214435805,5400
2226.066908352319,5300
2227.951656518121,5461
2229.835966218746,5312
2231.71983773203,5423
2233.6032713358913,5411
2235.486267308324,5515
2237.3688259274036,5335
2239.2509474712824,5421
2241.132632218193,5445
2243.013880446447,5570
2244.8946924344323,5517
2246.7750684606203,5391
2248.6550088035574,5308
2250.534513741871,5450
2252.413583554265,5493
2254.292218519526,5461
2256.170418916517,5416
2258.0481850241786,5544
2259.925517121534,5435
2261.8024154876825,5352
2263.678880401803,5398
2265.5549121431536,5500
2267.430510991071,5388
2269.305677224971,5446
2271.180411124348,5357
2273.0547129687766,5354
2274.9285830379076,5331
2276.8020216114737,5372
2278.6750289692845,5434
2280.5476053912294,5350
2282.4197511572766,5371
2284.2914665474727,5559
2286.162751841943,5447
2288.0336073208937,5588
2289.904033264608,5530
2291.774029953448,5556
2293.6435976678554,5500
2295.5127366883517,5524
2297.381447295534,5460
2299.2497297700825,5407
2301.1175843927526,5351
2302.9850114443825,5350
2304.852011205885,5321
2306.7185839582553,5189
2308.5847299825664,5318
2310.4504495599676,5332
2312.3157429716925,5366
2314.1806104990483,5373
2316.0450524234247,5274
2317.9090690262888,5449
2319.772660589186,5272
2321.635827393742,5312
2323.498569721661,5305
2325.3608878547248,5382
2327.2227820747967,5426
2329.0842526638157,5304
2330.945299903803,5229
2332.805924076857,5423
2334.6661254651535,5322
2336.525904350951,5281
2338.3852610165827,5319
2340.244195744464,5262
2342.102708817088,5310
2343.9608005170253,5279
2345.8184711269287,5429
2347.675720929526,5346
2349.532550207628,5385
2351.38895924412,5438
2353.24494832197,5284
2355.100517724223,5246
2356.955667734004,5318
2358.810398634514,5413
2360.664710709037,5436
2362.5186042409337,5420
2364.3720795136437,5292
2366.225136810686,5328
2368.0777764156583,5354
2369.929998612237,5353
2371.7818036841777,5333
2373.633191915315,5276
2375.484163589562,5480
2377.3347189909114,5474
2379.184858403434,5393
2381.03458211128,5415
2382.8838903986775,5272
2384.732783549936,5363
2386.5812618494406,5367
2388.4293255816588,5415
2390.2769750311327,5280
2392.1242104824883,5403
2393.971032220427,5384
2395.8174405297295,5497
2397.6634356952563,5385
2399.509018001947,5485
2401.3541877348193,5362
2403.1989451789705,5535
2405.043290619576,5524
2406.8872243418905,5362
2408.730746631247,5504
2410.5738577730594,5434
2412.4165580528183,5328
2414.258847756095,5317
2416.100727168537,5358
2417.9421965758734,5359
2419.783256263912,5435
2421.623906518538,5440
2423.4641476257157,5556
2425.303979871491,5378
2427.143403541984,5388
2428.9824189233977,5475
2430.821026302012,5369
2432.6592259641866,5388
2434.497018196361,5542
2436.33440328505,5442
2438.171381516851,5489
2440.00795317844,5454
2441.844118556569,5428
2443.6798779380724,5409
2445.5152316098606,5352
2447.3501798589255,5594
2449.1847229723357,5428
2451.0188612372403,5486
2452.8525949408663,5567
2454.6859243705203,5447
2456.518849813587,5575
2458.3513715575314,5534
2460.183489889895,5617
2462.015205098301,5500
2463.8465174704493,5480
2465.67742729412,5427
2467.5079348571717,5479
2469.338040447542,5442
2471.1677443532476,5544
2472.9970468623833,5565
2474.825948263123,5473
2476.6544488437207,5578
2478.482548892508,5548
2480.310248697896,5482
2482.137548548374,5646
2483.9644487325118,5533
2485.790949538956,5651
2487.617051256433,5425
2489.44275417375,5576
2491.26805857979,5466
2493.0929647635157,5699
2494.917473013971,5431
2496.741583620276,5662
2498.5652968716304,5641
2500.3886130573137,5478
2502.2115324666834,5531
2504.0340553891765,5578
2505.856182114308,5673
2507.6779129316733,5647
2509.499248130945,5691
2511.3201880018764,5666
2513.140732834298,5570
2514.9608829181198,5540
2516.780638543331,5571
2518.6,5617
2520.418967578273,5575
2522.237541568376,5583
2524.0557222606144,5489
2525.8735099453706,5515
2527.6909049131086,5610
2529.507907454368,5749
2531.32451785977,5646
2533.140736420014,5612
2534.9565634258774,5640
2536.771999168218,5718
2538.5870439379714,5745
2540.4016980261526,5750
2542.2159617238544,5814
2544.02983532225,5737
2545.8433191125914,5759
2547.656413386209,5746
2549.4691184345115,5871
2551.2814345489874,5719
2553.093362021204,5941
2554.904901142808,5730
2556.716052205523,5851
2558.526815501153,5888
2560.3371913215824,5894
2562.147179958771,5822
2563.956781704761,5670
2565.7659968516705,5863
2567.5748256916986,5825
2569.3832685171224,5801
2571.1913256202984,5718
2572.9989972936614,5718
2574.806283829725,5740
2576.613185521084,5888
2578.4197026604074,5954
2580.2258355404483,5911
2582.031584454035,5984
2583.836949694077,5829
2585.6419315535613,6016
2587.4465303255533,5921
2589.2507463032002,5969
2591.0545797797245,5914
2592.8580310484303,5910
2594.6611004026995,5868
2596.463788135992,5840
2598.266094541849,5965
2600.0680199138874,5867
2601.869564545807,6005
2603.670728731383,5858
2605.4715127644704,5959
2607.2719169390048,5998
2609.071941548998,6071
2610.8715868885433,5933
2612.670853251811,5969
2614.469740933052,5939
2616.268250226594,5791
2618.0663814268455,5895
2619.864134828292,5936
2621.6615107255006,5897
2623.458509413115,5847
2625.2551311858597,5950
2627.0513763385347,5869
2628.8472451660223,6012
2630.6427379632833,5885
2632.4378550253564,5926
2634.232596647359,5907
2636.026963124488,5847
2637.8209547520187,5829
2639.6145718253065,5931
2641.407814639785,5913
2643.200683490966,5825
2644.9931786744414,5941
2646.7853004858807,5763
2648.577049221034,5700
2650.3684251757277,5815
2652.1594286458712,5793
2653.9500599274484,5719
2655.740319316525,5713
2657.5302071092437,5724
2659.3197236018286,5737
2661.10886909058,5773
2662.8976438718782,5698
2664.686048242183,5699
2666.4740824980327,5844
2668.2617469360443,5854
2670.0490418529134,5903
2671.8359675454153,5845
2673.622524310403,5800
2675.408712444811,5658
2677.1945322456495,5733
2678.979984010009,5675
2680.76506803506,5699
2682.5497846180497,5760
2684.334134056306,5715
2686.1181166472343,5710
2687.9017326883213,5764
2689.6849824771293,5682
2691.4678663113013,5715
2693.2503844885596,5762
2695.032537306705,5623
2696.8143250636167,5577
2698.5957480572542,5644
2700.3768065856534,5636
2702.1575009469316,5705
2703.937831439283,5641
2705.717798360982,5688
2707.4974020103837,5595
2709.276642685917,5690
2711.055520686095,5748
2712.834036309506,5751
2714.612189854819,5694
2716.389981620782,5818
2718.1674119062204,5674
2719.944481010041,5548
2721.721189231226,5667
2723.4975368688415,5634
2725.273524222027,5646
2727.0491515900053,5763
2728.824419272075,5613
2730.5993275676146,5708
2732.3738767760838,5633
2734.148067197016,5510
2735.921899130031,5579
2737.6953728748194,5617
2739.468488731156,5601
2741.2412469988926,5699
2743.0136479779617,5668
2744.785691968372,5634
2746.5573792702116,5690
2748.3287101836504,5633
2750.099685008934,5530
2751.870304046388,5738
2753.640567596418,5698
2755.4104759595057,5573
2757.1800294362156,5662
2758.949228327187,5658
2760.7180729331412,5685
2762.486563554877,5637
2764.254700493272,5578
2766.022484049284,5700
2767.789914523947,5561
2769.5569922183786,5687
2771.3237174337705,5686
2773.090090471394,5609
2774.8561116326036,5691
2776.6217812188274,5842
2778.3870995315756,5757
2780.1520668724356,5650
2781.9166835430747,5622
2783.6809498452394,5638
2785.444866080754,5704
2787.2084325515225,5722
2788.971649559527,5697
2790.73451740683,5733
2792.4970363955713,5749
2794.2592068279705,5630
2796.0210290063264,5575
2797.7825032330147,5692
2799.543629810493,5708
2801.304409041296,5745
2803.0648412280366,5597
2804.8249266734088,5692
2806.5846656801846,5698
2808.344058551212,5809
2810.1031055894246,5788
2811.8618070978273,5723
2813.6201633795085,5628
2815.378174737636,5631
2817.1358414754536,5756
2818.893163896285,5695
2820.6501423035334,5797
2822.4067770006814,5726
2824.1630682912883,5882
2825.9190164789957,5684
2827.6746218675207,5726
2829.429884760661,5872
2831.184805462294,5747
2832.9393842763743,5812
2834.693621506936,5606
2836.4475174580916,5726
2838.201072434034,5690
2839.954286739034,5845
2841.707160677441,5627
2843.459694553685,5586
2845.2118886722724,5697
2846.96374333779,5836
2848.7152588549034,5706
2850.4664355283567,5683
2852.217273662973,5764
2853.9677735636546,5872
2855.7179355353833,5831
2857.4677598832186,5675
2859.217246912299,5917
2860.9663969278427,5756
2862.715210235146,5668
2864.4636871395846,5706
2866.211827946614,5706
2867.9596329617652,5700
2869.7071024906536,5681
2871.4542368389684,5732
2873.20103631248,5752
2874.947501217038,5756
2876.6936318585695,5791
2878.4394285430812,5678
2880.1848915766604,5747
2881.9300212654707,5742
2883.6748179157553,5669
2885.4192818338374,5599
2887.1634133261173,5858
2888.907212699077,5777
2890.6506802592744,5787
2892.393816313348,5781
2894.1366211680142,5721
2895.8790951300693,5754
2897.621238506388,5809
2899.363051603925,5754
2901.1045347297118,5762
2902.8456881908596,5674
2904.58651229456,5790
2906.327007348081,5793
2908.067173658772,5701
2909.8070115340597,5724
2911.5465212814497,5727
2913.285703208527,5749
2915.0245576229563,5645
2916.7630848324807,5721
2918.5012851449196,5572
2920.2391588681758,5726
2921.976706310227,5685
2923.7139277791334,5679
2925.4508235830313,5643
2927.187394030137,5617
2928.923639428745,5701
2930.6595600872306,5791
2932.395156314046,5847
2934.1304284177218,5670
2935.8653767068713,5756
2937.6000014901815,5811
2939.3343030764227,5736
2941.068281774442,5877
2942.8019378931644,5844
2944.5352717415976,5743
2946.2682836288236,5850
2948.0009738640065,5859
2949.7333427563885,5787
2951.465390615289,5893
2953.1971177501086,5784
2954.9285244703265,5804
2956.6596110855,5764
2958.3903779052657,5730
2960.1208252393385,5689
2961.8509533975125,5720
2963.5807626896617,5794
2965.3102534257378,5809
2967.0394259157715,5716
2968.768280469873,5713
2970.496817398232,5814
2972.2250370111146,5873
2973.952939618869,5827
2975.6805255319196,5905
2977.4077950607707,5876
2979.134748516006,5960
2980.861386208289,5879
2982.587708448359,6015
2984.313715547037,5990
2986.039407815222,5841
2987.764785563891,5861
2989.489849104102,5936
2991.2145987469908,5773
2992.9390348037705,5789
2994.6631575857346,5783
2996.3869674042576,5769
2998.1104645707887,5821
2999.83364939686,5799
3001.5565221940783,5800
3003.2790832741334,5811
3005.0013329487924,5836
3006.7232715298996,5753
3008.4448993293804,5891
3010.166216659239,5792
3011.887223831558,5703
3013.607921158498,5816
3015.3283089522993,5750
3017.0483875252826,5707
3018.7681571898443,5783
3020.4876182584626,5922
3022.2067710436927,5761
3023.9256158581707,5855
3025.644153014609,5884
3027.362382825801,5750
3029.0803056046193,5787
3030.797921664012,5793
3032.5152313170106,5774
3034.2322348767225,5818
3035.9489326563353,5749
3037.665324969115,5850
3039.3814121284063,5869
3041.097194447633,5844
3042.812672240299,5782
3044.5278458199855,5760
3046.2427155003525,5814
3047.9572815951406,5806
3049.671544418167,5846
3051.38550428333,5927
3053.0991615046073,5863
3054.812516396051,5819
3056.5255692717974,5786
3058.2383204460575,5798
3059.9507702331257,5594
3061.662918947372,5871
3063.3747669032446,5718
3065.0863144152736,5820
3066.7975617980674,5821
3068.508509366309,5765
3070.219157434767,5871
3071.9295063182844,5862
3073.639556331785,5846
3075.3493077902704,5787
3077.058761008821,5864
3078.7679163025964,5832
3080.476773986837,5836
3082.1853343768594,5886
3083.89359778806,5718
3085.6015645359153,5817
3087.3092349359786,5919
3089.016609303884,5773
3090.7236879553434,5637
3092.4304712061476,5835
3094.136959372166,5814
3095.843152769349,5802
3097.5490517137237,5926
3099.2546565213966,5947
3100.959967508554,5801
3102.66498499146,5888
3104.3697092864577,5741
3106.0741407099695,5845
3107.778279578498,5866
3109.482126208622,5796
3111.1856809170004,5893
3112.8889440203716,5926
3114.5919158355528,6009
3116.294596679439,5855
3117.996986869006,6045
3119.6990867213062,5827
3121.4008965534726,5992
3123.102416682717,5957
3124.803647426329,6027
3126.5045891016784,6019
3128.205242026213,5873
3129.90560651746,5957
3131.605682893025,5839
3133.3054714705922,5898
3135.0049725679282,5889
3136.7041865028714,5966
3138.4031135933465,5964
3140.101754157353,5941
3141.800108512971,5959
3143.498176978357,5874
3145.1959598717494,5936
3146.8934575114636,5903
3148.5906702158954,5941
3150.2875983035183,5925
3151.9842420928853,5901
3153.680601902627,5768
3155.376678051456,5773
3157.07247085816,5745
3158.767980641609,5884
3160.463207720748,5815
3162.158152414606,5899
3163.8528150422862,5955
3165.5471959229726,5852
3167.2412953759303,5881
3168.9351137204976,5948
3170.628651276098,5926
3172.3219083622307,5914
3174.014885298474,5883
3175.707582404485,6051
3177.4000000000005,5960
3179.092138404835,6043
3180.7839979388846,5833
3182.47557892212,5885
3184.166881674594,5939
3185.8579065164386,5992
3187.5486537678626,6097
3189.2391237491547,6009
3190.9293167806827,5839
3192.6192331828934,5948
3194.3088732763117,6019
3195.998237381542,5891
3197.687325819268,5940
3199.376138910251,5941
3201.064676975334,5898
3202.7529403354347,5947
3204.4409293115523,5857
3206.1286442247647,5798
3207.816085396229,5838
3209.5032531471825,5846
3211.190147798936,5846
3212.8767696728846,5856
3214.5631190905015,5696
3216.2491963733373,5896
3217.9350018430214,5918
3219.6205358212637,5659
3221.305798629851,5666
3222.990790590651,5704
3224.6755120256103,5795
3226.359963256751,5722
3228.0441446061795,5812
3229.7280563960758,5758
3231.411698948703,5694
3233.0950725863995,5756
3234.778177631587,5880
3236.461014406761,5836
3238.1435832345005,5953
3239.8258844374595,5833
3241.507918338374,5870
3243.1896852600576,5951
3244.8711855254023,5810
3246.552419457381,5749
3248.233387379042,5853
3249.914089613516,5905
3251.59452648401,5816
3253.274698313813,5907
3254.95460542629,5787
3256.6342481448855,5947
3258.313626793125,5796
3259.9927416946084,5693
3261.6715931730196,5767
3263.3501815521176,5840
3265.0285071557437,5753
3266.706570307815,5708
3268.3843713323286,5687
3270.0619105533615,5813
3271.739188295068,5780
3273.4162048816834,5778
3275.0929606375184,5835
3276.769455886966,5945
3278.445690954498,5869
3280.1216661646613,5787
3281.797381842087,5906
3283.4728383114807,5963
3285.1480358976296,5813
3286.8229749253996,5887
3288.4976557197333,5838
3290.172078605655,5831
3291.846243908266,5782
3293.5201519527463,5819
3295.193803064357,5710
3296.8671975684374,5779
3298.5403357904024,5659
3300.21321805575,5798
3301.8858446900567,5872
3303.558216018975,5730
3305.23033236824,5864
3306.9021940636603,5771
3308.57380143113,5676
3310.2451547966184,5850
3311.916254486174,5807
3313.5871008259246,5688
3315.2576941420766,5865
3316.9280347609147,5751
3318.5981230088046,5787
3320.2679592121895,5767
3321.9375436975924,5749
3323.606876791612,5738
3325.27595882093,5602
3326.944790112305,5760
3328.6133709925753,5761
3330.2817017886573,5829
3331.949782827547,5721
3333.617614436319,5907
3335.2851969421245,5752
3336.952530672199,5791
3338.619615953853,6010
3340.286453114475,5824
3341.9530424815357,5914
3343.619384382583,5979
3345.2854791452437,5813
3346.951327097224,6011
3348.6169285663073,5936
3350.2822838803577,5918
3351.947393367319,5959
3353.61225735521,5817
3355.2768761721345,5864
3356.9412501462693,5776
3358.605379605873,5747
3360.2692648792827,5924
3361.9329062949146,5864
3363.596304181263,5734
