CollectionTime,9/20/2024 11:13:20 AM
ExposureUsed,3
CalibratedSpectrum
-962.7078968117929,3157
-959.9714848408522,3323
-957.2358232597828,3346
-954.5009119013725,3323
-951.7667505983302,3334
-949.0333391832855,3349
-946.3006774887896,3399
-943.5687653473143,3356
-940.837602591253,3358
-938.1071890529199,3413
-935.3775245645503,3343
-932.6486089583007,3422
-929.9204420662485,3278
-927.1930237203925,3358
-924.4663537526524,3460
-921.7404319948689,3418
-919.0152582788041,3425
-916.2908324361409,3311
-913.5671542984834,3451
-910.8442236973568,3469
-908.1220404642074,3411
-905.4006044304027,3403
-902.679915427231,3358
-899.959973285902,3315
-897.2407778375464,3353
-894.5223289132158,3334
-891.8046263438832,3315
-889.0876699604426,3260
-886.3714595937089,3430
-883.6559950744183,3370
-880.9412762332282,3369
-878.2273029007168,3436
-875.5140749073835,3432
-872.8015920836489,3525
-870.0898542598545,3335
-867.3788612662631,3447
-864.6686129330585,3522
-861.9591090903457,3516
-859.2503495681506,3430
-856.5423341964203,3527
-853.8350628050229,3465
-851.1285352237478,3537
-848.4227512823054,3497
-845.7177108103272,3536
-843.0134136373656,3560
-840.3098595928943,3493
-837.6070485063082,3505
-834.9049802069229,3534
-832.2036545239757,3372
-829.5030712866244,3419
-826.8032303239481,3481
-824.1041314649472,3436
-821.4057745385428,3517
-818.7081593735775,3475
-816.0112857988148,3498
-813.3151536429393,3466
-810.6197627345566,3486
-807.9251129021936,3514
-805.2312039742981,3462
-802.5380357792392,3508
-799.8456081453069,3617
-797.1539209007124,3522
-794.462973873588,3569
-791.772766891987,3639
-789.083299783884,3582
-786.3945723771743,3532
-783.7065844996748,3502
-781.0193359791231,3554
-778.3328266431781,3531
-775.6470563194197,3488
-772.9620248353489,3551
-770.2777320183878,3508
-767.5941776958798,3652
-764.9113616950891,3725
-762.2292838432011,3546
-759.5479439673222,3622
-756.8673418944801,3662
-754.1874774516235,3658
-751.5083504656222,3592
-748.8299607632671,3604
-746.15230817127,3646
-743.475392516264,3670
-740.7992136248035,3641
-738.1237713233636,3572
-735.4490654383407,3471
-732.7750957960521,3576
-730.1018622227365,3707
-727.4293645445534,3707
-724.7576025875837,3663
-722.0865761778291,3702
-719.4162851412126,3730
-716.7467293035781,3735
-714.0779084906909,3792
-711.409822528237,3706
-708.7424712418238,3801
-706.0758544569796,3800
-703.4099719991541,3899
-700.7448236937178,3801
-698.0804093659622,3796
-695.4167288411002,3812
-692.7537819442656,3766
-690.0915685005134,3889
-687.4300883348199,3674
-684.7693412720819,3842
-682.1093271371178,3818
-679.4500457546669,3829
-676.7914969493897,3816
-674.1336805458676,3831
-671.4765963686034,3821
-668.8202442420206,3811
-666.1646239904642,3831
-663.5097354382001,3792
-660.8555784094151,3745
-658.2021527282176,3767
-655.5494582186366,3744
-652.8974947046223,3877
-650.2462620100463,3909
-647.5957599587009,3961
-644.9459883742998,3892
-642.2969470804776,3889
-639.6486359007902,3953
-637.0010546587141,3930
-634.3542031776476,4074
-631.7080812809096,3950
-629.0626887917401,4046
-626.4180255333008,4008
-623.7740913286734,3974
-621.1308860008619,3967
-618.4884093727904,3897
-615.8466612673046,4037
-613.2056415071715,3932
-610.5653499150785,4012
-607.9257863136347,4030
-605.28695052537,4037
-602.6488423727357,3985
-600.0114616781036,4164
-597.3748082637674,3991
-594.7388819519412,4062
-592.1036825647604,4134
-589.4692099242818,3995
-586.8354638524829,4047
-584.2024441712624,4138
-581.5701507024403,4004
-578.9385832677575,4097
-576.3077416888759,4185
-573.6776257873787,4126
-571.0482353847704,4092
-568.4195703024757,4119
-565.7916303618415,4088
-563.164415384135,4041
-560.5379251905453,4148
-557.9121596021815,4085
-555.2871184400748,4021
-552.6628015251767,4134
-550.0392086783606,4203
-547.4163397204204,4164
-544.794194472071,4069
-542.1727727539491,4237
-539.5520743866118,4228
-536.9320991905377,3996
-534.3128469861261,4254
-531.6943175936979,4277
-529.0765108334947,4193
-526.4594265256793,4306
-523.8430644903358,4529
-521.2274245474689,4614
-518.612506517005,4669
-515.9983102187913,4688
-513.3848354725959,4603
-510.77208209810846,4740
-508.16004991493924,4856
-505.5487387426199,5022
-502.9381484006032,4901
-500.3282787082628,4953
-497.71912948489364,4949
-495.1107005497117,4698
-492.5029917218539,4762
-489.8960028203786,4620
-487.28973366426493,4423
-484.68418407241325,4502
-482.07935386364494,4535
-479.47524285670266,4395
-476.87185087025,4382
-474.2691777228715,4371
-471.66722323307334,4450
-469.0659872192821,4525
-466.4654694998459,4503
-463.86566989303384,4458
-461.26658821703614,4450
-458.66822428996414,4549
-456.07057792985,4521
-453.4736489546475,4514
-450.877437182231,4526
-448.28194243039627,4458
-445.68716451686,4486
-443.09310325926003,4434
-440.49975847515555,4399
-437.9071299820263,4386
-435.31521759727354,4397
-432.72402113821954,4235
-430.13354042210767,4237
-427.5437752661022,4481
-424.95472548728867,4345
-422.36639090267386,4396
-419.7787713291855,4580
-417.1918665836721,4512
-414.60567648290385,4616
-412.0202008435715,4635
-409.4354394822874,4684
-406.8513922155845,4580
-404.26805885991723,4702
-401.685439231661,4665
-399.103533147112,4714
-396.522340422488,4571
-393.9418608739278,4617
-391.3620943174908,4398
-388.7830405691583,4324
-386.2046994448317,4153
-383.6270707603344,3797
-381.05015433141045,3711
-378.473949973725,3223
-375.8984575028645,2881
-373.32367673433623,2648
-370.74960748356875,2330
-368.1762495659117,2005
-365.60360279663576,1659
-363.03166699093265,1373
-360.4604419639154,1182
-357.8899275306178,908
-355.32012350599507,845
-352.7510297049233,760
-350.1826459421999,711
-347.61497203254316,694
-345.04800779059235,589
-342.4817530309082,571
-339.91620756797226,618
-337.35137121618743,606
-334.7872437898774,545
-332.22382510328725,511
-329.66111497058273,542
-327.09911320585127,590
-324.53781962310075,565
-321.9772340362607,485
-319.4173562591816,533
-316.8581861056348,528
-314.2997233893127,573
-311.7419679238294,603
-309.1849195227194,640
-306.62857799943856,709
-304.0729431673641,622
-301.51801483979375,635
-298.963792829947,607
-296.41027695096386,601
-293.85746701590574,587
-291.3053628377552,670
-288.7539642294155,650
-286.2032710037115,681
-283.65328297338897,684
-281.1039999511146,723
-278.5554217494762,702
-276.007548180983,702
-273.4603790580651,748
-270.9139141930734,716
-268.3681533982807,740
-265.8230964858798,779
-263.27874326798565,859
-260.7350935566336,818
-258.1921471637804,781
-255.6499039013039,876
-253.10836358100266,917
-250.56752601459698,818
-248.02739101372765,842
-245.48795838995704,853
-242.94922795476816,867
-240.41119951956557,853
-237.8738728956746,870
-235.33724789434166,842
-232.80132432673452,788
-230.2661020039418,807
-227.73158073697357,900
-225.19776033676033,924
-222.66464061415422,959
-220.1322213799284,942
-217.60050244477725,908
-215.06948361931552,956
-212.53916471408013,1016
-210.00954553952818,942
-207.48062590603843,977
-204.9524056239104,934
-202.4248845033651,983
-199.8980623545441,1042
-197.37193898751036,1056
-194.84651421224817,1105
-192.32178783866232,1055
-189.79775967657952,1009
-187.27442953574644,1070
-184.7517972258321,1102
-182.2298625564256,964
-179.7086253370378,865
-177.18808537710026,926
-174.66824248596583,1054
-172.14909647290835,1101
-169.6306471471229,1300
-167.11289431772548,1177
-164.59583779375328,1111
-162.07947738416453,1161
-159.5638128978386,1489
-157.04884414357605,1649
-154.53457093009854,1565
-152.02099306604828,1377
-149.50811035998936,1345
-146.99592262040665,1629
-144.48442965570587,1790
-141.97363127421409,1865
-139.46352728417958,1861
-136.95411749377126,1758
-134.44540171107985,1535
-131.93737974411636,1590
-129.43005140081357,1472
-126.92341648902493,1797
-124.41747481652521,2127
-121.91222619101006,2612
-119.40767042009657,2239
-116.90380731132257,2282
-114.40063667214702,2885
-111.8981583099503,4117
-109.3963720320337,7323
-106.89527764561933,12586
-104.39487495785067,15976
-101.89516377579241,16629
-99.39614390642998,18468
-96.89781515667039,25425
-94.40017733334128,36763
-91.90323024319173,39740
-89.40697369289148,30425
-86.91140748903172,23458
-84.41653143812482,16340
-81.92234534660395,15694
-79.42884902082358,21616
-76.93604226705907,24798
-74.4439248915071,21610
-71.95249670028534,15457
-69.46175749943245,11087
-66.97170709490854,8461
-64.48234529259423,6797
-61.99367189829195,6962
-59.50568671772464,7775
-57.01838955653636,9894
-54.53178022029283,13185
-52.045858514480074,15553
-49.560624244506016,21461
-47.07607721569923,23723
-44.59221723330904,24873
-42.10904410250669,24342
-39.62655762838392,23086
-37.14475761595372,23660
-34.66364387015028,24864
-32.18321619582866,29292
-29.70347439776515,35886
-27.224418280657005,39194
-24.74604764912317,49377
-22.26836230770266,65037
-19.7913620608565,65037
-17.315046712966478,65037
-14.83941606833514,65037
-12.36446993118659,65037
-9.89020810566592,65037
-7.416630395839093,65037
-4.94373660569363,65037
-2.471526539137585,65037
-6.821210263296962E-13,65037
2.47084320796705,65037
4.941003281093458,65037
7.410480415786196,65037
9.879274808531363,65037
12.347386655893956,65037
14.814816154518212,65037
17.28156350112681,65037
19.74762889252179,65037
22.21301252558385,65037
24.67771459727237,24423
27.141735304626195,9608
29.605074844762612,7686
32.06773341487792,6427
34.52971121224755,5605
36.99100843422559,4541
39.45162527824516,3310
41.91156194181792,3527
44.370818622535126,3963
46.82939551806646,3353
49.287292826160524,5425
51.74451074464503,5253
54.201049471426245,3460
56.65690920448981,2901
59.112090141899785,2663
61.56659248179983,2671
64.02041642241159,2598
66.4735621620365,3094
68.92602989905402,4298
71.37781983192338,5033
73.82893215918205,3940
76.27936707944684,2743
78.72912479141326,2255
81.17820549385567,2285
83.62660938562783,2129
86.07433666566146,1776
88.5213875329681,2017
90.96776218663751,2387
93.41346082583925,2432
95.85848364982041,2601
98.30283085790859,2505
100.7465026495089,2285
103.18949922410604,1786
105.63182078126385,1687
108.07346752062438,1611
110.51443964190923,1378
112.95473734491827,1542
115.39436082953114,1766
117.83331029570547,2010
120.27158594347827,1881
122.7091879729652,1571
125.1461165843615,1649
127.58237197794062,1622
130.01795435405518,1571
132.4528639131364,1640
134.88710085569494,1571
137.32066538231982,1944
139.75355769367923,1851
142.1857779905207,1756
144.61732647366978,1523
147.04820334403132,1466
149.47840880258934,1420
151.90794305040674,1683
154.33680628862487,1890
156.76499871846443,2207
159.19252054122433,2390
161.61937195828352,2696
164.04555317109896,3110
166.47106438120693,3688
168.89590579022217,4228
171.320077599839,4538
173.7435800118302,4889
176.16641322804742,5236
178.58857745042144,5385
181.01007288096173,5599
183.43089972175687,5704
185.85105817497413,5912
188.27054844285988,6307
190.6893707277394,6548
193.10752523201643,6985
195.5250121581745,7113
197.9418317087751,7104
200.3579840864594,7147
202.7734694939469,7219
205.18828813403627,7681
207.6024402096051,7774
210.01592592360964,7576
212.42874547908548,7652
214.84089907914665,7651
217.2523869269868,7539
219.66320922587727,7550
222.0733661791695,7469
224.48285799029293,7916
226.8916848627572,7903
229.29984700014882,7948
231.7073446061355,7854
234.11417788446204,7802
236.520347038953,7929
238.92585227351185,7840
241.33069379212054,8059
243.73487179884035,8061
246.1383864978112,7923
248.541238093252,8091
250.9434267894609,8194
253.34495279081432,8145
255.74581630176783,8048
258.1460175268563,7885
260.54555667069314,8168
262.9444339379703,7965
265.3426495334594,8173
267.7402036620107,7940
270.1370965285529,7904
272.53332833809407,7867
274.9288992957214,7631
277.32380960660055,7765
279.718059475976,7632
282.1116491091717,7688
284.5045787115897,7563
286.89684848871195,7735
289.2884586460981,7743
291.67940938938807,7797
294.0697009242996,7691
296.4593334566299,7767
298.84830719225477,7706
301.23662233712923,7871
303.6242790972866,7797
306.01127767884,7536
308.39761828798066,7766
310.78330113097934,7733
313.16832641418534,7702
315.5526943440269,7618
317.9364051270112,7521
320.3194589697242,7623
322.70185607883093,7748
325.0835966610754,7664
327.4646809232805,7468
329.8451090723478,7442
332.2248813152577,7422
334.6039978590701,7406
336.9824589109231,7623
339.36026467803447,7654
341.7374153677,7468
344.113911187295,7371
346.48975234427337,7375
348.8649390461686,7521
351.2394715005918,7491
353.61334991523415,7481
355.9865744978655,7458
358.35914545633375,7480
360.73106299856715,7477
363.10232733257146,7564
365.47293866643247,7539
367.84289720831396,7378
370.2122031664593,7432
372.5808567491905,7445
374.9488581649083,7501
377.31620762209275,7422
379.6829053293021,7423
382.0489514951745,7434
384.4143463284262,7537
386.7790900378528,7341
389.14318283232853,7365
391.50662492080653,7403
393.86941651231916,7596
396.23155781597745,7561
398.5930490409713,7487
400.9538903965696,7459
403.3140820921202,7478
405.6736243370498,7632
408.03251734086336,7521
410.3907613131465,7481
412.74835646356166,7348
415.10530300185144,7476
417.4616011378372,7433
419.81725108141893,7545
422.1722530425758,7496
424.5266072313656,7556
426.880313857925,7504
429.2333731324701,7513
431.58578526529516,7645
433.9375504667738,7439
436.2886689473588,7433
438.63914091758113,7591
440.9889665880513,7575
443.33814616945835,7566
445.68667987257015,7499
448.03456790823395,7570
450.3818104873759,7511
452.72840782100013,7478
455.07436012019105,7571
457.41966759611057,7535
459.7643304600007,7462
462.10834892318155,7662
464.4517231970525,7493
466.79445349309174,7521
469.1365400228566,7434
471.4779829979826,7522
473.81878263018564,7622
476.15893913125876,7746
478.4984527130747,7606
480.8373235875855,7708
483.17555196682144,7714
485.5131380628919,7714
487.8500820879857,7793
490.1863842543697,7973
492.52204477439034,8063
494.8570638604725,8221
497.1914417251204,8423
499.52517858091653,8557
501.85827464052306,8834
504.19073011668036,8917
506.5225452222086,8961
508.85372017000566,9013
511.18425517304956,9118
513.514150444396,9403
515.8434061971808,10569
518.1720226446176,11280
520.4999999999999,11429
522.8273384766991,11136
525.1540382881666,10770
527.480099647932,10319
529.8055227696037,9392
532.1303078668694,8590
534.454455153496,8173
536.777964843328,7975
539.1008371502907,7854
541.4230722883866,7912
543.744670471698,7909
546.0656319143858,7895
548.3859568306899,7794
550.7056454349294,7685
553.0246979415016,7913
555.3431145648834,7857
557.6608955196306,7766
559.978041020377,7811
562.2945512818363,7685
564.6104265188006,7784
566.9256669461412,8027
569.2402727788082,8026
571.5542442318302,7887
573.8675815203156,7856
576.1802848594508,7939
578.4923544645015,7952
580.8037905508126,7898
583.114593333807,7873
585.4247630289875,7987
587.7342998519354,7896
590.0432040183106,7932
592.3514757438526,7982
594.6591152443794,8143
596.9661227357875,8118
599.2724984340531,7996
601.578242555231,7961
603.8833553154542,8049
606.1878369309362,7999
608.4916876179676,8016
610.7949075929192,8075
613.0974970722403,8047
615.3994562724587,8136
617.7007854101818,8022
620.0014847020951,8005
622.3015543649641,8069
624.6009946156324,8011
626.8998056710224,7912
629.1979877481361,8061
631.4955410640538,7911
633.7924658359349,8036
636.0887622810175,8147
638.3844306166192,8067
640.6794710601358,8083
642.9738838290426,8225
645.2676691408932,8243
647.5608272133207,8229
649.853358264037,8196
652.1452625108324,8080
654.4365401715764,8256
656.7271914642178,8230
659.0172166067838,8270
661.3066158173809,8171
663.5953893141935,8299
665.8835373154867,8304
668.1710600396028,8308
670.4579577049639,8386
672.7442305300709,8182
675.0298787335033,8311
677.3149025339197,8390
679.599302150058,8299
681.8830778007342,8303
684.1662297048437,8368
686.4487580813608,8359
688.7306631493387,8295
691.0119451279091,8369
693.2926042362834,8241
695.5726406937516,8300
697.8520547196814,8227
700.1308465335215,8214
702.4090163547982,8496
704.6865644031171,8293
706.9634908981619,8178
709.2397960596965,8257
711.5154801075631,8290
713.7905432616823,8253
716.0649857420548,8235
718.3388077687592,8519
720.612009561953,8463
722.8845913418733,8412
725.1565533288352,8465
727.427895743234,8348
729.6986188055427,8308
731.9687227363137,8428
734.238207756178,8328
736.5070740858458,8336
738.7753219461066,8604
741.0429515578281,8521
743.3099631419569,8461
745.5763569195191,8408
747.8421331116193,8465
750.1072919394409,8403
752.3718336242467,8546
754.6357583873777,8620
756.8990664502545,8542
759.1617580343765,8565
761.423833361321,8539
763.6852926527457,8356
765.9461361303862,8487
768.206364016058,8388
770.4659765316536,8534
772.7249738991469,8495
774.9833563405886,8518
777.2411240781092,8471
779.4982773339183,8458
781.7548163303044,8496
784.010741289634,8482
786.2660524343538,8613
788.5207499869881,8720
790.7748341701416,8667
793.0283052064964,8694
795.2811633188143,8548
797.5334087299362,8708
799.7850416627813,8494
802.0360623403484,8689
804.2864709857143,8611
806.5362678220353,8618
808.7854530725468,8766
811.0340269605625,8680
813.2819897094754,8512
815.5293415427581,8711
817.77608268396,8682
820.0222133567116,8644
822.2677337847211,8722
824.5126441917765,8769
826.7569448017433,8668
829.0006358385675,8630
831.2437175262731,8631
833.4861900889629,8733
835.7280537508192,8764
837.9693087361026,8914
840.2099552691533,8718
842.4499935743896,8682
844.689423876309,8616
846.9282463994886,8802
849.1664613685833,8646
851.4040690083276,8658
853.6410695435349,8655
855.877463199097,8604
858.1132501999847,8875
860.3484307712487,8784
862.5830051380175,8950
864.8169735254988,8799
867.0503361589791,8906
869.2830932638243,8813
871.5152450654786,8870
873.7467917894654,8695
875.9777336613873,8831
878.2080709069252,9001
880.4378037518389,8880
882.666932421968,8730
884.8954571432301,8896
887.1233781416219,8995
889.3506956432192,9006
891.5774098741766,9035
893.803521060728,8891
896.0290294291852,8846
898.2539352059397,8874
900.4782386174619,9038
902.7019398903011,8839
904.925039251085,8979
907.147536926521,8953
909.3694331433943,8792
911.59072812857,8792
913.8114221089921,8860
916.0315153116827,8861
918.2510079637437,8842
920.4699002923547,8762
922.6881925247761,8781
924.905884888345,8636
927.1229776104793,8723
929.3394709186747,8746
931.555365040506,8853
933.7706602036275,8859
935.9853566357709,8756
938.1994545647489,8890
940.4129542184515,8778
942.6258558248488,8786
944.8381596119883,8904
947.0498658079974,8837
949.2609746410825,8778
951.4714863395287,9020
953.6814011316998,8990
955.8907192460387,8920
958.0994409110671,8857
960.3075663553858,8880
962.5150958076741,8961
964.7220294966913,9006
966.928367651274,9046
969.1341105003388,9125
971.3392582728806,8995
973.5438111979742,8977
975.747769504772,8938
977.9511334225061,9011
980.153903180487,8896
982.3560790081052,8985
984.5576611348289,9088
986.7586497902058,8916
988.9590452038618,8805
991.158847605503,9186
993.3580572249133,9001
995.5566742919558,8878
997.7546990365728,8770
999.952131688785,8875
1002.1489724786926,8783
1004.3452216364743,8779
1006.5408793923874,8799
1008.7359459767691,8790
1010.9304216200343,8863
1013.1243065526781,8692
1015.3176010052733,8606
1017.510305208472,8622
1019.7024193930064,8774
1021.8939437896848,8742
1024.0848786293977,8761
1026.2752241431122,8589
1028.4649805618747,8802
1030.6541481168115,8839
1032.842727039127,8843
1035.0307175601051,8705
1037.2181199111074,8729
1039.4049343235752,8697
1041.591161029029,8860
1043.7768002590683,8842
1045.9618522453698,8770
1048.1463172196918,8846
1050.3301954138697,8849
1052.513487059818,8665
1054.69619238953,9044
1056.8783116350783,8910
1059.0598450286152,8852
1061.2407928023704,8956
1063.4211551886528,8752
1065.6009324198508,8917
1067.780124728432,8778
1069.9587323469414,8898
1072.1367555080046,8882
1074.314194444325,8841
1076.4910493886855,8744
1078.667320573947,8819
1080.843008233051,8817
1083.0181125990161,8890
1085.1926339049414,8834
1087.3665723840027,8926
1089.5399282694575,8728
1091.7127017946405,8789
1093.8848931929647,8750
1096.0565026979243,8809
1098.2275305430899,8761
1100.3979769621128,8718
1102.567842188722,8766
1104.737126456726,8896
1106.9058300000124,8830
1109.0739530525475,8904
1111.2414958483764,8622
1113.4084586216231,8693
1115.5748416064907,8838
1117.7406450372605,8948
1119.9058691482942,8809
1122.0705141740304,8906
1124.2345803489884,8776
1126.3980679077658,8772
1128.5609770850388,8961
1130.7233081155623,8726
1132.8850612341707,8923
1135.0462366757774,9004
1137.2068346753745,9167
1139.3668554680326,8990
1141.526299288901,8877
1143.68516637321,8858
1145.8434569562655,8942
1148.001171273455,8806
1150.158309560244,8867
1152.3148720521767,8819
1154.470858984876,8784
1156.626270594044,8765
1158.7811071154629,8954
1160.9353687849912,8842
1163.089055838569,8904
1165.242168512213,8824
1167.3947070420209,9036
1169.5466716641677,8997
1171.6980626149075,8874
1173.8488801305748,8754
1175.9991244475814,8968
1178.1487958024186,8906
1180.2978944316555,8666
1182.4464205719428,8774
1184.5943744600072,8660
1186.7417563326567,8747
1188.8885664267755,8791
1191.0348049793297,8851
1193.1804722273619,8793
1195.325568407995,8755
1197.4700937584303,8945
1199.614048515948,8781
1201.7574329179074,8874
1203.900247201746,8856
1206.042491604982,9041
1208.1841663652099,8916
1210.3252717201053,9016
1212.465807907422,8921
1214.6057751649923,8988
1216.7451737307279,8997
1218.8840038426192,9102
1221.0222657387353,9047
1223.1599596572241,9223
1225.2970858363137,9130
1227.4336445143094,9300
1229.5696359295966,9209
1231.705060320639,9141
1233.8399179259786,9116
1235.9742089842384,9086
1238.107933734118,9228
1240.2410924143974,9082
1242.373685263935,9060
1244.5057125216676,9133
1246.6371744266116,9180
1248.7680712178621,9138
1250.898403134593,9129
1253.028170416058,9123
1255.1573733015875,8984
1257.2860120305932,9069
1259.4140868425648,9030
1261.54159797707,8955
1263.6685456737569,9167
1265.7949301723515,9021
1267.9207517126597,8983
1270.046010534565,9182
1272.1707068780306,9091
1274.2948409830983,9221
1276.4184130898889,9211
1278.541423438603,9084
1280.6638722695184,9072
1282.785759822993,9175
1284.9070863394636,9251
1287.0278520594447,9129
1289.1480572235314,9346
1291.2677020723963,9109
1293.3867868467923,9392
1295.5053117875495,9354
1297.623277135579,9376
1299.740683131868,9428
1301.8575300174857,9312
1303.973818033578,9343
1306.0895474213703,9499
1308.2047184221678,9446
1310.3193312773528,9399
1312.4333862283888,9570
1314.5468835168163,9475
1316.659823384255,9497
1318.7722060724045,9535
1320.8840318230418,9437
1322.9953008780249,9346
1325.1060134792888,9456
1327.2161698688478,9504
1329.3257702887959,9317
1331.4348149813054,9518
1333.5433041886276,9591
1335.6512381530933,9535
1337.7586171171101,9449
1339.8654413231675,9412
1341.9717110138317,9415
1344.0774264317488,9432
1346.1825878196432,9403
1348.2871954203192,9370
1350.3912494766587,9354
1352.4947502316231,9357
1354.5976979282532,9413
1356.7000928096686,9324
1358.8019351190665,9422
1360.9032250997243,9288
1363.0039629949988,9477
1365.1041490483235,9442
1367.2037835032133,9485
1369.3028666032606,9498
1371.401398592137,9500
1373.4993797135926,9389
1375.5968102114575,9377
1377.6936903296396,9552
1379.7900203121262,9479
1381.8858004029835,9530
1383.9810308463561,9457
1386.075711886469,9338
1388.1698437676241,9491
1390.2634267342032,9452
1392.356461030667,9488
1394.4489469015557,9456
1396.5408845914872,9326
1398.6322743451592,9661
1400.7231164073469,9450
1402.813411022907,9429
1404.903158436773,9574
1406.9923588939578,9363
1409.0810126395531,9366
1411.1691199187303,9463
1413.2566809767386,9466
1415.343696058907,9470
1417.4301654106425,9495
1419.5160892774315,9493
1421.6014679048399,9476
1423.6863015385125,9490
1425.7705904241707,9499
1427.8543348076178,9604
1429.9375349347342,9510
1432.0201910514802,9488
1434.102303403894,9477
1436.1838722380944,9550
1438.2648978002767,9527
1440.3453803367174,9802
1442.4253200937692,9665
1444.5047173178677,9657
1446.5835722555234,9727
1448.6618851533285,9839
1450.739656257952,9721
1452.8168858161434,9777
1454.8935740747306,9955
1456.96972128062,9941
1459.045327680797,10040
1461.120393522327,9702
1463.1949190523528,9995
1465.2689045180973,10056
1467.3423501668608,10169
1469.415256246024,10056
1471.4876230030463,9987
1473.559450685465,10179
1475.6307395408976,10313
1477.7014898170391,10156
1479.771701761665,10286
1481.8413756226287,10302
1483.9105116478618,10406
1485.9791100853772,10464
1488.0471711832643,10439
1490.1146951896926,10415
1492.1816823529098,10673
1494.2481329212433,10465
1496.3140471430984,10329
1498.3794252669609,10455
1500.4442675413939,10511
1502.5085742150404,10559
1504.572345536622,10588
1506.6355817549388,10613
1508.6982831188702,10502
1510.7604498773744,10726
1512.8220822794883,10664
1514.8831805743293,10739
1516.9437450110909,10669
1519.003775839048,10693
1521.0632733075522,10750
1523.1222376660367,10879
1525.1806691640113,10802
1527.2385680510652,10901
1529.2959345768668,10927
1531.3527689911643,10821
1533.4090715437833,10954
1535.4648424846291,10978
1537.5200820636855,11224
1539.5747905310159,11129
1541.6289681367616,11129
1543.6826151311434,11064
1545.7357317644614,11304
1547.7883182870937,11310
1549.8403749494987,11384
1551.8919020022113,11449
1553.9428996958477,11473
1555.9933682811015,11779
1558.0433080087469,11743
1560.0927191296346,11520
1562.1416018946961,11696
1564.1899565549415,11614
1566.2377833614592,11678
1568.2850825654164,11494
1570.3318544180606,11524
1572.3780991707158,11320
1574.423817074788,11334
1576.4690083817595,11323
1578.5136733431923,10853
1580.5578122107272,10865
1582.601425236085,10700
1584.6445126710646,10583
1586.6870747675434,10445
1588.7291117774776,10387
1590.7706239529034,10319
1592.8116115459347,10307
1594.8520748087658,10215
1596.8920139936686,10068
1598.9314293529933,10085
1600.9703211391711,9946
1603.008689604711,9892
1605.0465350022005,10138
1607.0838575843068,9751
1609.1206576037753,9834
1611.1569353134305,9841
1613.1926909661765,9714
1615.2279248149953,9601
1617.2626371129481,9857
1619.2968281131757,9708
1621.3304980688963,9736
1623.3636472334088,9726
1625.39627586009,9863
1627.428384202396,9737
1629.459972513861,9585
1631.4910410480993,9492
1633.5215900588028,9691
1635.551619799744,9612
1637.5811305247717,9608
1639.6101224878166,9589
1641.6385959428862,9569
1643.6665511440683,9595
1645.693988345528,9611
1647.7209078015112,9592
1649.7473097663405,9659
1651.7731944944203,9524
1653.7985622402307,9664
1655.823413258333,9399
1657.847747803366,9490
1659.8715661300494,9410
1661.8948684931793,9378
1663.9176551476316,9458
1665.9399263483624,9349
1667.9616823504057,9465
1669.982923408873,9380
1672.0036497789574,9407
1674.0238617159293,9451
1676.043559475138,9408
1678.0627433120121,9443
1680.081413482059,9382
1682.0995702408654,9424
1684.117213844096,9387
1686.134344547495,9428
1688.1509626068864,9399
1690.1670682781705,9461
1692.182661817329,9340
1694.1977434804217,9442
1696.2123135235875,9355
1698.226372203043,9421
1700.2399197750851,9516
1702.2529564960905,9571
1704.2654826225112,9369
1706.277498410882,9601
1708.2890041178139,9233
1710.2999999999988,9446
1712.3104863142066,9477
1714.3204633172854,9573
1716.329931266163,9539
1718.3388904178469,9492
1720.3473410294214,9436
1722.3552833580516,9558
1724.3627176609807,9453
1726.3696441955308,9430
1728.3760632191033,9440
1730.3819749891782,9556
1732.3873797633146,9523
1734.3922777991502,9400
1736.3966693544012,9479
1738.4005546868639,9323
1740.4039340544127,9395
1742.406807715001,9302
1744.4091759266616,9485
1746.4110389475054,9526
1748.4123970357223,9442
1750.413250449582,9277
1752.4135994474318,9452
1754.4134442876993,9469
1756.4127852288902,9301
1758.4116225295893,9388
1760.4099564484595,9282
1762.407787244244,9430
1764.405115175764,9189
1766.4019405019203,9340
1768.3982634816916,9336
1770.3940843741357,9407
1772.3894034383907,9361
1774.3842209336717,9253
1776.378537119274,9457
1778.372352254571,9407
1780.3656665990156,9268
1782.3584804121397,9354
1784.3507939535534,9262
1786.3426074829463,9404
1788.3339212600863,9275
1790.3247355448211,9442
1792.3150505970766,9227
1794.3048666768573,9274
1796.2941840442477,9267
1798.2830029594106,9456
1800.2713236825884,9400
1802.2591464741004,9343
1804.2464715943465,9429
1806.2332993038058,9487
1808.2196298630352,9380
1810.2054635326708,9404
1812.190800573428,9326
1814.175641246101,9497
1816.1599858115628,9497
1818.1438345307652,9446
1820.127187664738,9402
1822.1100454745924,9466
1824.092408221516,9422
1826.0742761667766,9371
1828.055649571721,9387
1830.0365286977735,9371
1832.0169138064398,9398
1833.9968051593014,9422
1835.9762030180214,9200
1837.9551076443408,9401
1839.9335193000788,9297
1841.9114382471344,9315
1843.888864747485,9441
1845.8657990631878,9326
1847.842241456378,9179
1849.8181921892697,9350
1851.7936515241558,9443
1853.7686197234098,9324
1855.7430970494815,9242
1857.7170837649014,9479
1859.6905801322787,9254
1861.6635864143004,9286
1863.6361028737338,9392
1865.608129773424,9455
1867.5796673762961,9516
1869.5507159453537,9410
1871.521275743678,9300
1873.4913470344313,9389
1875.4609300808534,9432
1877.4300251462632,9538
1879.3986324940588,9320
1881.366752387717,9574
1883.3343850907936,9507
1885.3015308669228,9577
1887.268189979819,9512
1889.2343626932739,9410
1891.2000492711595,9450
1893.1652499774254,9678
1895.1299650761011,9724
1897.0941948312952,9696
1899.0579395071945,9472
1901.0211993680641,9524
1902.98397467825,9428
1904.9462657021745,9574
1906.9080727043415,9539
1908.869395949332,9536
1910.8302357018065,9614
1912.790592226504,9576
1914.7504657882428,9530
1916.7098566519212,9482
1918.6687650825133,9514
1920.6271913450764,9528
1922.5851357047422,9570
1924.5425984267245,9510
1926.499579776314,9553
1928.4560800188833,9413
1930.4120994198802,9600
1932.367638244833,9513
1934.32269675935,9391
1936.2772752291175,9546
1938.231373919899,9652
1940.1849930975404,9528
1942.1381330279637,9498
1944.0907939771696,9558
1946.0429762112412,9485
1947.9946799963363,9481
1949.9459055986945,9459
1951.896653284633,9476
1953.8469233205478,9415
1955.7967159729142,9488
1957.7460315082863,9724
1959.6948701932974,9409
1961.6432322946594,9440
1963.5911180791632,9590
1965.5385278136787,9683
1967.4854617651545,9620
1969.4319202006182,9553
1971.377903387176,9665
1973.3234115920136,9653
1975.268445082395,9407
1977.2130041256642,9481
1979.1570889892423,9588
1981.1006999406304,9622
1983.04383724741,9546
1984.986501177238,9654
1986.928691997853,9559
1988.8704099770712,9679
1990.811655382789,9525
1992.7524284829801,9459
1994.692729545698,9660
1996.6325588390755,9576
1998.5719166313224,9640
2000.5108031907307,9453
2002.4492187856677,9664
2004.387163684583,9515
2006.3246381560011,9515
2008.2616424685298,9494
2010.1981768908527,9593
2012.1342416917332,9504
2014.069837140014,9617
2016.0049635046162,9488
2017.9396210545406,9605
2019.8738100588666,9496
2021.8075307867502,9593
2023.740783507431,9548
2025.6735684902228,9552
2027.6058860045214,9603
2029.5377363198004,9564
2031.4691197056118,9424
2033.4000364315875,9740
2035.3304867674374,9566
2037.260470982952,9516
2039.189989347998,9813
2041.1190421325232,9472
2043.047629606554,9497
2044.9757520401945,9587
2046.9034097036288,9693
2048.8306028671195,9660
2050.7573318010086,9648
2052.683596775716,9580
2054.609398061742,9646
2056.5347359296647,9617
2058.4596106501403,9598
2060.384022493906,9721
2062.3079717317764,9624
2064.231458634646,9435
2066.1544834734873,9561
2068.077046519352,9770
2069.99914804337,9574
2071.9207883167524,9774
2073.8419676107865,9649
2075.7626861968406,9685
2077.6829443463607,9643
2079.6027423308715,9784
2081.522080421977,9655
2083.440958891362,9891
2085.359378010786,9561
2087.2773380520907,9738
2089.194839287196,9649
2091.111881988101,9835
2093.0284664268825,9672
2094.9445928756973,9678
2096.86026160678,9690
2098.775472892446,9703
2100.690227005088,9668
2102.604524217178,9771
2104.5183648012676,9833
2106.431749029985,9665
2108.34467717604,9779
2110.2571495122206,9669
2112.169166311393,9762
2114.080727846503,9657
2115.9918343905747,9800
2117.902486216711,9692
2119.8126835980956,9873
2121.722426807987,9817
2123.6317161197285,9623
2125.5405518067364,9636
2127.448934142509,9791
2129.356863400624,9683
2131.264339854737,9851
2133.1713637785815,9820
2135.077935445972,9832
2136.9840551308002,9754
2138.889723107037,9884
2140.7949396487334,9935
2142.699705030018,9836
2144.6040195250994,9688
2146.507883408264,9819
2148.4112969538774,9898
2150.3142604363848,9845
2152.2167741303097,9829
2154.1188383102535,10006
2156.0204532508997,9877
2157.9216192270064,9910
2159.822336513414,9714
2161.7226053850413,9918
2163.622426116884,9858
2165.5217989840185,9959
2167.4207242616,9943
2169.319202224862,9816
2171.2172331491165,9911
2173.1148173097563,9945
2175.0119549822507,9938
2176.90864644215,9972
2178.8048919650823,9862
2180.7006918267534,9927
2182.596046302952,9854
2184.4909556695407,9774
2186.3854202024645,9837
2188.279440177746,9875
2190.173015871487,9841
2192.066147559868,10004
2193.958835519149,9830
2195.851080025667,9972
2197.7428813558417,10033
2199.6342397861667,9769
2201.5251555932186,9897
2203.415629053651,9897
2205.3056604441986,9968
2207.19525004167,10076
2209.084398122958,10328
2210.9731049650327,10004
2212.861370844941,9984
2214.749196039812,10070
2216.636580826851,9992
2218.523525483344,9958
2220.410030286655,10131
2222.296095514226,10047
2224.1817214435805,10091
2226.066908352319,10092
2227.951656518121,10189
2229.835966218746,10149
2231.71983773203,10134
2233.6032713358913,10055
2235.486267308324,10233
2237.3688259274036,10174
2239.2509474712824,10098
2241.132632218193,10102
2243.013880446447,10188
2244.8946924344323,10265
2246.7750684606203,10324
2248.6550088035574,10122
2250.534513741871,10140
2252.413583554265,10290
2254.292218519526,10036
2256.170418916517,10001
2258.0481850241786,10155
2259.925517121534,10162
2261.8024154876825,10023
2263.678880401803,10106
2265.5549121431536,10093
2267.430510991071,10052
2269.305677224971,10246
2271.180411124348,10103
2273.0547129687766,10149
2274.9285830379076,10169
2276.8020216114737,10104
2278.6750289692845,10206
2280.5476053912294,10177
2282.4197511572766,10055
2284.2914665474727,10149
2286.162751841943,10119
2288.0336073208937,10241
2289.904033264608,10291
2291.774029953448,10099
2293.6435976678554,10084
2295.5127366883517,10265
2297.381447295534,10175
2299.2497297700825,9980
2301.1175843927526,10227
2302.9850114443825,10161
2304.852011205885,10095
2306.7185839582553,10001
2308.5847299825664,10002
2310.4504495599676,10183
2312.3157429716925,10215
2314.1806104990483,10178
2316.0450524234247,10118
2317.9090690262888,10137
2319.772660589186,10193
2321.635827393742,10266
2323.498569721661,10161
2325.3608878547248,10222
2327.2227820747967,10187
2329.0842526638157,10062
2330.945299903803,10124
2332.805924076857,10102
2334.6661254651535,10118
2336.525904350951,10159
2338.3852610165827,10151
2340.244195744464,9934
2342.102708817088,9977
2343.9608005170253,10084
2345.8184711269287,10234
2347.675720929526,10311
2349.532550207628,10023
2351.38895924412,10329
2353.24494832197,10066
2355.100517724223,10296
2356.955667734004,10265
2358.810398634514,10105
2360.664710709037,10226
2362.5186042409337,10203
2364.3720795136437,10145
2366.225136810686,10213
2368.0777764156583,10222
2369.929998612237,10089
2371.7818036841777,10225
2373.633191915315,10187
2375.484163589562,10012
2377.3347189909114,10295
2379.184858403434,10278
2381.03458211128,10271
2382.8838903986775,10264
2384.732783549936,10082
2386.5812618494406,10291
2388.4293255816588,10211
2390.2769750311327,10381
2392.1242104824883,10425
2393.971032220427,10407
2395.8174405297295,10261
2397.6634356952563,10165
2399.509018001947,10348
2401.3541877348193,10325
2403.1989451789705,10194
2405.043290619576,10313
2406.8872243418905,10296
2408.730746631247,10090
2410.5738577730594,10134
2412.4165580528183,10211
2414.258847756095,10279
2416.100727168537,10162
2417.9421965758734,10270
2419.783256263912,10351
2421.623906518538,10308
2423.4641476257157,10363
2425.303979871491,10468
2427.143403541984,10285
2428.9824189233977,10254
2430.821026302012,10206
2432.6592259641866,10331
2434.497018196361,10076
2436.33440328505,10261
2438.171381516851,10135
2440.00795317844,10073
2441.844118556569,10177
2443.6798779380724,10191
2445.5152316098606,10437
2447.3501798589255,10340
2449.1847229723357,10433
2451.0188612372403,10201
2452.8525949408663,10305
2454.6859243705203,10322
2456.518849813587,10211
2458.3513715575314,10488
2460.183489889895,10300
2462.015205098301,10393
2463.8465174704493,10445
2465.67742729412,10399
2467.5079348571717,10552
2469.338040447542,10456
2471.1677443532476,10442
2472.9970468623833,10307
2474.825948263123,10374
2476.6544488437207,10504
2478.482548892508,10397
2480.310248697896,10378
2482.137548548374,10309
2483.9644487325118,10413
2485.790949538956,10499
2487.617051256433,10322
2489.44275417375,10307
2491.26805857979,10546
2493.0929647635157,10586
2494.917473013971,10532
2496.741583620276,10342
2498.5652968716304,10473
2500.3886130573137,10377
2502.2115324666834,10482
2504.0340553891765,10555
2505.856182114308,10705
2507.6779129316733,10404
2509.499248130945,10635
2511.3201880018764,10544
2513.140732834298,10538
2514.9608829181198,10474
2516.780638543331,10393
2518.6,10656
2520.418967578273,10701
2522.237541568376,10417
2524.0557222606144,10516
2525.8735099453706,10541
2527.6909049131086,10562
2529.507907454368,10671
2531.32451785977,10395
2533.140736420014,10536
2534.9565634258774,10569
2536.771999168218,10561
2538.5870439379714,10772
2540.4016980261526,10689
2542.2159617238544,10588
2544.02983532225,10728
2545.8433191125914,10660
2547.656413386209,10749
2549.4691184345115,10687
2551.2814345489874,10698
2553.093362021204,10618
2554.904901142808,10756
2556.716052205523,10679
2558.526815501153,10673
2560.3371913215824,10663
2562.147179958771,10783
2563.956781704761,10600
2565.7659968516705,10858
2567.5748256916986,10769
2569.3832685171224,10676
2571.1913256202984,10700
2572.9989972936614,10761
2574.806283829725,10684
2576.613185521084,10748
2578.4197026604074,10874
2580.2258355404483,10897
2582.031584454035,10842
2583.836949694077,10727
2585.6419315535613,10796
2587.4465303255533,10649
2589.2507463032002,10638
2591.0545797797245,10793
2592.8580310484303,10791
2594.6611004026995,10827
2596.463788135992,10843
2598.266094541849,10820
2600.0680199138874,10741
2601.869564545807,10774
2603.670728731383,10741
2605.4715127644704,10772
2607.2719169390048,10900
2609.071941548998,10918
2610.8715868885433,10996
2612.670853251811,10735
2614.469740933052,10910
2616.268250226594,11090
2618.0663814268455,10874
2619.864134828292,10994
2621.6615107255006,10996
2623.458509413115,10991
2625.2551311858597,10732
2627.0513763385347,10731
2628.8472451660223,10770
2630.6427379632833,10713
2632.4378550253564,10597
2634.232596647359,10864
2636.026963124488,10711
2637.8209547520187,10792
2639.6145718253065,10613
2641.407814639785,10776
2643.200683490966,10942
2644.9931786744414,10867
2646.7853004858807,10681
2648.577049221034,10692
2650.3684251757277,10756
2652.1594286458712,10751
2653.9500599274484,10592
2655.740319316525,10698
2657.5302071092437,10640
2659.3197236018286,10579
2661.10886909058,10744
2662.8976438718782,10721
2664.686048242183,10812
2666.4740824980327,10699
2668.2617469360443,10778
2670.0490418529134,10796
2671.8359675454153,10959
2673.622524310403,10649
2675.408712444811,10898
2677.1945322456495,10715
2678.979984010009,10608
2680.76506803506,10638
2682.5497846180497,10707
2684.334134056306,10712
2686.1181166472343,10596
2687.9017326883213,10707
2689.6849824771293,10734
2691.4678663113013,10700
2693.2503844885596,10767
2695.032537306705,10769
2696.8143250636167,10748
2698.5957480572542,10587
2700.3768065856534,10697
2702.1575009469316,10785
2703.937831439283,10771
2705.717798360982,10453
2707.4974020103837,10623
2709.276642685917,10643
2711.055520686095,10761
2712.834036309506,10715
2714.612189854819,10553
2716.389981620782,10677
2718.1674119062204,10664
2719.944481010041,10769
2721.721189231226,10619
2723.4975368688415,10670
2725.273524222027,10476
2727.0491515900053,10806
2728.824419272075,10594
2730.5993275676146,10618
2732.3738767760838,10708
2734.148067197016,10616
2735.921899130031,10665
2737.6953728748194,10665
2739.468488731156,10625
2741.2412469988926,10624
2743.0136479779617,10549
2744.785691968372,10549
2746.5573792702116,10677
2748.3287101836504,10721
2750.099685008934,10792
2751.870304046388,10701
2753.640567596418,10846
2755.4104759595057,10822
2757.1800294362156,10654
2758.949228327187,10685
2760.7180729331412,10823
2762.486563554877,10461
2764.254700493272,10552
2766.022484049284,10715
2767.789914523947,10666
2769.5569922183786,10817
2771.3237174337705,10764
2773.090090471394,10686
2774.8561116326036,10726
2776.6217812188274,10640
2778.3870995315756,10647
2780.1520668724356,10592
2781.9166835430747,10585
2783.6809498452394,10644
2785.444866080754,10841
2787.2084325515225,10746
2788.971649559527,10533
2790.73451740683,10783
2792.4970363955713,10841
2794.2592068279705,10636
2796.0210290063264,10525
2797.7825032330147,10867
2799.543629810493,10764
2801.304409041296,10730
2803.0648412280366,10765
2804.8249266734088,10910
2806.5846656801846,10826
2808.344058551212,10595
2810.1031055894246,10796
2811.8618070978273,10897
2813.6201633795085,10839
2815.378174737636,10918
2817.1358414754536,10993
2818.893163896285,10907
2820.6501423035334,10987
2822.4067770006814,10735
2824.1630682912883,10709
2825.9190164789957,11127
2827.6746218675207,10780
2829.429884760661,10884
2831.184805462294,10900
2832.9393842763743,10874
2834.693621506936,11019
2836.4475174580916,10867
2838.201072434034,10916
2839.954286739034,10906
2841.707160677441,10884
2843.459694553685,10850
2845.2118886722724,10955
2846.96374333779,11033
2848.7152588549034,10887
2850.4664355283567,10955
2852.217273662973,10816
2853.9677735636546,11025
2855.7179355353833,10876
2857.4677598832186,10985
2859.217246912299,10894
2860.9663969278427,10802
2862.715210235146,10946
2864.4636871395846,10925
2866.211827946614,10840
2867.9596329617652,10854
2869.7071024906536,11135
2871.4542368389684,10915
2873.20103631248,11007
2874.947501217038,11029
2876.6936318585695,10976
2878.4394285430812,10817
2880.1848915766604,10814
2881.9300212654707,10683
2883.6748179157553,10882
2885.4192818338374,11020
2887.1634133261173,10719
2888.907212699077,10867
2890.6506802592744,10850
2892.393816313348,10923
2894.1366211680142,11034
2895.8790951300693,10992
2897.621238506388,10922
2899.363051603925,10821
2901.1045347297118,10822
2902.8456881908596,11070
2904.58651229456,10964
2906.327007348081,10867
2908.067173658772,10755
2909.8070115340597,11029
2911.5465212814497,10657
2913.285703208527,10796
2915.0245576229563,10740
2916.7630848324807,10722
2918.5012851449196,10696
2920.2391588681758,10610
2921.976706310227,10754
2923.7139277791334,10598
2925.4508235830313,10728
2927.187394030137,11032
2928.923639428745,10840
2930.6595600872306,11136
2932.395156314046,11113
2934.1304284177218,10899
2935.8653767068713,10887
2937.6000014901815,11020
2939.3343030764227,10969
2941.068281774442,11126
2942.8019378931644,10966
2944.5352717415976,11280
2946.2682836288236,11121
2948.0009738640065,10901
2949.7333427563885,11025
2951.465390615289,11019
2953.1971177501086,11062
2954.9285244703265,11109
2956.6596110855,10978
2958.3903779052657,10859
2960.1208252393385,10969
2961.8509533975125,10991
2963.5807626896617,10990
2965.3102534257378,11104
2967.0394259157715,11028
2968.768280469873,11067
2970.496817398232,10907
2972.2250370111146,11123
2973.952939618869,11009
2975.6805255319196,11086
2977.4077950607707,11153
2979.134748516006,11282
2980.861386208289,11177
2982.587708448359,11113
2984.313715547037,11178
2986.039407815222,11072
2987.764785563891,11265
2989.489849104102,11186
2991.2145987469908,11162
2992.9390348037705,11042
2994.6631575857346,10989
2996.3869674042576,11028
2998.1104645707887,11032
2999.83364939686,11234
3001.5565221940783,11388
3003.2790832741334,11011
3005.0013329487924,11100
3006.7232715298996,10995
3008.4448993293804,10813
3010.166216659239,11019
3011.887223831558,10962
3013.607921158498,10966
3015.3283089522993,11042
3017.0483875252826,11142
3018.7681571898443,10990
3020.4876182584626,11121
3022.2067710436927,11093
3023.9256158581707,11052
3025.644153014609,11115
3027.362382825801,11004
3029.0803056046193,11185
3030.797921664012,10956
3032.5152313170106,10979
3034.2322348767225,11199
3035.9489326563353,11086
3037.665324969115,11195
3039.3814121284063,10992
3041.097194447633,11071
3042.812672240299,11020
3044.5278458199855,11199
3046.2427155003525,11058
3047.9572815951406,11141
3049.671544418167,11244
3051.38550428333,11247
3053.0991615046073,11079
3054.812516396051,11242
3056.5255692717974,11122
3058.2383204460575,11094
3059.9507702331257,10975
3061.662918947372,10965
3063.3747669032446,11150
3065.0863144152736,10999
3066.7975617980674,11117
3068.508509366309,11174
3070.219157434767,11219
3071.9295063182844,11292
3073.639556331785,11368
3075.3493077902704,11299
3077.058761008821,11369
3078.7679163025964,11399
3080.476773986837,11448
3082.1853343768594,11269
3083.89359778806,11150
3085.6015645359153,11360
3087.3092349359786,11001
3089.016609303884,11234
3090.7236879553434,11316
3092.4304712061476,11396
3094.136959372166,11395
3095.843152769349,11188
3097.5490517137237,11214
3099.2546565213966,11373
3100.959967508554,11262
3102.66498499146,11366
3104.3697092864577,11312
3106.0741407099695,11339
3107.778279578498,11382
3109.482126208622,11364
3111.1856809170004,11347
3112.8889440203716,11405
3114.5919158355528,11562
3116.294596679439,11460
3117.996986869006,11532
3119.6990867213062,11392
3121.4008965534726,11282
3123.102416682717,11374
3124.803647426329,11483
3126.5045891016784,11612
3128.205242026213,11533
3129.90560651746,11484
3131.605682893025,11364
3133.3054714705922,11469
3135.0049725679282,11531
3136.7041865028714,11404
3138.4031135933465,11553
3140.101754157353,11519
3141.800108512971,11394
3143.498176978357,11313
3145.1959598717494,11374
3146.8934575114636,11364
3148.5906702158954,11259
3150.2875983035183,11301
3151.9842420928853,11136
3153.680601902627,11417
3155.376678051456,11219
3157.07247085816,11202
3158.767980641609,11250
3160.463207720748,11511
3162.158152414606,11268
3163.8528150422862,11309
3165.5471959229726,11378
3167.2412953759303,11591
3168.9351137204976,11434
3170.628651276098,11421
3172.3219083622307,11547
3174.014885298474,11494
3175.707582404485,11669
3177.4000000000005,11688
3179.092138404835,11460
3180.7839979388846,11501
3182.47557892212,11512
3184.166881674594,11563
3185.8579065164386,11951
3187.5486537678626,11715
3189.2391237491547,11539
3190.9293167806827,11433
3192.6192331828934,11212
3194.3088732763117,11406
3195.998237381542,11458
3197.687325819268,11667
3199.376138910251,11446
3201.064676975334,11474
3202.7529403354347,11518
3204.4409293115523,11368
3206.1286442247647,11460
3207.816085396229,11533
3209.5032531471825,11362
3211.190147798936,11246
3212.8767696728846,11166
3214.5631190905015,11224
3216.2491963733373,11331
3217.9350018430214,11219
3219.6205358212637,11377
3221.305798629851,11296
3222.990790590651,11244
3224.6755120256103,11105
3226.359963256751,11328
3228.0441446061795,11338
3229.7280563960758,11281
3231.411698948703,11521
3233.0950725863995,11481
3234.778177631587,11354
3236.461014406761,11455
3238.1435832345005,11469
3239.8258844374595,11358
3241.507918338374,11594
3243.1896852600576,11501
3244.8711855254023,11743
3246.552419457381,11511
3248.233387379042,11569
3249.914089613516,11467
3251.59452648401,11564
3253.274698313813,11396
3254.95460542629,11375
3256.6342481448855,11359
3258.313626793125,11271
3259.9927416946084,11436
3261.6715931730196,11313
3263.3501815521176,11183
3265.0285071557437,11333
3266.706570307815,11413
3268.3843713323286,11397
3270.0619105533615,11545
3271.739188295068,11496
3273.4162048816834,11446
3275.0929606375184,11405
3276.769455886966,11745
3278.445690954498,11592
3280.1216661646613,11599
3281.797381842087,11738
3283.4728383114807,11639
3285.1480358976296,11485
3286.8229749253996,11514
3288.4976557197333,11275
3290.172078605655,11736
3291.846243908266,11447
3293.5201519527463,11383
3295.193803064357,11260
3296.8671975684374,11317
3298.5403357904024,11415
3300.21321805575,11437
3301.8858446900567,11574
3303.558216018975,11390
3305.23033236824,11690
3306.9021940636603,11541
3308.57380143113,11530
3310.2451547966184,11812
3311.916254486174,11728
3313.5871008259246,11578
3315.2576941420766,11513
3316.9280347609147,11645
3318.5981230088046,11465
3320.2679592121895,11465
3321.9375436975924,11339
3323.606876791612,11465
3325.27595882093,11486
3326.944790112305,11488
3328.6133709925753,11452
3330.2817017886573,11400
3331.949782827547,11395
3333.617614436319,11418
3335.2851969421245,11692
3336.952530672199,11749
3338.619615953853,11538
3340.286453114475,11711
3341.9530424815357,11753
3343.619384382583,11907
3345.2854791452437,11479
3346.951327097224,11825
3348.6169285663073,11878
3350.2822838803577,11670
3351.947393367319,11840
3353.61225735521,11721
3355.2768761721345,11748
3356.9412501462693,11724
3358.605379605873,11760
3360.2692648792827,11682
3361.9329062949146,11554
3363.596304181263,11491
