CollectionTime,9/20/2024 11:09:36 AM
ExposureUsed,3
CalibratedSpectrum
-962.7078968117929,653
-959.9714848408522,678
-957.2358232597828,703
-954.5009119013725,746
-951.7667505983302,767
-949.0333391832855,755
-946.3006774887896,722
-943.5687653473143,702
-940.837602591253,697
-938.1071890529199,754
-935.3775245645503,716
-932.6486089583007,706
-929.9204420662485,724
-927.1930237203925,716
-924.4663537526524,720
-921.7404319948689,771
-919.0152582788041,737
-916.2908324361409,750
-913.5671542984834,732
-910.8442236973568,733
-908.1220404642074,694
-905.4006044304027,696
-902.679915427231,724
-899.959973285902,702
-897.2407778375464,731
-894.5223289132158,689
-891.8046263438832,713
-889.0876699604426,727
-886.3714595937089,739
-883.6559950744183,680
-880.9412762332282,693
-878.2273029007168,702
-875.5140749073835,707
-872.8015920836489,698
-870.0898542598545,685
-867.3788612662631,669
-864.6686129330585,661
-861.9591090903457,687
-859.2503495681506,663
-856.5423341964203,619
-853.8350628050229,660
-851.1285352237478,698
-848.4227512823054,699
-845.7177108103272,715
-843.0134136373656,694
-840.3098595928943,707
-837.6070485063082,691
-834.9049802069229,723
-832.2036545239757,704
-829.5030712866244,693
-826.8032303239481,720
-824.1041314649472,639
-821.4057745385428,712
-818.7081593735775,682
-816.0112857988148,700
-813.3151536429393,663
-810.6197627345566,669
-807.9251129021936,690
-805.2312039742981,735
-802.5380357792392,713
-799.8456081453069,661
-797.1539209007124,704
-794.462973873588,678
-791.772766891987,721
-789.083299783884,707
-786.3945723771743,715
-783.7065844996748,721
-781.0193359791231,712
-778.3328266431781,706
-775.6470563194197,704
-772.9620248353489,706
-770.2777320183878,694
-767.5941776958798,720
-764.9113616950891,716
-762.2292838432011,699
-759.5479439673222,671
-756.8673418944801,733
-754.1874774516235,707
-751.5083504656222,755
-748.8299607632671,736
-746.15230817127,752
-743.475392516264,744
-740.7992136248035,729
-738.1237713233636,701
-735.4490654383407,693
-732.7750957960521,711
-730.1018622227365,759
-727.4293645445534,783
-724.7576025875837,745
-722.0865761778291,790
-719.4162851412126,786
-716.7467293035781,757
-714.0779084906909,751
-711.409822528237,802
-708.7424712418238,777
-706.0758544569796,758
-703.4099719991541,767
-700.7448236937178,772
-698.0804093659622,755
-695.4167288411002,785
-692.7537819442656,751
-690.0915685005134,769
-687.4300883348199,787
-684.7693412720819,822
-682.1093271371178,784
-679.4500457546669,837
-676.7914969493897,829
-674.1336805458676,784
-671.4765963686034,800
-668.8202442420206,818
-666.1646239904642,813
-663.5097354382001,838
-660.8555784094151,805
-658.2021527282176,784
-655.5494582186366,754
-652.8974947046223,781
-650.2462620100463,787
-647.5957599587009,804
-644.9459883742998,856
-642.2969470804776,835
-639.6486359007902,848
-637.0010546587141,890
-634.3542031776476,892
-631.7080812809096,837
-629.0626887917401,824
-626.4180255333008,803
-623.7740913286734,880
-621.1308860008619,870
-618.4884093727904,846
-615.8466612673046,865
-613.2056415071715,812
-610.5653499150785,840
-607.9257863136347,889
-605.28695052537,911
-602.6488423727357,856
-600.0114616781036,869
-597.3748082637674,894
-594.7388819519412,888
-592.1036825647604,848
-589.4692099242818,898
-586.8354638524829,866
-584.2024441712624,899
-581.5701507024403,932
-578.9385832677575,985
-576.3077416888759,979
-573.6776257873787,901
-571.0482353847704,866
-568.4195703024757,870
-565.7916303618415,839
-563.164415384135,914
-560.5379251905453,892
-557.9121596021815,896
-555.2871184400748,872
-552.6628015251767,929
-550.0392086783606,925
-547.4163397204204,944
-544.794194472071,971
-542.1727727539491,949
-539.5520743866118,939
-536.9320991905377,959
-534.3128469861261,1032
-531.6943175936979,992
-529.0765108334947,996
-526.4594265256793,1047
-523.8430644903358,1265
-521.2274245474689,1410
-518.612506517005,1486
-515.9983102187913,1467
-513.3848354725959,1490
-510.77208209810846,1626
-508.16004991493924,1622
-505.5487387426199,1777
-502.9381484006032,1839
-500.3282787082628,1923
-497.71912948489364,1820
-495.1107005497117,1703
-492.5029917218539,1630
-489.8960028203786,1469
-487.28973366426493,1350
-484.68418407241325,1162
-482.07935386364494,1217
-479.47524285670266,1087
-476.87185087025,1067
-474.2691777228715,1181
-471.66722323307334,1150
-469.0659872192821,1147
-466.4654694998459,1151
-463.86566989303384,1153
-461.26658821703614,1087
-458.66822428996414,1086
-456.07057792985,1115
-453.4736489546475,1173
-450.877437182231,1066
-448.28194243039627,1098
-445.68716451686,1059
-443.09310325926003,1063
-440.49975847515555,1061
-437.9071299820263,1112
-435.31521759727354,1051
-432.72402113821954,1108
-430.13354042210767,1083
-427.5437752661022,1093
-424.95472548728867,1103
-422.36639090267386,1141
-419.7787713291855,1207
-417.1918665836721,1185
-414.60567648290385,1177
-412.0202008435715,1225
-409.4354394822874,1212
-406.8513922155845,1194
-404.26805885991723,1259
-401.685439231661,1206
-399.103533147112,1208
-396.522340422488,1133
-393.9418608739278,1151
-391.3620943174908,1187
-388.7830405691583,1108
-386.2046994448317,1100
-383.6270707603344,1061
-381.05015433141045,994
-378.473949973725,976
-375.8984575028645,884
-373.32367673433623,863
-370.74960748356875,843
-368.1762495659117,809
-365.60360279663576,702
-363.03166699093265,679
-360.4604419639154,628
-357.8899275306178,588
-355.32012350599507,651
-352.7510297049233,628
-350.1826459421999,587
-347.61497203254316,593
-345.04800779059235,636
-342.4817530309082,622
-339.91620756797226,671
-337.35137121618743,684
-334.7872437898774,633
-332.22382510328725,596
-329.66111497058273,563
-327.09911320585127,618
-324.53781962310075,588
-321.9772340362607,595
-319.4173562591816,591
-316.8581861056348,579
-314.2997233893127,635
-311.7419679238294,660
-309.1849195227194,720
-306.62857799943856,691
-304.0729431673641,630
-301.51801483979375,668
-298.963792829947,612
-296.41027695096386,605
-293.85746701590574,631
-291.3053628377552,647
-288.7539642294155,715
-286.2032710037115,748
-283.65328297338897,701
-281.1039999511146,664
-278.5554217494762,702
-276.007548180983,752
-273.4603790580651,722
-270.9139141930734,748
-268.3681533982807,748
-265.8230964858798,840
-263.27874326798565,859
-260.7350935566336,794
-258.1921471637804,870
-255.6499039013039,975
-253.10836358100266,905
-250.56752601459698,848
-248.02739101372765,936
-245.48795838995704,963
-242.94922795476816,911
-240.41119951956557,919
-237.8738728956746,816
-235.33724789434166,797
-232.80132432673452,884
-230.2661020039418,932
-227.73158073697357,1038
-225.19776033676033,1017
-222.66464061415422,1038
-220.1322213799284,1103
-217.60050244477725,989
-215.06948361931552,1025
-212.53916471408013,1061
-210.00954553952818,1070
-207.48062590603843,1076
-204.9524056239104,1022
-202.4248845033651,1120
-199.8980623545441,1249
-197.37193898751036,1341
-194.84651421224817,1299
-192.32178783866232,1158
-189.79775967657952,1046
-187.27442953574644,1132
-184.7517972258321,1281
-182.2298625564256,1096
-179.7086253370378,1081
-177.18808537710026,1180
-174.66824248596583,1332
-172.14909647290835,1423
-169.6306471471229,1387
-167.11289431772548,1222
-164.59583779375328,1091
-162.07947738416453,1334
-159.5638128978386,1692
-157.04884414357605,1702
-154.53457093009854,1704
-152.02099306604828,1426
-149.50811035998936,1366
-146.99592262040665,1863
-144.48442965570587,1928
-141.97363127421409,1916
-139.46352728417958,1940
-136.95411749377126,1837
-134.44540171107985,1555
-131.93737974411636,1421
-129.43005140081357,1474
-126.92341648902493,1960
-124.41747481652521,2347
-121.91222619101006,2711
-119.40767042009657,2706
-116.90380731132257,2670
-114.40063667214702,3381
-111.8981583099503,4539
-109.3963720320337,6774
-106.89527764561933,9675
-104.39487495785067,11251
-101.89516377579241,14689
-99.39614390642998,19719
-96.89781515667039,24995
-94.40017733334128,29696
-91.90323024319173,29826
-89.40697369289148,21167
-86.91140748903172,12061
-84.41653143812482,9008
-81.92234534660395,12213
-79.42884902082358,18884
-76.93604226705907,23825
-74.4439248915071,24913
-71.95249670028534,20423
-69.46175749943245,13569
-66.97170709490854,8420
-64.48234529259423,6416
-61.99367189829195,6881
-59.50568671772464,7140
-57.01838955653636,9908
-54.53178022029283,15025
-52.045858514480074,21869
-49.560624244506016,31620
-47.07607721569923,37605
-44.59221723330904,39210
-42.10904410250669,42772
-39.62655762838392,44261
-37.14475761595372,44729
-34.66364387015028,44502
-32.18321619582866,36752
-29.70347439776515,34389
-27.224418280657005,35460
-24.74604764912317,39181
-22.26836230770266,55578
-19.7913620608565,65036
-17.315046712966478,65036
-14.83941606833514,65036
-12.36446993118659,65036
-9.89020810566592,65036
-7.416630395839093,65036
-4.94373660569363,65036
-2.471526539137585,65036
-6.821210263296962E-13,65036
2.47084320796705,65036
4.941003281093458,65036
7.410480415786196,65036
9.879274808531363,65036
12.347386655893956,65036
14.814816154518212,65036
17.28156350112681,65036
19.74762889252179,65036
22.21301252558385,65036
24.67771459727237,23597
27.141735304626195,8977
29.605074844762612,7726
32.06773341487792,5324
34.52971121224755,4466
36.99100843422559,4585
39.45162527824516,4026
41.91156194181792,4211
44.370818622535126,4373
46.82939551806646,4498
49.287292826160524,6338
51.74451074464503,5766
54.201049471426245,3799
56.65690920448981,3007
59.112090141899785,2640
61.56659248179983,3205
64.02041642241159,3648
66.4735621620365,3700
68.92602989905402,3841
71.37781983192338,4071
73.82893215918205,3121
76.27936707944684,2235
78.72912479141326,2293
81.17820549385567,2192
83.62660938562783,1916
86.07433666566146,1972
88.5213875329681,2016
90.96776218663751,2263
93.41346082583925,2405
95.85848364982041,2856
98.30283085790859,2333
100.7465026495089,1913
103.18949922410604,1835
105.63182078126385,1519
108.07346752062438,1867
110.51443964190923,1830
112.95473734491827,2018
115.39436082953114,2000
117.83331029570547,1929
120.27158594347827,1821
122.7091879729652,1776
125.1461165843615,1892
127.58237197794062,1766
130.01795435405518,1818
132.4528639131364,1797
134.88710085569494,1732
137.32066538231982,1917
139.75355769367923,1856
142.1857779905207,1566
144.61732647366978,1253
147.04820334403132,1368
149.47840880258934,1406
151.90794305040674,1698
154.33680628862487,1886
156.76499871846443,2007
159.19252054122433,2021
161.61937195828352,1973
164.04555317109896,2090
166.47106438120693,2252
168.89590579022217,2340
171.320077599839,2595
173.7435800118302,2825
176.16641322804742,2858
178.58857745042144,3075
181.01007288096173,3008
183.43089972175687,2766
185.85105817497413,2829
188.27054844285988,2888
190.6893707277394,2877
193.10752523201643,3108
195.5250121581745,3350
197.9418317087751,3281
200.3579840864594,3302
202.7734694939469,3214
205.18828813403627,3277
207.6024402096051,3228
210.01592592360964,3153
212.42874547908548,3228
214.84089907914665,3204
217.2523869269868,3201
219.66320922587727,3214
222.0733661791695,3170
224.48285799029293,3111
226.8916848627572,3167
229.29984700014882,3283
231.7073446061355,3197
234.11417788446204,3276
236.520347038953,3449
238.92585227351185,3489
241.33069379212054,3612
243.73487179884035,3600
246.1383864978112,3618
248.541238093252,3676
250.9434267894609,3660
253.34495279081432,3606
255.74581630176783,3653
258.1460175268563,3643
260.54555667069314,3681
262.9444339379703,3626
265.3426495334594,3728
267.7402036620107,3640
270.1370965285529,3514
272.53332833809407,3541
274.9288992957214,3214
277.32380960660055,3004
279.718059475976,3021
282.1116491091717,3063
284.5045787115897,2993
286.89684848871195,2977
289.2884586460981,3075
291.67940938938807,3152
294.0697009242996,3056
296.4593334566299,3086
298.84830719225477,3103
301.23662233712923,3011
303.6242790972866,3040
306.01127767884,2950
308.39761828798066,2906
310.78330113097934,2879
313.16832641418534,2876
315.5526943440269,2793
317.9364051270112,2695
320.3194589697242,2753
322.70185607883093,2832
325.0835966610754,2575
327.4646809232805,2628
329.8451090723478,2589
332.2248813152577,2683
334.6039978590701,2661
336.9824589109231,2625
339.36026467803447,2532
341.7374153677,2631
344.113911187295,2461
346.48975234427337,2553
348.8649390461686,2584
351.2394715005918,2625
353.61334991523415,2513
355.9865744978655,2559
358.35914545633375,2505
360.73106299856715,2537
363.10232733257146,2415
365.47293866643247,2481
367.84289720831396,2409
370.2122031664593,2517
372.5808567491905,2509
374.9488581649083,2420
377.31620762209275,2412
379.6829053293021,2356
382.0489514951745,2410
384.4143463284262,2403
386.7790900378528,2360
389.14318283232853,2399
391.50662492080653,2407
393.86941651231916,2395
396.23155781597745,2402
398.5930490409713,2384
400.9538903965696,2312
403.3140820921202,2324
405.6736243370498,2347
408.03251734086336,2261
410.3907613131465,2310
412.74835646356166,2306
415.10530300185144,2211
417.4616011378372,2285
419.81725108141893,2305
422.1722530425758,2338
424.5266072313656,2331
426.880313857925,2320
429.2333731324701,2243
431.58578526529516,2260
433.9375504667738,2237
436.2886689473588,2230
438.63914091758113,2221
440.9889665880513,2283
443.33814616945835,2174
445.68667987257015,2185
448.03456790823395,2226
450.3818104873759,2197
452.72840782100013,2192
455.07436012019105,2254
457.41966759611057,2260
459.7643304600007,2141
462.10834892318155,2218
464.4517231970525,2171
466.79445349309174,2308
469.1365400228566,2253
471.4779829979826,2257
473.81878263018564,2245
476.15893913125876,2261
478.4984527130747,2232
480.8373235875855,2369
483.17555196682144,2411
485.5131380628919,2458
487.8500820879857,2532
490.1863842543697,2726
492.52204477439034,2879
494.8570638604725,3150
497.1914417251204,3372
499.52517858091653,3679
501.85827464052306,3780
504.19073011668036,3949
506.5225452222086,3980
508.85372017000566,3925
511.18425517304956,3825
513.514150444396,4411
515.8434061971808,5554
518.1720226446176,6359
520.4999999999999,6477
522.8273384766991,6208
525.1540382881666,5950
527.480099647932,5236
529.8055227696037,4336
532.1303078668694,3330
534.454455153496,2683
536.777964843328,2389
539.1008371502907,2416
541.4230722883866,2279
543.744670471698,2261
546.0656319143858,2240
548.3859568306899,2254
550.7056454349294,2230
553.0246979415016,2215
555.3431145648834,2259
557.6608955196306,2197
559.978041020377,2096
562.2945512818363,2343
564.6104265188006,2203
566.9256669461412,2268
569.2402727788082,2250
571.5542442318302,2218
573.8675815203156,2217
576.1802848594508,2219
578.4923544645015,2224
580.8037905508126,2258
583.114593333807,2337
585.4247630289875,2239
587.7342998519354,2191
590.0432040183106,2218
592.3514757438526,2286
594.6591152443794,2256
596.9661227357875,2224
599.2724984340531,2242
601.578242555231,2229
603.8833553154542,2163
606.1878369309362,2250
608.4916876179676,2238
610.7949075929192,2207
613.0974970722403,2177
615.3994562724587,2180
617.7007854101818,2233
620.0014847020951,2205
622.3015543649641,2200
624.6009946156324,2212
626.8998056710224,2272
629.1979877481361,2215
631.4955410640538,2234
633.7924658359349,2220
636.0887622810175,2166
638.3844306166192,2238
640.6794710601358,2234
642.9738838290426,2327
645.2676691408932,2275
647.5608272133207,2250
649.853358264037,2294
652.1452625108324,2326
654.4365401715764,2330
656.7271914642178,2323
659.0172166067838,2352
661.3066158173809,2299
663.5953893141935,2288
665.8835373154867,2393
668.1710600396028,2265
670.4579577049639,2264
672.7442305300709,2320
675.0298787335033,2295
677.3149025339197,2288
679.599302150058,2314
681.8830778007342,2294
684.1662297048437,2223
686.4487580813608,2300
688.7306631493387,2228
691.0119451279091,2270
693.2926042362834,2288
695.5726406937516,2324
697.8520547196814,2299
700.1308465335215,2304
702.4090163547982,2355
704.6865644031171,2238
706.9634908981619,2253
709.2397960596965,2340
711.5154801075631,2323
713.7905432616823,2312
716.0649857420548,2349
718.3388077687592,2309
720.612009561953,2392
722.8845913418733,2279
725.1565533288352,2243
727.427895743234,2282
729.6986188055427,2242
731.9687227363137,2240
734.238207756178,2217
736.5070740858458,2275
738.7753219461066,2234
741.0429515578281,2250
743.3099631419569,2284
745.5763569195191,2282
747.8421331116193,2247
750.1072919394409,2272
752.3718336242467,2320
754.6357583873777,2305
756.8990664502545,2226
759.1617580343765,2258
761.423833361321,2251
763.6852926527457,2187
765.9461361303862,2307
768.206364016058,2299
770.4659765316536,2358
772.7249738991469,2331
774.9833563405886,2267
777.2411240781092,2206
779.4982773339183,2170
781.7548163303044,2279
784.010741289634,2297
786.2660524343538,2350
788.5207499869881,2374
790.7748341701416,2261
793.0283052064964,2357
795.2811633188143,2311
797.5334087299362,2340
799.7850416627813,2312
802.0360623403484,2368
804.2864709857143,2221
806.5362678220353,2317
808.7854530725468,2346
811.0340269605625,2356
813.2819897094754,2254
815.5293415427581,2270
817.77608268396,2238
820.0222133567116,2360
822.2677337847211,2333
824.5126441917765,2295
826.7569448017433,2272
829.0006358385675,2359
831.2437175262731,2380
833.4861900889629,2270
835.7280537508192,2280
837.9693087361026,2369
840.2099552691533,2302
842.4499935743896,2285
844.689423876309,2324
846.9282463994886,2228
849.1664613685833,2268
851.4040690083276,2366
853.6410695435349,2287
855.877463199097,2257
858.1132501999847,2306
860.3484307712487,2378
862.5830051380175,2328
864.8169735254988,2387
867.0503361589791,2333
869.2830932638243,2328
871.5152450654786,2344
873.7467917894654,2379
875.9777336613873,2345
878.2080709069252,2317
880.4378037518389,2372
882.666932421968,2380
884.8954571432301,2334
887.1233781416219,2340
889.3506956432192,2400
891.5774098741766,2349
893.803521060728,2400
896.0290294291852,2428
898.2539352059397,2439
900.4782386174619,2379
902.7019398903011,2296
904.925039251085,2366
907.147536926521,2368
909.3694331433943,2340
911.59072812857,2333
913.8114221089921,2286
916.0315153116827,2293
918.2510079637437,2354
920.4699002923547,2322
922.6881925247761,2320
924.905884888345,2316
927.1229776104793,2285
929.3394709186747,2402
931.555365040506,2329
933.7706602036275,2286
935.9853566357709,2317
938.1994545647489,2266
940.4129542184515,2341
942.6258558248488,2251
944.8381596119883,2376
947.0498658079974,2426
949.2609746410825,2366
951.4714863395287,2316
953.6814011316998,2306
955.8907192460387,2367
958.0994409110671,2232
960.3075663553858,2292
962.5150958076741,2351
964.7220294966913,2286
966.928367651274,2239
969.1341105003388,2265
971.3392582728806,2325
973.5438111979742,2206
975.747769504772,2278
977.9511334225061,2187
980.153903180487,2180
982.3560790081052,2125
984.5576611348289,2236
986.7586497902058,2192
988.9590452038618,2154
991.158847605503,2132
993.3580572249133,2190
995.5566742919558,2077
997.7546990365728,2010
999.952131688785,1989
1002.1489724786926,2030
1004.3452216364743,1952
1006.5408793923874,1940
1008.7359459767691,1955
1010.9304216200343,1972
1013.1243065526781,1968
1015.3176010052733,1907
1017.510305208472,1913
1019.7024193930064,1940
1021.8939437896848,1974
1024.0848786293977,1988
1026.2752241431122,1960
1028.4649805618747,1859
1030.6541481168115,1895
1032.842727039127,1920
1035.0307175601051,1922
1037.2181199111074,1884
1039.4049343235752,1904
1041.591161029029,1914
1043.7768002590683,1865
1045.9618522453698,1888
1048.1463172196918,1840
1050.3301954138697,1913
1052.513487059818,1813
1054.69619238953,1848
1056.8783116350783,1807
1059.0598450286152,1829
1061.2407928023704,1831
1063.4211551886528,1881
1065.6009324198508,1833
1067.780124728432,1892
1069.9587323469414,1858
1072.1367555080046,1813
1074.314194444325,1835
1076.4910493886855,1831
1078.667320573947,1826
1080.843008233051,1842
1083.0181125990161,1850
1085.1926339049414,1749
1087.3665723840027,1787
1089.5399282694575,1768
1091.7127017946405,1768
1093.8848931929647,1781
1096.0565026979243,1741
1098.2275305430899,1769
1100.3979769621128,1714
1102.567842188722,1739
1104.737126456726,1751
1106.9058300000124,1744
1109.0739530525475,1799
1111.2414958483764,1787
1113.4084586216231,1783
1115.5748416064907,1736
1117.7406450372605,1717
1119.9058691482942,1781
1122.0705141740304,1657
1124.2345803489884,1745
1126.3980679077658,1717
1128.5609770850388,1711
1130.7233081155623,1741
1132.8850612341707,1711
1135.0462366757774,1720
1137.2068346753745,1695
1139.3668554680326,1688
1141.526299288901,1680
1143.68516637321,1646
1145.8434569562655,1737
1148.001171273455,1733
1150.158309560244,1634
1152.3148720521767,1690
1154.470858984876,1640
1156.626270594044,1696
1158.7811071154629,1692
1160.9353687849912,1640
1163.089055838569,1667
1165.242168512213,1690
1167.3947070420209,1681
1169.5466716641677,1728
1171.6980626149075,1680
1173.8488801305748,1645
1175.9991244475814,1676
1178.1487958024186,1698
1180.2978944316555,1685
1182.4464205719428,1691
1184.5943744600072,1744
1186.7417563326567,1709
1188.8885664267755,1681
1191.0348049793297,1702
1193.1804722273619,1679
1195.325568407995,1652
1197.4700937584303,1700
1199.614048515948,1674
1201.7574329179074,1642
1203.900247201746,1622
1206.042491604982,1636
1208.1841663652099,1686
1210.3252717201053,1760
1212.465807907422,1721
1214.6057751649923,1699
1216.7451737307279,1698
1218.8840038426192,1756
1221.0222657387353,1725
1223.1599596572241,1709
1225.2970858363137,1699
1227.4336445143094,1736
1229.5696359295966,1707
1231.705060320639,1794
1233.8399179259786,1759
1235.9742089842384,1705
1238.107933734118,1709
1240.2410924143974,1719
1242.373685263935,1795
1244.5057125216676,1730
1246.6371744266116,1763
1248.7680712178621,1749
1250.898403134593,1716
1253.028170416058,1793
1255.1573733015875,1727
1257.2860120305932,1707
1259.4140868425648,1759
1261.54159797707,1752
1263.6685456737569,1795
1265.7949301723515,1769
1267.9207517126597,1819
1270.046010534565,1779
1272.1707068780306,1857
1274.2948409830983,1900
1276.4184130898889,1793
1278.541423438603,1831
1280.6638722695184,1828
1282.785759822993,1895
1284.9070863394636,1862
1287.0278520594447,1923
1289.1480572235314,1867
1291.2677020723963,1922
1293.3867868467923,1956
1295.5053117875495,1879
1297.623277135579,1909
1299.740683131868,1917
1301.8575300174857,1902
1303.973818033578,1996
1306.0895474213703,1943
1308.2047184221678,1957
1310.3193312773528,1933
1312.4333862283888,1901
1314.5468835168163,1947
1316.659823384255,1944
1318.7722060724045,1919
1320.8840318230418,1859
1322.9953008780249,1947
1325.1060134792888,1944
1327.2161698688478,2003
1329.3257702887959,1922
1331.4348149813054,1973
1333.5433041886276,1889
1335.6512381530933,1983
1337.7586171171101,2000
1339.8654413231675,1906
1341.9717110138317,1888
1344.0774264317488,1850
1346.1825878196432,1955
1348.2871954203192,1851
1350.3912494766587,1882
1352.4947502316231,1874
1354.5976979282532,1889
1356.7000928096686,1941
1358.8019351190665,1936
1360.9032250997243,1963
1363.0039629949988,1883
1365.1041490483235,1912
1367.2037835032133,1900
1369.3028666032606,1930
1371.401398592137,1912
1373.4993797135926,1897
1375.5968102114575,1941
1377.6936903296396,1898
1379.7900203121262,1940
1381.8858004029835,1944
1383.9810308463561,1825
1386.075711886469,1902
1388.1698437676241,1946
1390.2634267342032,1859
1392.356461030667,1904
1394.4489469015557,1848
1396.5408845914872,1881
1398.6322743451592,1979
1400.7231164073469,1958
1402.813411022907,1980
1404.903158436773,1982
1406.9923588939578,1943
1409.0810126395531,1960
1411.1691199187303,1976
1413.2566809767386,2024
1415.343696058907,1995
1417.4301654106425,2048
1419.5160892774315,2054
1421.6014679048399,2069
1423.6863015385125,2078
1425.7705904241707,2061
1427.8543348076178,2073
1429.9375349347342,2127
1432.0201910514802,2110
1434.102303403894,2026
1436.1838722380944,2139
1438.2648978002767,2142
1440.3453803367174,2205
1442.4253200937692,2153
1444.5047173178677,2223
1446.5835722555234,2359
1448.6618851533285,2295
1450.739656257952,2248
1452.8168858161434,2286
1454.8935740747306,2308
1456.96972128062,2415
1459.045327680797,2384
1461.120393522327,2473
1463.1949190523528,2454
1465.2689045180973,2449
1467.3423501668608,2588
1469.415256246024,2606
1471.4876230030463,2549
1473.559450685465,2708
1475.6307395408976,2606
1477.7014898170391,2775
1479.771701761665,2698
1481.8413756226287,2801
1483.9105116478618,2805
1485.9791100853772,2871
1488.0471711832643,2909
1490.1146951896926,2924
1492.1816823529098,2839
1494.2481329212433,2902
1496.3140471430984,2923
1498.3794252669609,3007
1500.4442675413939,3075
1502.5085742150404,2933
1504.572345536622,3042
1506.6355817549388,3038
1508.6982831188702,3190
1510.7604498773744,3145
1512.8220822794883,3148
1514.8831805743293,3133
1516.9437450110909,3143
1519.003775839048,3171
1521.0632733075522,3192
1523.1222376660367,3242
1525.1806691640113,3194
1527.2385680510652,3132
1529.2959345768668,3256
1531.3527689911643,3346
1533.4090715437833,3244
1535.4648424846291,3437
1537.5200820636855,3364
1539.5747905310159,3361
1541.6289681367616,3420
1543.6826151311434,3509
1545.7357317644614,3497
1547.7883182870937,3536
1549.8403749494987,3654
1551.8919020022113,3715
1553.9428996958477,3654
1555.9933682811015,3726
1558.0433080087469,3771
1560.0927191296346,3936
1562.1416018946961,3879
1564.1899565549415,3859
1566.2377833614592,3864
1568.2850825654164,3776
1570.3318544180606,3639
1572.3780991707158,3562
1574.423817074788,3443
1576.4690083817595,3350
1578.5136733431923,3225
1580.5578122107272,3078
1582.601425236085,3059
1584.6445126710646,2887
1586.6870747675434,2800
1588.7291117774776,2728
1590.7706239529034,2671
1592.8116115459347,2569
1594.8520748087658,2522
1596.8920139936686,2496
1598.9314293529933,2369
1600.9703211391711,2294
1603.008689604711,2278
1605.0465350022005,2223
1607.0838575843068,2180
1609.1206576037753,2146
1611.1569353134305,2166
1613.1926909661765,2176
1615.2279248149953,1995
1617.2626371129481,2020
1619.2968281131757,2015
1621.3304980688963,2009
1623.3636472334088,1920
1625.39627586009,1958
1627.428384202396,1939
1629.459972513861,1855
1631.4910410480993,1877
1633.5215900588028,1819
1635.551619799744,1881
1637.5811305247717,1807
1639.6101224878166,1829
1641.6385959428862,1864
1643.6665511440683,1855
1645.693988345528,1760
1647.7209078015112,1894
1649.7473097663405,1799
1651.7731944944203,1749
1653.7985622402307,1809
1655.823413258333,1816
1657.847747803366,1768
1659.8715661300494,1749
1661.8948684931793,1787
1663.9176551476316,1774
1665.9399263483624,1697
1667.9616823504057,1735
1669.982923408873,1752
1672.0036497789574,1775
1674.0238617159293,1756
1676.043559475138,1774
1678.0627433120121,1717
1680.081413482059,1792
1682.0995702408654,1790
1684.117213844096,1744
1686.134344547495,1697
1688.1509626068864,1795
1690.1670682781705,1754
1692.182661817329,1791
1694.1977434804217,1717
1696.2123135235875,1724
1698.226372203043,1723
1700.2399197750851,1721
1702.2529564960905,1688
1704.2654826225112,1710
1706.277498410882,1716
1708.2890041178139,1725
1710.2999999999988,1725
1712.3104863142066,1671
1714.3204633172854,1684
1716.329931266163,1676
1718.3388904178469,1645
1720.3473410294214,1645
1722.3552833580516,1651
1724.3627176609807,1704
1726.3696441955308,1766
1728.3760632191033,1678
1730.3819749891782,1712
1732.3873797633146,1678
1734.3922777991502,1603
1736.3966693544012,1711
1738.4005546868639,1695
1740.4039340544127,1704
1742.406807715001,1692
1744.4091759266616,1684
1746.4110389475054,1747
1748.4123970357223,1598
1750.413250449582,1662
1752.4135994474318,1610
1754.4134442876993,1679
1756.4127852288902,1597
1758.4116225295893,1610
1760.4099564484595,1721
1762.407787244244,1648
1764.405115175764,1619
1766.4019405019203,1617
1768.3982634816916,1671
1770.3940843741357,1587
1772.3894034383907,1638
1774.3842209336717,1536
1776.378537119274,1598
1778.372352254571,1547
1780.3656665990156,1582
1782.3584804121397,1561
1784.3507939535534,1643
1786.3426074829463,1643
1788.3339212600863,1619
1790.3247355448211,1637
1792.3150505970766,1644
1794.3048666768573,1609
1796.2941840442477,1590
1798.2830029594106,1567
1800.2713236825884,1603
1802.2591464741004,1566
1804.2464715943465,1533
1806.2332993038058,1536
1808.2196298630352,1549
1810.2054635326708,1583
1812.190800573428,1538
1814.175641246101,1579
1816.1599858115628,1592
1818.1438345307652,1584
1820.127187664738,1567
1822.1100454745924,1576
1824.092408221516,1541
1826.0742761667766,1521
1828.055649571721,1624
1830.0365286977735,1592
1832.0169138064398,1624
1833.9968051593014,1592
1835.9762030180214,1623
1837.9551076443408,1551
1839.9335193000788,1581
1841.9114382471344,1566
1843.888864747485,1550
1845.8657990631878,1590
1847.842241456378,1547
1849.8181921892697,1568
1851.7936515241558,1531
1853.7686197234098,1545
1855.7430970494815,1589
1857.7170837649014,1547
1859.6905801322787,1574
1861.6635864143004,1666
1863.6361028737338,1617
1865.608129773424,1525
1867.5796673762961,1565
1869.5507159453537,1601
1871.521275743678,1582
1873.4913470344313,1616
1875.4609300808534,1605
1877.4300251462632,1656
1879.3986324940588,1623
1881.366752387717,1572
1883.3343850907936,1602
1885.3015308669228,1612
1887.268189979819,1610
1889.2343626932739,1576
1891.2000492711595,1616
1893.1652499774254,1595
1895.1299650761011,1683
1897.0941948312952,1633
1899.0579395071945,1629
1901.0211993680641,1678
1902.98397467825,1644
1904.9462657021745,1605
1906.9080727043415,1675
1908.869395949332,1594
1910.8302357018065,1554
1912.790592226504,1640
1914.7504657882428,1597
1916.7098566519212,1581
1918.6687650825133,1638
1920.6271913450764,1652
1922.5851357047422,1637
1924.5425984267245,1610
1926.499579776314,1598
1928.4560800188833,1640
1930.4120994198802,1639
1932.367638244833,1601
1934.32269675935,1567
1936.2772752291175,1638
1938.231373919899,1586
1940.1849930975404,1651
1942.1381330279637,1598
1944.0907939771696,1629
1946.0429762112412,1618
1947.9946799963363,1640
1949.9459055986945,1575
1951.896653284633,1581
1953.8469233205478,1574
1955.7967159729142,1553
1957.7460315082863,1558
1959.6948701932974,1586
1961.6432322946594,1622
1963.5911180791632,1592
1965.5385278136787,1589
1967.4854617651545,1542
1969.4319202006182,1584
1971.377903387176,1558
1973.3234115920136,1570
1975.268445082395,1599
1977.2130041256642,1591
1979.1570889892423,1528
1981.1006999406304,1498
1983.04383724741,1572
1984.986501177238,1560
1986.928691997853,1603
1988.8704099770712,1604
1990.811655382789,1567
1992.7524284829801,1575
1994.692729545698,1644
1996.6325588390755,1558
1998.5719166313224,1568
2000.5108031907307,1591
2002.4492187856677,1535
2004.387163684583,1557
2006.3246381560011,1515
2008.2616424685298,1506
2010.1981768908527,1520
2012.1342416917332,1554
2014.069837140014,1520
2016.0049635046162,1548
2017.9396210545406,1511
2019.8738100588666,1567
2021.8075307867502,1553
2023.740783507431,1523
2025.6735684902228,1489
2027.6058860045214,1559
2029.5377363198004,1523
2031.4691197056118,1509
2033.4000364315875,1539
2035.3304867674374,1481
2037.260470982952,1543
2039.189989347998,1554
2041.1190421325232,1480
2043.047629606554,1506
2044.9757520401945,1488
2046.9034097036288,1524
2048.8306028671195,1552
2050.7573318010086,1508
2052.683596775716,1525
2054.609398061742,1521
2056.5347359296647,1476
2058.4596106501403,1521
2060.384022493906,1469
2062.3079717317764,1478
2064.231458634646,1515
2066.1544834734873,1502
2068.077046519352,1517
2069.99914804337,1484
2071.9207883167524,1506
2073.8419676107865,1546
2075.7626861968406,1526
2077.6829443463607,1555
2079.6027423308715,1545
2081.522080421977,1509
2083.440958891362,1487
2085.359378010786,1525
2087.2773380520907,1510
2089.194839287196,1489
2091.111881988101,1521
2093.0284664268825,1546
2094.9445928756973,1486
2096.86026160678,1504
2098.775472892446,1516
2100.690227005088,1532
2102.604524217178,1581
2104.5183648012676,1490
2106.431749029985,1531
2108.34467717604,1497
2110.2571495122206,1510
2112.169166311393,1495
2114.080727846503,1564
2115.9918343905747,1516
2117.902486216711,1487
2119.8126835980956,1486
2121.722426807987,1548
2123.6317161197285,1519
2125.5405518067364,1604
2127.448934142509,1552
2129.356863400624,1598
2131.264339854737,1620
2133.1713637785815,1610
2135.077935445972,1588
2136.9840551308002,1582
2138.889723107037,1595
2140.7949396487334,1564
2142.699705030018,1600
2144.6040195250994,1597
2146.507883408264,1644
2148.4112969538774,1587
2150.3142604363848,1562
2152.2167741303097,1581
2154.1188383102535,1618
2156.0204532508997,1623
2157.9216192270064,1617
2159.822336513414,1569
2161.7226053850413,1550
2163.622426116884,1586
2165.5217989840185,1602
2167.4207242616,1506
2169.319202224862,1598
2171.2172331491165,1635
2173.1148173097563,1647
2175.0119549822507,1598
2176.90864644215,1586
2178.8048919650823,1659
2180.7006918267534,1570
2182.596046302952,1695
2184.4909556695407,1606
2186.3854202024645,1666
2188.279440177746,1615
2190.173015871487,1643
2192.066147559868,1672
2193.958835519149,1591
2195.851080025667,1592
2197.7428813558417,1625
2199.6342397861667,1620
2201.5251555932186,1666
2203.415629053651,1619
2205.3056604441986,1623
2207.19525004167,1611
2209.084398122958,1691
2210.9731049650327,1638
2212.861370844941,1671
2214.749196039812,1676
2216.636580826851,1659
2218.523525483344,1660
2220.410030286655,1752
2222.296095514226,1685
2224.1817214435805,1629
2226.066908352319,1658
2227.951656518121,1622
2229.835966218746,1620
2231.71983773203,1702
2233.6032713358913,1682
2235.486267308324,1635
2237.3688259274036,1648
2239.2509474712824,1618
2241.132632218193,1602
2243.013880446447,1697
2244.8946924344323,1615
2246.7750684606203,1627
2248.6550088035574,1618
2250.534513741871,1691
2252.413583554265,1628
2254.292218519526,1626
2256.170418916517,1605
2258.0481850241786,1647
2259.925517121534,1612
2261.8024154876825,1636
2263.678880401803,1634
2265.5549121431536,1595
2267.430510991071,1638
2269.305677224971,1576
2271.180411124348,1607
2273.0547129687766,1600
2274.9285830379076,1608
2276.8020216114737,1579
2278.6750289692845,1647
2280.5476053912294,1597
2282.4197511572766,1630
2284.2914665474727,1650
2286.162751841943,1626
2288.0336073208937,1700
2289.904033264608,1721
2291.774029953448,1660
2293.6435976678554,1613
2295.5127366883517,1641
2297.381447295534,1618
2299.2497297700825,1540
2301.1175843927526,1553
2302.9850114443825,1566
2304.852011205885,1525
2306.7185839582553,1488
2308.5847299825664,1458
2310.4504495599676,1432
2312.3157429716925,1395
2314.1806104990483,1473
2316.0450524234247,1461
2317.9090690262888,1461
2319.772660589186,1424
2321.635827393742,1424
2323.498569721661,1377
2325.3608878547248,1442
2327.2227820747967,1459
2329.0842526638157,1412
2330.945299903803,1439
2332.805924076857,1426
2334.6661254651535,1399
2336.525904350951,1384
2338.3852610165827,1400
2340.244195744464,1412
2342.102708817088,1425
2343.9608005170253,1488
2345.8184711269287,1480
2347.675720929526,1432
2349.532550207628,1407
2351.38895924412,1446
2353.24494832197,1444
2355.100517724223,1427
2356.955667734004,1472
2358.810398634514,1464
2360.664710709037,1446
2362.5186042409337,1441
2364.3720795136437,1450
2366.225136810686,1473
2368.0777764156583,1457
2369.929998612237,1456
2371.7818036841777,1443
2373.633191915315,1436
2375.484163589562,1402
2377.3347189909114,1450
2379.184858403434,1468
2381.03458211128,1468
2382.8838903986775,1512
2384.732783549936,1431
2386.5812618494406,1479
2388.4293255816588,1409
2390.2769750311327,1425
2392.1242104824883,1462
2393.971032220427,1449
2395.8174405297295,1480
2397.6634356952563,1496
2399.509018001947,1457
2401.3541877348193,1432
2403.1989451789705,1421
2405.043290619576,1381
2406.8872243418905,1449
2408.730746631247,1450
2410.5738577730594,1446
2412.4165580528183,1452
2414.258847756095,1426
2416.100727168537,1482
2417.9421965758734,1424
2419.783256263912,1481
2421.623906518538,1497
2423.4641476257157,1473
2425.303979871491,1490
2427.143403541984,1465
2428.9824189233977,1461
2430.821026302012,1502
2432.6592259641866,1432
2434.497018196361,1480
2436.33440328505,1467
2438.171381516851,1480
2440.00795317844,1488
2441.844118556569,1472
2443.6798779380724,1459
2445.5152316098606,1494
2447.3501798589255,1429
2449.1847229723357,1477
2451.0188612372403,1455
2452.8525949408663,1492
2454.6859243705203,1502
2456.518849813587,1542
2458.3513715575314,1526
2460.183489889895,1460
2462.015205098301,1439
2463.8465174704493,1483
2465.67742729412,1495
2467.5079348571717,1498
2469.338040447542,1428
2471.1677443532476,1457
2472.9970468623833,1513
2474.825948263123,1494
2476.6544488437207,1503
2478.482548892508,1449
2480.310248697896,1495
2482.137548548374,1449
2483.9644487325118,1495
2485.790949538956,1512
2487.617051256433,1530
2489.44275417375,1459
2491.26805857979,1443
2493.0929647635157,1511
2494.917473013971,1455
2496.741583620276,1463
2498.5652968716304,1471
2500.3886130573137,1542
2502.2115324666834,1553
2504.0340553891765,1522
2505.856182114308,1498
2507.6779129316733,1513
2509.499248130945,1556
2511.3201880018764,1576
2513.140732834298,1584
2514.9608829181198,1546
2516.780638543331,1586
2518.6,1567
2520.418967578273,1584
2522.237541568376,1568
2524.0557222606144,1512
2525.8735099453706,1575
2527.6909049131086,1534
2529.507907454368,1614
2531.32451785977,1606
2533.140736420014,1642
2534.9565634258774,1543
2536.771999168218,1623
2538.5870439379714,1608
2540.4016980261526,1640
2542.2159617238544,1700
2544.02983532225,1631
2545.8433191125914,1643
2547.656413386209,1706
2549.4691184345115,1651
2551.2814345489874,1607
2553.093362021204,1673
2554.904901142808,1697
2556.716052205523,1681
2558.526815501153,1688
2560.3371913215824,1768
2562.147179958771,1712
2563.956781704761,1756
2565.7659968516705,1751
2567.5748256916986,1732
2569.3832685171224,1721
2571.1913256202984,1722
2572.9989972936614,1747
2574.806283829725,1707
2576.613185521084,1782
2578.4197026604074,1775
2580.2258355404483,1794
2582.031584454035,1827
2583.836949694077,1819
2585.6419315535613,1761
2587.4465303255533,1774
2589.2507463032002,1764
2591.0545797797245,1803
2592.8580310484303,1814
2594.6611004026995,1811
2596.463788135992,1776
2598.266094541849,1848
2600.0680199138874,1792
2601.869564545807,1854
2603.670728731383,1845
2605.4715127644704,1783
2607.2719169390048,1827
2609.071941548998,1822
2610.8715868885433,1763
2612.670853251811,1731
2614.469740933052,1753
2616.268250226594,1821
2618.0663814268455,1791
2619.864134828292,1768
2621.6615107255006,1776
2623.458509413115,1703
2625.2551311858597,1755
2627.0513763385347,1713
2628.8472451660223,1729
2630.6427379632833,1783
2632.4378550253564,1726
2634.232596647359,1678
2636.026963124488,1654
2637.8209547520187,1657
2639.6145718253065,1694
2641.407814639785,1700
2643.200683490966,1656
2644.9931786744414,1672
2646.7853004858807,1610
2648.577049221034,1646
2650.3684251757277,1640
2652.1594286458712,1673
2653.9500599274484,1667
2655.740319316525,1620
2657.5302071092437,1568
2659.3197236018286,1570
2661.10886909058,1549
2662.8976438718782,1603
2664.686048242183,1611
2666.4740824980327,1571
2668.2617469360443,1588
2670.0490418529134,1576
2671.8359675454153,1502
2673.622524310403,1596
2675.408712444811,1561
2677.1945322456495,1517
2678.979984010009,1550
2680.76506803506,1530
2682.5497846180497,1504
2684.334134056306,1493
2686.1181166472343,1509
2687.9017326883213,1485
2689.6849824771293,1536
2691.4678663113013,1474
2693.2503844885596,1543
2695.032537306705,1445
2696.8143250636167,1440
2698.5957480572542,1442
2700.3768065856534,1452
2702.1575009469316,1476
2703.937831439283,1502
2705.717798360982,1449
2707.4974020103837,1460
2709.276642685917,1437
2711.055520686095,1413
2712.834036309506,1432
2714.612189854819,1407
2716.389981620782,1394
2718.1674119062204,1474
2719.944481010041,1393
2721.721189231226,1498
2723.4975368688415,1525
2725.273524222027,1448
2727.0491515900053,1487
2728.824419272075,1453
2730.5993275676146,1448
2732.3738767760838,1482
2734.148067197016,1451
2735.921899130031,1395
2737.6953728748194,1354
2739.468488731156,1376
2741.2412469988926,1389
2743.0136479779617,1469
2744.785691968372,1437
2746.5573792702116,1439
2748.3287101836504,1448
2750.099685008934,1491
2751.870304046388,1364
2753.640567596418,1389
2755.4104759595057,1402
2757.1800294362156,1396
2758.949228327187,1393
2760.7180729331412,1409
2762.486563554877,1393
2764.254700493272,1369
2766.022484049284,1392
2767.789914523947,1461
2769.5569922183786,1484
2771.3237174337705,1404
2773.090090471394,1428
2774.8561116326036,1420
2776.6217812188274,1406
2778.3870995315756,1411
2780.1520668724356,1406
2781.9166835430747,1339
2783.6809498452394,1375
2785.444866080754,1383
2787.2084325515225,1392
2788.971649559527,1362
2790.73451740683,1402
2792.4970363955713,1318
2794.2592068279705,1379
2796.0210290063264,1355
2797.7825032330147,1391
2799.543629810493,1343
2801.304409041296,1435
2803.0648412280366,1380
2804.8249266734088,1379
2806.5846656801846,1371
2808.344058551212,1372
2810.1031055894246,1382
2811.8618070978273,1426
2813.6201633795085,1405
2815.378174737636,1398
2817.1358414754536,1382
2818.893163896285,1427
2820.6501423035334,1371
2822.4067770006814,1388
2824.1630682912883,1408
2825.9190164789957,1387
2827.6746218675207,1346
2829.429884760661,1429
2831.184805462294,1390
2832.9393842763743,1405
2834.693621506936,1424
2836.4475174580916,1407
2838.201072434034,1401
2839.954286739034,1408
2841.707160677441,1367
2843.459694553685,1373
2845.2118886722724,1364
2846.96374333779,1373
2848.7152588549034,1374
2850.4664355283567,1444
2852.217273662973,1369
2853.9677735636546,1365
2855.7179355353833,1348
2857.4677598832186,1409
2859.217246912299,1363
2860.9663969278427,1396
2862.715210235146,1367
2864.4636871395846,1332
2866.211827946614,1380
2867.9596329617652,1376
2869.7071024906536,1387
2871.4542368389684,1396
2873.20103631248,1356
2874.947501217038,1360
2876.6936318585695,1371
2878.4394285430812,1434
2880.1848915766604,1414
2881.9300212654707,1401
2883.6748179157553,1442
2885.4192818338374,1389
2887.1634133261173,1425
2888.907212699077,1385
2890.6506802592744,1416
2892.393816313348,1404
2894.1366211680142,1393
2895.8790951300693,1376
2897.621238506388,1414
2899.363051603925,1418
2901.1045347297118,1438
2902.8456881908596,1431
2904.58651229456,1400
2906.327007348081,1339
2908.067173658772,1330
2909.8070115340597,1389
2911.5465212814497,1354
2913.285703208527,1397
2915.0245576229563,1390
2916.7630848324807,1403
2918.5012851449196,1375
2920.2391588681758,1319
2921.976706310227,1356
2923.7139277791334,1411
2925.4508235830313,1392
2927.187394030137,1345
2928.923639428745,1359
2930.6595600872306,1409
2932.395156314046,1412
2934.1304284177218,1381
2935.8653767068713,1402
2937.6000014901815,1444
2939.3343030764227,1374
2941.068281774442,1349
2942.8019378931644,1395
2944.5352717415976,1371
2946.2682836288236,1368
2948.0009738640065,1385
2949.7333427563885,1407
2951.465390615289,1374
2953.1971177501086,1406
2954.9285244703265,1394
2956.6596110855,1373
2958.3903779052657,1395
2960.1208252393385,1429
2961.8509533975125,1407
2963.5807626896617,1420
2965.3102534257378,1396
2967.0394259157715,1368
2968.768280469873,1325
2970.496817398232,1340
2972.2250370111146,1383
2973.952939618869,1365
2975.6805255319196,1415
2977.4077950607707,1355
2979.134748516006,1433
2980.861386208289,1434
2982.587708448359,1365
2984.313715547037,1406
2986.039407815222,1401
2987.764785563891,1288
2989.489849104102,1332
2991.2145987469908,1356
2992.9390348037705,1378
2994.6631575857346,1378
2996.3869674042576,1400
2998.1104645707887,1320
2999.83364939686,1359
3001.5565221940783,1331
3003.2790832741334,1381
3005.0013329487924,1362
3006.7232715298996,1358
3008.4448993293804,1356
3010.166216659239,1343
3011.887223831558,1357
3013.607921158498,1400
3015.3283089522993,1370
3017.0483875252826,1385
3018.7681571898443,1381
3020.4876182584626,1378
3022.2067710436927,1399
3023.9256158581707,1319
3025.644153014609,1365
3027.362382825801,1351
3029.0803056046193,1341
3030.797921664012,1364
3032.5152313170106,1346
3034.2322348767225,1358
3035.9489326563353,1349
3037.665324969115,1383
3039.3814121284063,1368
3041.097194447633,1368
3042.812672240299,1400
3044.5278458199855,1386
3046.2427155003525,1301
3047.9572815951406,1362
3049.671544418167,1383
3051.38550428333,1370
3053.0991615046073,1430
3054.812516396051,1337
3056.5255692717974,1360
3058.2383204460575,1325
3059.9507702331257,1329
3061.662918947372,1389
3063.3747669032446,1396
3065.0863144152736,1345
3066.7975617980674,1318
3068.508509366309,1342
3070.219157434767,1344
3071.9295063182844,1348
3073.639556331785,1285
3075.3493077902704,1384
3077.058761008821,1420
3078.7679163025964,1398
3080.476773986837,1401
3082.1853343768594,1325
3083.89359778806,1396
3085.6015645359153,1323
3087.3092349359786,1409
3089.016609303884,1399
3090.7236879553434,1357
3092.4304712061476,1341
3094.136959372166,1367
3095.843152769349,1397
3097.5490517137237,1386
3099.2546565213966,1399
3100.959967508554,1367
3102.66498499146,1328
3104.3697092864577,1379
3106.0741407099695,1426
3107.778279578498,1356
3109.482126208622,1360
3111.1856809170004,1371
3112.8889440203716,1381
3114.5919158355528,1321
3116.294596679439,1379
3117.996986869006,1386
3119.6990867213062,1416
3121.4008965534726,1398
3123.102416682717,1380
3124.803647426329,1353
3126.5045891016784,1369
3128.205242026213,1342
3129.90560651746,1369
3131.605682893025,1350
3133.3054714705922,1387
3135.0049725679282,1344
3136.7041865028714,1377
3138.4031135933465,1360
3140.101754157353,1417
3141.800108512971,1399
3143.498176978357,1341
3145.1959598717494,1336
3146.8934575114636,1336
3148.5906702158954,1367
3150.2875983035183,1370
3151.9842420928853,1304
3153.680601902627,1352
3155.376678051456,1368
3157.07247085816,1383
3158.767980641609,1384
3160.463207720748,1394
3162.158152414606,1387
3163.8528150422862,1304
3165.5471959229726,1318
3167.2412953759303,1401
3168.9351137204976,1376
3170.628651276098,1349
3172.3219083622307,1411
3174.014885298474,1418
3175.707582404485,1418
3177.4000000000005,1380
3179.092138404835,1387
3180.7839979388846,1354
3182.47557892212,1390
3184.166881674594,1342
3185.8579065164386,1381
3187.5486537678626,1362
3189.2391237491547,1370
3190.9293167806827,1329
3192.6192331828934,1339
3194.3088732763117,1407
3195.998237381542,1365
3197.687325819268,1300
3199.376138910251,1352
3201.064676975334,1323
3202.7529403354347,1355
3204.4409293115523,1385
3206.1286442247647,1356
3207.816085396229,1283
3209.5032531471825,1375
3211.190147798936,1344
3212.8767696728846,1346
3214.5631190905015,1306
3216.2491963733373,1297
3217.9350018430214,1361
3219.6205358212637,1336
3221.305798629851,1392
3222.990790590651,1312
3224.6755120256103,1302
3226.359963256751,1267
3228.0441446061795,1296
3229.7280563960758,1286
3231.411698948703,1372
3233.0950725863995,1348
3234.778177631587,1384
3236.461014406761,1365
3238.1435832345005,1357
3239.8258844374595,1275
3241.507918338374,1370
3243.1896852600576,1329
3244.8711855254023,1293
3246.552419457381,1337
3248.233387379042,1320
3249.914089613516,1384
3251.59452648401,1325
3253.274698313813,1313
3254.95460542629,1312
3256.6342481448855,1317
3258.313626793125,1339
3259.9927416946084,1339
3261.6715931730196,1256
3263.3501815521176,1300
3265.0285071557437,1261
3266.706570307815,1281
3268.3843713323286,1334
3270.0619105533615,1342
3271.739188295068,1332
3273.4162048816834,1350
3275.0929606375184,1333
3276.769455886966,1292
3278.445690954498,1349
3280.1216661646613,1373
3281.797381842087,1320
3283.4728383114807,1339
3285.1480358976296,1354
3286.8229749253996,1332
3288.4976557197333,1350
3290.172078605655,1332
3291.846243908266,1337
3293.5201519527463,1282
3295.193803064357,1276
3296.8671975684374,1285
3298.5403357904024,1326
3300.21321805575,1362
3301.8858446900567,1351
3303.558216018975,1311
3305.23033236824,1264
3306.9021940636603,1322
3308.57380143113,1311
3310.2451547966184,1346
3311.916254486174,1293
3313.5871008259246,1330
3315.2576941420766,1365
3316.9280347609147,1290
3318.5981230088046,1286
3320.2679592121895,1286
3321.9375436975924,1298
3323.606876791612,1321
3325.27595882093,1293
3326.944790112305,1304
3328.6133709925753,1379
3330.2817017886573,1304
3331.949782827547,1342
3333.617614436319,1346
3335.2851969421245,1323
3336.952530672199,1333
3338.619615953853,1362
3340.286453114475,1343
3341.9530424815357,1329
3343.619384382583,1322
3345.2854791452437,1330
3346.951327097224,1347
3348.6169285663073,1334
3350.2822838803577,1295
3351.947393367319,1337
3353.61225735521,1360
3355.2768761721345,1287
3356.9412501462693,1307
3358.605379605873,1348
3360.2692648792827,1324
3361.9329062949146,1326
3363.596304181263,1318
