CollectionTime,6/28/2024 2:16:30 PM
ExposureUsed,3
CalibratedSpectrum
-962.7078968117929,2520
-959.9714848408522,2601
-957.2358232597828,2745
-954.5009119013725,2710
-951.7667505983302,2686
-949.0333391832855,2694
-946.3006774887896,2720
-943.5687653473143,2669
-940.837602591253,2656
-938.1071890529199,2717
-935.3775245645503,2790
-932.6486089583007,2726
-929.9204420662485,2727
-927.1930237203925,2785
-924.4663537526524,2713
-921.7404319948689,2655
-919.0152582788041,2772
-916.2908324361409,2815
-913.5671542984834,2821
-910.8442236973568,2751
-908.1220404642074,2750
-905.4006044304027,2785
-902.679915427231,2770
-899.959973285902,2762
-897.2407778375464,2740
-894.5223289132158,2703
-891.8046263438832,2722
-889.0876699604426,2711
-886.3714595937089,2738
-883.6559950744183,2787
-880.9412762332282,2762
-878.2273029007168,2778
-875.5140749073835,2660
-872.8015920836489,2731
-870.0898542598545,2706
-867.3788612662631,2765
-864.6686129330585,2696
-861.9591090903457,2782
-859.2503495681506,2699
-856.5423341964203,2752
-853.8350628050229,2700
-851.1285352237478,2699
-848.4227512823054,2800
-845.7177108103272,2753
-843.0134136373656,2744
-840.3098595928943,2713
-837.6070485063082,2745
-834.9049802069229,2772
-832.2036545239757,2750
-829.5030712866244,2729
-826.8032303239481,2714
-824.1041314649472,2755
-821.4057745385428,2784
-818.7081593735775,2791
-816.0112857988148,2799
-813.3151536429393,2678
-810.6197627345566,2793
-807.9251129021936,2789
-805.2312039742981,2641
-802.5380357792392,2763
-799.8456081453069,2785
-797.1539209007124,2750
-794.462973873588,2839
-791.772766891987,2765
-789.083299783884,2734
-786.3945723771743,2769
-783.7065844996748,2789
-781.0193359791231,2811
-778.3328266431781,2754
-775.6470563194197,2835
-772.9620248353489,2810
-770.2777320183878,2840
-767.5941776958798,2829
-764.9113616950891,2762
-762.2292838432011,2800
-759.5479439673222,2711
-756.8673418944801,2725
-754.1874774516235,2842
-751.5083504656222,2765
-748.8299607632671,2802
-746.15230817127,2891
-743.475392516264,2775
-740.7992136248035,2814
-738.1237713233636,2751
-735.4490654383407,2877
-732.7750957960521,2862
-730.1018622227365,2798
-727.4293645445534,2872
-724.7576025875837,2880
-722.0865761778291,2821
-719.4162851412126,2818
-716.7467293035781,2880
-714.0779084906909,2958
-711.409822528237,2941
-708.7424712418238,2892
-706.0758544569796,2901
-703.4099719991541,2853
-700.7448236937178,2851
-698.0804093659622,2948
-695.4167288411002,2890
-692.7537819442656,2951
-690.0915685005134,2969
-687.4300883348199,3029
-684.7693412720819,2889
-682.1093271371178,3030
-679.4500457546669,2907
-676.7914969493897,3047
-674.1336805458676,2952
-671.4765963686034,2961
-668.8202442420206,2933
-666.1646239904642,2929
-663.5097354382001,2971
-660.8555784094151,2957
-658.2021527282176,3028
-655.5494582186366,3047
-652.8974947046223,3041
-650.2462620100463,3144
-647.5957599587009,2969
-644.9459883742998,3058
-642.2969470804776,3067
-639.6486359007902,3066
-637.0010546587141,3066
-634.3542031776476,3011
-631.7080812809096,3067
-629.0626887917401,3022
-626.4180255333008,3035
-623.7740913286734,3037
-621.1308860008619,2977
-618.4884093727904,2947
-615.8466612673046,3011
-613.2056415071715,3032
-610.5653499150785,3105
-607.9257863136347,2973
-605.28695052537,2968
-602.6488423727357,3059
-600.0114616781036,3020
-597.3748082637674,2999
-594.7388819519412,3124
-592.1036825647604,3133
-589.4692099242818,3121
-586.8354638524829,3092
-584.2024441712624,3143
-581.5701507024403,3096
-578.9385832677575,3127
-576.3077416888759,3088
-573.6776257873787,3197
-571.0482353847704,3202
-568.4195703024757,3128
-565.7916303618415,3081
-563.164415384135,3065
-560.5379251905453,3187
-557.9121596021815,3140
-555.2871184400748,3106
-552.6628015251767,3065
-550.0392086783606,3058
-547.4163397204204,3159
-544.794194472071,3166
-542.1727727539491,3187
-539.5520743866118,3089
-536.9320991905377,3153
-534.3128469861261,3190
-531.6943175936979,3202
-529.0765108334947,3217
-526.4594265256793,3424
-523.8430644903358,3454
-521.2274245474689,3572
-518.612506517005,3774
-515.9983102187913,3789
-513.3848354725959,3854
-510.77208209810846,3937
-508.16004991493924,3950
-505.5487387426199,4022
-502.9381484006032,4217
-500.3282787082628,4318
-497.71912948489364,4399
-495.1107005497117,4502
-492.5029917218539,4302
-489.8960028203786,4170
-487.28973366426493,3942
-484.68418407241325,3831
-482.07935386364494,3639
-479.47524285670266,3641
-476.87185087025,3451
-474.2691777228715,3534
-471.66722323307334,3593
-469.0659872192821,3419
-466.4654694998459,3367
-463.86566989303384,3426
-461.26658821703614,3439
-458.66822428996414,3366
-456.07057792985,3344
-453.4736489546475,3443
-450.877437182231,3433
-448.28194243039627,3304
-445.68716451686,3306
-443.09310325926003,3300
-440.49975847515555,3285
-437.9071299820263,3176
-435.31521759727354,3352
-432.72402113821954,3375
-430.13354042210767,3339
-427.5437752661022,3432
-424.95472548728867,3317
-422.36639090267386,3356
-419.7787713291855,3423
-417.1918665836721,3461
-414.60567648290385,3432
-412.0202008435715,3517
-409.4354394822874,3510
-406.8513922155845,3515
-404.26805885991723,3472
-401.685439231661,3379
-399.103533147112,3355
-396.522340422488,3379
-393.9418608739278,3251
-391.3620943174908,3162
-388.7830405691583,2891
-386.2046994448317,2842
-383.6270707603344,2589
-381.05015433141045,2372
-378.473949973725,2121
-375.8984575028645,1912
-373.32367673433623,1621
-370.74960748356875,1479
-368.1762495659117,1246
-365.60360279663576,1033
-363.03166699093265,917
-360.4604419639154,832
-357.8899275306178,723
-355.32012350599507,701
-352.7510297049233,643
-350.1826459421999,597
-347.61497203254316,582
-345.04800779059235,562
-342.4817530309082,547
-339.91620756797226,549
-337.35137121618743,539
-334.7872437898774,530
-332.22382510328725,529
-329.66111497058273,589
-327.09911320585127,606
-324.53781962310075,613
-321.9772340362607,612
-319.4173562591816,607
-316.8581861056348,550
-314.2997233893127,561
-311.7419679238294,585
-309.1849195227194,549
-306.62857799943856,517
-304.0729431673641,565
-301.51801483979375,525
-298.963792829947,509
-296.41027695096386,538
-293.85746701590574,604
-291.3053628377552,641
-288.7539642294155,692
-286.2032710037115,732
-283.65328297338897,698
-281.1039999511146,665
-278.5554217494762,686
-276.007548180983,650
-273.4603790580651,609
-270.9139141930734,619
-268.3681533982807,686
-265.8230964858798,665
-263.27874326798565,671
-260.7350935566336,674
-258.1921471637804,702
-255.6499039013039,666
-253.10836358100266,630
-250.56752601459698,647
-248.02739101372765,830
-245.48795838995704,932
-242.94922795476816,906
-240.41119951956557,763
-237.8738728956746,795
-235.33724789434166,886
-232.80132432673452,1003
-230.2661020039418,870
-227.73158073697357,734
-225.19776033676033,726
-222.66464061415422,739
-220.1322213799284,741
-217.60050244477725,784
-215.06948361931552,839
-212.53916471408013,812
-210.00954553952818,722
-207.48062590603843,823
-204.9524056239104,979
-202.4248845033651,871
-199.8980623545441,736
-197.37193898751036,733
-194.84651421224817,805
-192.32178783866232,860
-189.79775967657952,869
-187.27442953574644,887
-184.7517972258321,837
-182.2298625564256,875
-179.7086253370378,928
-177.18808537710026,895
-174.66824248596583,837
-172.14909647290835,998
-169.6306471471229,907
-167.11289431772548,910
-164.59583779375328,962
-162.07947738416453,907
-159.5638128978386,858
-157.04884414357605,969
-154.53457093009854,1012
-152.02099306604828,1083
-149.50811035998936,988
-146.99592262040665,984
-144.48442965570587,1136
-141.97363127421409,1230
-139.46352728417958,1190
-136.95411749377126,1166
-134.44540171107985,1238
-131.93737974411636,1196
-129.43005140081357,1334
-126.92341648902493,1440
-124.41747481652521,1509
-121.91222619101006,1410
-119.40767042009657,1489
-116.90380731132257,1436
-114.40063667214702,1445
-111.8981583099503,1362
-109.3963720320337,1491
-106.89527764561933,1485
-104.39487495785067,1769
-101.89516377579241,1701
-99.39614390642998,1801
-96.89781515667039,1757
-94.40017733334128,1965
-91.90323024319173,1898
-89.40697369289148,1833
-86.91140748903172,1781
-84.41653143812482,1849
-81.92234534660395,2156
-79.42884902082358,2419
-76.93604226705907,2449
-74.4439248915071,2177
-71.95249670028534,2201
-69.46175749943245,2443
-66.97170709490854,3009
-64.48234529259423,3225
-61.99367189829195,2578
-59.50568671772464,2703
-57.01838955653636,2925
-54.53178022029283,3113
-52.045858514480074,2980
-49.560624244506016,3003
-47.07607721569923,3456
-44.59221723330904,3822
-42.10904410250669,3714
-39.62655762838392,4358
-37.14475761595372,5370
-34.66364387015028,6498
-32.18321619582866,8031
-29.70347439776515,9141
-27.224418280657005,10537
-24.74604764912317,15711
-22.26836230770266,27293
-19.7913620608565,46252
-17.315046712966478,60563
-14.83941606833514,65030
-12.36446993118659,65030
-9.89020810566592,65030
-7.416630395839093,65030
-4.94373660569363,65030
-2.471526539137585,65030
-6.821210263296962E-13,65030
2.47084320796705,65030
4.941003281093458,65030
7.410480415786196,65030
9.879274808531363,65030
12.347386655893956,65030
14.814816154518212,65030
17.28156350112681,65030
19.74762889252179,65030
22.21301252558385,65030
24.67771459727237,36430
27.141735304626195,12775
29.605074844762612,7718
32.06773341487792,9501
34.52971121224755,11448
36.99100843422559,9969
39.45162527824516,8549
41.91156194181792,6417
44.370818622535126,6319
46.82939551806646,7100
49.287292826160524,9074
51.74451074464503,9267
54.201049471426245,6919
56.65690920448981,6122
59.112090141899785,4439
61.56659248179983,4068
64.02041642241159,3416
66.4735621620365,3424
68.92602989905402,2890
71.37781983192338,2650
73.82893215918205,2990
76.27936707944684,3218
78.72912479141326,2704
81.17820549385567,2590
83.62660938562783,2738
86.07433666566146,2482
88.5213875329681,2525
90.96776218663751,2109
93.41346082583925,2142
95.85848364982041,2350
98.30283085790859,2173
100.7465026495089,2131
103.18949922410604,2244
105.63182078126385,2141
108.07346752062438,2134
110.51443964190923,1905
112.95473734491827,1594
115.39436082953114,1455
117.83331029570547,1630
120.27158594347827,1848
122.7091879729652,1409
125.1461165843615,1431
127.58237197794062,1651
130.01795435405518,1595
132.4528639131364,1556
134.88710085569494,1644
137.32066538231982,1642
139.75355769367923,1751
142.1857779905207,1630
144.61732647366978,1781
147.04820334403132,1905
149.47840880258934,1752
151.90794305040674,2099
154.33680628862487,2329
156.76499871846443,2378
159.19252054122433,2718
161.61937195828352,2968
164.04555317109896,3393
166.47106438120693,3646
168.89590579022217,4305
171.320077599839,4459
173.7435800118302,4453
176.16641322804742,4700
178.58857745042144,5062
181.01007288096173,5126
183.43089972175687,5317
185.85105817497413,5586
188.27054844285988,5750
190.6893707277394,5640
193.10752523201643,5793
195.5250121581745,5887
197.9418317087751,6195
200.3579840864594,5951
202.7734694939469,6066
205.18828813403627,5886
207.6024402096051,5947
210.01592592360964,6080
212.42874547908548,5863
214.84089907914665,5787
217.2523869269868,5792
219.66320922587727,5905
222.0733661791695,5660
224.48285799029293,5922
226.8916848627572,5986
229.29984700014882,6010
231.7073446061355,6015
234.11417788446204,5905
236.520347038953,6077
238.92585227351185,6085
241.33069379212054,6115
243.73487179884035,6241
246.1383864978112,6030
248.541238093252,6010
250.9434267894609,6061
253.34495279081432,6002
255.74581630176783,5940
258.1460175268563,5956
260.54555667069314,5991
262.9444339379703,5957
265.3426495334594,5792
267.7402036620107,5927
270.1370965285529,5834
272.53332833809407,5672
274.9288992957214,5629
277.32380960660055,5663
279.718059475976,5657
282.1116491091717,5757
284.5045787115897,5775
286.89684848871195,5571
289.2884586460981,5447
291.67940938938807,5660
294.0697009242996,5622
296.4593334566299,5714
298.84830719225477,5533
301.23662233712923,5702
303.6242790972866,5608
306.01127767884,5713
308.39761828798066,5534
310.78330113097934,5513
313.16832641418534,5466
315.5526943440269,5369
317.9364051270112,5327
320.3194589697242,5370
322.70185607883093,5343
325.0835966610754,5320
327.4646809232805,5271
329.8451090723478,5247
332.2248813152577,5292
334.6039978590701,5379
336.9824589109231,5253
339.36026467803447,5226
341.7374153677,5153
344.113911187295,5316
346.48975234427337,5261
348.8649390461686,5260
351.2394715005918,5063
353.61334991523415,5174
355.9865744978655,5190
358.35914545633375,5264
360.73106299856715,5243
363.10232733257146,5241
365.47293866643247,5318
367.84289720831396,5260
370.2122031664593,5163
372.5808567491905,5080
374.9488581649083,5036
377.31620762209275,5162
379.6829053293021,4970
382.0489514951745,5041
384.4143463284262,4995
386.7790900378528,5026
389.14318283232853,5004
391.50662492080653,4865
393.86941651231916,5022
396.23155781597745,4895
398.5930490409713,4926
400.9538903965696,4878
403.3140820921202,4929
405.6736243370498,4950
408.03251734086336,4913
410.3907613131465,4900
412.74835646356166,5058
415.10530300185144,4917
417.4616011378372,5022
419.81725108141893,4892
422.1722530425758,4935
424.5266072313656,4843
426.880313857925,4969
429.2333731324701,4754
431.58578526529516,4856
433.9375504667738,4871
436.2886689473588,4980
438.63914091758113,4971
440.9889665880513,4872
443.33814616945835,4934
445.68667987257015,4896
448.03456790823395,4875
450.3818104873759,4845
452.72840782100013,4911
455.07436012019105,4839
457.41966759611057,4998
459.7643304600007,4998
462.10834892318155,4980
464.4517231970525,4903
466.79445349309174,4887
469.1365400228566,4997
471.4779829979826,5054
473.81878263018564,4973
476.15893913125876,4908
478.4984527130747,4915
480.8373235875855,4958
483.17555196682144,5073
485.5131380628919,5203
487.8500820879857,5239
490.1863842543697,5302
492.52204477439034,5642
494.8570638604725,5961
497.1914417251204,6186
499.52517858091653,6406
501.85827464052306,6460
504.19073011668036,6489
506.5225452222086,6388
508.85372017000566,6278
511.18425517304956,6194
513.514150444396,6453
515.8434061971808,7003
518.1720226446176,7409
520.4999999999999,7725
522.8273384766991,8054
525.1540382881666,8234
527.480099647932,7800
529.8055227696037,6842
532.1303078668694,5713
534.454455153496,5154
536.777964843328,5042
539.1008371502907,4792
541.4230722883866,4798
543.744670471698,4811
546.0656319143858,4820
548.3859568306899,4787
550.7056454349294,4606
553.0246979415016,4745
555.3431145648834,4739
557.6608955196306,4701
559.978041020377,4664
562.2945512818363,4765
564.6104265188006,4706
566.9256669461412,4676
569.2402727788082,4671
571.5542442318302,4681
573.8675815203156,4644
576.1802848594508,4783
578.4923544645015,4709
580.8037905508126,4695
583.114593333807,4691
585.4247630289875,4658
587.7342998519354,4722
590.0432040183106,4724
592.3514757438526,4737
594.6591152443794,4688
596.9661227357875,4674
599.2724984340531,4716
601.578242555231,4678
603.8833553154542,4709
606.1878369309362,4717
608.4916876179676,4762
610.7949075929192,4706
613.0974970722403,4746
615.3994562724587,4730
617.7007854101818,4701
620.0014847020951,4747
622.3015543649641,4637
624.6009946156324,4730
626.8998056710224,4751
629.1979877481361,4730
631.4955410640538,4659
633.7924658359349,4700
636.0887622810175,4679
638.3844306166192,4694
640.6794710601358,4760
642.9738838290426,4674
645.2676691408932,4730
647.5608272133207,4718
649.853358264037,4737
652.1452625108324,4748
654.4365401715764,4637
656.7271914642178,4747
659.0172166067838,4798
661.3066158173809,4824
663.5953893141935,4735
665.8835373154867,4776
668.1710600396028,4851
670.4579577049639,4753
672.7442305300709,4758
675.0298787335033,4748
677.3149025339197,4836
679.599302150058,4761
681.8830778007342,4780
684.1662297048437,4732
686.4487580813608,4861
688.7306631493387,4804
691.0119451279091,4794
693.2926042362834,4757
695.5726406937516,4837
697.8520547196814,4779
700.1308465335215,4837
702.4090163547982,4873
704.6865644031171,4843
706.9634908981619,4667
709.2397960596965,4643
711.5154801075631,4708
713.7905432616823,4788
716.0649857420548,4776
718.3388077687592,4867
720.612009561953,4826
722.8845913418733,4757
725.1565533288352,4826
727.427895743234,4864
729.6986188055427,4780
731.9687227363137,4770
734.238207756178,4761
736.5070740858458,4709
738.7753219461066,4674
741.0429515578281,4752
743.3099631419569,4883
745.5763569195191,4785
747.8421331116193,4808
750.1072919394409,4850
752.3718336242467,4701
754.6357583873777,4689
756.8990664502545,4677
759.1617580343765,4783
761.423833361321,4736
763.6852926527457,4795
765.9461361303862,4830
768.206364016058,4811
770.4659765316536,4845
772.7249738991469,4825
774.9833563405886,4798
777.2411240781092,4792
779.4982773339183,4867
781.7548163303044,4746
784.010741289634,4703
786.2660524343538,4800
788.5207499869881,4824
790.7748341701416,4809
793.0283052064964,4811
795.2811633188143,4656
797.5334087299362,4741
799.7850416627813,4769
802.0360623403484,4895
804.2864709857143,4773
806.5362678220353,4767
808.7854530725468,4816
811.0340269605625,4798
813.2819897094754,4775
815.5293415427581,4738
817.77608268396,4822
820.0222133567116,4768
822.2677337847211,4749
824.5126441917765,4791
826.7569448017433,4758
829.0006358385675,4719
831.2437175262731,4782
833.4861900889629,4757
835.7280537508192,4767
837.9693087361026,4794
840.2099552691533,4744
842.4499935743896,4710
844.689423876309,4741
846.9282463994886,4664
849.1664613685833,4792
851.4040690083276,4750
853.6410695435349,4755
855.877463199097,4722
858.1132501999847,4913
860.3484307712487,4826
862.5830051380175,4728
864.8169735254988,4802
867.0503361589791,4733
869.2830932638243,4870
871.5152450654786,4805
873.7467917894654,4844
875.9777336613873,4821
878.2080709069252,4797
880.4378037518389,4853
882.666932421968,4795
884.8954571432301,4798
887.1233781416219,4818
889.3506956432192,4884
891.5774098741766,4916
893.803521060728,4761
896.0290294291852,4938
898.2539352059397,4825
900.4782386174619,4830
902.7019398903011,4914
904.925039251085,4751
907.147536926521,4971
909.3694331433943,4954
911.59072812857,4720
913.8114221089921,4690
916.0315153116827,4813
918.2510079637437,4745
920.4699002923547,4768
922.6881925247761,4705
924.905884888345,4796
927.1229776104793,4668
929.3394709186747,4703
931.555365040506,4758
933.7706602036275,4713
935.9853566357709,4779
938.1994545647489,4784
940.4129542184515,4694
942.6258558248488,4685
944.8381596119883,4783
947.0498658079974,4821
949.2609746410825,4768
951.4714863395287,4749
953.6814011316998,4848
955.8907192460387,4729
958.0994409110671,4762
960.3075663553858,4708
962.5150958076741,4753
964.7220294966913,4666
966.928367651274,4766
969.1341105003388,4724
971.3392582728806,4734
973.5438111979742,4748
975.747769504772,4705
977.9511334225061,4825
980.153903180487,4752
982.3560790081052,4744
984.5576611348289,4633
986.7586497902058,4552
988.9590452038618,4569
991.158847605503,4547
993.3580572249133,4563
995.5566742919558,4492
997.7546990365728,4512
999.952131688785,4595
1002.1489724786926,4544
1004.3452216364743,4368
1006.5408793923874,4549
1008.7359459767691,4526
1010.9304216200343,4413
1013.1243065526781,4377
1015.3176010052733,4387
1017.510305208472,4441
1019.7024193930064,4453
1021.8939437896848,4405
1024.0848786293977,4352
1026.2752241431122,4368
1028.4649805618747,4233
1030.6541481168115,4355
1032.842727039127,4341
1035.0307175601051,4380
1037.2181199111074,4295
1039.4049343235752,4323
1041.591161029029,4417
1043.7768002590683,4381
1045.9618522453698,4418
1048.1463172196918,4294
1050.3301954138697,4385
1052.513487059818,4479
1054.69619238953,4455
1056.8783116350783,4409
1059.0598450286152,4317
1061.2407928023704,4351
1063.4211551886528,4293
1065.6009324198508,4354
1067.780124728432,4431
1069.9587323469414,4323
1072.1367555080046,4409
1074.314194444325,4345
1076.4910493886855,4395
1078.667320573947,4323
1080.843008233051,4244
1083.0181125990161,4343
1085.1926339049414,4303
1087.3665723840027,4331
1089.5399282694575,4275
1091.7127017946405,4117
1093.8848931929647,4418
1096.0565026979243,4260
1098.2275305430899,4251
1100.3979769621128,4282
1102.567842188722,4293
1104.737126456726,4273
1106.9058300000124,4320
1109.0739530525475,4245
1111.2414958483764,4264
1113.4084586216231,4303
1115.5748416064907,4340
1117.7406450372605,4289
1119.9058691482942,4268
1122.0705141740304,4266
1124.2345803489884,4105
1126.3980679077658,4304
1128.5609770850388,4343
1130.7233081155623,4314
1132.8850612341707,4276
1135.0462366757774,4251
1137.2068346753745,4254
1139.3668554680326,4242
1141.526299288901,4215
1143.68516637321,4203
1145.8434569562655,4199
1148.001171273455,4176
1150.158309560244,4209
1152.3148720521767,4138
1154.470858984876,4244
1156.626270594044,4170
1158.7811071154629,4229
1160.9353687849912,4200
1163.089055838569,4206
1165.242168512213,4140
1167.3947070420209,4111
1169.5466716641677,4170
1171.6980626149075,4127
1173.8488801305748,4259
1175.9991244475814,4172
1178.1487958024186,4198
1180.2978944316555,4137
1182.4464205719428,4231
1184.5943744600072,4126
1186.7417563326567,4139
1188.8885664267755,4188
1191.0348049793297,4181
1193.1804722273619,4044
1195.325568407995,4166
1197.4700937584303,4220
1199.614048515948,4198
1201.7574329179074,4265
1203.900247201746,4293
1206.042491604982,4101
1208.1841663652099,4160
1210.3252717201053,4248
1212.465807907422,4135
1214.6057751649923,4282
1216.7451737307279,4264
1218.8840038426192,4197
1221.0222657387353,4230
1223.1599596572241,4279
1225.2970858363137,4223
1227.4336445143094,4138
1229.5696359295966,4326
1231.705060320639,4219
1233.8399179259786,4191
1235.9742089842384,4248
1238.107933734118,4188
1240.2410924143974,4107
1242.373685263935,4120
1244.5057125216676,4288
1246.6371744266116,4193
1248.7680712178621,4177
1250.898403134593,4119
1253.028170416058,4257
1255.1573733015875,4256
1257.2860120305932,4220
1259.4140868425648,4121
1261.54159797707,4371
1263.6685456737569,4203
1265.7949301723515,4347
1267.9207517126597,4323
1270.046010534565,4180
1272.1707068780306,4421
1274.2948409830983,4247
1276.4184130898889,4192
1278.541423438603,4157
1280.6638722695184,4260
1282.785759822993,4302
1284.9070863394636,4341
1287.0278520594447,4234
1289.1480572235314,4316
1291.2677020723963,4434
1293.3867868467923,4308
1295.5053117875495,4395
1297.623277135579,4442
1299.740683131868,4323
1301.8575300174857,4367
1303.973818033578,4321
1306.0895474213703,4296
1308.2047184221678,4497
1310.3193312773528,4392
1312.4333862283888,4371
1314.5468835168163,4418
1316.659823384255,4451
1318.7722060724045,4398
1320.8840318230418,4378
1322.9953008780249,4433
1325.1060134792888,4373
1327.2161698688478,4348
1329.3257702887959,4449
1331.4348149813054,4372
1333.5433041886276,4400
1335.6512381530933,4418
1337.7586171171101,4418
1339.8654413231675,4299
1341.9717110138317,4349
1344.0774264317488,4311
1346.1825878196432,4224
1348.2871954203192,4309
1350.3912494766587,4402
1352.4947502316231,4395
1354.5976979282532,4285
1356.7000928096686,4278
1358.8019351190665,4299
1360.9032250997243,4294
1363.0039629949988,4333
1365.1041490483235,4296
1367.2037835032133,4375
1369.3028666032606,4346
1371.401398592137,4290
1373.4993797135926,4354
1375.5968102114575,4353
1377.6936903296396,4339
1379.7900203121262,4445
1381.8858004029835,4257
1383.9810308463561,4261
1386.075711886469,4416
1388.1698437676241,4403
1390.2634267342032,4441
1392.356461030667,4394
1394.4489469015557,4389
1396.5408845914872,4344
1398.6322743451592,4334
1400.7231164073469,4441
1402.813411022907,4426
1404.903158436773,4349
1406.9923588939578,4458
1409.0810126395531,4444
1411.1691199187303,4371
1413.2566809767386,4476
1415.343696058907,4403
1417.4301654106425,4288
1419.5160892774315,4452
1421.6014679048399,4281
1423.6863015385125,4371
1425.7705904241707,4347
1427.8543348076178,4491
1429.9375349347342,4412
1432.0201910514802,4491
1434.102303403894,4341
1436.1838722380944,4529
1438.2648978002767,4438
1440.3453803367174,4490
1442.4253200937692,4462
1444.5047173178677,4467
1446.5835722555234,4517
1448.6618851533285,4547
1450.739656257952,4757
1452.8168858161434,4618
1454.8935740747306,4561
1456.96972128062,4558
1459.045327680797,4762
1461.120393522327,4766
1463.1949190523528,4763
1465.2689045180973,4766
1467.3423501668608,4812
1469.415256246024,4939
1471.4876230030463,4775
1473.559450685465,4814
1475.6307395408976,4984
1477.7014898170391,5035
1479.771701761665,5020
1481.8413756226287,5022
1483.9105116478618,5007
1485.9791100853772,5127
1488.0471711832643,5159
1490.1146951896926,5039
1492.1816823529098,5250
1494.2481329212433,5262
1496.3140471430984,5373
1498.3794252669609,5363
1500.4442675413939,5400
1502.5085742150404,5482
1504.572345536622,5386
1506.6355817549388,5560
1508.6982831188702,5408
1510.7604498773744,5687
1512.8220822794883,5542
1514.8831805743293,5661
1516.9437450110909,5738
1519.003775839048,5828
1521.0632733075522,5823
1523.1222376660367,6027
1525.1806691640113,6004
1527.2385680510652,6008
1529.2959345768668,6199
1531.3527689911643,6266
1533.4090715437833,6321
1535.4648424846291,6393
1537.5200820636855,6626
1539.5747905310159,6588
1541.6289681367616,6580
1543.6826151311434,6679
1545.7357317644614,6698
1547.7883182870937,6804
1549.8403749494987,6963
1551.8919020022113,7130
1553.9428996958477,7240
1555.9933682811015,7186
1558.0433080087469,7400
1560.0927191296346,7514
1562.1416018946961,7492
1564.1899565549415,7501
1566.2377833614592,7460
1568.2850825654164,7474
1570.3318544180606,7191
1572.3780991707158,7228
1574.423817074788,7005
1576.4690083817595,6826
1578.5136733431923,6478
1580.5578122107272,6228
1582.601425236085,6240
1584.6445126710646,5998
1586.6870747675434,5675
1588.7291117774776,5583
1590.7706239529034,5513
1592.8116115459347,5248
1594.8520748087658,5136
1596.8920139936686,5186
1598.9314293529933,5062
1600.9703211391711,4928
1603.008689604711,4903
1605.0465350022005,4840
1607.0838575843068,4722
1609.1206576037753,4701
1611.1569353134305,4548
1613.1926909661765,4619
1615.2279248149953,4663
1617.2626371129481,4691
1619.2968281131757,4439
1621.3304980688963,4529
1623.3636472334088,4598
1625.39627586009,4582
1627.428384202396,4434
1629.459972513861,4513
1631.4910410480993,4528
1633.5215900588028,4403
1635.551619799744,4514
1637.5811305247717,4413
1639.6101224878166,4532
1641.6385959428862,4392
1643.6665511440683,4395
1645.693988345528,4317
1647.7209078015112,4368
1649.7473097663405,4290
1651.7731944944203,4310
1653.7985622402307,4292
1655.823413258333,4248
1657.847747803366,4414
1659.8715661300494,4338
1661.8948684931793,4380
1663.9176551476316,4313
1665.9399263483624,4327
1667.9616823504057,4256
1669.982923408873,4402
1672.0036497789574,4258
1674.0238617159293,4277
1676.043559475138,4277
1678.0627433120121,4188
1680.081413482059,4286
1682.0995702408654,4321
1684.117213844096,4258
1686.134344547495,4244
1688.1509626068864,4211
1690.1670682781705,4267
1692.182661817329,4316
1694.1977434804217,4166
1696.2123135235875,4295
1698.226372203043,4219
1700.2399197750851,4441
1702.2529564960905,4334
1704.2654826225112,4227
1706.277498410882,4277
1708.2890041178139,4296
1710.2999999999988,4286
1712.3104863142066,4315
1714.3204633172854,4270
1716.329931266163,4283
1718.3388904178469,4378
1720.3473410294214,4181
1722.3552833580516,4338
1724.3627176609807,4303
1726.3696441955308,4327
1728.3760632191033,4372
1730.3819749891782,4318
1732.3873797633146,4209
1734.3922777991502,4271
1736.3966693544012,4190
1738.4005546868639,4225
1740.4039340544127,4243
1742.406807715001,4120
1744.4091759266616,4265
1746.4110389475054,4168
1748.4123970357223,4157
1750.413250449582,4263
1752.4135994474318,4206
1754.4134442876993,4253
1756.4127852288902,4181
1758.4116225295893,4162
1760.4099564484595,4185
1762.407787244244,4142
1764.405115175764,4152
1766.4019405019203,4189
1768.3982634816916,4126
1770.3940843741357,4129
1772.3894034383907,4145
1774.3842209336717,4153
1776.378537119274,4085
1778.372352254571,4202
1780.3656665990156,4104
1782.3584804121397,4154
1784.3507939535534,4246
1786.3426074829463,4263
1788.3339212600863,4282
1790.3247355448211,4213
1792.3150505970766,4145
1794.3048666768573,4114
1796.2941840442477,4148
1798.2830029594106,4286
1800.2713236825884,4251
1802.2591464741004,4274
1804.2464715943465,4240
1806.2332993038058,4203
1808.2196298630352,4246
1810.2054635326708,4247
1812.190800573428,4043
1814.175641246101,4134
1816.1599858115628,4187
1818.1438345307652,4143
1820.127187664738,4088
1822.1100454745924,4191
1824.092408221516,4272
1826.0742761667766,4138
1828.055649571721,4175
1830.0365286977735,4249
1832.0169138064398,4136
1833.9968051593014,4198
1835.9762030180214,4243
1837.9551076443408,4147
1839.9335193000788,4139
1841.9114382471344,4133
1843.888864747485,4130
1845.8657990631878,4196
1847.842241456378,4131
1849.8181921892697,4099
1851.7936515241558,4105
1853.7686197234098,4203
1855.7430970494815,4070
1857.7170837649014,4170
1859.6905801322787,4144
1861.6635864143004,4231
1863.6361028737338,4160
1865.608129773424,4110
1867.5796673762961,4302
1869.5507159453537,4292
1871.521275743678,4277
1873.4913470344313,4306
1875.4609300808534,4190
1877.4300251462632,4268
1879.3986324940588,4121
1881.366752387717,4197
1883.3343850907936,4155
1885.3015308669228,4142
1887.268189979819,4189
1889.2343626932739,4166
1891.2000492711595,4152
1893.1652499774254,4230
1895.1299650761011,4280
1897.0941948312952,4188
1899.0579395071945,4126
1901.0211993680641,4235
1902.98397467825,4240
1904.9462657021745,4192
1906.9080727043415,4197
1908.869395949332,4215
1910.8302357018065,4174
1912.790592226504,4180
1914.7504657882428,4192
1916.7098566519212,4221
1918.6687650825133,4243
1920.6271913450764,4271
1922.5851357047422,4194
1924.5425984267245,4137
1926.499579776314,4186
1928.4560800188833,4251
1930.4120994198802,4265
1932.367638244833,4226
1934.32269675935,4155
1936.2772752291175,4183
1938.231373919899,4283
1940.1849930975404,4278
1942.1381330279637,4166
1944.0907939771696,4212
1946.0429762112412,4245
1947.9946799963363,4255
1949.9459055986945,4131
1951.896653284633,4327
1953.8469233205478,4316
1955.7967159729142,4220
1957.7460315082863,4213
1959.6948701932974,4287
1961.6432322946594,4155
1963.5911180791632,4203
1965.5385278136787,4155
1967.4854617651545,4142
1969.4319202006182,4214
1971.377903387176,4187
1973.3234115920136,4303
1975.268445082395,4209
1977.2130041256642,4231
1979.1570889892423,4274
1981.1006999406304,4193
1983.04383724741,4262
1984.986501177238,4179
1986.928691997853,4262
1988.8704099770712,4223
1990.811655382789,4083
1992.7524284829801,4211
1994.692729545698,4180
1996.6325588390755,4087
1998.5719166313224,4092
2000.5108031907307,4201
2002.4492187856677,4239
2004.387163684583,4256
2006.3246381560011,4191
2008.2616424685298,4086
2010.1981768908527,4199
2012.1342416917332,4192
2014.069837140014,4167
2016.0049635046162,4180
2017.9396210545406,4105
2019.8738100588666,4073
2021.8075307867502,4101
2023.740783507431,4162
2025.6735684902228,4143
2027.6058860045214,4087
2029.5377363198004,4201
2031.4691197056118,4142
2033.4000364315875,4150
2035.3304867674374,4142
2037.260470982952,4217
2039.189989347998,4329
2041.1190421325232,4135
2043.047629606554,4166
2044.9757520401945,4154
2046.9034097036288,4200
2048.8306028671195,4200
2050.7573318010086,4201
2052.683596775716,4174
2054.609398061742,4203
2056.5347359296647,4140
2058.4596106501403,4122
2060.384022493906,4213
2062.3079717317764,4246
2064.231458634646,4149
2066.1544834734873,4158
2068.077046519352,4138
2069.99914804337,4050
2071.9207883167524,4171
2073.8419676107865,4212
2075.7626861968406,4125
2077.6829443463607,4130
2079.6027423308715,4154
2081.522080421977,4204
2083.440958891362,4144
2085.359378010786,4181
2087.2773380520907,4147
2089.194839287196,4093
2091.111881988101,4183
2093.0284664268825,4155
2094.9445928756973,4088
2096.86026160678,4200
2098.775472892446,4148
2100.690227005088,4063
2102.604524217178,4103
2104.5183648012676,4129
2106.431749029985,4120
2108.34467717604,4192
2110.2571495122206,4136
2112.169166311393,4230
2114.080727846503,4097
2115.9918343905747,4193
2117.902486216711,4226
2119.8126835980956,4090
2121.722426807987,4103
2123.6317161197285,4174
2125.5405518067364,4159
2127.448934142509,4207
2129.356863400624,4196
2131.264339854737,4076
2133.1713637785815,3997
2135.077935445972,4161
2136.9840551308002,4168
2138.889723107037,4199
2140.7949396487334,4168
2142.699705030018,4079
2144.6040195250994,4117
2146.507883408264,4050
2148.4112969538774,4175
2150.3142604363848,4150
2152.2167741303097,4237
2154.1188383102535,4175
2156.0204532508997,4198
2157.9216192270064,4192
2159.822336513414,4080
2161.7226053850413,4170
2163.622426116884,4226
2165.5217989840185,4092
2167.4207242616,4118
2169.319202224862,4139
2171.2172331491165,4101
2173.1148173097563,4126
2175.0119549822507,4174
2176.90864644215,4209
2178.8048919650823,4058
2180.7006918267534,4117
2182.596046302952,4192
2184.4909556695407,4120
2186.3854202024645,4141
2188.279440177746,3993
2190.173015871487,4113
2192.066147559868,4236
2193.958835519149,4078
2195.851080025667,4105
2197.7428813558417,4206
2199.6342397861667,4104
2201.5251555932186,4130
2203.415629053651,4142
2205.3056604441986,4162
2207.19525004167,4099
2209.084398122958,4283
2210.9731049650327,4210
2212.861370844941,4137
2214.749196039812,4209
2216.636580826851,4266
2218.523525483344,4213
2220.410030286655,4184
2222.296095514226,4186
2224.1817214435805,4131
2226.066908352319,4230
2227.951656518121,4164
2229.835966218746,4220
2231.71983773203,4245
2233.6032713358913,4197
2235.486267308324,4285
2237.3688259274036,4300
2239.2509474712824,4139
2241.132632218193,4229
2243.013880446447,4105
2244.8946924344323,4317
2246.7750684606203,4220
2248.6550088035574,4255
2250.534513741871,4188
2252.413583554265,4059
2254.292218519526,4161
2256.170418916517,4192
2258.0481850241786,4120
2259.925517121534,4228
2261.8024154876825,4167
2263.678880401803,4270
2265.5549121431536,4281
2267.430510991071,4143
2269.305677224971,4157
2271.180411124348,4150
2273.0547129687766,4110
2274.9285830379076,4152
2276.8020216114737,4181
2278.6750289692845,4161
2280.5476053912294,4238
2282.4197511572766,4205
2284.2914665474727,4237
2286.162751841943,4071
2288.0336073208937,4171
2289.904033264608,4238
2291.774029953448,4048
2293.6435976678554,4125
2295.5127366883517,4261
2297.381447295534,4283
2299.2497297700825,4097
2301.1175843927526,4215
2302.9850114443825,4149
2304.852011205885,4249
2306.7185839582553,4339
2308.5847299825664,4336
2310.4504495599676,4145
2312.3157429716925,4230
2314.1806104990483,4180
2316.0450524234247,4294
2317.9090690262888,4234
2319.772660589186,4208
2321.635827393742,4223
2323.498569721661,4264
2325.3608878547248,4242
2327.2227820747967,4230
2329.0842526638157,4298
2330.945299903803,4210
2332.805924076857,4155
2334.6661254651535,4249
2336.525904350951,4206
2338.3852610165827,4242
2340.244195744464,4292
2342.102708817088,4241
2343.9608005170253,4270
2345.8184711269287,4253
2347.675720929526,4254
2349.532550207628,4193
2351.38895924412,4274
2353.24494832197,4201
2355.100517724223,4150
2356.955667734004,4302
2358.810398634514,4299
2360.664710709037,4303
2362.5186042409337,4181
2364.3720795136437,4284
2366.225136810686,4278
2368.0777764156583,4325
2369.929998612237,4188
2371.7818036841777,4298
2373.633191915315,4165
2375.484163589562,4334
2377.3347189909114,4198
2379.184858403434,4349
2381.03458211128,4307
2382.8838903986775,4395
2384.732783549936,4402
2386.5812618494406,4170
2388.4293255816588,4296
2390.2769750311327,4136
2392.1242104824883,4232
2393.971032220427,4242
2395.8174405297295,4288
2397.6634356952563,4257
2399.509018001947,4233
2401.3541877348193,4216
2403.1989451789705,4268
2405.043290619576,4242
2406.8872243418905,4321
2408.730746631247,4292
2410.5738577730594,4316
2412.4165580528183,4302
2414.258847756095,4274
2416.100727168537,4313
2417.9421965758734,4423
2419.783256263912,4296
2421.623906518538,4347
2423.4641476257157,4406
2425.303979871491,4457
2427.143403541984,4369
2428.9824189233977,4412
2430.821026302012,4339
2432.6592259641866,4250
2434.497018196361,4339
2436.33440328505,4291
2438.171381516851,4318
2440.00795317844,4303
2441.844118556569,4350
2443.6798779380724,4417
2445.5152316098606,4254
2447.3501798589255,4375
2449.1847229723357,4272
2451.0188612372403,4204
2452.8525949408663,4315
2454.6859243705203,4245
2456.518849813587,4173
2458.3513715575314,4262
2460.183489889895,4273
2462.015205098301,4406
2463.8465174704493,4394
2465.67742729412,4293
2467.5079348571717,4312
2469.338040447542,4372
2471.1677443532476,4363
2472.9970468623833,4388
2474.825948263123,4283
2476.6544488437207,4298
2478.482548892508,4320
2480.310248697896,4263
2482.137548548374,4213
2483.9644487325118,4168
2485.790949538956,4294
2487.617051256433,4218
2489.44275417375,4406
2491.26805857979,4412
2493.0929647635157,4330
2494.917473013971,4456
2496.741583620276,4276
2498.5652968716304,4337
2500.3886130573137,4357
2502.2115324666834,4371
2504.0340553891765,4349
2505.856182114308,4278
2507.6779129316733,4480
2509.499248130945,4423
2511.3201880018764,4438
2513.140732834298,4403
2514.9608829181198,4276
2516.780638543331,4313
2518.6,4370
2520.418967578273,4344
2522.237541568376,4386
2524.0557222606144,4417
2525.8735099453706,4366
2527.6909049131086,4363
2529.507907454368,4347
2531.32451785977,4308
2533.140736420014,4396
2534.9565634258774,4320
2536.771999168218,4451
2538.5870439379714,4449
2540.4016980261526,4392
2542.2159617238544,4393
2544.02983532225,4442
2545.8433191125914,4477
2547.656413386209,4439
2549.4691184345115,4405
2551.2814345489874,4579
2553.093362021204,4418
2554.904901142808,4557
2556.716052205523,4360
2558.526815501153,4405
2560.3371913215824,4415
2562.147179958771,4465
2563.956781704761,4495
2565.7659968516705,4530
2567.5748256916986,4545
2569.3832685171224,4558
2571.1913256202984,4516
2572.9989972936614,4480
2574.806283829725,4619
2576.613185521084,4514
2578.4197026604074,4540
2580.2258355404483,4528
2582.031584454035,4568
2583.836949694077,4407
2585.6419315535613,4468
2587.4465303255533,4705
2589.2507463032002,4499
2591.0545797797245,4504
2592.8580310484303,4661
2594.6611004026995,4509
2596.463788135992,4514
2598.266094541849,4600
2600.0680199138874,4533
2601.869564545807,4504
2603.670728731383,4571
2605.4715127644704,4544
2607.2719169390048,4652
2609.071941548998,4578
2610.8715868885433,4604
2612.670853251811,4724
2614.469740933052,4523
2616.268250226594,4637
2618.0663814268455,4636
2619.864134828292,4683
2621.6615107255006,4606
2623.458509413115,4682
2625.2551311858597,4569
2627.0513763385347,4716
2628.8472451660223,4608
2630.6427379632833,4660
2632.4378550253564,4476
2634.232596647359,4562
2636.026963124488,4550
2637.8209547520187,4591
2639.6145718253065,4650
2641.407814639785,4554
2643.200683490966,4542
2644.9931786744414,4534
2646.7853004858807,4446
2648.577049221034,4486
2650.3684251757277,4518
2652.1594286458712,4555
2653.9500599274484,4508
2655.740319316525,4532
2657.5302071092437,4395
2659.3197236018286,4391
2661.10886909058,4465
2662.8976438718782,4344
2664.686048242183,4367
2666.4740824980327,4468
2668.2617469360443,4369
2670.0490418529134,4403
2671.8359675454153,4479
2673.622524310403,4303
2675.408712444811,4423
2677.1945322456495,4377
2678.979984010009,4290
2680.76506803506,4286
2682.5497846180497,4360
2684.334134056306,4438
2686.1181166472343,4310
2687.9017326883213,4307
2689.6849824771293,4328
2691.4678663113013,4193
2693.2503844885596,4258
2695.032537306705,4221
2696.8143250636167,4352
2698.5957480572542,4266
2700.3768065856534,4413
2702.1575009469316,4336
2703.937831439283,4368
2705.717798360982,4357
2707.4974020103837,4337
2709.276642685917,4304
2711.055520686095,4272
2712.834036309506,4176
2714.612189854819,4205
2716.389981620782,4314
2718.1674119062204,4230
2719.944481010041,4343
2721.721189231226,4316
2723.4975368688415,4172
2725.273524222027,4207
2727.0491515900053,4309
2728.824419272075,4210
2730.5993275676146,4203
2732.3738767760838,4229
2734.148067197016,4217
2735.921899130031,4179
2737.6953728748194,4169
2739.468488731156,4198
2741.2412469988926,4164
2743.0136479779617,4240
2744.785691968372,4297
2746.5573792702116,4206
2748.3287101836504,4185
2750.099685008934,4220
2751.870304046388,4312
2753.640567596418,4260
2755.4104759595057,4227
2757.1800294362156,4267
2758.949228327187,4238
2760.7180729331412,4171
2762.486563554877,4230
2764.254700493272,4174
2766.022484049284,4166
2767.789914523947,4236
2769.5569922183786,4193
2771.3237174337705,4201
2773.090090471394,4212
2774.8561116326036,4332
2776.6217812188274,4243
2778.3870995315756,4195
2780.1520668724356,4259
2781.9166835430747,4167
2783.6809498452394,4300
2785.444866080754,4243
2787.2084325515225,4206
2788.971649559527,4179
2790.73451740683,4261
2792.4970363955713,4309
2794.2592068279705,4234
2796.0210290063264,4158
2797.7825032330147,4246
2799.543629810493,4201
2801.304409041296,4281
2803.0648412280366,4219
2804.8249266734088,4288
2806.5846656801846,4272
2808.344058551212,4245
2810.1031055894246,4326
2811.8618070978273,4272
2813.6201633795085,4185
2815.378174737636,4346
2817.1358414754536,4270
2818.893163896285,4394
2820.6501423035334,4283
2822.4067770006814,4287
2824.1630682912883,4321
2825.9190164789957,4095
2827.6746218675207,4276
2829.429884760661,4188
2831.184805462294,4164
2832.9393842763743,4296
2834.693621506936,4202
2836.4475174580916,4303
2838.201072434034,4327
2839.954286739034,4163
2841.707160677441,4182
2843.459694553685,4212
2845.2118886722724,4113
2846.96374333779,4281
2848.7152588549034,4335
2850.4664355283567,4318
2852.217273662973,4279
2853.9677735636546,4208
2855.7179355353833,4410
2857.4677598832186,4216
2859.217246912299,4305
2860.9663969278427,4230
2862.715210235146,4277
2864.4636871395846,4352
2866.211827946614,4297
2867.9596329617652,4326
2869.7071024906536,4140
2871.4542368389684,4208
2873.20103631248,4183
2874.947501217038,4259
2876.6936318585695,4283
2878.4394285430812,4254
2880.1848915766604,4384
2881.9300212654707,4210
2883.6748179157553,4235
2885.4192818338374,4270
2887.1634133261173,4168
2888.907212699077,4194
2890.6506802592744,4263
2892.393816313348,4313
2894.1366211680142,4190
2895.8790951300693,4142
2897.621238506388,4270
2899.363051603925,4186
2901.1045347297118,4220
2902.8456881908596,4365
2904.58651229456,4320
2906.327007348081,4194
2908.067173658772,4151
2909.8070115340597,4264
2911.5465212814497,4258
2913.285703208527,4145
2915.0245576229563,4170
2916.7630848324807,4162
2918.5012851449196,4168
2920.2391588681758,4153
2921.976706310227,4223
2923.7139277791334,4243
2925.4508235830313,4094
2927.187394030137,4141
2928.923639428745,4263
2930.6595600872306,4245
2932.395156314046,4197
2934.1304284177218,4229
2935.8653767068713,4411
2937.6000014901815,4293
2939.3343030764227,4270
2941.068281774442,4222
2942.8019378931644,4293
2944.5352717415976,4188
2946.2682836288236,4318
2948.0009738640065,4239
2949.7333427563885,4260
2951.465390615289,4174
2953.1971177501086,4179
2954.9285244703265,4095
2956.6596110855,4083
2958.3903779052657,4157
2960.1208252393385,4154
2961.8509533975125,4183
2963.5807626896617,4168
2965.3102534257378,4257
2967.0394259157715,4129
2968.768280469873,4179
2970.496817398232,4111
2972.2250370111146,4207
2973.952939618869,4224
2975.6805255319196,4094
2977.4077950607707,4200
2979.134748516006,4260
2980.861386208289,4305
2982.587708448359,4305
2984.313715547037,4310
2986.039407815222,4247
2987.764785563891,4410
2989.489849104102,4367
2991.2145987469908,4349
2992.9390348037705,4313
2994.6631575857346,4286
2996.3869674042576,4266
2998.1104645707887,4347
2999.83364939686,4209
3001.5565221940783,4244
3003.2790832741334,4161
3005.0013329487924,4218
3006.7232715298996,4161
3008.4448993293804,4306
3010.166216659239,4151
3011.887223831558,4231
3013.607921158498,4072
3015.3283089522993,4205
3017.0483875252826,4239
3018.7681571898443,4242
3020.4876182584626,4366
3022.2067710436927,4296
3023.9256158581707,4209
3025.644153014609,4229
3027.362382825801,4205
3029.0803056046193,4213
3030.797921664012,4279
3032.5152313170106,4231
3034.2322348767225,4260
3035.9489326563353,4157
3037.665324969115,4230
3039.3814121284063,4334
3041.097194447633,4141
3042.812672240299,4324
3044.5278458199855,4254
3046.2427155003525,4259
3047.9572815951406,4252
3049.671544418167,4239
3051.38550428333,4243
3053.0991615046073,4253
3054.812516396051,4204
3056.5255692717974,4259
3058.2383204460575,4382
3059.9507702331257,4213
3061.662918947372,4213
3063.3747669032446,4259
3065.0863144152736,4212
3066.7975617980674,4248
3068.508509366309,4205
3070.219157434767,4295
3071.9295063182844,4285
3073.639556331785,4370
3075.3493077902704,4181
3077.058761008821,4270
3078.7679163025964,4184
3080.476773986837,4345
3082.1853343768594,4218
3083.89359778806,4175
3085.6015645359153,4354
3087.3092349359786,4284
3089.016609303884,4291
3090.7236879553434,4247
3092.4304712061476,4168
3094.136959372166,4189
3095.843152769349,4226
3097.5490517137237,4244
3099.2546565213966,4108
3100.959967508554,4255
3102.66498499146,4237
3104.3697092864577,4308
3106.0741407099695,4269
3107.778279578498,4263
3109.482126208622,4386
3111.1856809170004,4189
3112.8889440203716,4341
3114.5919158355528,4269
3116.294596679439,4310
3117.996986869006,4266
3119.6990867213062,4229
3121.4008965534726,4336
3123.102416682717,4361
3124.803647426329,4235
3126.5045891016784,4350
3128.205242026213,4293
3129.90560651746,4425
3131.605682893025,4353
3133.3054714705922,4347
3135.0049725679282,4346
3136.7041865028714,4413
3138.4031135933465,4378
3140.101754157353,4294
3141.800108512971,4394
3143.498176978357,4287
3145.1959598717494,4245
3146.8934575114636,4274
3148.5906702158954,4322
3150.2875983035183,4380
3151.9842420928853,4194
3153.680601902627,4289
3155.376678051456,4308
3157.07247085816,4247
3158.767980641609,4219
3160.463207720748,4281
3162.158152414606,4207
3163.8528150422862,4372
3165.5471959229726,4271
3167.2412953759303,4302
3168.9351137204976,4318
3170.628651276098,4244
3172.3219083622307,4267
3174.014885298474,4344
3175.707582404485,4340
3177.4000000000005,4360
3179.092138404835,4219
3180.7839979388846,4272
3182.47557892212,4437
3184.166881674594,4384
3185.8579065164386,4298
3187.5486537678626,4214
3189.2391237491547,4208
3190.9293167806827,4301
3192.6192331828934,4272
3194.3088732763117,4280
3195.998237381542,4272
3197.687325819268,4311
3199.376138910251,4226
3201.064676975334,4217
3202.7529403354347,4153
3204.4409293115523,4186
3206.1286442247647,4369
3207.816085396229,4226
3209.5032531471825,4172
3211.190147798936,4154
3212.8767696728846,4248
3214.5631190905015,4188
3216.2491963733373,4096
3217.9350018430214,4256
3219.6205358212637,4208
3221.305798629851,4070
3222.990790590651,4131
3224.6755120256103,4133
3226.359963256751,4052
3228.0441446061795,4165
3229.7280563960758,4179
3231.411698948703,4170
3233.0950725863995,4214
3234.778177631587,4203
3236.461014406761,4150
3238.1435832345005,4264
3239.8258844374595,4233
3241.507918338374,4095
3243.1896852600576,4330
3244.8711855254023,4315
3246.552419457381,4303
3248.233387379042,4303
3249.914089613516,4268
3251.59452648401,4276
3253.274698313813,4199
3254.95460542629,4201
3256.6342481448855,4249
3258.313626793125,4143
3259.9927416946084,4189
3261.6715931730196,4108
3263.3501815521176,4152
3265.0285071557437,4215
3266.706570307815,4122
3268.3843713323286,4200
3270.0619105533615,4089
3271.739188295068,4206
3273.4162048816834,4201
3275.0929606375184,4181
3276.769455886966,4190
3278.445690954498,4305
3280.1216661646613,4270
3281.797381842087,4221
3283.4728383114807,4214
3285.1480358976296,4239
3286.8229749253996,4267
3288.4976557197333,4180
3290.172078605655,4209
3291.846243908266,4202
3293.5201519527463,4190
3295.193803064357,4121
3296.8671975684374,4110
3298.5403357904024,4179
3300.21321805575,4081
3301.8858446900567,4101
3303.558216018975,4167
3305.23033236824,4255
3306.9021940636603,4188
3308.57380143113,4173
3310.2451547966184,4216
3311.916254486174,4268
3313.5871008259246,4153
3315.2576941420766,4273
3316.9280347609147,4211
3318.5981230088046,4174
3320.2679592121895,3995
3321.9375436975924,4128
3323.606876791612,4176
3325.27595882093,4188
3326.944790112305,4100
3328.6133709925753,4065
3330.2817017886573,4198
3331.949782827547,4188
3333.617614436319,4274
3335.2851969421245,4215
3336.952530672199,4125
3338.619615953853,4215
3340.286453114475,4219
3341.9530424815357,4340
3343.619384382583,4228
3345.2854791452437,4260
3346.951327097224,4266
3348.6169285663073,4289
3350.2822838803577,4263
3351.947393367319,4237
3353.61225735521,4320
3355.2768761721345,4293
3356.9412501462693,4148
3358.605379605873,4198
3360.2692648792827,4141
3361.9329062949146,4213
3363.596304181263,4137
