CollectionTime,6/28/2024 2:15:27 PM
ExposureUsed,3
CalibratedSpectrum
-962.7078968117929,3221
-959.9714848408522,3497
-957.2358232597828,3553
-954.5009119013725,3398
-951.7667505983302,3568
-949.0333391832855,3475
-946.3006774887896,3471
-943.5687653473143,3462
-940.837602591253,3435
-938.1071890529199,3494
-935.3775245645503,3461
-932.6486089583007,3457
-929.9204420662485,3554
-927.1930237203925,3431
-924.4663537526524,3516
-921.7404319948689,3477
-919.0152582788041,3570
-916.2908324361409,3567
-913.5671542984834,3461
-910.8442236973568,3592
-908.1220404642074,3625
-905.4006044304027,3499
-902.679915427231,3510
-899.959973285902,3539
-897.2407778375464,3548
-894.5223289132158,3461
-891.8046263438832,3504
-889.0876699604426,3445
-886.3714595937089,3488
-883.6559950744183,3505
-880.9412762332282,3402
-878.2273029007168,3452
-875.5140749073835,3588
-872.8015920836489,3508
-870.0898542598545,3484
-867.3788612662631,3335
-864.6686129330585,3378
-861.9591090903457,3391
-859.2503495681506,3482
-856.5423341964203,3533
-853.8350628050229,3468
-851.1285352237478,3472
-848.4227512823054,3483
-845.7177108103272,3494
-843.0134136373656,3501
-840.3098595928943,3461
-837.6070485063082,3446
-834.9049802069229,3381
-832.2036545239757,3492
-829.5030712866244,3378
-826.8032303239481,3522
-824.1041314649472,3398
-821.4057745385428,3479
-818.7081593735775,3497
-816.0112857988148,3474
-813.3151536429393,3399
-810.6197627345566,3527
-807.9251129021936,3448
-805.2312039742981,3445
-802.5380357792392,3395
-799.8456081453069,3392
-797.1539209007124,3442
-794.462973873588,3458
-791.772766891987,3445
-789.083299783884,3466
-786.3945723771743,3512
-783.7065844996748,3390
-781.0193359791231,3312
-778.3328266431781,3455
-775.6470563194197,3471
-772.9620248353489,3487
-770.2777320183878,3437
-767.5941776958798,3461
-764.9113616950891,3464
-762.2292838432011,3547
-759.5479439673222,3562
-756.8673418944801,3510
-754.1874774516235,3500
-751.5083504656222,3525
-748.8299607632671,3455
-746.15230817127,3528
-743.475392516264,3490
-740.7992136248035,3513
-738.1237713233636,3518
-735.4490654383407,3457
-732.7750957960521,3522
-730.1018622227365,3392
-727.4293645445534,3536
-724.7576025875837,3534
-722.0865761778291,3490
-719.4162851412126,3548
-716.7467293035781,3575
-714.0779084906909,3603
-711.409822528237,3561
-708.7424712418238,3553
-706.0758544569796,3568
-703.4099719991541,3482
-700.7448236937178,3598
-698.0804093659622,3666
-695.4167288411002,3572
-692.7537819442656,3582
-690.0915685005134,3500
-687.4300883348199,3520
-684.7693412720819,3620
-682.1093271371178,3472
-679.4500457546669,3632
-676.7914969493897,3520
-674.1336805458676,3526
-671.4765963686034,3551
-668.8202442420206,3485
-666.1646239904642,3516
-663.5097354382001,3575
-660.8555784094151,3593
-658.2021527282176,3700
-655.5494582186366,3655
-652.8974947046223,3670
-650.2462620100463,3595
-647.5957599587009,3639
-644.9459883742998,3636
-642.2969470804776,3570
-639.6486359007902,3610
-637.0010546587141,3616
-634.3542031776476,3702
-631.7080812809096,3714
-629.0626887917401,3670
-626.4180255333008,3587
-623.7740913286734,3678
-621.1308860008619,3601
-618.4884093727904,3606
-615.8466612673046,3519
-613.2056415071715,3663
-610.5653499150785,3611
-607.9257863136347,3633
-605.28695052537,3683
-602.6488423727357,3492
-600.0114616781036,3609
-597.3748082637674,3617
-594.7388819519412,3612
-592.1036825647604,3665
-589.4692099242818,3623
-586.8354638524829,3648
-584.2024441712624,3694
-581.5701507024403,3657
-578.9385832677575,3647
-576.3077416888759,3643
-573.6776257873787,3654
-571.0482353847704,3646
-568.4195703024757,3617
-565.7916303618415,3698
-563.164415384135,3614
-560.5379251905453,3700
-557.9121596021815,3686
-555.2871184400748,3646
-552.6628015251767,3610
-550.0392086783606,3633
-547.4163397204204,3602
-544.794194472071,3554
-542.1727727539491,3636
-539.5520743866118,3715
-536.9320991905377,3669
-534.3128469861261,3721
-531.6943175936979,3722
-529.0765108334947,3654
-526.4594265256793,3963
-523.8430644903358,3957
-521.2274245474689,4111
-518.612506517005,4203
-515.9983102187913,4224
-513.3848354725959,4450
-510.77208209810846,4454
-508.16004991493924,4366
-505.5487387426199,4578
-502.9381484006032,4810
-500.3282787082628,4932
-497.71912948489364,4834
-495.1107005497117,4923
-492.5029917218539,4897
-489.8960028203786,4755
-487.28973366426493,4520
-484.68418407241325,4223
-482.07935386364494,4120
-479.47524285670266,3991
-476.87185087025,3995
-474.2691777228715,4004
-471.66722323307334,3940
-469.0659872192821,3889
-466.4654694998459,3918
-463.86566989303384,3947
-461.26658821703614,3971
-458.66822428996414,3808
-456.07057792985,3867
-453.4736489546475,3933
-450.877437182231,3845
-448.28194243039627,3797
-445.68716451686,3728
-443.09310325926003,3711
-440.49975847515555,3690
-437.9071299820263,3639
-435.31521759727354,3684
-432.72402113821954,3707
-430.13354042210767,3725
-427.5437752661022,3879
-424.95472548728867,3786
-422.36639090267386,3817
-419.7787713291855,3880
-417.1918665836721,3740
-414.60567648290385,3836
-412.0202008435715,3790
-409.4354394822874,3797
-406.8513922155845,3872
-404.26805885991723,3931
-401.685439231661,3823
-399.103533147112,3658
-396.522340422488,3699
-393.9418608739278,3583
-391.3620943174908,3397
-388.7830405691583,3258
-386.2046994448317,2998
-383.6270707603344,2803
-381.05015433141045,2560
-378.473949973725,2309
-375.8984575028645,2006
-373.32367673433623,1789
-370.74960748356875,1544
-368.1762495659117,1378
-365.60360279663576,1172
-363.03166699093265,974
-360.4604419639154,837
-357.8899275306178,763
-355.32012350599507,703
-352.7510297049233,674
-350.1826459421999,629
-347.61497203254316,630
-345.04800779059235,592
-342.4817530309082,570
-339.91620756797226,562
-337.35137121618743,545
-334.7872437898774,544
-332.22382510328725,546
-329.66111497058273,594
-327.09911320585127,599
-324.53781962310075,573
-321.9772340362607,612
-319.4173562591816,634
-316.8581861056348,567
-314.2997233893127,592
-311.7419679238294,590
-309.1849195227194,568
-306.62857799943856,485
-304.0729431673641,519
-301.51801483979375,524
-298.963792829947,554
-296.41027695096386,567
-293.85746701590574,575
-291.3053628377552,599
-288.7539642294155,631
-286.2032710037115,667
-283.65328297338897,647
-281.1039999511146,646
-278.5554217494762,626
-276.007548180983,685
-273.4603790580651,629
-270.9139141930734,609
-268.3681533982807,640
-265.8230964858798,670
-263.27874326798565,681
-260.7350935566336,740
-258.1921471637804,721
-255.6499039013039,681
-253.10836358100266,659
-250.56752601459698,640
-248.02739101372765,778
-245.48795838995704,942
-242.94922795476816,959
-240.41119951956557,735
-237.8738728956746,764
-235.33724789434166,874
-232.80132432673452,1043
-230.2661020039418,940
-227.73158073697357,743
-225.19776033676033,700
-222.66464061415422,776
-220.1322213799284,753
-217.60050244477725,767
-215.06948361931552,744
-212.53916471408013,794
-210.00954553952818,809
-207.48062590603843,839
-204.9524056239104,1014
-202.4248845033651,893
-199.8980623545441,741
-197.37193898751036,753
-194.84651421224817,829
-192.32178783866232,873
-189.79775967657952,831
-187.27442953574644,873
-184.7517972258321,839
-182.2298625564256,887
-179.7086253370378,869
-177.18808537710026,874
-174.66824248596583,837
-172.14909647290835,1048
-169.6306471471229,991
-167.11289431772548,984
-164.59583779375328,931
-162.07947738416453,871
-159.5638128978386,930
-157.04884414357605,1031
-154.53457093009854,1144
-152.02099306604828,1135
-149.50811035998936,1060
-146.99592262040665,1014
-144.48442965570587,1145
-141.97363127421409,1273
-139.46352728417958,1128
-136.95411749377126,1070
-134.44540171107985,1188
-131.93737974411636,1184
-129.43005140081357,1299
-126.92341648902493,1377
-124.41747481652521,1453
-121.91222619101006,1443
-119.40767042009657,1402
-116.90380731132257,1526
-114.40063667214702,1528
-111.8981583099503,1415
-109.3963720320337,1549
-106.89527764561933,1660
-104.39487495785067,1885
-101.89516377579241,1775
-99.39614390642998,1732
-96.89781515667039,1708
-94.40017733334128,2097
-91.90323024319173,2035
-89.40697369289148,1975
-86.91140748903172,2007
-84.41653143812482,1970
-81.92234534660395,2091
-79.42884902082358,2327
-76.93604226705907,2476
-74.4439248915071,2078
-71.95249670028534,2067
-69.46175749943245,2460
-66.97170709490854,3193
-64.48234529259423,3391
-61.99367189829195,2549
-59.50568671772464,2429
-57.01838955653636,2977
-54.53178022029283,3299
-52.045858514480074,3303
-49.560624244506016,3356
-47.07607721569923,3528
-44.59221723330904,3691
-42.10904410250669,3449
-39.62655762838392,4291
-37.14475761595372,5470
-34.66364387015028,6227
-32.18321619582866,7561
-29.70347439776515,8690
-27.224418280657005,9865
-24.74604764912317,15147
-22.26836230770266,26615
-19.7913620608565,44695
-17.315046712966478,60108
-14.83941606833514,65030
-12.36446993118659,65030
-9.89020810566592,65030
-7.416630395839093,65030
-4.94373660569363,65030
-2.471526539137585,65030
-6.821210263296962E-13,65030
2.47084320796705,65030
4.941003281093458,65030
7.410480415786196,65030
9.879274808531363,65030
12.347386655893956,65030
14.814816154518212,65030
17.28156350112681,65030
19.74762889252179,65030
22.21301252558385,65030
24.67771459727237,35792
27.141735304626195,12687
29.605074844762612,8237
32.06773341487792,10293
34.52971121224755,11556
36.99100843422559,10382
39.45162527824516,8833
41.91156194181792,7369
44.370818622535126,8619
46.82939551806646,11556
49.287292826160524,14804
51.74451074464503,14737
54.201049471426245,10550
56.65690920448981,7976
59.112090141899785,5444
61.56659248179983,4861
64.02041642241159,4220
66.4735621620365,3367
68.92602989905402,2797
71.37781983192338,2927
73.82893215918205,2952
76.27936707944684,3216
78.72912479141326,2601
81.17820549385567,2373
83.62660938562783,2542
86.07433666566146,2406
88.5213875329681,2367
90.96776218663751,2002
93.41346082583925,1912
95.85848364982041,2213
98.30283085790859,2175
100.7465026495089,2056
103.18949922410604,2213
105.63182078126385,2110
108.07346752062438,2291
110.51443964190923,1889
112.95473734491827,1597
115.39436082953114,1418
117.83331029570547,1625
120.27158594347827,1910
122.7091879729652,1478
125.1461165843615,1401
127.58237197794062,1663
130.01795435405518,1605
132.4528639131364,1639
134.88710085569494,1465
137.32066538231982,1609
139.75355769367923,1711
142.1857779905207,1602
144.61732647366978,1758
147.04820334403132,1900
149.47840880258934,1861
151.90794305040674,2130
154.33680628862487,2489
156.76499871846443,2589
159.19252054122433,2829
161.61937195828352,3085
164.04555317109896,3284
166.47106438120693,3693
168.89590579022217,4304
171.320077599839,4656
173.7435800118302,4776
176.16641322804742,4786
178.58857745042144,5059
181.01007288096173,5269
183.43089972175687,5623
185.85105817497413,5742
188.27054844285988,5820
190.6893707277394,5875
193.10752523201643,5888
195.5250121581745,5954
197.9418317087751,6297
200.3579840864594,6215
202.7734694939469,6196
205.18828813403627,6070
207.6024402096051,6047
210.01592592360964,6094
212.42874547908548,6046
214.84089907914665,5887
217.2523869269868,5858
219.66320922587727,5938
222.0733661791695,5929
224.48285799029293,5930
226.8916848627572,6068
229.29984700014882,5985
231.7073446061355,6039
234.11417788446204,6026
236.520347038953,6126
238.92585227351185,6212
241.33069379212054,6186
243.73487179884035,6148
246.1383864978112,6184
248.541238093252,6011
250.9434267894609,6018
253.34495279081432,5991
255.74581630176783,5985
258.1460175268563,6068
260.54555667069314,6233
262.9444339379703,6066
265.3426495334594,6183
267.7402036620107,5880
270.1370965285529,5723
272.53332833809407,5753
274.9288992957214,5674
277.32380960660055,5652
279.718059475976,5839
282.1116491091717,5824
284.5045787115897,5657
286.89684848871195,5753
289.2884586460981,5612
291.67940938938807,5740
294.0697009242996,5691
296.4593334566299,5586
298.84830719225477,5473
301.23662233712923,5673
303.6242790972866,5662
306.01127767884,5596
308.39761828798066,5655
310.78330113097934,5507
313.16832641418534,5594
315.5526943440269,5522
317.9364051270112,5483
320.3194589697242,5475
322.70185607883093,5324
325.0835966610754,5350
327.4646809232805,5235
329.8451090723478,5375
332.2248813152577,5201
334.6039978590701,5320
336.9824589109231,5223
339.36026467803447,5094
341.7374153677,5242
344.113911187295,5244
346.48975234427337,5201
348.8649390461686,5207
351.2394715005918,5176
353.61334991523415,5023
355.9865744978655,5037
358.35914545633375,5246
360.73106299856715,5183
363.10232733257146,5190
365.47293866643247,5147
367.84289720831396,5193
370.2122031664593,5136
372.5808567491905,5122
374.9488581649083,5251
377.31620762209275,5135
379.6829053293021,5013
382.0489514951745,4952
384.4143463284262,5080
386.7790900378528,4997
389.14318283232853,5099
391.50662492080653,5078
393.86941651231916,4933
396.23155781597745,5052
398.5930490409713,4987
400.9538903965696,4984
403.3140820921202,4978
405.6736243370498,5081
408.03251734086336,5059
410.3907613131465,5059
412.74835646356166,4933
415.10530300185144,4979
417.4616011378372,5023
419.81725108141893,5033
422.1722530425758,4959
424.5266072313656,4874
426.880313857925,4976
429.2333731324701,4952
431.58578526529516,5029
433.9375504667738,5103
436.2886689473588,4961
438.63914091758113,4918
440.9889665880513,4862
443.33814616945835,4903
445.68667987257015,4945
448.03456790823395,5108
450.3818104873759,5010
452.72840782100013,4949
455.07436012019105,4952
457.41966759611057,4949
459.7643304600007,5042
462.10834892318155,4947
464.4517231970525,4954
466.79445349309174,4985
469.1365400228566,4978
471.4779829979826,5057
473.81878263018564,5025
476.15893913125876,4984
478.4984527130747,5093
480.8373235875855,5115
483.17555196682144,5224
485.5131380628919,5293
487.8500820879857,5428
490.1863842543697,5471
492.52204477439034,5735
494.8570638604725,5992
497.1914417251204,6307
499.52517858091653,6530
501.85827464052306,6635
504.19073011668036,6625
506.5225452222086,6519
508.85372017000566,6456
511.18425517304956,6275
513.514150444396,6455
515.8434061971808,6958
518.1720226446176,7412
520.4999999999999,7829
522.8273384766991,8228
525.1540382881666,8269
527.480099647932,8016
529.8055227696037,6907
532.1303078668694,5853
534.454455153496,5297
536.777964843328,5025
539.1008371502907,4972
541.4230722883866,4930
543.744670471698,4865
546.0656319143858,4775
548.3859568306899,4738
550.7056454349294,4745
553.0246979415016,4751
555.3431145648834,4715
557.6608955196306,4777
559.978041020377,4676
562.2945512818363,4742
564.6104265188006,4717
566.9256669461412,4646
569.2402727788082,4738
571.5542442318302,4692
573.8675815203156,4780
576.1802848594508,4814
578.4923544645015,4819
580.8037905508126,4821
583.114593333807,4819
585.4247630289875,4719
587.7342998519354,4703
590.0432040183106,4895
592.3514757438526,4750
594.6591152443794,4770
596.9661227357875,4738
599.2724984340531,4812
601.578242555231,4828
603.8833553154542,4757
606.1878369309362,4743
608.4916876179676,4817
610.7949075929192,4780
613.0974970722403,4845
615.3994562724587,4788
617.7007854101818,4829
620.0014847020951,4686
622.3015543649641,4706
624.6009946156324,4723
626.8998056710224,4597
629.1979877481361,4738
631.4955410640538,4902
633.7924658359349,4676
636.0887622810175,4686
638.3844306166192,4782
640.6794710601358,4732
642.9738838290426,4623
645.2676691408932,4820
647.5608272133207,4782
649.853358264037,4676
652.1452625108324,4768
654.4365401715764,4798
656.7271914642178,4724
659.0172166067838,4803
661.3066158173809,4939
663.5953893141935,4881
665.8835373154867,4880
668.1710600396028,4828
670.4579577049639,4749
672.7442305300709,4723
675.0298787335033,4859
677.3149025339197,4890
679.599302150058,4864
681.8830778007342,4813
684.1662297048437,4784
686.4487580813608,4822
688.7306631493387,4786
691.0119451279091,4907
693.2926042362834,4797
695.5726406937516,4849
697.8520547196814,4866
700.1308465335215,4899
702.4090163547982,4755
704.6865644031171,4944
706.9634908981619,4746
709.2397960596965,4793
711.5154801075631,4834
713.7905432616823,4893
716.0649857420548,4820
718.3388077687592,4840
720.612009561953,4804
722.8845913418733,4808
725.1565533288352,4793
727.427895743234,4757
729.6986188055427,4734
731.9687227363137,4801
734.238207756178,4845
736.5070740858458,4847
738.7753219461066,4634
741.0429515578281,4698
743.3099631419569,4811
745.5763569195191,4799
747.8421331116193,4734
750.1072919394409,4788
752.3718336242467,4842
754.6357583873777,4778
756.8990664502545,4784
759.1617580343765,4827
761.423833361321,4984
763.6852926527457,4731
765.9461361303862,4773
768.206364016058,4767
770.4659765316536,4729
772.7249738991469,4863
774.9833563405886,4927
777.2411240781092,4788
779.4982773339183,4874
781.7548163303044,4832
784.010741289634,4759
786.2660524343538,4801
788.5207499869881,4807
790.7748341701416,4811
793.0283052064964,4829
795.2811633188143,4846
797.5334087299362,4919
799.7850416627813,4884
802.0360623403484,4825
804.2864709857143,4926
806.5362678220353,4803
808.7854530725468,4865
811.0340269605625,4809
813.2819897094754,4824
815.5293415427581,4830
817.77608268396,4917
820.0222133567116,4791
822.2677337847211,4850
824.5126441917765,4874
826.7569448017433,4852
829.0006358385675,4892
831.2437175262731,4782
833.4861900889629,4910
835.7280537508192,4765
837.9693087361026,4833
840.2099552691533,4844
842.4499935743896,4857
844.689423876309,4845
846.9282463994886,4842
849.1664613685833,4762
851.4040690083276,4828
853.6410695435349,4817
855.877463199097,4893
858.1132501999847,4968
860.3484307712487,4781
862.5830051380175,4817
864.8169735254988,4862
867.0503361589791,4903
869.2830932638243,4972
871.5152450654786,4862
873.7467917894654,4938
875.9777336613873,4991
878.2080709069252,4944
880.4378037518389,4892
882.666932421968,5090
884.8954571432301,5017
887.1233781416219,4877
889.3506956432192,5031
891.5774098741766,4949
893.803521060728,4998
896.0290294291852,4913
898.2539352059397,4978
900.4782386174619,4960
902.7019398903011,5008
904.925039251085,5136
907.147536926521,4875
909.3694331433943,4931
911.59072812857,4840
913.8114221089921,4893
916.0315153116827,4854
918.2510079637437,4928
920.4699002923547,4862
922.6881925247761,4941
924.905884888345,4825
927.1229776104793,4819
929.3394709186747,4932
931.555365040506,4958
933.7706602036275,4918
935.9853566357709,4943
938.1994545647489,4856
940.4129542184515,4788
942.6258558248488,4868
944.8381596119883,4783
947.0498658079974,4845
949.2609746410825,4863
951.4714863395287,4904
953.6814011316998,4792
955.8907192460387,4922
958.0994409110671,4989
960.3075663553858,4812
962.5150958076741,4937
964.7220294966913,4895
966.928367651274,4773
969.1341105003388,4839
971.3392582728806,4914
973.5438111979742,4746
975.747769504772,4842
977.9511334225061,4853
980.153903180487,4905
982.3560790081052,4824
984.5576611348289,4802
986.7586497902058,4751
988.9590452038618,4714
991.158847605503,4758
993.3580572249133,4671
995.5566742919558,4652
997.7546990365728,4631
999.952131688785,4628
1002.1489724786926,4573
1004.3452216364743,4484
1006.5408793923874,4616
1008.7359459767691,4568
1010.9304216200343,4426
1013.1243065526781,4454
1015.3176010052733,4545
1017.510305208472,4525
1019.7024193930064,4509
1021.8939437896848,4559
1024.0848786293977,4647
1026.2752241431122,4494
1028.4649805618747,4518
1030.6541481168115,4442
1032.842727039127,4618
1035.0307175601051,4320
1037.2181199111074,4476
1039.4049343235752,4504
1041.591161029029,4511
1043.7768002590683,4516
1045.9618522453698,4535
1048.1463172196918,4393
1050.3301954138697,4426
1052.513487059818,4440
1054.69619238953,4433
1056.8783116350783,4512
1059.0598450286152,4448
1061.2407928023704,4549
1063.4211551886528,4482
1065.6009324198508,4389
1067.780124728432,4541
1069.9587323469414,4383
1072.1367555080046,4507
1074.314194444325,4480
1076.4910493886855,4472
1078.667320573947,4413
1080.843008233051,4411
1083.0181125990161,4265
1085.1926339049414,4405
1087.3665723840027,4479
1089.5399282694575,4389
1091.7127017946405,4383
1093.8848931929647,4302
1096.0565026979243,4338
1098.2275305430899,4494
1100.3979769621128,4383
1102.567842188722,4283
1104.737126456726,4415
1106.9058300000124,4405
1109.0739530525475,4367
1111.2414958483764,4261
1113.4084586216231,4306
1115.5748416064907,4233
1117.7406450372605,4306
1119.9058691482942,4338
1122.0705141740304,4355
1124.2345803489884,4402
1126.3980679077658,4352
1128.5609770850388,4332
1130.7233081155623,4377
1132.8850612341707,4327
1135.0462366757774,4252
1137.2068346753745,4341
1139.3668554680326,4302
1141.526299288901,4349
1143.68516637321,4221
1145.8434569562655,4293
1148.001171273455,4192
1150.158309560244,4185
1152.3148720521767,4184
1154.470858984876,4210
1156.626270594044,4225
1158.7811071154629,4330
1160.9353687849912,4304
1163.089055838569,4308
1165.242168512213,4228
1167.3947070420209,4246
1169.5466716641677,4338
1171.6980626149075,4231
1173.8488801305748,4423
1175.9991244475814,4322
1178.1487958024186,4220
1180.2978944316555,4258
1182.4464205719428,4224
1184.5943744600072,4249
1186.7417563326567,4221
1188.8885664267755,4149
1191.0348049793297,4239
1193.1804722273619,4147
1195.325568407995,4250
1197.4700937584303,4218
1199.614048515948,4209
1201.7574329179074,4230
1203.900247201746,4245
1206.042491604982,4205
1208.1841663652099,4320
1210.3252717201053,4162
1212.465807907422,4152
1214.6057751649923,4176
1216.7451737307279,4249
1218.8840038426192,4284
1221.0222657387353,4409
1223.1599596572241,4264
1225.2970858363137,4231
1227.4336445143094,4159
1229.5696359295966,4284
1231.705060320639,4266
1233.8399179259786,4192
1235.9742089842384,4185
1238.107933734118,4133
1240.2410924143974,4250
1242.373685263935,4262
1244.5057125216676,4234
1246.6371744266116,4212
1248.7680712178621,4243
1250.898403134593,4052
1253.028170416058,4191
1255.1573733015875,4161
1257.2860120305932,4168
1259.4140868425648,4159
1261.54159797707,4313
1263.6685456737569,4358
1265.7949301723515,4194
1267.9207517126597,4203
1270.046010534565,4116
1272.1707068780306,4194
1274.2948409830983,4265
1276.4184130898889,4306
1278.541423438603,4319
1280.6638722695184,4298
1282.785759822993,4251
1284.9070863394636,4352
1287.0278520594447,4310
1289.1480572235314,4384
1291.2677020723963,4278
1293.3867868467923,4241
1295.5053117875495,4225
1297.623277135579,4306
1299.740683131868,4206
1301.8575300174857,4302
1303.973818033578,4351
1306.0895474213703,4499
1308.2047184221678,4481
1310.3193312773528,4347
1312.4333862283888,4380
1314.5468835168163,4315
1316.659823384255,4317
1318.7722060724045,4292
1320.8840318230418,4422
1322.9953008780249,4334
1325.1060134792888,4378
1327.2161698688478,4445
1329.3257702887959,4421
1331.4348149813054,4369
1333.5433041886276,4336
1335.6512381530933,4228
1337.7586171171101,4264
1339.8654413231675,4366
1341.9717110138317,4255
1344.0774264317488,4213
1346.1825878196432,4289
1348.2871954203192,4316
1350.3912494766587,4375
1352.4947502316231,4248
1354.5976979282532,4350
1356.7000928096686,4241
1358.8019351190665,4208
1360.9032250997243,4346
1363.0039629949988,4299
1365.1041490483235,4251
1367.2037835032133,4319
1369.3028666032606,4276
1371.401398592137,4374
1373.4993797135926,4308
1375.5968102114575,4370
1377.6936903296396,4355
1379.7900203121262,4266
1381.8858004029835,4212
1383.9810308463561,4176
1386.075711886469,4360
1388.1698437676241,4293
1390.2634267342032,4385
1392.356461030667,4404
1394.4489469015557,4364
1396.5408845914872,4506
1398.6322743451592,4334
1400.7231164073469,4362
1402.813411022907,4318
1404.903158436773,4375
1406.9923588939578,4311
1409.0810126395531,4327
1411.1691199187303,4335
1413.2566809767386,4373
1415.343696058907,4309
1417.4301654106425,4377
1419.5160892774315,4312
1421.6014679048399,4310
1423.6863015385125,4354
1425.7705904241707,4366
1427.8543348076178,4396
1429.9375349347342,4304
1432.0201910514802,4441
1434.102303403894,4436
1436.1838722380944,4489
1438.2648978002767,4447
1440.3453803367174,4568
1442.4253200937692,4519
1444.5047173178677,4399
1446.5835722555234,4478
1448.6618851533285,4546
1450.739656257952,4557
1452.8168858161434,4480
1454.8935740747306,4521
1456.96972128062,4589
1459.045327680797,4554
1461.120393522327,4747
1463.1949190523528,4737
1465.2689045180973,4780
1467.3423501668608,4755
1469.415256246024,4756
1471.4876230030463,4822
1473.559450685465,4733
1475.6307395408976,4856
1477.7014898170391,4916
1479.771701761665,4948
1481.8413756226287,4934
1483.9105116478618,4951
1485.9791100853772,4986
1488.0471711832643,4961
1490.1146951896926,5115
1492.1816823529098,5242
1494.2481329212433,5075
1496.3140471430984,5181
1498.3794252669609,5232
1500.4442675413939,5237
1502.5085742150404,5314
1504.572345536622,5382
1506.6355817549388,5370
1508.6982831188702,5463
1510.7604498773744,5328
1512.8220822794883,5390
1514.8831805743293,5515
1516.9437450110909,5548
1519.003775839048,5685
1521.0632733075522,5690
1523.1222376660367,5785
1525.1806691640113,5870
1527.2385680510652,5977
1529.2959345768668,6038
1531.3527689911643,6131
1533.4090715437833,6167
1535.4648424846291,6194
1537.5200820636855,6402
1539.5747905310159,6389
1541.6289681367616,6435
1543.6826151311434,6498
1545.7357317644614,6651
1547.7883182870937,6528
1549.8403749494987,6743
1551.8919020022113,6790
1553.9428996958477,7041
1555.9933682811015,7095
1558.0433080087469,7206
1560.0927191296346,7391
1562.1416018946961,7346
1564.1899565549415,7413
1566.2377833614592,7347
1568.2850825654164,7310
1570.3318544180606,7125
1572.3780991707158,6899
1574.423817074788,6814
1576.4690083817595,6512
1578.5136733431923,6194
1580.5578122107272,6102
1582.601425236085,5886
1584.6445126710646,5707
1586.6870747675434,5506
1588.7291117774776,5354
1590.7706239529034,5091
1592.8116115459347,5042
1594.8520748087658,5107
1596.8920139936686,4873
1598.9314293529933,4839
1600.9703211391711,4764
1603.008689604711,4620
1605.0465350022005,4586
1607.0838575843068,4566
1609.1206576037753,4548
1611.1569353134305,4437
1613.1926909661765,4274
1615.2279248149953,4321
1617.2626371129481,4295
1619.2968281131757,4273
1621.3304980688963,4309
1623.3636472334088,4203
1625.39627586009,4146
1627.428384202396,4180
1629.459972513861,4193
1631.4910410480993,4278
1633.5215900588028,4137
1635.551619799744,4185
1637.5811305247717,4086
1639.6101224878166,4082
1641.6385959428862,4201
1643.6665511440683,4028
1645.693988345528,4121
1647.7209078015112,3932
1649.7473097663405,4030
1651.7731944944203,3991
1653.7985622402307,4085
1655.823413258333,4044
1657.847747803366,4020
1659.8715661300494,4043
1661.8948684931793,3952
1663.9176551476316,3964
1665.9399263483624,3967
1667.9616823504057,3840
1669.982923408873,3915
1672.0036497789574,3971
1674.0238617159293,3871
1676.043559475138,3931
1678.0627433120121,3877
1680.081413482059,3991
1682.0995702408654,3987
1684.117213844096,3874
1686.134344547495,4002
1688.1509626068864,3901
1690.1670682781705,4014
1692.182661817329,3952
1694.1977434804217,3883
1696.2123135235875,3931
1698.226372203043,3921
1700.2399197750851,3934
1702.2529564960905,3929
1704.2654826225112,4041
1706.277498410882,3923
1708.2890041178139,3867
1710.2999999999988,3978
1712.3104863142066,3927
1714.3204633172854,3870
1716.329931266163,3958
1718.3388904178469,3917
1720.3473410294214,3925
1722.3552833580516,3843
1724.3627176609807,3852
1726.3696441955308,3974
1728.3760632191033,3840
1730.3819749891782,3899
1732.3873797633146,3845
1734.3922777991502,3802
1736.3966693544012,3831
1738.4005546868639,3861
1740.4039340544127,3895
1742.406807715001,3795
1744.4091759266616,3891
1746.4110389475054,3775
1748.4123970357223,3821
1750.413250449582,3781
1752.4135994474318,3778
1754.4134442876993,3698
1756.4127852288902,3664
1758.4116225295893,3796
1760.4099564484595,3885
1762.407787244244,3730
1764.405115175764,3796
1766.4019405019203,3795
1768.3982634816916,3766
1770.3940843741357,3744
1772.3894034383907,3671
1774.3842209336717,3758
1776.378537119274,3761
1778.372352254571,3734
1780.3656665990156,3694
1782.3584804121397,3722
1784.3507939535534,3712
1786.3426074829463,3764
1788.3339212600863,3718
1790.3247355448211,3703
1792.3150505970766,3741
1794.3048666768573,3796
1796.2941840442477,3775
1798.2830029594106,3772
1800.2713236825884,3744
1802.2591464741004,3650
1804.2464715943465,3747
1806.2332993038058,3753
1808.2196298630352,3749
1810.2054635326708,3683
1812.190800573428,3733
1814.175641246101,3844
1816.1599858115628,3644
1818.1438345307652,3745
1820.127187664738,3696
1822.1100454745924,3697
1824.092408221516,3752
1826.0742761667766,3661
1828.055649571721,3677
1830.0365286977735,3667
1832.0169138064398,3698
1833.9968051593014,3714
1835.9762030180214,3762
1837.9551076443408,3635
1839.9335193000788,3655
1841.9114382471344,3600
1843.888864747485,3713
1845.8657990631878,3701
1847.842241456378,3579
1849.8181921892697,3685
1851.7936515241558,3645
1853.7686197234098,3692
1855.7430970494815,3695
1857.7170837649014,3730
1859.6905801322787,3692
1861.6635864143004,3732
1863.6361028737338,3693
1865.608129773424,3673
1867.5796673762961,3750
1869.5507159453537,3671
1871.521275743678,3589
1873.4913470344313,3760
1875.4609300808534,3687
1877.4300251462632,3746
1879.3986324940588,3679
1881.366752387717,3778
1883.3343850907936,3766
1885.3015308669228,3720
1887.268189979819,3690
1889.2343626932739,3632
1891.2000492711595,3686
1893.1652499774254,3666
1895.1299650761011,3733
1897.0941948312952,3633
1899.0579395071945,3662
1901.0211993680641,3699
1902.98397467825,3668
1904.9462657021745,3697
1906.9080727043415,3631
1908.869395949332,3695
1910.8302357018065,3642
1912.790592226504,3650
1914.7504657882428,3710
1916.7098566519212,3688
1918.6687650825133,3692
1920.6271913450764,3712
1922.5851357047422,3731
1924.5425984267245,3640
1926.499579776314,3702
1928.4560800188833,3737
1930.4120994198802,3679
1932.367638244833,3639
1934.32269675935,3705
1936.2772752291175,3715
1938.231373919899,3735
1940.1849930975404,3693
1942.1381330279637,3663
1944.0907939771696,3718
1946.0429762112412,3561
1947.9946799963363,3612
1949.9459055986945,3682
1951.896653284633,3688
1953.8469233205478,3687
1955.7967159729142,3631
1957.7460315082863,3712
1959.6948701932974,3621
1961.6432322946594,3679
1963.5911180791632,3655
1965.5385278136787,3631
1967.4854617651545,3653
1969.4319202006182,3648
1971.377903387176,3566
1973.3234115920136,3558
1975.268445082395,3583
1977.2130041256642,3745
1979.1570889892423,3668
1981.1006999406304,3714
1983.04383724741,3655
1984.986501177238,3576
1986.928691997853,3658
1988.8704099770712,3568
1990.811655382789,3431
1992.7524284829801,3566
1994.692729545698,3610
1996.6325588390755,3639
1998.5719166313224,3572
2000.5108031907307,3545
2002.4492187856677,3510
2004.387163684583,3596
2006.3246381560011,3645
2008.2616424685298,3562
2010.1981768908527,3549
2012.1342416917332,3602
2014.069837140014,3522
2016.0049635046162,3520
2017.9396210545406,3410
2019.8738100588666,3417
2021.8075307867502,3493
2023.740783507431,3517
2025.6735684902228,3489
2027.6058860045214,3477
2029.5377363198004,3481
2031.4691197056118,3620
2033.4000364315875,3530
2035.3304867674374,3485
2037.260470982952,3488
2039.189989347998,3545
2041.1190421325232,3499
2043.047629606554,3557
2044.9757520401945,3549
2046.9034097036288,3486
2048.8306028671195,3490
2050.7573318010086,3462
2052.683596775716,3525
2054.609398061742,3491
2056.5347359296647,3387
2058.4596106501403,3567
2060.384022493906,3462
2062.3079717317764,3420
2064.231458634646,3507
2066.1544834734873,3440
2068.077046519352,3426
2069.99914804337,3457
2071.9207883167524,3484
2073.8419676107865,3523
2075.7626861968406,3460
2077.6829443463607,3490
2079.6027423308715,3565
2081.522080421977,3435
2083.440958891362,3500
2085.359378010786,3437
2087.2773380520907,3435
2089.194839287196,3491
2091.111881988101,3463
2093.0284664268825,3438
2094.9445928756973,3383
2096.86026160678,3477
2098.775472892446,3499
2100.690227005088,3570
2102.604524217178,3511
2104.5183648012676,3445
2106.431749029985,3508
2108.34467717604,3418
2110.2571495122206,3505
2112.169166311393,3411
2114.080727846503,3438
2115.9918343905747,3458
2117.902486216711,3380
2119.8126835980956,3382
2121.722426807987,3430
2123.6317161197285,3454
2125.5405518067364,3403
2127.448934142509,3426
2129.356863400624,3414
2131.264339854737,3455
2133.1713637785815,3504
2135.077935445972,3397
2136.9840551308002,3386
2138.889723107037,3488
2140.7949396487334,3397
2142.699705030018,3437
2144.6040195250994,3463
2146.507883408264,3454
2148.4112969538774,3377
2150.3142604363848,3438
2152.2167741303097,3438
2154.1188383102535,3407
2156.0204532508997,3377
2157.9216192270064,3396
2159.822336513414,3367
2161.7226053850413,3375
2163.622426116884,3435
2165.5217989840185,3436
2167.4207242616,3488
2169.319202224862,3461
2171.2172331491165,3464
2173.1148173097563,3451
2175.0119549822507,3414
2176.90864644215,3445
2178.8048919650823,3368
2180.7006918267534,3398
2182.596046302952,3388
2184.4909556695407,3387
2186.3854202024645,3376
2188.279440177746,3318
2190.173015871487,3477
2192.066147559868,3403
2193.958835519149,3547
2195.851080025667,3433
2197.7428813558417,3311
2199.6342397861667,3457
2201.5251555932186,3464
2203.415629053651,3510
2205.3056604441986,3401
2207.19525004167,3396
2209.084398122958,3380
2210.9731049650327,3402
2212.861370844941,3426
2214.749196039812,3424
2216.636580826851,3443
2218.523525483344,3507
2220.410030286655,3507
2222.296095514226,3422
2224.1817214435805,3438
2226.066908352319,3396
2227.951656518121,3413
2229.835966218746,3479
2231.71983773203,3474
2233.6032713358913,3394
2235.486267308324,3487
2237.3688259274036,3487
2239.2509474712824,3500
2241.132632218193,3439
2243.013880446447,3453
2244.8946924344323,3428
2246.7750684606203,3393
2248.6550088035574,3387
2250.534513741871,3399
2252.413583554265,3440
2254.292218519526,3371
2256.170418916517,3362
2258.0481850241786,3377
2259.925517121534,3444
2261.8024154876825,3375
2263.678880401803,3396
2265.5549121431536,3383
2267.430510991071,3361
2269.305677224971,3334
2271.180411124348,3404
2273.0547129687766,3377
2274.9285830379076,3433
2276.8020216114737,3468
2278.6750289692845,3418
2280.5476053912294,3461
2282.4197511572766,3434
2284.2914665474727,3356
2286.162751841943,3412
2288.0336073208937,3428
2289.904033264608,3472
2291.774029953448,3358
2293.6435976678554,3351
2295.5127366883517,3507
2297.381447295534,3410
2299.2497297700825,3509
2301.1175843927526,3372
2302.9850114443825,3408
2304.852011205885,3428
2306.7185839582553,3391
2308.5847299825664,3467
2310.4504495599676,3434
2312.3157429716925,3518
2314.1806104990483,3413
2316.0450524234247,3472
2317.9090690262888,3520
2319.772660589186,3394
2321.635827393742,3502
2323.498569721661,3480
2325.3608878547248,3542
2327.2227820747967,3478
2329.0842526638157,3509
2330.945299903803,3486
2332.805924076857,3495
2334.6661254651535,3348
2336.525904350951,3467
2338.3852610165827,3477
2340.244195744464,3475
2342.102708817088,3423
2343.9608005170253,3572
2345.8184711269287,3445
2347.675720929526,3485
2349.532550207628,3505
2351.38895924412,3508
2353.24494832197,3491
2355.100517724223,3483
2356.955667734004,3554
2358.810398634514,3495
2360.664710709037,3458
2362.5186042409337,3469
2364.3720795136437,3454
2366.225136810686,3462
2368.0777764156583,3408
2369.929998612237,3541
2371.7818036841777,3532
2373.633191915315,3562
2375.484163589562,3467
2377.3347189909114,3463
2379.184858403434,3489
2381.03458211128,3584
2382.8838903986775,3594
2384.732783549936,3541
2386.5812618494406,3432
2388.4293255816588,3457
2390.2769750311327,3537
2392.1242104824883,3426
2393.971032220427,3495
2395.8174405297295,3538
2397.6634356952563,3497
2399.509018001947,3523
2401.3541877348193,3524
2403.1989451789705,3480
2405.043290619576,3464
2406.8872243418905,3521
2408.730746631247,3440
2410.5738577730594,3420
2412.4165580528183,3424
2414.258847756095,3527
2416.100727168537,3492
2417.9421965758734,3567
2419.783256263912,3461
2421.623906518538,3474
2423.4641476257157,3544
2425.303979871491,3479
2427.143403541984,3434
2428.9824189233977,3409
2430.821026302012,3532
2432.6592259641866,3500
2434.497018196361,3493
2436.33440328505,3547
2438.171381516851,3475
2440.00795317844,3600
2441.844118556569,3477
2443.6798779380724,3506
2445.5152316098606,3467
2447.3501798589255,3425
2449.1847229723357,3425
2451.0188612372403,3417
2452.8525949408663,3518
2454.6859243705203,3494
2456.518849813587,3566
2458.3513715575314,3522
2460.183489889895,3483
2462.015205098301,3490
2463.8465174704493,3511
2465.67742729412,3532
2467.5079348571717,3441
2469.338040447542,3537
2471.1677443532476,3473
2472.9970468623833,3504
2474.825948263123,3466
2476.6544488437207,3460
2478.482548892508,3428
2480.310248697896,3437
2482.137548548374,3458
2483.9644487325118,3574
2485.790949538956,3465
2487.617051256433,3493
2489.44275417375,3531
2491.26805857979,3482
2493.0929647635157,3499
2494.917473013971,3601
2496.741583620276,3528
2498.5652968716304,3593
2500.3886130573137,3499
2502.2115324666834,3586
2504.0340553891765,3587
2505.856182114308,3566
2507.6779129316733,3513
2509.499248130945,3535
2511.3201880018764,3527
2513.140732834298,3562
2514.9608829181198,3617
2516.780638543331,3522
2518.6,3501
2520.418967578273,3572
2522.237541568376,3508
2524.0557222606144,3560
2525.8735099453706,3546
2527.6909049131086,3507
2529.507907454368,3547
2531.32451785977,3579
2533.140736420014,3542
2534.9565634258774,3510
2536.771999168218,3508
2538.5870439379714,3625
2540.4016980261526,3587
2542.2159617238544,3628
2544.02983532225,3545
2545.8433191125914,3652
2547.656413386209,3454
2549.4691184345115,3551
2551.2814345489874,3507
2553.093362021204,3667
2554.904901142808,3598
2556.716052205523,3737
2558.526815501153,3693
2560.3371913215824,3653
2562.147179958771,3705
2563.956781704761,3614
2565.7659968516705,3755
2567.5748256916986,3655
2569.3832685171224,3530
2571.1913256202984,3694
2572.9989972936614,3634
2574.806283829725,3674
2576.613185521084,3644
2578.4197026604074,3756
2580.2258355404483,3677
2582.031584454035,3693
2583.836949694077,3686
2585.6419315535613,3756
2587.4465303255533,3679
2589.2507463032002,3832
2591.0545797797245,3763
2592.8580310484303,3746
2594.6611004026995,3783
2596.463788135992,3730
2598.266094541849,3757
2600.0680199138874,3756
2601.869564545807,3780
2603.670728731383,3840
2605.4715127644704,3701
2607.2719169390048,3759
2609.071941548998,3725
2610.8715868885433,3834
2612.670853251811,3822
2614.469740933052,3779
2616.268250226594,3801
2618.0663814268455,3815
2619.864134828292,3894
2621.6615107255006,3797
2623.458509413115,3778
2625.2551311858597,3850
2627.0513763385347,3695
2628.8472451660223,3756
2630.6427379632833,3764
2632.4378550253564,3758
2634.232596647359,3729
2636.026963124488,3672
2637.8209547520187,3732
2639.6145718253065,3756
2641.407814639785,3501
2643.200683490966,3712
2644.9931786744414,3712
2646.7853004858807,3696
2648.577049221034,3649
2650.3684251757277,3691
2652.1594286458712,3653
2653.9500599274484,3665
2655.740319316525,3585
2657.5302071092437,3671
2659.3197236018286,3547
2661.10886909058,3635
2662.8976438718782,3657
2664.686048242183,3595
2666.4740824980327,3664
2668.2617469360443,3555
2670.0490418529134,3520
2671.8359675454153,3479
2673.622524310403,3549
2675.408712444811,3534
2677.1945322456495,3509
2678.979984010009,3518
2680.76506803506,3512
2682.5497846180497,3390
2684.334134056306,3500
2686.1181166472343,3422
2687.9017326883213,3536
2689.6849824771293,3559
2691.4678663113013,3437
2693.2503844885596,3518
2695.032537306705,3504
2696.8143250636167,3390
2698.5957480572542,3423
2700.3768065856534,3521
2702.1575009469316,3378
2703.937831439283,3505
2705.717798360982,3399
2707.4974020103837,3448
2709.276642685917,3477
2711.055520686095,3385
2712.834036309506,3405
2714.612189854819,3373
2716.389981620782,3355
2718.1674119062204,3441
2719.944481010041,3392
2721.721189231226,3483
2723.4975368688415,3269
2725.273524222027,3320
2727.0491515900053,3412
2728.824419272075,3415
2730.5993275676146,3413
2732.3738767760838,3336
2734.148067197016,3417
2735.921899130031,3362
2737.6953728748194,3395
2739.468488731156,3465
2741.2412469988926,3396
2743.0136479779617,3356
2744.785691968372,3347
2746.5573792702116,3382
2748.3287101836504,3389
2750.099685008934,3452
2751.870304046388,3338
2753.640567596418,3311
2755.4104759595057,3305
2757.1800294362156,3408
2758.949228327187,3424
2760.7180729331412,3438
2762.486563554877,3305
2764.254700493272,3304
2766.022484049284,3447
2767.789914523947,3374
2769.5569922183786,3296
2771.3237174337705,3372
2773.090090471394,3320
2774.8561116326036,3371
2776.6217812188274,3373
2778.3870995315756,3496
2780.1520668724356,3323
2781.9166835430747,3394
2783.6809498452394,3350
2785.444866080754,3500
2787.2084325515225,3387
2788.971649559527,3358
2790.73451740683,3484
2792.4970363955713,3390
2794.2592068279705,3386
2796.0210290063264,3429
2797.7825032330147,3362
2799.543629810493,3348
2801.304409041296,3430
2803.0648412280366,3395
2804.8249266734088,3441
2806.5846656801846,3402
2808.344058551212,3443
2810.1031055894246,3454
2811.8618070978273,3462
2813.6201633795085,3341
2815.378174737636,3387
2817.1358414754536,3427
2818.893163896285,3413
2820.6501423035334,3468
2822.4067770006814,3367
2824.1630682912883,3350
2825.9190164789957,3412
2827.6746218675207,3414
2829.429884760661,3408
2831.184805462294,3367
2832.9393842763743,3431
2834.693621506936,3338
2836.4475174580916,3438
2838.201072434034,3412
2839.954286739034,3414
2841.707160677441,3322
2843.459694553685,3413
2845.2118886722724,3450
2846.96374333779,3364
2848.7152588549034,3363
2850.4664355283567,3411
2852.217273662973,3290
2853.9677735636546,3405
2855.7179355353833,3389
2857.4677598832186,3486
2859.217246912299,3437
2860.9663969278427,3444
2862.715210235146,3390
2864.4636871395846,3413
2866.211827946614,3444
2867.9596329617652,3400
2869.7071024906536,3453
2871.4542368389684,3405
2873.20103631248,3441
2874.947501217038,3390
2876.6936318585695,3321
2878.4394285430812,3307
2880.1848915766604,3279
2881.9300212654707,3484
2883.6748179157553,3395
2885.4192818338374,3394
2887.1634133261173,3440
2888.907212699077,3339
2890.6506802592744,3348
2892.393816313348,3311
2894.1366211680142,3421
2895.8790951300693,3430
2897.621238506388,3368
2899.363051603925,3402
2901.1045347297118,3365
2902.8456881908596,3448
2904.58651229456,3382
2906.327007348081,3494
2908.067173658772,3472
2909.8070115340597,3394
2911.5465212814497,3488
2913.285703208527,3399
2915.0245576229563,3396
2916.7630848324807,3344
2918.5012851449196,3363
2920.2391588681758,3386
2921.976706310227,3421
2923.7139277791334,3450
2925.4508235830313,3371
2927.187394030137,3385
2928.923639428745,3350
2930.6595600872306,3370
2932.395156314046,3372
2934.1304284177218,3309
2935.8653767068713,3364
2937.6000014901815,3455
2939.3343030764227,3440
2941.068281774442,3488
2942.8019378931644,3491
2944.5352717415976,3462
2946.2682836288236,3378
2948.0009738640065,3442
2949.7333427563885,3369
2951.465390615289,3347
2953.1971177501086,3359
2954.9285244703265,3309
2956.6596110855,3334
2958.3903779052657,3328
2960.1208252393385,3352
2961.8509533975125,3291
2963.5807626896617,3314
2965.3102534257378,3415
2967.0394259157715,3388
2968.768280469873,3404
2970.496817398232,3353
2972.2250370111146,3388
2973.952939618869,3331
2975.6805255319196,3362
2977.4077950607707,3402
2979.134748516006,3472
2980.861386208289,3427
2982.587708448359,3462
2984.313715547037,3428
2986.039407815222,3355
2987.764785563891,3388
2989.489849104102,3369
2991.2145987469908,3478
2992.9390348037705,3405
2994.6631575857346,3405
2996.3869674042576,3482
2998.1104645707887,3365
2999.83364939686,3492
3001.5565221940783,3459
3003.2790832741334,3418
3005.0013329487924,3424
3006.7232715298996,3323
3008.4448993293804,3318
3010.166216659239,3364
3011.887223831558,3339
3013.607921158498,3381
3015.3283089522993,3371
3017.0483875252826,3439
3018.7681571898443,3318
3020.4876182584626,3262
3022.2067710436927,3315
3023.9256158581707,3421
3025.644153014609,3390
3027.362382825801,3426
3029.0803056046193,3318
3030.797921664012,3410
3032.5152313170106,3416
3034.2322348767225,3360
3035.9489326563353,3374
3037.665324969115,3316
3039.3814121284063,3475
3041.097194447633,3375
3042.812672240299,3384
3044.5278458199855,3460
3046.2427155003525,3302
3047.9572815951406,3450
3049.671544418167,3297
3051.38550428333,3384
3053.0991615046073,3463
3054.812516396051,3390
3056.5255692717974,3474
3058.2383204460575,3410
3059.9507702331257,3462
3061.662918947372,3483
3063.3747669032446,3337
3065.0863144152736,3395
3066.7975617980674,3386
3068.508509366309,3391
3070.219157434767,3418
3071.9295063182844,3509
3073.639556331785,3441
3075.3493077902704,3373
3077.058761008821,3352
3078.7679163025964,3389
3080.476773986837,3423
3082.1853343768594,3465
3083.89359778806,3334
3085.6015645359153,3387
3087.3092349359786,3290
3089.016609303884,3399
3090.7236879553434,3347
3092.4304712061476,3336
3094.136959372166,3267
3095.843152769349,3362
3097.5490517137237,3347
3099.2546565213966,3368
3100.959967508554,3436
3102.66498499146,3318
3104.3697092864577,3326
3106.0741407099695,3390
3107.778279578498,3348
3109.482126208622,3423
3111.1856809170004,3437
3112.8889440203716,3456
3114.5919158355528,3447
3116.294596679439,3362
3117.996986869006,3377
3119.6990867213062,3376
3121.4008965534726,3445
3123.102416682717,3481
3124.803647426329,3373
3126.5045891016784,3354
3128.205242026213,3337
3129.90560651746,3386
3131.605682893025,3395
3133.3054714705922,3386
3135.0049725679282,3424
3136.7041865028714,3250
3138.4031135933465,3375
3140.101754157353,3422
3141.800108512971,3376
3143.498176978357,3389
3145.1959598717494,3392
3146.8934575114636,3504
3148.5906702158954,3360
3150.2875983035183,3397
3151.9842420928853,3283
3153.680601902627,3393
3155.376678051456,3373
3157.07247085816,3362
3158.767980641609,3242
3160.463207720748,3303
3162.158152414606,3351
3163.8528150422862,3391
3165.5471959229726,3380
3167.2412953759303,3371
3168.9351137204976,3340
3170.628651276098,3379
3172.3219083622307,3395
3174.014885298474,3436
3175.707582404485,3369
3177.4000000000005,3384
3179.092138404835,3321
3180.7839979388846,3419
3182.47557892212,3385
3184.166881674594,3371
3185.8579065164386,3357
3187.5486537678626,3453
3189.2391237491547,3509
3190.9293167806827,3351
3192.6192331828934,3344
3194.3088732763117,3347
3195.998237381542,3355
3197.687325819268,3451
3199.376138910251,3407
3201.064676975334,3400
3202.7529403354347,3349
3204.4409293115523,3340
3206.1286442247647,3420
3207.816085396229,3356
3209.5032531471825,3294
3211.190147798936,3438
3212.8767696728846,3243
3214.5631190905015,3301
3216.2491963733373,3269
3217.9350018430214,3295
3219.6205358212637,3263
3221.305798629851,3241
3222.990790590651,3209
3224.6755120256103,3286
3226.359963256751,3379
3228.0441446061795,3198
3229.7280563960758,3359
3231.411698948703,3360
3233.0950725863995,3425
3234.778177631587,3371
3236.461014406761,3386
3238.1435832345005,3369
3239.8258844374595,3367
3241.507918338374,3310
3243.1896852600576,3315
3244.8711855254023,3370
3246.552419457381,3386
3248.233387379042,3293
3249.914089613516,3302
3251.59452648401,3374
3253.274698313813,3396
3254.95460542629,3268
3256.6342481448855,3171
3258.313626793125,3248
3259.9927416946084,3220
3261.6715931730196,3317
3263.3501815521176,3223
3265.0285071557437,3200
3266.706570307815,3266
3268.3843713323286,3227
3270.0619105533615,3185
3271.739188295068,3273
3273.4162048816834,3292
3275.0929606375184,3363
3276.769455886966,3365
3278.445690954498,3287
3280.1216661646613,3369
3281.797381842087,3394
3283.4728383114807,3321
3285.1480358976296,3264
3286.8229749253996,3378
3288.4976557197333,3277
3290.172078605655,3396
3291.846243908266,3264
3293.5201519527463,3291
3295.193803064357,3257
3296.8671975684374,3296
3298.5403357904024,3301
3300.21321805575,3345
3301.8858446900567,3246
3303.558216018975,3226
3305.23033236824,3255
3306.9021940636603,3257
3308.57380143113,3319
3310.2451547966184,3321
3311.916254486174,3211
3313.5871008259246,3231
3315.2576941420766,3301
3316.9280347609147,3209
3318.5981230088046,3308
3320.2679592121895,3167
3321.9375436975924,3259
3323.606876791612,3227
3325.27595882093,3229
3326.944790112305,3187
3328.6133709925753,3190
3330.2817017886573,3199
3331.949782827547,3315
3333.617614436319,3307
3335.2851969421245,3199
3336.952530672199,3245
3338.619615953853,3272
3340.286453114475,3316
3341.9530424815357,3370
3343.619384382583,3391
3345.2854791452437,3248
3346.951327097224,3327
3348.6169285663073,3364
3350.2822838803577,3309
3351.947393367319,3334
3353.61225735521,3319
3355.2768761721345,3234
3356.9412501462693,3314
3358.605379605873,3279
3360.2692648792827,3296
3361.9329062949146,3263
3363.596304181263,3224
