CollectionTime,6/28/2024 2:15:17 PM
ExposureUsed,3
CalibratedSpectrum
-962.7078968117929,1735
-959.9714848408522,1995
-957.2358232597828,1892
-954.5009119013725,1815
-951.7667505983302,1866
-949.0333391832855,1844
-946.3006774887896,1844
-943.5687653473143,1855
-940.837602591253,1907
-938.1071890529199,1794
-935.3775245645503,1888
-932.6486089583007,1834
-929.9204420662485,1830
-927.1930237203925,1770
-924.4663537526524,1887
-921.7404319948689,1868
-919.0152582788041,1948
-916.2908324361409,1933
-913.5671542984834,1944
-910.8442236973568,1850
-908.1220404642074,1847
-905.4006044304027,1828
-902.679915427231,1893
-899.959973285902,1910
-897.2407778375464,1837
-894.5223289132158,1765
-891.8046263438832,1853
-889.0876699604426,1811
-886.3714595937089,1841
-883.6559950744183,1818
-880.9412762332282,1791
-878.2273029007168,1734
-875.5140749073835,1842
-872.8015920836489,1713
-870.0898542598545,1753
-867.3788612662631,1728
-864.6686129330585,1743
-861.9591090903457,1744
-859.2503495681506,1762
-856.5423341964203,1759
-853.8350628050229,1763
-851.1285352237478,1764
-848.4227512823054,1823
-845.7177108103272,1736
-843.0134136373656,1646
-840.3098595928943,1717
-837.6070485063082,1787
-834.9049802069229,1734
-832.2036545239757,1794
-829.5030712866244,1754
-826.8032303239481,1723
-824.1041314649472,1728
-821.4057745385428,1813
-818.7081593735775,1777
-816.0112857988148,1710
-813.3151536429393,1751
-810.6197627345566,1722
-807.9251129021936,1733
-805.2312039742981,1737
-802.5380357792392,1796
-799.8456081453069,1814
-797.1539209007124,1757
-794.462973873588,1718
-791.772766891987,1705
-789.083299783884,1763
-786.3945723771743,1759
-783.7065844996748,1708
-781.0193359791231,1728
-778.3328266431781,1751
-775.6470563194197,1751
-772.9620248353489,1794
-770.2777320183878,1729
-767.5941776958798,1715
-764.9113616950891,1736
-762.2292838432011,1714
-759.5479439673222,1743
-756.8673418944801,1793
-754.1874774516235,1736
-751.5083504656222,1751
-748.8299607632671,1696
-746.15230817127,1752
-743.475392516264,1734
-740.7992136248035,1710
-738.1237713233636,1758
-735.4490654383407,1721
-732.7750957960521,1743
-730.1018622227365,1715
-727.4293645445534,1746
-724.7576025875837,1763
-722.0865761778291,1729
-719.4162851412126,1808
-716.7467293035781,1821
-714.0779084906909,1824
-711.409822528237,1814
-708.7424712418238,1781
-706.0758544569796,1799
-703.4099719991541,1788
-700.7448236937178,1812
-698.0804093659622,1798
-695.4167288411002,1842
-692.7537819442656,1799
-690.0915685005134,1810
-687.4300883348199,1782
-684.7693412720819,1769
-682.1093271371178,1762
-679.4500457546669,1857
-676.7914969493897,1785
-674.1336805458676,1776
-671.4765963686034,1838
-668.8202442420206,1890
-666.1646239904642,1880
-663.5097354382001,1839
-660.8555784094151,1772
-658.2021527282176,1794
-655.5494582186366,1806
-652.8974947046223,1858
-650.2462620100463,1898
-647.5957599587009,1801
-644.9459883742998,1851
-642.2969470804776,1866
-639.6486359007902,1929
-637.0010546587141,1898
-634.3542031776476,1914
-631.7080812809096,1881
-629.0626887917401,1794
-626.4180255333008,1833
-623.7740913286734,1859
-621.1308860008619,1810
-618.4884093727904,1875
-615.8466612673046,1893
-613.2056415071715,1835
-610.5653499150785,1824
-607.9257863136347,1790
-605.28695052537,1798
-602.6488423727357,1818
-600.0114616781036,1799
-597.3748082637674,1885
-594.7388819519412,1820
-592.1036825647604,1797
-589.4692099242818,1827
-586.8354638524829,1877
-584.2024441712624,1827
-581.5701507024403,1819
-578.9385832677575,1876
-576.3077416888759,1888
-573.6776257873787,1823
-571.0482353847704,1894
-568.4195703024757,1993
-565.7916303618415,1905
-563.164415384135,1970
-560.5379251905453,1837
-557.9121596021815,1850
-555.2871184400748,1848
-552.6628015251767,1871
-550.0392086783606,1882
-547.4163397204204,1857
-544.794194472071,1896
-542.1727727539491,1883
-539.5520743866118,1913
-536.9320991905377,1909
-534.3128469861261,1931
-531.6943175936979,1984
-529.0765108334947,1962
-526.4594265256793,2106
-523.8430644903358,2217
-521.2274245474689,2344
-518.612506517005,2527
-515.9983102187913,2480
-513.3848354725959,2621
-510.77208209810846,2646
-508.16004991493924,2623
-505.5487387426199,2763
-502.9381484006032,2959
-500.3282787082628,3169
-497.71912948489364,3140
-495.1107005497117,3176
-492.5029917218539,3035
-489.8960028203786,2842
-487.28973366426493,2661
-484.68418407241325,2516
-482.07935386364494,2396
-479.47524285670266,2249
-476.87185087025,2227
-474.2691777228715,2244
-471.66722323307334,2201
-469.0659872192821,2185
-466.4654694998459,2189
-463.86566989303384,2214
-461.26658821703614,2090
-458.66822428996414,2125
-456.07057792985,2170
-453.4736489546475,2145
-450.877437182231,2088
-448.28194243039627,2008
-445.68716451686,1984
-443.09310325926003,1998
-440.49975847515555,2019
-437.9071299820263,2055
-435.31521759727354,2125
-432.72402113821954,2110
-430.13354042210767,2076
-427.5437752661022,2195
-424.95472548728867,2222
-422.36639090267386,2101
-419.7787713291855,2089
-417.1918665836721,2159
-414.60567648290385,2160
-412.0202008435715,2171
-409.4354394822874,2162
-406.8513922155845,2218
-404.26805885991723,2194
-401.685439231661,2099
-399.103533147112,2148
-396.522340422488,2103
-393.9418608739278,2093
-391.3620943174908,1979
-388.7830405691583,1930
-386.2046994448317,1832
-383.6270707603344,1704
-381.05015433141045,1564
-378.473949973725,1434
-375.8984575028645,1308
-373.32367673433623,1135
-370.74960748356875,1107
-368.1762495659117,939
-365.60360279663576,873
-363.03166699093265,751
-360.4604419639154,680
-357.8899275306178,609
-355.32012350599507,608
-352.7510297049233,589
-350.1826459421999,545
-347.61497203254316,558
-345.04800779059235,578
-342.4817530309082,516
-339.91620756797226,499
-337.35137121618743,516
-334.7872437898774,551
-332.22382510328725,540
-329.66111497058273,584
-327.09911320585127,604
-324.53781962310075,619
-321.9772340362607,664
-319.4173562591816,647
-316.8581861056348,576
-314.2997233893127,609
-311.7419679238294,632
-309.1849195227194,595
-306.62857799943856,549
-304.0729431673641,522
-301.51801483979375,562
-298.963792829947,548
-296.41027695096386,575
-293.85746701590574,629
-291.3053628377552,688
-288.7539642294155,778
-286.2032710037115,736
-283.65328297338897,651
-281.1039999511146,702
-278.5554217494762,673
-276.007548180983,722
-273.4603790580651,674
-270.9139141930734,612
-268.3681533982807,658
-265.8230964858798,669
-263.27874326798565,699
-260.7350935566336,732
-258.1921471637804,669
-255.6499039013039,653
-253.10836358100266,639
-250.56752601459698,671
-248.02739101372765,786
-245.48795838995704,888
-242.94922795476816,803
-240.41119951956557,703
-237.8738728956746,807
-235.33724789434166,966
-232.80132432673452,994
-230.2661020039418,850
-227.73158073697357,738
-225.19776033676033,720
-222.66464061415422,728
-220.1322213799284,706
-217.60050244477725,765
-215.06948361931552,813
-212.53916471408013,826
-210.00954553952818,762
-207.48062590603843,826
-204.9524056239104,996
-202.4248845033651,922
-199.8980623545441,769
-197.37193898751036,821
-194.84651421224817,853
-192.32178783866232,874
-189.79775967657952,867
-187.27442953574644,968
-184.7517972258321,894
-182.2298625564256,862
-179.7086253370378,923
-177.18808537710026,898
-174.66824248596583,825
-172.14909647290835,971
-169.6306471471229,913
-167.11289431772548,939
-164.59583779375328,994
-162.07947738416453,979
-159.5638128978386,883
-157.04884414357605,987
-154.53457093009854,1081
-152.02099306604828,1117
-149.50811035998936,1060
-146.99592262040665,1137
-144.48442965570587,1198
-141.97363127421409,1366
-139.46352728417958,1286
-136.95411749377126,1186
-134.44540171107985,1304
-131.93737974411636,1311
-129.43005140081357,1399
-126.92341648902493,1518
-124.41747481652521,1524
-121.91222619101006,1474
-119.40767042009657,1443
-116.90380731132257,1458
-114.40063667214702,1529
-111.8981583099503,1348
-109.3963720320337,1425
-106.89527764561933,1608
-104.39487495785067,1775
-101.89516377579241,1854
-99.39614390642998,1996
-96.89781515667039,1866
-94.40017733334128,2046
-91.90323024319173,1853
-89.40697369289148,1896
-86.91140748903172,1855
-84.41653143812482,1900
-81.92234534660395,2165
-79.42884902082358,2386
-76.93604226705907,2468
-74.4439248915071,2113
-71.95249670028534,2248
-69.46175749943245,2429
-66.97170709490854,3006
-64.48234529259423,3250
-61.99367189829195,2699
-59.50568671772464,2684
-57.01838955653636,3011
-54.53178022029283,3198
-52.045858514480074,3068
-49.560624244506016,3323
-47.07607721569923,3498
-44.59221723330904,3729
-42.10904410250669,3836
-39.62655762838392,4456
-37.14475761595372,5424
-34.66364387015028,6802
-32.18321619582866,8164
-29.70347439776515,9350
-27.224418280657005,10209
-24.74604764912317,15165
-22.26836230770266,24659
-19.7913620608565,39800
-17.315046712966478,52777
-14.83941606833514,65030
-12.36446993118659,65030
-9.89020810566592,65030
-7.416630395839093,65030
-4.94373660569363,65030
-2.471526539137585,65030
-6.821210263296962E-13,65030
2.47084320796705,65030
4.941003281093458,65030
7.410480415786196,65030
9.879274808531363,65030
12.347386655893956,65030
14.814816154518212,65030
17.28156350112681,65030
19.74762889252179,65030
22.21301252558385,65030
24.67771459727237,38048
27.141735304626195,13938
29.605074844762612,8677
32.06773341487792,10685
34.52971121224755,13129
36.99100843422559,11839
39.45162527824516,10133
41.91156194181792,8243
44.370818622535126,8997
46.82939551806646,10898
49.287292826160524,13659
51.74451074464503,13955
54.201049471426245,10508
56.65690920448981,8426
59.112090141899785,5894
61.56659248179983,5225
64.02041642241159,4197
66.4735621620365,4047
68.92602989905402,3129
71.37781983192338,2868
73.82893215918205,3361
76.27936707944684,3546
78.72912479141326,2987
81.17820549385567,3135
83.62660938562783,2896
86.07433666566146,2695
88.5213875329681,2747
90.96776218663751,2275
93.41346082583925,2263
95.85848364982041,2441
98.30283085790859,2482
100.7465026495089,2166
103.18949922410604,2167
105.63182078126385,1951
108.07346752062438,2254
110.51443964190923,1932
112.95473734491827,1483
115.39436082953114,1437
117.83331029570547,1648
120.27158594347827,1949
122.7091879729652,1494
125.1461165843615,1459
127.58237197794062,1697
130.01795435405518,1595
132.4528639131364,1531
134.88710085569494,1669
137.32066538231982,1678
139.75355769367923,1725
142.1857779905207,1777
144.61732647366978,1996
147.04820334403132,1869
149.47840880258934,1714
151.90794305040674,1998
154.33680628862487,2110
156.76499871846443,2116
159.19252054122433,2340
161.61937195828352,2643
164.04555317109896,2836
166.47106438120693,3008
168.89590579022217,3638
171.320077599839,3715
173.7435800118302,3829
176.16641322804742,4078
178.58857745042144,4348
181.01007288096173,4346
183.43089972175687,4527
185.85105817497413,4594
188.27054844285988,4799
190.6893707277394,4649
193.10752523201643,4757
195.5250121581745,4806
197.9418317087751,4954
200.3579840864594,5018
202.7734694939469,5094
205.18828813403627,4888
207.6024402096051,4855
210.01592592360964,4871
212.42874547908548,4838
214.84089907914665,4659
217.2523869269868,4794
219.66320922587727,4623
222.0733661791695,4764
224.48285799029293,4658
226.8916848627572,4840
229.29984700014882,4898
231.7073446061355,4933
234.11417788446204,4871
236.520347038953,4900
238.92585227351185,4965
241.33069379212054,4934
243.73487179884035,4880
246.1383864978112,4907
248.541238093252,5169
250.9434267894609,5000
253.34495279081432,4933
255.74581630176783,4865
258.1460175268563,4904
260.54555667069314,4934
262.9444339379703,4992
265.3426495334594,4910
267.7402036620107,4877
270.1370965285529,4842
272.53332833809407,4748
274.9288992957214,4729
277.32380960660055,4636
279.718059475976,4545
282.1116491091717,4575
284.5045787115897,4573
286.89684848871195,4531
289.2884586460981,4575
291.67940938938807,4441
294.0697009242996,4502
296.4593334566299,4458
298.84830719225477,4510
301.23662233712923,4544
303.6242790972866,4571
306.01127767884,4487
308.39761828798066,4537
310.78330113097934,4500
313.16832641418534,4379
315.5526943440269,4387
317.9364051270112,4283
320.3194589697242,4322
322.70185607883093,4270
325.0835966610754,4282
327.4646809232805,4303
329.8451090723478,4269
332.2248813152577,4227
334.6039978590701,4171
336.9824589109231,4129
339.36026467803447,4143
341.7374153677,4195
344.113911187295,4071
346.48975234427337,4228
348.8649390461686,4093
351.2394715005918,4195
353.61334991523415,4032
355.9865744978655,4086
358.35914545633375,4169
360.73106299856715,4082
363.10232733257146,4095
365.47293866643247,4112
367.84289720831396,4180
370.2122031664593,4127
372.5808567491905,4094
374.9488581649083,3906
377.31620762209275,4093
379.6829053293021,4058
382.0489514951745,3990
384.4143463284262,4005
386.7790900378528,3997
389.14318283232853,4002
391.50662492080653,3867
393.86941651231916,3987
396.23155781597745,4020
398.5930490409713,3873
400.9538903965696,3950
403.3140820921202,4014
405.6736243370498,3960
408.03251734086336,3869
410.3907613131465,3902
412.74835646356166,4058
415.10530300185144,4006
417.4616011378372,4073
419.81725108141893,3956
422.1722530425758,3926
424.5266072313656,3861
426.880313857925,3888
429.2333731324701,3936
431.58578526529516,3838
433.9375504667738,3845
436.2886689473588,3976
438.63914091758113,3787
440.9889665880513,3870
443.33814616945835,3895
445.68667987257015,3860
448.03456790823395,3875
450.3818104873759,3859
452.72840782100013,3876
455.07436012019105,3810
457.41966759611057,3886
459.7643304600007,3917
462.10834892318155,3869
464.4517231970525,3943
466.79445349309174,3924
469.1365400228566,3978
471.4779829979826,4027
473.81878263018564,3999
476.15893913125876,3987
478.4984527130747,3958
480.8373235875855,4038
483.17555196682144,4204
485.5131380628919,4179
487.8500820879857,4347
490.1863842543697,4480
492.52204477439034,4645
494.8570638604725,5090
497.1914417251204,5282
499.52517858091653,5510
501.85827464052306,5631
504.19073011668036,5643
506.5225452222086,5538
508.85372017000566,5446
511.18425517304956,5363
513.514150444396,5445
515.8434061971808,6064
518.1720226446176,6558
520.4999999999999,6946
522.8273384766991,7132
525.1540382881666,7200
527.480099647932,7018
529.8055227696037,5958
532.1303078668694,4905
534.454455153496,4378
536.777964843328,3967
539.1008371502907,3986
541.4230722883866,3852
543.744670471698,3880
546.0656319143858,3738
548.3859568306899,3825
550.7056454349294,3813
553.0246979415016,3724
555.3431145648834,3581
557.6608955196306,3707
559.978041020377,3727
562.2945512818363,3761
564.6104265188006,3716
566.9256669461412,3751
569.2402727788082,3755
571.5542442318302,3780
573.8675815203156,3789
576.1802848594508,3700
578.4923544645015,3798
580.8037905508126,3855
583.114593333807,3778
585.4247630289875,3783
587.7342998519354,3714
590.0432040183106,3779
592.3514757438526,3854
594.6591152443794,3821
596.9661227357875,3801
599.2724984340531,3858
601.578242555231,3764
603.8833553154542,3741
606.1878369309362,3767
608.4916876179676,3802
610.7949075929192,3813
613.0974970722403,3692
615.3994562724587,3745
617.7007854101818,3767
620.0014847020951,3921
622.3015543649641,3838
624.6009946156324,3894
626.8998056710224,3771
629.1979877481361,3729
631.4955410640538,3726
633.7924658359349,3885
636.0887622810175,3740
638.3844306166192,3737
640.6794710601358,3935
642.9738838290426,3762
645.2676691408932,3907
647.5608272133207,3795
649.853358264037,3793
652.1452625108324,3833
654.4365401715764,3790
656.7271914642178,3830
659.0172166067838,3846
661.3066158173809,3819
663.5953893141935,3902
665.8835373154867,3815
668.1710600396028,3870
670.4579577049639,3859
672.7442305300709,3832
675.0298787335033,3868
677.3149025339197,3828
679.599302150058,3765
681.8830778007342,3846
684.1662297048437,3831
686.4487580813608,3840
688.7306631493387,3791
691.0119451279091,3789
693.2926042362834,3869
695.5726406937516,3694
697.8520547196814,3847
700.1308465335215,3840
702.4090163547982,3889
704.6865644031171,3901
706.9634908981619,3780
709.2397960596965,3854
711.5154801075631,3796
713.7905432616823,3905
716.0649857420548,3818
718.3388077687592,3738
720.612009561953,3803
722.8845913418733,3783
725.1565533288352,3759
727.427895743234,3844
729.6986188055427,3792
731.9687227363137,3851
734.238207756178,3862
736.5070740858458,3679
738.7753219461066,3774
741.0429515578281,3768
743.3099631419569,3774
745.5763569195191,3902
747.8421331116193,3742
750.1072919394409,3866
752.3718336242467,3786
754.6357583873777,3755
756.8990664502545,3800
759.1617580343765,3817
761.423833361321,3785
763.6852926527457,3823
765.9461361303862,3772
768.206364016058,3901
770.4659765316536,3825
772.7249738991469,3755
774.9833563405886,3796
777.2411240781092,3799
779.4982773339183,3821
781.7548163303044,3686
784.010741289634,3699
786.2660524343538,3896
788.5207499869881,3774
790.7748341701416,3807
793.0283052064964,3879
795.2811633188143,3722
797.5334087299362,3759
799.7850416627813,3856
802.0360623403484,3815
804.2864709857143,3827
806.5362678220353,3707
808.7854530725468,3855
811.0340269605625,3821
813.2819897094754,3855
815.5293415427581,3800
817.77608268396,3836
820.0222133567116,3846
822.2677337847211,3896
824.5126441917765,3905
826.7569448017433,3894
829.0006358385675,3747
831.2437175262731,3857
833.4861900889629,3859
835.7280537508192,3790
837.9693087361026,3743
840.2099552691533,3852
842.4499935743896,3701
844.689423876309,3739
846.9282463994886,3693
849.1664613685833,3759
851.4040690083276,3798
853.6410695435349,3809
855.877463199097,3728
858.1132501999847,3823
860.3484307712487,3790
862.5830051380175,3753
864.8169735254988,3779
867.0503361589791,3759
869.2830932638243,3868
871.5152450654786,3815
873.7467917894654,3866
875.9777336613873,3840
878.2080709069252,3862
880.4378037518389,3802
882.666932421968,3881
884.8954571432301,3901
887.1233781416219,3920
889.3506956432192,3879
891.5774098741766,3873
893.803521060728,3875
896.0290294291852,3785
898.2539352059397,3917
900.4782386174619,3909
902.7019398903011,3948
904.925039251085,3911
907.147536926521,3897
909.3694331433943,3764
911.59072812857,3787
913.8114221089921,3767
916.0315153116827,3751
918.2510079637437,3912
920.4699002923547,3917
922.6881925247761,3729
924.905884888345,3853
927.1229776104793,3802
929.3394709186747,3838
931.555365040506,3747
933.7706602036275,3875
935.9853566357709,3771
938.1994545647489,3783
940.4129542184515,3784
942.6258558248488,3887
944.8381596119883,3653
947.0498658079974,3879
949.2609746410825,3751
951.4714863395287,3646
953.6814011316998,3685
955.8907192460387,3636
958.0994409110671,3772
960.3075663553858,3796
962.5150958076741,3656
964.7220294966913,3792
966.928367651274,3743
969.1341105003388,3724
971.3392582728806,3647
973.5438111979742,3672
975.747769504772,3637
977.9511334225061,3687
980.153903180487,3743
982.3560790081052,3598
984.5576611348289,3549
986.7586497902058,3602
988.9590452038618,3625
991.158847605503,3563
993.3580572249133,3501
995.5566742919558,3513
997.7546990365728,3558
999.952131688785,3557
1002.1489724786926,3409
1004.3452216364743,3418
1006.5408793923874,3432
1008.7359459767691,3484
1010.9304216200343,3533
1013.1243065526781,3487
1015.3176010052733,3271
1017.510305208472,3362
1019.7024193930064,3345
1021.8939437896848,3229
1024.0848786293977,3359
1026.2752241431122,3294
1028.4649805618747,3274
1030.6541481168115,3317
1032.842727039127,3316
1035.0307175601051,3387
1037.2181199111074,3392
1039.4049343235752,3279
1041.591161029029,3303
1043.7768002590683,3375
1045.9618522453698,3261
1048.1463172196918,3304
1050.3301954138697,3359
1052.513487059818,3307
1054.69619238953,3388
1056.8783116350783,3324
1059.0598450286152,3301
1061.2407928023704,3221
1063.4211551886528,3261
1065.6009324198508,3266
1067.780124728432,3279
1069.9587323469414,3243
1072.1367555080046,3219
1074.314194444325,3325
1076.4910493886855,3239
1078.667320573947,3232
1080.843008233051,3191
1083.0181125990161,3223
1085.1926339049414,3244
1087.3665723840027,3188
1089.5399282694575,3173
1091.7127017946405,3038
1093.8848931929647,3183
1096.0565026979243,3184
1098.2275305430899,3194
1100.3979769621128,3141
1102.567842188722,3139
1104.737126456726,3202
1106.9058300000124,3141
1109.0739530525475,3146
1111.2414958483764,3158
1113.4084586216231,3114
1115.5748416064907,3137
1117.7406450372605,3082
1119.9058691482942,3109
1122.0705141740304,3058
1124.2345803489884,3121
1126.3980679077658,2974
1128.5609770850388,3087
1130.7233081155623,3016
1132.8850612341707,3038
1135.0462366757774,2974
1137.2068346753745,3059
1139.3668554680326,3124
1141.526299288901,3102
1143.68516637321,3005
1145.8434569562655,3026
1148.001171273455,2969
1150.158309560244,3084
1152.3148720521767,3052
1154.470858984876,2946
1156.626270594044,3032
1158.7811071154629,3096
1160.9353687849912,3010
1163.089055838569,2944
1165.242168512213,2964
1167.3947070420209,2919
1169.5466716641677,2991
1171.6980626149075,2934
1173.8488801305748,3013
1175.9991244475814,3044
1178.1487958024186,3003
1180.2978944316555,2939
1182.4464205719428,2923
1184.5943744600072,2943
1186.7417563326567,2852
1188.8885664267755,2954
1191.0348049793297,2992
1193.1804722273619,2907
1195.325568407995,3006
1197.4700937584303,2944
1199.614048515948,3036
1201.7574329179074,2951
1203.900247201746,2880
1206.042491604982,2892
1208.1841663652099,2977
1210.3252717201053,2908
1212.465807907422,2943
1214.6057751649923,2919
1216.7451737307279,2954
1218.8840038426192,2932
1221.0222657387353,2936
1223.1599596572241,2960
1225.2970858363137,2977
1227.4336445143094,2982
1229.5696359295966,2866
1231.705060320639,2930
1233.8399179259786,2831
1235.9742089842384,3010
1238.107933734118,2986
1240.2410924143974,2993
1242.373685263935,2865
1244.5057125216676,2949
1246.6371744266116,2932
1248.7680712178621,2838
1250.898403134593,2905
1253.028170416058,2994
1255.1573733015875,2897
1257.2860120305932,2909
1259.4140868425648,2961
1261.54159797707,2923
1263.6685456737569,2928
1265.7949301723515,2943
1267.9207517126597,2921
1270.046010534565,2845
1272.1707068780306,2888
1274.2948409830983,2940
1276.4184130898889,2929
1278.541423438603,2953
1280.6638722695184,2942
1282.785759822993,2998
1284.9070863394636,3006
1287.0278520594447,2994
1289.1480572235314,3049
1291.2677020723963,3002
1293.3867868467923,3090
1295.5053117875495,3054
1297.623277135579,2997
1299.740683131868,3096
1301.8575300174857,3008
1303.973818033578,3060
1306.0895474213703,3048
1308.2047184221678,3042
1310.3193312773528,3037
1312.4333862283888,2970
1314.5468835168163,2915
1316.659823384255,3023
1318.7722060724045,3029
1320.8840318230418,3002
1322.9953008780249,3068
1325.1060134792888,3034
1327.2161698688478,3056
1329.3257702887959,2982
1331.4348149813054,2969
1333.5433041886276,2935
1335.6512381530933,3000
1337.7586171171101,2925
1339.8654413231675,2986
1341.9717110138317,2940
1344.0774264317488,2951
1346.1825878196432,2886
1348.2871954203192,3007
1350.3912494766587,2873
1352.4947502316231,2899
1354.5976979282532,2934
1356.7000928096686,2983
1358.8019351190665,2970
1360.9032250997243,2974
1363.0039629949988,2944
1365.1041490483235,3032
1367.2037835032133,2993
1369.3028666032606,3004
1371.401398592137,2852
1373.4993797135926,3020
1375.5968102114575,2874
1377.6936903296396,2916
1379.7900203121262,2891
1381.8858004029835,2896
1383.9810308463561,2984
1386.075711886469,2934
1388.1698437676241,3034
1390.2634267342032,3093
1392.356461030667,2933
1394.4489469015557,3002
1396.5408845914872,3030
1398.6322743451592,3002
1400.7231164073469,2958
1402.813411022907,3023
1404.903158436773,2898
1406.9923588939578,2926
1409.0810126395531,2943
1411.1691199187303,2941
1413.2566809767386,2959
1415.343696058907,2946
1417.4301654106425,3043
1419.5160892774315,3030
1421.6014679048399,2991
1423.6863015385125,3016
1425.7705904241707,2983
1427.8543348076178,3012
1429.9375349347342,3015
1432.0201910514802,3002
1434.102303403894,3073
1436.1838722380944,3079
1438.2648978002767,3096
1440.3453803367174,3105
1442.4253200937692,3179
1444.5047173178677,3139
1446.5835722555234,3135
1448.6618851533285,3149
1450.739656257952,3108
1452.8168858161434,3152
1454.8935740747306,3156
1456.96972128062,3234
1459.045327680797,3338
1461.120393522327,3304
1463.1949190523528,3251
1465.2689045180973,3305
1467.3423501668608,3352
1469.415256246024,3340
1471.4876230030463,3314
1473.559450685465,3315
1475.6307395408976,3438
1477.7014898170391,3466
1479.771701761665,3524
1481.8413756226287,3613
1483.9105116478618,3614
1485.9791100853772,3681
1488.0471711832643,3480
1490.1146951896926,3648
1492.1816823529098,3700
1494.2481329212433,3744
1496.3140471430984,3818
1498.3794252669609,3841
1500.4442675413939,3871
1502.5085742150404,3872
1504.572345536622,3869
1506.6355817549388,3965
1508.6982831188702,3931
1510.7604498773744,4058
1512.8220822794883,4184
1514.8831805743293,4071
1516.9437450110909,4238
1519.003775839048,4239
1521.0632733075522,4372
1523.1222376660367,4382
1525.1806691640113,4445
1527.2385680510652,4585
1529.2959345768668,4584
1531.3527689911643,4626
1533.4090715437833,4824
1535.4648424846291,4889
1537.5200820636855,4840
1539.5747905310159,5025
1541.6289681367616,5107
1543.6826151311434,5266
1545.7357317644614,5266
1547.7883182870937,5280
1549.8403749494987,5427
1551.8919020022113,5535
1553.9428996958477,5691
1555.9933682811015,5782
1558.0433080087469,5807
1560.0927191296346,5938
1562.1416018946961,5871
1564.1899565549415,5893
1566.2377833614592,6087
1568.2850825654164,5916
1570.3318544180606,5754
1572.3780991707158,5653
1574.423817074788,5407
1576.4690083817595,5348
1578.5136733431923,5018
1580.5578122107272,4765
1582.601425236085,4570
1584.6445126710646,4409
1586.6870747675434,4218
1588.7291117774776,3972
1590.7706239529034,3967
1592.8116115459347,3699
1594.8520748087658,3664
1596.8920139936686,3535
1598.9314293529933,3470
1600.9703211391711,3270
1603.008689604711,3379
1605.0465350022005,3129
1607.0838575843068,3156
1609.1206576037753,3182
1611.1569353134305,3165
1613.1926909661765,3015
1615.2279248149953,3017
1617.2626371129481,2954
1619.2968281131757,2925
1621.3304980688963,2805
1623.3636472334088,2853
1625.39627586009,2901
1627.428384202396,2758
1629.459972513861,2789
1631.4910410480993,2700
1633.5215900588028,2781
1635.551619799744,2746
1637.5811305247717,2699
1639.6101224878166,2768
1641.6385959428862,2706
1643.6665511440683,2680
1645.693988345528,2651
1647.7209078015112,2664
1649.7473097663405,2674
1651.7731944944203,2650
1653.7985622402307,2679
1655.823413258333,2623
1657.847747803366,2694
1659.8715661300494,2656
1661.8948684931793,2653
1663.9176551476316,2601
1665.9399263483624,2619
1667.9616823504057,2515
1669.982923408873,2533
1672.0036497789574,2581
1674.0238617159293,2575
1676.043559475138,2587
1678.0627433120121,2573
1680.081413482059,2587
1682.0995702408654,2599
1684.117213844096,2572
1686.134344547495,2553
1688.1509626068864,2541
1690.1670682781705,2611
1692.182661817329,2565
1694.1977434804217,2559
1696.2123135235875,2597
1698.226372203043,2601
1700.2399197750851,2622
1702.2529564960905,2545
1704.2654826225112,2597
1706.277498410882,2522
1708.2890041178139,2557
1710.2999999999988,2579
1712.3104863142066,2628
1714.3204633172854,2613
1716.329931266163,2499
1718.3388904178469,2511
1720.3473410294214,2565
1722.3552833580516,2564
1724.3627176609807,2504
1726.3696441955308,2537
1728.3760632191033,2482
1730.3819749891782,2540
1732.3873797633146,2558
1734.3922777991502,2470
1736.3966693544012,2519
1738.4005546868639,2540
1740.4039340544127,2496
1742.406807715001,2479
1744.4091759266616,2374
1746.4110389475054,2450
1748.4123970357223,2410
1750.413250449582,2494
1752.4135994474318,2447
1754.4134442876993,2434
1756.4127852288902,2460
1758.4116225295893,2481
1760.4099564484595,2448
1762.407787244244,2443
1764.405115175764,2495
1766.4019405019203,2471
1768.3982634816916,2438
1770.3940843741357,2445
1772.3894034383907,2485
1774.3842209336717,2410
1776.378537119274,2446
1778.372352254571,2386
1780.3656665990156,2413
1782.3584804121397,2430
1784.3507939535534,2362
1786.3426074829463,2402
1788.3339212600863,2436
1790.3247355448211,2390
1792.3150505970766,2405
1794.3048666768573,2347
1796.2941840442477,2437
1798.2830029594106,2390
1800.2713236825884,2459
1802.2591464741004,2405
1804.2464715943465,2395
1806.2332993038058,2423
1808.2196298630352,2386
1810.2054635326708,2393
1812.190800573428,2389
1814.175641246101,2386
1816.1599858115628,2436
1818.1438345307652,2344
1820.127187664738,2430
1822.1100454745924,2442
1824.092408221516,2337
1826.0742761667766,2356
1828.055649571721,2362
1830.0365286977735,2381
1832.0169138064398,2353
1833.9968051593014,2444
1835.9762030180214,2412
1837.9551076443408,2409
1839.9335193000788,2465
1841.9114382471344,2384
1843.888864747485,2317
1845.8657990631878,2376
1847.842241456378,2376
1849.8181921892697,2381
1851.7936515241558,2350
1853.7686197234098,2271
1855.7430970494815,2361
1857.7170837649014,2387
1859.6905801322787,2290
1861.6635864143004,2386
1863.6361028737338,2424
1865.608129773424,2389
1867.5796673762961,2352
1869.5507159453537,2408
1871.521275743678,2364
1873.4913470344313,2332
1875.4609300808534,2325
1877.4300251462632,2334
1879.3986324940588,2352
1881.366752387717,2403
1883.3343850907936,2295
1885.3015308669228,2406
1887.268189979819,2392
1889.2343626932739,2389
1891.2000492711595,2439
1893.1652499774254,2407
1895.1299650761011,2462
1897.0941948312952,2370
1899.0579395071945,2372
1901.0211993680641,2371
1902.98397467825,2372
1904.9462657021745,2412
1906.9080727043415,2489
1908.869395949332,2371
1910.8302357018065,2380
1912.790592226504,2476
1914.7504657882428,2406
1916.7098566519212,2387
1918.6687650825133,2408
1920.6271913450764,2403
1922.5851357047422,2356
1924.5425984267245,2458
1926.499579776314,2429
1928.4560800188833,2374
1930.4120994198802,2369
1932.367638244833,2457
1934.32269675935,2328
1936.2772752291175,2374
1938.231373919899,2355
1940.1849930975404,2354
1942.1381330279637,2369
1944.0907939771696,2334
1946.0429762112412,2345
1947.9946799963363,2350
1949.9459055986945,2360
1951.896653284633,2417
1953.8469233205478,2358
1955.7967159729142,2414
1957.7460315082863,2428
1959.6948701932974,2375
1961.6432322946594,2378
1963.5911180791632,2380
1965.5385278136787,2389
1967.4854617651545,2365
1969.4319202006182,2434
1971.377903387176,2344
1973.3234115920136,2372
1975.268445082395,2333
1977.2130041256642,2342
1979.1570889892423,2345
1981.1006999406304,2428
1983.04383724741,2404
1984.986501177238,2333
1986.928691997853,2320
1988.8704099770712,2351
1990.811655382789,2361
1992.7524284829801,2352
1994.692729545698,2391
1996.6325588390755,2322
1998.5719166313224,2366
2000.5108031907307,2303
2002.4492187856677,2370
2004.387163684583,2325
2006.3246381560011,2316
2008.2616424685298,2322
2010.1981768908527,2242
2012.1342416917332,2328
2014.069837140014,2311
2016.0049635046162,2276
2017.9396210545406,2257
2019.8738100588666,2279
2021.8075307867502,2367
2023.740783507431,2318
2025.6735684902228,2356
2027.6058860045214,2276
2029.5377363198004,2369
2031.4691197056118,2364
2033.4000364315875,2294
2035.3304867674374,2316
2037.260470982952,2311
2039.189989347998,2336
2041.1190421325232,2289
2043.047629606554,2332
2044.9757520401945,2306
2046.9034097036288,2400
2048.8306028671195,2398
2050.7573318010086,2290
2052.683596775716,2332
2054.609398061742,2382
2056.5347359296647,2261
2058.4596106501403,2236
2060.384022493906,2332
2062.3079717317764,2287
2064.231458634646,2244
2066.1544834734873,2391
2068.077046519352,2336
2069.99914804337,2335
2071.9207883167524,2310
2073.8419676107865,2382
2075.7626861968406,2233
2077.6829443463607,2333
2079.6027423308715,2329
2081.522080421977,2279
2083.440958891362,2323
2085.359378010786,2357
2087.2773380520907,2300
2089.194839287196,2258
2091.111881988101,2364
2093.0284664268825,2320
2094.9445928756973,2305
2096.86026160678,2317
2098.775472892446,2229
2100.690227005088,2299
2102.604524217178,2307
2104.5183648012676,2338
2106.431749029985,2318
2108.34467717604,2307
2110.2571495122206,2316
2112.169166311393,2275
2114.080727846503,2346
2115.9918343905747,2262
2117.902486216711,2333
2119.8126835980956,2300
2121.722426807987,2303
2123.6317161197285,2351
2125.5405518067364,2343
2127.448934142509,2368
2129.356863400624,2309
2131.264339854737,2404
2133.1713637785815,2375
2135.077935445972,2304
2136.9840551308002,2229
2138.889723107037,2376
2140.7949396487334,2353
2142.699705030018,2305
2144.6040195250994,2343
2146.507883408264,2322
2148.4112969538774,2370
2150.3142604363848,2332
2152.2167741303097,2254
2154.1188383102535,2395
2156.0204532508997,2338
2157.9216192270064,2254
2159.822336513414,2403
2161.7226053850413,2310
2163.622426116884,2330
2165.5217989840185,2332
2167.4207242616,2282
2169.319202224862,2361
2171.2172331491165,2307
2173.1148173097563,2326
2175.0119549822507,2375
2176.90864644215,2321
2178.8048919650823,2320
2180.7006918267534,2325
2182.596046302952,2367
2184.4909556695407,2314
2186.3854202024645,2304
2188.279440177746,2297
2190.173015871487,2267
2192.066147559868,2341
2193.958835519149,2324
2195.851080025667,2339
2197.7428813558417,2317
2199.6342397861667,2322
2201.5251555932186,2364
2203.415629053651,2370
2205.3056604441986,2391
2207.19525004167,2420
2209.084398122958,2345
2210.9731049650327,2455
2212.861370844941,2398
2214.749196039812,2360
2216.636580826851,2386
2218.523525483344,2359
2220.410030286655,2318
2222.296095514226,2341
2224.1817214435805,2366
2226.066908352319,2368
2227.951656518121,2406
2229.835966218746,2371
2231.71983773203,2401
2233.6032713358913,2409
2235.486267308324,2369
2237.3688259274036,2368
2239.2509474712824,2403
2241.132632218193,2336
2243.013880446447,2330
2244.8946924344323,2438
2246.7750684606203,2345
2248.6550088035574,2426
2250.534513741871,2386
2252.413583554265,2336
2254.292218519526,2301
2256.170418916517,2343
2258.0481850241786,2388
2259.925517121534,2424
2261.8024154876825,2353
2263.678880401803,2295
2265.5549121431536,2415
2267.430510991071,2379
2269.305677224971,2417
2271.180411124348,2416
2273.0547129687766,2410
2274.9285830379076,2417
2276.8020216114737,2346
2278.6750289692845,2455
2280.5476053912294,2446
2282.4197511572766,2402
2284.2914665474727,2339
2286.162751841943,2422
2288.0336073208937,2465
2289.904033264608,2397
2291.774029953448,2389
2293.6435976678554,2419
2295.5127366883517,2470
2297.381447295534,2391
2299.2497297700825,2418
2301.1175843927526,2412
2302.9850114443825,2461
2304.852011205885,2346
2306.7185839582553,2451
2308.5847299825664,2433
2310.4504495599676,2422
2312.3157429716925,2484
2314.1806104990483,2363
2316.0450524234247,2433
2317.9090690262888,2346
2319.772660589186,2407
2321.635827393742,2521
2323.498569721661,2417
2325.3608878547248,2547
2327.2227820747967,2456
2329.0842526638157,2475
2330.945299903803,2485
2332.805924076857,2453
2334.6661254651535,2495
2336.525904350951,2441
2338.3852610165827,2450
2340.244195744464,2436
2342.102708817088,2502
2343.9608005170253,2446
2345.8184711269287,2555
2347.675720929526,2510
2349.532550207628,2453
2351.38895924412,2483
2353.24494832197,2433
2355.100517724223,2470
2356.955667734004,2507
2358.810398634514,2544
2360.664710709037,2433
2362.5186042409337,2467
2364.3720795136437,2468
2366.225136810686,2548
2368.0777764156583,2511
2369.929998612237,2461
2371.7818036841777,2512
2373.633191915315,2450
2375.484163589562,2587
2377.3347189909114,2548
2379.184858403434,2590
2381.03458211128,2550
2382.8838903986775,2490
2384.732783549936,2510
2386.5812618494406,2523
2388.4293255816588,2494
2390.2769750311327,2549
2392.1242104824883,2507
2393.971032220427,2451
2395.8174405297295,2460
2397.6634356952563,2506
2399.509018001947,2562
2401.3541877348193,2462
2403.1989451789705,2546
2405.043290619576,2491
2406.8872243418905,2524
2408.730746631247,2487
2410.5738577730594,2528
2412.4165580528183,2458
2414.258847756095,2439
2416.100727168537,2525
2417.9421965758734,2568
2419.783256263912,2528
2421.623906518538,2582
2423.4641476257157,2591
2425.303979871491,2629
2427.143403541984,2585
2428.9824189233977,2464
2430.821026302012,2543
2432.6592259641866,2561
2434.497018196361,2534
2436.33440328505,2657
2438.171381516851,2577
2440.00795317844,2620
2441.844118556569,2598
2443.6798779380724,2618
2445.5152316098606,2602
2447.3501798589255,2528
2449.1847229723357,2546
2451.0188612372403,2618
2452.8525949408663,2512
2454.6859243705203,2570
2456.518849813587,2547
2458.3513715575314,2574
2460.183489889895,2591
2462.015205098301,2525
2463.8465174704493,2557
2465.67742729412,2556
2467.5079348571717,2549
2469.338040447542,2585
2471.1677443532476,2613
2472.9970468623833,2583
2474.825948263123,2547
2476.6544488437207,2588
2478.482548892508,2595
2480.310248697896,2631
2482.137548548374,2544
2483.9644487325118,2651
2485.790949538956,2670
2487.617051256433,2613
2489.44275417375,2585
2491.26805857979,2563
2493.0929647635157,2675
2494.917473013971,2604
2496.741583620276,2671
2498.5652968716304,2593
2500.3886130573137,2552
2502.2115324666834,2603
2504.0340553891765,2675
2505.856182114308,2677
2507.6779129316733,2680
2509.499248130945,2635
2511.3201880018764,2624
2513.140732834298,2656
2514.9608829181198,2637
2516.780638543331,2657
2518.6,2608
2520.418967578273,2634
2522.237541568376,2575
2524.0557222606144,2674
2525.8735099453706,2540
2527.6909049131086,2575
2529.507907454368,2734
2531.32451785977,2667
2533.140736420014,2631
2534.9565634258774,2605
2536.771999168218,2655
2538.5870439379714,2668
2540.4016980261526,2739
2542.2159617238544,2690
2544.02983532225,2809
2545.8433191125914,2742
2547.656413386209,2687
2549.4691184345115,2744
2551.2814345489874,2877
2553.093362021204,2722
2554.904901142808,2801
2556.716052205523,2754
2558.526815501153,2751
2560.3371913215824,2777
2562.147179958771,2850
2563.956781704761,2652
2565.7659968516705,2763
2567.5748256916986,2871
2569.3832685171224,2752
2571.1913256202984,2754
2572.9989972936614,2781
2574.806283829725,2863
2576.613185521084,2943
2578.4197026604074,2834
2580.2258355404483,2846
2582.031584454035,2893
2583.836949694077,2868
2585.6419315535613,2868
2587.4465303255533,2897
2589.2507463032002,2865
2591.0545797797245,2938
2592.8580310484303,2949
2594.6611004026995,2939
2596.463788135992,2926
2598.266094541849,2940
2600.0680199138874,2952
2601.869564545807,2943
2603.670728731383,2973
2605.4715127644704,3001
2607.2719169390048,2880
2609.071941548998,2888
2610.8715868885433,3038
2612.670853251811,2945
2614.469740933052,2866
2616.268250226594,2913
2618.0663814268455,2914
2619.864134828292,2950
2621.6615107255006,2932
2623.458509413115,3000
2625.2551311858597,2986
2627.0513763385347,2927
2628.8472451660223,2868
2630.6427379632833,2927
2632.4378550253564,2931
2634.232596647359,2847
2636.026963124488,2816
2637.8209547520187,2972
2639.6145718253065,2891
2641.407814639785,2941
2643.200683490966,2916
2644.9931786744414,2921
2646.7853004858807,2813
2648.577049221034,2788
2650.3684251757277,2840
2652.1594286458712,2873
2653.9500599274484,2731
2655.740319316525,2779
2657.5302071092437,2790
2659.3197236018286,2719
2661.10886909058,2696
2662.8976438718782,2759
2664.686048242183,2740
2666.4740824980327,2724
2668.2617469360443,2723
2670.0490418529134,2794
2671.8359675454153,2676
2673.622524310403,2638
2675.408712444811,2666
2677.1945322456495,2724
2678.979984010009,2739
2680.76506803506,2713
2682.5497846180497,2722
2684.334134056306,2754
2686.1181166472343,2635
2687.9017326883213,2656
2689.6849824771293,2705
2691.4678663113013,2718
2693.2503844885596,2592
2695.032537306705,2658
2696.8143250636167,2699
2698.5957480572542,2540
2700.3768065856534,2582
2702.1575009469316,2688
2703.937831439283,2693
2705.717798360982,2622
2707.4974020103837,2592
2709.276642685917,2584
2711.055520686095,2627
2712.834036309506,2624
2714.612189854819,2585
2716.389981620782,2549
2718.1674119062204,2609
2719.944481010041,2668
2721.721189231226,2634
2723.4975368688415,2547
2725.273524222027,2580
2727.0491515900053,2562
2728.824419272075,2628
2730.5993275676146,2513
2732.3738767760838,2614
2734.148067197016,2585
2735.921899130031,2531
2737.6953728748194,2636
2739.468488731156,2521
2741.2412469988926,2588
2743.0136479779617,2679
2744.785691968372,2626
2746.5573792702116,2635
2748.3287101836504,2503
2750.099685008934,2564
2751.870304046388,2625
2753.640567596418,2648
2755.4104759595057,2576
2757.1800294362156,2602
2758.949228327187,2518
2760.7180729331412,2522
2762.486563554877,2569
2764.254700493272,2564
2766.022484049284,2590
2767.789914523947,2566
2769.5569922183786,2577
2771.3237174337705,2624
2773.090090471394,2596
2774.8561116326036,2604
2776.6217812188274,2570
2778.3870995315756,2561
2780.1520668724356,2606
2781.9166835430747,2532
2783.6809498452394,2587
2785.444866080754,2553
2787.2084325515225,2529
2788.971649559527,2604
2790.73451740683,2579
2792.4970363955713,2580
2794.2592068279705,2581
2796.0210290063264,2566
2797.7825032330147,2518
2799.543629810493,2526
2801.304409041296,2593
2803.0648412280366,2557
2804.8249266734088,2572
2806.5846656801846,2637
2808.344058551212,2644
2810.1031055894246,2593
2811.8618070978273,2639
2813.6201633795085,2568
2815.378174737636,2592
2817.1358414754536,2609
2818.893163896285,2546
2820.6501423035334,2610
2822.4067770006814,2538
2824.1630682912883,2618
2825.9190164789957,2566
2827.6746218675207,2695
2829.429884760661,2541
2831.184805462294,2680
2832.9393842763743,2674
2834.693621506936,2597
2836.4475174580916,2579
2838.201072434034,2568
2839.954286739034,2585
2841.707160677441,2619
2843.459694553685,2583
2845.2118886722724,2572
2846.96374333779,2577
2848.7152588549034,2619
2850.4664355283567,2612
2852.217273662973,2558
2853.9677735636546,2626
2855.7179355353833,2680
2857.4677598832186,2584
2859.217246912299,2630
2860.9663969278427,2667
2862.715210235146,2664
2864.4636871395846,2618
2866.211827946614,2598
2867.9596329617652,2606
2869.7071024906536,2553
2871.4542368389684,2579
2873.20103631248,2641
2874.947501217038,2583
2876.6936318585695,2559
2878.4394285430812,2607
2880.1848915766604,2587
2881.9300212654707,2612
2883.6748179157553,2602
2885.4192818338374,2561
2887.1634133261173,2630
2888.907212699077,2572
2890.6506802592744,2560
2892.393816313348,2508
2894.1366211680142,2542
2895.8790951300693,2584
2897.621238506388,2614
2899.363051603925,2658
2901.1045347297118,2605
2902.8456881908596,2665
2904.58651229456,2590
2906.327007348081,2558
2908.067173658772,2595
2909.8070115340597,2597
2911.5465212814497,2642
2913.285703208527,2633
2915.0245576229563,2635
2916.7630848324807,2608
2918.5012851449196,2573
2920.2391588681758,2579
2921.976706310227,2545
2923.7139277791334,2586
2925.4508235830313,2525
2927.187394030137,2547
2928.923639428745,2623
2930.6595600872306,2574
2932.395156314046,2629
2934.1304284177218,2631
2935.8653767068713,2642
2937.6000014901815,2656
2939.3343030764227,2542
2941.068281774442,2551
2942.8019378931644,2649
2944.5352717415976,2607
2946.2682836288236,2601
2948.0009738640065,2646
2949.7333427563885,2581
2951.465390615289,2670
2953.1971177501086,2515
2954.9285244703265,2566
2956.6596110855,2591
2958.3903779052657,2577
2960.1208252393385,2553
2961.8509533975125,2487
2963.5807626896617,2614
2965.3102534257378,2615
2967.0394259157715,2567
2968.768280469873,2571
2970.496817398232,2560
2972.2250370111146,2613
2973.952939618869,2544
2975.6805255319196,2557
2977.4077950607707,2676
2979.134748516006,2599
2980.861386208289,2543
2982.587708448359,2584
2984.313715547037,2577
2986.039407815222,2577
2987.764785563891,2669
2989.489849104102,2522
2991.2145987469908,2680
2992.9390348037705,2663
2994.6631575857346,2641
2996.3869674042576,2566
2998.1104645707887,2607
2999.83364939686,2572
3001.5565221940783,2629
3003.2790832741334,2639
3005.0013329487924,2580
3006.7232715298996,2512
3008.4448993293804,2506
3010.166216659239,2516
3011.887223831558,2535
3013.607921158498,2558
3015.3283089522993,2536
3017.0483875252826,2492
3018.7681571898443,2534
3020.4876182584626,2612
3022.2067710436927,2570
3023.9256158581707,2579
3025.644153014609,2594
3027.362382825801,2521
3029.0803056046193,2593
3030.797921664012,2556
3032.5152313170106,2603
3034.2322348767225,2504
3035.9489326563353,2547
3037.665324969115,2579
3039.3814121284063,2584
3041.097194447633,2601
3042.812672240299,2639
3044.5278458199855,2589
3046.2427155003525,2544
3047.9572815951406,2603
3049.671544418167,2637
3051.38550428333,2519
3053.0991615046073,2606
3054.812516396051,2575
3056.5255692717974,2643
3058.2383204460575,2625
3059.9507702331257,2531
3061.662918947372,2650
3063.3747669032446,2571
3065.0863144152736,2573
3066.7975617980674,2582
3068.508509366309,2564
3070.219157434767,2530
3071.9295063182844,2618
3073.639556331785,2545
3075.3493077902704,2575
3077.058761008821,2649
3078.7679163025964,2577
3080.476773986837,2607
3082.1853343768594,2714
3083.89359778806,2587
3085.6015645359153,2531
3087.3092349359786,2541
3089.016609303884,2629
3090.7236879553434,2535
3092.4304712061476,2540
3094.136959372166,2454
3095.843152769349,2531
3097.5490517137237,2574
3099.2546565213966,2508
3100.959967508554,2544
3102.66498499146,2519
3104.3697092864577,2527
3106.0741407099695,2513
3107.778279578498,2560
3109.482126208622,2492
3111.1856809170004,2589
3112.8889440203716,2628
3114.5919158355528,2617
3116.294596679439,2523
3117.996986869006,2603
3119.6990867213062,2551
3121.4008965534726,2687
3123.102416682717,2579
3124.803647426329,2590
3126.5045891016784,2617
3128.205242026213,2604
3129.90560651746,2611
3131.605682893025,2586
3133.3054714705922,2526
3135.0049725679282,2513
3136.7041865028714,2542
3138.4031135933465,2605
3140.101754157353,2566
3141.800108512971,2591
3143.498176978357,2586
3145.1959598717494,2522
3146.8934575114636,2574
3148.5906702158954,2680
3150.2875983035183,2562
3151.9842420928853,2605
3153.680601902627,2496
3155.376678051456,2497
3157.07247085816,2442
3158.767980641609,2452
3160.463207720748,2487
3162.158152414606,2522
3163.8528150422862,2541
3165.5471959229726,2524
3167.2412953759303,2551
3168.9351137204976,2574
3170.628651276098,2583
3172.3219083622307,2546
3174.014885298474,2532
3175.707582404485,2624
3177.4000000000005,2586
3179.092138404835,2585
3180.7839979388846,2524
3182.47557892212,2540
3184.166881674594,2602
3185.8579065164386,2596
3187.5486537678626,2528
3189.2391237491547,2562
3190.9293167806827,2540
3192.6192331828934,2530
3194.3088732763117,2529
3195.998237381542,2589
3197.687325819268,2455
3199.376138910251,2512
3201.064676975334,2514
3202.7529403354347,2586
3204.4409293115523,2478
3206.1286442247647,2535
3207.816085396229,2494
3209.5032531471825,2545
3211.190147798936,2385
3212.8767696728846,2392
3214.5631190905015,2391
3216.2491963733373,2494
3217.9350018430214,2474
3219.6205358212637,2413
3221.305798629851,2408
3222.990790590651,2452
3224.6755120256103,2464
3226.359963256751,2432
3228.0441446061795,2515
3229.7280563960758,2437
3231.411698948703,2487
3233.0950725863995,2478
3234.778177631587,2533
3236.461014406761,2535
3238.1435832345005,2564
3239.8258844374595,2481
3241.507918338374,2510
3243.1896852600576,2531
3244.8711855254023,2536
3246.552419457381,2463
3248.233387379042,2524
3249.914089613516,2609
3251.59452648401,2453
3253.274698313813,2483
3254.95460542629,2560
3256.6342481448855,2438
3258.313626793125,2488
3259.9927416946084,2519
3261.6715931730196,2420
3263.3501815521176,2423
3265.0285071557437,2416
3266.706570307815,2417
3268.3843713323286,2395
3270.0619105533615,2381
3271.739188295068,2486
3273.4162048816834,2470
3275.0929606375184,2430
3276.769455886966,2458
3278.445690954498,2505
3280.1216661646613,2510
3281.797381842087,2460
3283.4728383114807,2453
3285.1480358976296,2514
3286.8229749253996,2515
3288.4976557197333,2440
3290.172078605655,2471
3291.846243908266,2398
3293.5201519527463,2404
3295.193803064357,2330
3296.8671975684374,2378
3298.5403357904024,2469
3300.21321805575,2412
3301.8858446900567,2435
3303.558216018975,2429
3305.23033236824,2398
3306.9021940636603,2454
3308.57380143113,2472
3310.2451547966184,2433
3311.916254486174,2470
3313.5871008259246,2539
3315.2576941420766,2451
3316.9280347609147,2449
3318.5981230088046,2402
3320.2679592121895,2394
3321.9375436975924,2380
3323.606876791612,2402
3325.27595882093,2448
3326.944790112305,2373
3328.6133709925753,2370
3330.2817017886573,2427
3331.949782827547,2423
3333.617614436319,2424
3335.2851969421245,2472
3336.952530672199,2425
3338.619615953853,2402
3340.286453114475,2439
3341.9530424815357,2475
3343.619384382583,2461
3345.2854791452437,2410
3346.951327097224,2460
3348.6169285663073,2451
3350.2822838803577,2497
3351.947393367319,2436
3353.61225735521,2454
3355.2768761721345,2422
3356.9412501462693,2391
3358.605379605873,2378
3360.2692648792827,2495
3361.9329062949146,2399
3363.596304181263,2370
