CollectionTime,6/28/2024 2:15:24 PM
ExposureUsed,3
CalibratedSpectrum
-962.7078968117929,1946
-959.9714848408522,2179
-957.2358232597828,2038
-954.5009119013725,2165
-951.7667505983302,2119
-949.0333391832855,2112
-946.3006774887896,2120
-943.5687653473143,2126
-940.837602591253,2150
-938.1071890529199,2119
-935.3775245645503,2109
-932.6486089583007,2158
-929.9204420662485,2111
-927.1930237203925,2213
-924.4663537526524,2141
-921.7404319948689,2205
-919.0152582788041,2178
-916.2908324361409,2154
-913.5671542984834,2148
-910.8442236973568,2204
-908.1220404642074,2098
-905.4006044304027,2153
-902.679915427231,2231
-899.959973285902,2125
-897.2407778375464,2133
-894.5223289132158,2118
-891.8046263438832,2090
-889.0876699604426,2085
-886.3714595937089,2106
-883.6559950744183,2037
-880.9412762332282,2012
-878.2273029007168,2103
-875.5140749073835,2144
-872.8015920836489,2110
-870.0898542598545,1996
-867.3788612662631,2067
-864.6686129330585,2119
-861.9591090903457,2075
-859.2503495681506,1926
-856.5423341964203,2022
-853.8350628050229,2049
-851.1285352237478,2037
-848.4227512823054,2101
-845.7177108103272,2054
-843.0134136373656,2051
-840.3098595928943,2061
-837.6070485063082,2052
-834.9049802069229,1934
-832.2036545239757,2025
-829.5030712866244,2020
-826.8032303239481,2020
-824.1041314649472,2039
-821.4057745385428,1986
-818.7081593735775,1978
-816.0112857988148,2019
-813.3151536429393,1954
-810.6197627345566,2039
-807.9251129021936,1992
-805.2312039742981,1984
-802.5380357792392,2070
-799.8456081453069,2027
-797.1539209007124,2100
-794.462973873588,2017
-791.772766891987,2073
-789.083299783884,2024
-786.3945723771743,2009
-783.7065844996748,2018
-781.0193359791231,2020
-778.3328266431781,2090
-775.6470563194197,1975
-772.9620248353489,2032
-770.2777320183878,1899
-767.5941776958798,1941
-764.9113616950891,1994
-762.2292838432011,1972
-759.5479439673222,2030
-756.8673418944801,2026
-754.1874774516235,2051
-751.5083504656222,2027
-748.8299607632671,2018
-746.15230817127,1983
-743.475392516264,1998
-740.7992136248035,2073
-738.1237713233636,2073
-735.4490654383407,2018
-732.7750957960521,2115
-730.1018622227365,2010
-727.4293645445534,1992
-724.7576025875837,2056
-722.0865761778291,2014
-719.4162851412126,2035
-716.7467293035781,2080
-714.0779084906909,2132
-711.409822528237,2115
-708.7424712418238,2146
-706.0758544569796,2092
-703.4099719991541,2008
-700.7448236937178,2021
-698.0804093659622,2024
-695.4167288411002,2066
-692.7537819442656,2077
-690.0915685005134,2086
-687.4300883348199,2098
-684.7693412720819,2094
-682.1093271371178,2034
-679.4500457546669,2069
-676.7914969493897,2147
-674.1336805458676,2077
-671.4765963686034,2094
-668.8202442420206,2120
-666.1646239904642,2047
-663.5097354382001,2096
-660.8555784094151,2099
-658.2021527282176,2106
-655.5494582186366,2155
-652.8974947046223,2078
-650.2462620100463,2097
-647.5957599587009,2146
-644.9459883742998,2179
-642.2969470804776,2255
-639.6486359007902,2152
-637.0010546587141,2171
-634.3542031776476,2210
-631.7080812809096,2145
-629.0626887917401,2101
-626.4180255333008,2132
-623.7740913286734,2140
-621.1308860008619,2101
-618.4884093727904,2069
-615.8466612673046,2073
-613.2056415071715,2078
-610.5653499150785,2132
-607.9257863136347,2059
-605.28695052537,2056
-602.6488423727357,2144
-600.0114616781036,2117
-597.3748082637674,2159
-594.7388819519412,2192
-592.1036825647604,2107
-589.4692099242818,2103
-586.8354638524829,2096
-584.2024441712624,2157
-581.5701507024403,2088
-578.9385832677575,2033
-576.3077416888759,2131
-573.6776257873787,2152
-571.0482353847704,2154
-568.4195703024757,2163
-565.7916303618415,2202
-563.164415384135,2246
-560.5379251905453,2167
-557.9121596021815,2154
-555.2871184400748,2122
-552.6628015251767,2162
-550.0392086783606,2072
-547.4163397204204,2058
-544.794194472071,2102
-542.1727727539491,2178
-539.5520743866118,2191
-536.9320991905377,2202
-534.3128469861261,2248
-531.6943175936979,2225
-529.0765108334947,2269
-526.4594265256793,2348
-523.8430644903358,2584
-521.2274245474689,2617
-518.612506517005,2718
-515.9983102187913,2864
-513.3848354725959,2888
-510.77208209810846,2860
-508.16004991493924,2926
-505.5487387426199,3106
-502.9381484006032,3290
-500.3282787082628,3396
-497.71912948489364,3344
-495.1107005497117,3479
-492.5029917218539,3418
-489.8960028203786,3138
-487.28973366426493,2889
-484.68418407241325,2816
-482.07935386364494,2642
-479.47524285670266,2561
-476.87185087025,2594
-474.2691777228715,2492
-471.66722323307334,2446
-469.0659872192821,2454
-466.4654694998459,2448
-463.86566989303384,2400
-461.26658821703614,2444
-458.66822428996414,2402
-456.07057792985,2389
-453.4736489546475,2393
-450.877437182231,2408
-448.28194243039627,2294
-445.68716451686,2360
-443.09310325926003,2348
-440.49975847515555,2254
-437.9071299820263,2301
-435.31521759727354,2318
-432.72402113821954,2332
-430.13354042210767,2369
-427.5437752661022,2413
-424.95472548728867,2385
-422.36639090267386,2360
-419.7787713291855,2386
-417.1918665836721,2405
-414.60567648290385,2409
-412.0202008435715,2392
-409.4354394822874,2416
-406.8513922155845,2405
-404.26805885991723,2432
-401.685439231661,2401
-399.103533147112,2366
-396.522340422488,2345
-393.9418608739278,2306
-391.3620943174908,2182
-388.7830405691583,2159
-386.2046994448317,2061
-383.6270707603344,1907
-381.05015433141045,1732
-378.473949973725,1544
-375.8984575028645,1453
-373.32367673433623,1243
-370.74960748356875,1186
-368.1762495659117,1041
-365.60360279663576,906
-363.03166699093265,785
-360.4604419639154,707
-357.8899275306178,665
-355.32012350599507,640
-352.7510297049233,616
-350.1826459421999,600
-347.61497203254316,597
-345.04800779059235,562
-342.4817530309082,552
-339.91620756797226,510
-337.35137121618743,524
-334.7872437898774,543
-332.22382510328725,562
-329.66111497058273,556
-327.09911320585127,585
-324.53781962310075,587
-321.9772340362607,638
-319.4173562591816,649
-316.8581861056348,575
-314.2997233893127,583
-311.7419679238294,619
-309.1849195227194,588
-306.62857799943856,549
-304.0729431673641,541
-301.51801483979375,502
-298.963792829947,518
-296.41027695096386,578
-293.85746701590574,586
-291.3053628377552,634
-288.7539642294155,671
-286.2032710037115,702
-283.65328297338897,674
-281.1039999511146,679
-278.5554217494762,678
-276.007548180983,677
-273.4603790580651,632
-270.9139141930734,602
-268.3681533982807,622
-265.8230964858798,657
-263.27874326798565,672
-260.7350935566336,730
-258.1921471637804,677
-255.6499039013039,715
-253.10836358100266,631
-250.56752601459698,643
-248.02739101372765,789
-245.48795838995704,975
-242.94922795476816,919
-240.41119951956557,749
-237.8738728956746,737
-235.33724789434166,891
-232.80132432673452,1021
-230.2661020039418,912
-227.73158073697357,807
-225.19776033676033,717
-222.66464061415422,745
-220.1322213799284,706
-217.60050244477725,788
-215.06948361931552,816
-212.53916471408013,845
-210.00954553952818,760
-207.48062590603843,864
-204.9524056239104,1039
-202.4248845033651,902
-199.8980623545441,765
-197.37193898751036,741
-194.84651421224817,817
-192.32178783866232,881
-189.79775967657952,901
-187.27442953574644,881
-184.7517972258321,859
-182.2298625564256,873
-179.7086253370378,916
-177.18808537710026,893
-174.66824248596583,852
-172.14909647290835,1009
-169.6306471471229,974
-167.11289431772548,923
-164.59583779375328,961
-162.07947738416453,866
-159.5638128978386,911
-157.04884414357605,1049
-154.53457093009854,1099
-152.02099306604828,1126
-149.50811035998936,1088
-146.99592262040665,1082
-144.48442965570587,1260
-141.97363127421409,1359
-139.46352728417958,1199
-136.95411749377126,1135
-134.44540171107985,1256
-131.93737974411636,1215
-129.43005140081357,1309
-126.92341648902493,1461
-124.41747481652521,1613
-121.91222619101006,1467
-119.40767042009657,1477
-116.90380731132257,1526
-114.40063667214702,1538
-111.8981583099503,1412
-109.3963720320337,1526
-106.89527764561933,1563
-104.39487495785067,1914
-101.89516377579241,1823
-99.39614390642998,1884
-96.89781515667039,1782
-94.40017733334128,2050
-91.90323024319173,2054
-89.40697369289148,2004
-86.91140748903172,1972
-84.41653143812482,1946
-81.92234534660395,2127
-79.42884902082358,2385
-76.93604226705907,2511
-74.4439248915071,2184
-71.95249670028534,2149
-69.46175749943245,2534
-66.97170709490854,3191
-64.48234529259423,3454
-61.99367189829195,2683
-59.50568671772464,2630
-57.01838955653636,3005
-54.53178022029283,3295
-52.045858514480074,3213
-49.560624244506016,3333
-47.07607721569923,3624
-44.59221723330904,3794
-42.10904410250669,3699
-39.62655762838392,4290
-37.14475761595372,5570
-34.66364387015028,6373
-32.18321619582866,7978
-29.70347439776515,9167
-27.224418280657005,10194
-24.74604764912317,15382
-22.26836230770266,26625
-19.7913620608565,44395
-17.315046712966478,60650
-14.83941606833514,65030
-12.36446993118659,65030
-9.89020810566592,65030
-7.416630395839093,65030
-4.94373660569363,65030
-2.471526539137585,65030
-6.821210263296962E-13,65030
2.47084320796705,65030
4.941003281093458,65030
7.410480415786196,65030
9.879274808531363,65030
12.347386655893956,65030
14.814816154518212,65030
17.28156350112681,65030
19.74762889252179,65030
22.21301252558385,65030
24.67771459727237,36935
27.141735304626195,13208
29.605074844762612,8465
32.06773341487792,10398
34.52971121224755,12070
36.99100843422559,10772
39.45162527824516,8907
41.91156194181792,7593
44.370818622535126,8533
46.82939551806646,10824
49.287292826160524,14047
51.74451074464503,13946
54.201049471426245,9826
56.65690920448981,7810
59.112090141899785,5365
61.56659248179983,4838
64.02041642241159,4168
66.4735621620365,3545
68.92602989905402,3043
71.37781983192338,2890
73.82893215918205,3161
76.27936707944684,3257
78.72912479141326,2688
81.17820549385567,2630
83.62660938562783,2740
86.07433666566146,2609
88.5213875329681,2532
90.96776218663751,2109
93.41346082583925,2134
95.85848364982041,2370
98.30283085790859,2362
100.7465026495089,2146
103.18949922410604,2239
105.63182078126385,2195
108.07346752062438,2269
110.51443964190923,1934
112.95473734491827,1546
115.39436082953114,1443
117.83331029570547,1659
120.27158594347827,1971
122.7091879729652,1476
125.1461165843615,1498
127.58237197794062,1694
130.01795435405518,1741
132.4528639131364,1662
134.88710085569494,1584
137.32066538231982,1706
139.75355769367923,1849
142.1857779905207,1683
144.61732647366978,1808
147.04820334403132,1933
149.47840880258934,1732
151.90794305040674,1966
154.33680628862487,2212
156.76499871846443,2353
159.19252054122433,2405
161.61937195828352,2642
164.04555317109896,2903
166.47106438120693,3214
168.89590579022217,3794
171.320077599839,3977
173.7435800118302,4067
176.16641322804742,4213
178.58857745042144,4338
181.01007288096173,4549
183.43089972175687,4633
185.85105817497413,4882
188.27054844285988,5029
190.6893707277394,5064
193.10752523201643,4962
195.5250121581745,5051
197.9418317087751,5167
200.3579840864594,5189
202.7734694939469,5121
205.18828813403627,5057
207.6024402096051,4943
210.01592592360964,5053
212.42874547908548,4984
214.84089907914665,4952
217.2523869269868,4808
219.66320922587727,4787
222.0733661791695,4768
224.48285799029293,4856
226.8916848627572,5015
229.29984700014882,5098
231.7073446061355,5130
234.11417788446204,5055
236.520347038953,5188
238.92585227351185,5146
241.33069379212054,5158
243.73487179884035,5224
246.1383864978112,5097
248.541238093252,5192
250.9434267894609,5153
253.34495279081432,5094
255.74581630176783,5132
258.1460175268563,5074
260.54555667069314,5109
262.9444339379703,5025
265.3426495334594,5020
267.7402036620107,5058
270.1370965285529,4835
272.53332833809407,4849
274.9288992957214,4732
277.32380960660055,4879
279.718059475976,4591
282.1116491091717,4771
284.5045787115897,4684
286.89684848871195,4766
289.2884586460981,4735
291.67940938938807,4685
294.0697009242996,4808
296.4593334566299,4675
298.84830719225477,4700
301.23662233712923,4729
303.6242790972866,4690
306.01127767884,4755
308.39761828798066,4684
310.78330113097934,4540
313.16832641418534,4524
315.5526943440269,4424
317.9364051270112,4384
320.3194589697242,4454
322.70185607883093,4526
325.0835966610754,4443
327.4646809232805,4413
329.8451090723478,4375
332.2248813152577,4358
334.6039978590701,4321
336.9824589109231,4386
339.36026467803447,4261
341.7374153677,4181
344.113911187295,4157
346.48975234427337,4274
348.8649390461686,4287
351.2394715005918,4359
353.61334991523415,4191
355.9865744978655,4309
358.35914545633375,4232
360.73106299856715,4379
363.10232733257146,4326
365.47293866643247,4349
367.84289720831396,4364
370.2122031664593,4231
372.5808567491905,4200
374.9488581649083,4220
377.31620762209275,4192
379.6829053293021,4209
382.0489514951745,4181
384.4143463284262,4149
386.7790900378528,4177
389.14318283232853,4133
391.50662492080653,4135
393.86941651231916,4017
396.23155781597745,4033
398.5930490409713,4114
400.9538903965696,4020
403.3140820921202,3966
405.6736243370498,4035
408.03251734086336,4092
410.3907613131465,4040
412.74835646356166,4104
415.10530300185144,3987
417.4616011378372,4128
419.81725108141893,4171
422.1722530425758,4090
424.5266072313656,4163
426.880313857925,4162
429.2333731324701,4054
431.58578526529516,4016
433.9375504667738,4079
436.2886689473588,4014
438.63914091758113,4067
440.9889665880513,4029
443.33814616945835,4129
445.68667987257015,3951
448.03456790823395,4108
450.3818104873759,4123
452.72840782100013,4050
455.07436012019105,4130
457.41966759611057,4009
459.7643304600007,4019
462.10834892318155,4118
464.4517231970525,4105
466.79445349309174,4053
469.1365400228566,4179
471.4779829979826,4169
473.81878263018564,4250
476.15893913125876,4158
478.4984527130747,4162
480.8373235875855,4290
483.17555196682144,4191
485.5131380628919,4368
487.8500820879857,4518
490.1863842543697,4643
492.52204477439034,4919
494.8570638604725,5154
497.1914417251204,5482
499.52517858091653,5744
501.85827464052306,5774
504.19073011668036,5839
506.5225452222086,5759
508.85372017000566,5561
511.18425517304956,5398
513.514150444396,5643
515.8434061971808,6227
518.1720226446176,6700
520.4999999999999,7102
522.8273384766991,7328
525.1540382881666,7360
527.480099647932,6975
529.8055227696037,6055
532.1303078668694,4921
534.454455153496,4466
536.777964843328,4251
539.1008371502907,4067
541.4230722883866,4037
543.744670471698,4079
546.0656319143858,3844
548.3859568306899,3977
550.7056454349294,3856
553.0246979415016,3889
555.3431145648834,3919
557.6608955196306,3907
559.978041020377,3893
562.2945512818363,3900
564.6104265188006,3844
566.9256669461412,3926
569.2402727788082,3838
571.5542442318302,3911
573.8675815203156,3881
576.1802848594508,3882
578.4923544645015,3834
580.8037905508126,3831
583.114593333807,3858
585.4247630289875,3901
587.7342998519354,3874
590.0432040183106,3918
592.3514757438526,3810
594.6591152443794,3953
596.9661227357875,3835
599.2724984340531,3914
601.578242555231,3985
603.8833553154542,3971
606.1878369309362,3885
608.4916876179676,4040
610.7949075929192,3928
613.0974970722403,4044
615.3994562724587,3962
617.7007854101818,3924
620.0014847020951,3969
622.3015543649641,3774
624.6009946156324,4024
626.8998056710224,4002
629.1979877481361,3967
631.4955410640538,3921
633.7924658359349,3868
636.0887622810175,3882
638.3844306166192,3870
640.6794710601358,3947
642.9738838290426,3945
645.2676691408932,3863
647.5608272133207,3974
649.853358264037,3933
652.1452625108324,3993
654.4365401715764,3989
656.7271914642178,3928
659.0172166067838,4009
661.3066158173809,4009
663.5953893141935,3936
665.8835373154867,4018
668.1710600396028,4072
670.4579577049639,3996
672.7442305300709,3986
675.0298787335033,4077
677.3149025339197,4180
679.599302150058,4052
681.8830778007342,3954
684.1662297048437,4187
686.4487580813608,4019
688.7306631493387,4132
691.0119451279091,4005
693.2926042362834,3978
695.5726406937516,4077
697.8520547196814,4021
700.1308465335215,4006
702.4090163547982,3928
704.6865644031171,3895
706.9634908981619,3932
709.2397960596965,4080
711.5154801075631,3973
713.7905432616823,3971
716.0649857420548,4049
718.3388077687592,3971
720.612009561953,3946
722.8845913418733,3946
725.1565533288352,3817
727.427895743234,3985
729.6986188055427,4017
731.9687227363137,4042
734.238207756178,3886
736.5070740858458,3908
738.7753219461066,3986
741.0429515578281,3985
743.3099631419569,4009
745.5763569195191,3831
747.8421331116193,4030
750.1072919394409,3947
752.3718336242467,3961
754.6357583873777,4014
756.8990664502545,3955
759.1617580343765,4086
761.423833361321,3973
763.6852926527457,3923
765.9461361303862,4013
768.206364016058,4004
770.4659765316536,3936
772.7249738991469,3973
774.9833563405886,3976
777.2411240781092,4046
779.4982773339183,4073
781.7548163303044,4029
784.010741289634,4018
786.2660524343538,4000
788.5207499869881,4032
790.7748341701416,4021
793.0283052064964,4080
795.2811633188143,3940
797.5334087299362,3952
799.7850416627813,4032
802.0360623403484,3959
804.2864709857143,4001
806.5362678220353,4001
808.7854530725468,4030
811.0340269605625,3914
813.2819897094754,3967
815.5293415427581,4007
817.77608268396,4015
820.0222133567116,4039
822.2677337847211,3988
824.5126441917765,4048
826.7569448017433,3965
829.0006358385675,3979
831.2437175262731,3977
833.4861900889629,4057
835.7280537508192,3961
837.9693087361026,3928
840.2099552691533,3946
842.4499935743896,3986
844.689423876309,3909
846.9282463994886,4000
849.1664613685833,4038
851.4040690083276,4046
853.6410695435349,3907
855.877463199097,3940
858.1132501999847,3993
860.3484307712487,4029
862.5830051380175,3941
864.8169735254988,3880
867.0503361589791,4042
869.2830932638243,3923
871.5152450654786,4000
873.7467917894654,3980
875.9777336613873,4136
878.2080709069252,3950
880.4378037518389,4093
882.666932421968,3979
884.8954571432301,3926
887.1233781416219,4025
889.3506956432192,4106
891.5774098741766,4106
893.803521060728,4021
896.0290294291852,4055
898.2539352059397,4059
900.4782386174619,4056
902.7019398903011,4036
904.925039251085,4018
907.147536926521,3943
909.3694331433943,4014
911.59072812857,3986
913.8114221089921,3937
916.0315153116827,4023
918.2510079637437,3903
920.4699002923547,3966
922.6881925247761,3909
924.905884888345,3866
927.1229776104793,3941
929.3394709186747,3936
931.555365040506,3871
933.7706602036275,3924
935.9853566357709,3923
938.1994545647489,3862
940.4129542184515,3860
942.6258558248488,3910
944.8381596119883,3937
947.0498658079974,3886
949.2609746410825,3941
951.4714863395287,3974
953.6814011316998,3967
955.8907192460387,3983
958.0994409110671,3887
960.3075663553858,3932
962.5150958076741,3851
964.7220294966913,3882
966.928367651274,3916
969.1341105003388,3816
971.3392582728806,3911
973.5438111979742,3890
975.747769504772,3783
977.9511334225061,3767
980.153903180487,3915
982.3560790081052,3754
984.5576611348289,3784
986.7586497902058,3768
988.9590452038618,3747
991.158847605503,3769
993.3580572249133,3722
995.5566742919558,3690
997.7546990365728,3648
999.952131688785,3688
1002.1489724786926,3603
1004.3452216364743,3650
1006.5408793923874,3616
1008.7359459767691,3551
1010.9304216200343,3511
1013.1243065526781,3559
1015.3176010052733,3547
1017.510305208472,3573
1019.7024193930064,3477
1021.8939437896848,3483
1024.0848786293977,3510
1026.2752241431122,3462
1028.4649805618747,3540
1030.6541481168115,3498
1032.842727039127,3508
1035.0307175601051,3569
1037.2181199111074,3486
1039.4049343235752,3448
1041.591161029029,3507
1043.7768002590683,3447
1045.9618522453698,3438
1048.1463172196918,3469
1050.3301954138697,3470
1052.513487059818,3480
1054.69619238953,3428
1056.8783116350783,3456
1059.0598450286152,3482
1061.2407928023704,3442
1063.4211551886528,3490
1065.6009324198508,3516
1067.780124728432,3429
1069.9587323469414,3365
1072.1367555080046,3347
1074.314194444325,3490
1076.4910493886855,3456
1078.667320573947,3462
1080.843008233051,3413
1083.0181125990161,3407
1085.1926339049414,3283
1087.3665723840027,3371
1089.5399282694575,3274
1091.7127017946405,3368
1093.8848931929647,3354
1096.0565026979243,3407
1098.2275305430899,3308
1100.3979769621128,3348
1102.567842188722,3293
1104.737126456726,3291
1106.9058300000124,3294
1109.0739530525475,3310
1111.2414958483764,3260
1113.4084586216231,3312
1115.5748416064907,3315
1117.7406450372605,3209
1119.9058691482942,3285
1122.0705141740304,3205
1124.2345803489884,3220
1126.3980679077658,3288
1128.5609770850388,3236
1130.7233081155623,3201
1132.8850612341707,3209
1135.0462366757774,3209
1137.2068346753745,3159
1139.3668554680326,3127
1141.526299288901,3259
1143.68516637321,3223
1145.8434569562655,3099
1148.001171273455,3318
1150.158309560244,3268
1152.3148720521767,3231
1154.470858984876,3203
1156.626270594044,3257
1158.7811071154629,3114
1160.9353687849912,3129
1163.089055838569,3313
1165.242168512213,3164
1167.3947070420209,3173
1169.5466716641677,3190
1171.6980626149075,3300
1173.8488801305748,3169
1175.9991244475814,3220
1178.1487958024186,3172
1180.2978944316555,3182
1182.4464205719428,3101
1184.5943744600072,3109
1186.7417563326567,3167
1188.8885664267755,3164
1191.0348049793297,3121
1193.1804722273619,3061
1195.325568407995,3061
1197.4700937584303,3108
1199.614048515948,3123
1201.7574329179074,3032
1203.900247201746,3137
1206.042491604982,3186
1208.1841663652099,3128
1210.3252717201053,3181
1212.465807907422,3094
1214.6057751649923,3092
1216.7451737307279,3181
1218.8840038426192,3131
1221.0222657387353,3133
1223.1599596572241,3113
1225.2970858363137,3171
1227.4336445143094,3033
1229.5696359295966,3138
1231.705060320639,3150
1233.8399179259786,3202
1235.9742089842384,3143
1238.107933734118,3106
1240.2410924143974,3139
1242.373685263935,3073
1244.5057125216676,3123
1246.6371744266116,3000
1248.7680712178621,3101
1250.898403134593,3093
1253.028170416058,3079
1255.1573733015875,3054
1257.2860120305932,3081
1259.4140868425648,3158
1261.54159797707,3040
1263.6685456737569,3089
1265.7949301723515,3228
1267.9207517126597,3072
1270.046010534565,3144
1272.1707068780306,3002
1274.2948409830983,3121
1276.4184130898889,3121
1278.541423438603,3148
1280.6638722695184,3136
1282.785759822993,3191
1284.9070863394636,3166
1287.0278520594447,3139
1289.1480572235314,3191
1291.2677020723963,3190
1293.3867868467923,3185
1295.5053117875495,3277
1297.623277135579,3228
1299.740683131868,3170
1301.8575300174857,3188
1303.973818033578,3248
1306.0895474213703,3193
1308.2047184221678,3233
1310.3193312773528,3221
1312.4333862283888,3134
1314.5468835168163,3165
1316.659823384255,3215
1318.7722060724045,3248
1320.8840318230418,3262
1322.9953008780249,3061
1325.1060134792888,3216
1327.2161698688478,3249
1329.3257702887959,3120
1331.4348149813054,3313
1333.5433041886276,3298
1335.6512381530933,3146
1337.7586171171101,3147
1339.8654413231675,3242
1341.9717110138317,3156
1344.0774264317488,3131
1346.1825878196432,3106
1348.2871954203192,3196
1350.3912494766587,3060
1352.4947502316231,3200
1354.5976979282532,3123
1356.7000928096686,3188
1358.8019351190665,3102
1360.9032250997243,3132
1363.0039629949988,3176
1365.1041490483235,3111
1367.2037835032133,3105
1369.3028666032606,3105
1371.401398592137,3071
1373.4993797135926,3091
1375.5968102114575,3147
1377.6936903296396,3134
1379.7900203121262,3082
1381.8858004029835,3176
1383.9810308463561,3165
1386.075711886469,3126
1388.1698437676241,3120
1390.2634267342032,3116
1392.356461030667,3207
1394.4489469015557,3122
1396.5408845914872,3156
1398.6322743451592,3165
1400.7231164073469,3210
1402.813411022907,3148
1404.903158436773,3162
1406.9923588939578,3106
1409.0810126395531,3085
1411.1691199187303,3156
1413.2566809767386,3122
1415.343696058907,3282
1417.4301654106425,3164
1419.5160892774315,3222
1421.6014679048399,3076
1423.6863015385125,3071
1425.7705904241707,3209
1427.8543348076178,3136
1429.9375349347342,3198
1432.0201910514802,3189
1434.102303403894,3188
1436.1838722380944,3271
1438.2648978002767,3213
1440.3453803367174,3266
1442.4253200937692,3233
1444.5047173178677,3128
1446.5835722555234,3262
1448.6618851533285,3304
1450.739656257952,3389
1452.8168858161434,3278
1454.8935740747306,3335
1456.96972128062,3368
1459.045327680797,3486
1461.120393522327,3439
1463.1949190523528,3516
1465.2689045180973,3458
1467.3423501668608,3491
1469.415256246024,3486
1471.4876230030463,3616
1473.559450685465,3590
1475.6307395408976,3651
1477.7014898170391,3659
1479.771701761665,3698
1481.8413756226287,3683
1483.9105116478618,3806
1485.9791100853772,3834
1488.0471711832643,3695
1490.1146951896926,3843
1492.1816823529098,3939
1494.2481329212433,3943
1496.3140471430984,3962
1498.3794252669609,3946
1500.4442675413939,4034
1502.5085742150404,4153
1504.572345536622,4177
1506.6355817549388,4146
1508.6982831188702,4282
1510.7604498773744,4249
1512.8220822794883,4186
1514.8831805743293,4224
1516.9437450110909,4234
1519.003775839048,4449
1521.0632733075522,4611
1523.1222376660367,4545
1525.1806691640113,4649
1527.2385680510652,4706
1529.2959345768668,4738
1531.3527689911643,4899
1533.4090715437833,4981
1535.4648424846291,5091
1537.5200820636855,5094
1539.5747905310159,5242
1541.6289681367616,5256
1543.6826151311434,5266
1545.7357317644614,5375
1547.7883182870937,5426
1549.8403749494987,5523
1551.8919020022113,5638
1553.9428996958477,5722
1555.9933682811015,5782
1558.0433080087469,5967
1560.0927191296346,6208
1562.1416018946961,6273
1564.1899565549415,6202
1566.2377833614592,6127
1568.2850825654164,5968
1570.3318544180606,5955
1572.3780991707158,5697
1574.423817074788,5566
1576.4690083817595,5372
1578.5136733431923,5100
1580.5578122107272,4958
1582.601425236085,4635
1584.6445126710646,4468
1586.6870747675434,4344
1588.7291117774776,4151
1590.7706239529034,4093
1592.8116115459347,4029
1594.8520748087658,3894
1596.8920139936686,3653
1598.9314293529933,3515
1600.9703211391711,3461
1603.008689604711,3527
1605.0465350022005,3433
1607.0838575843068,3299
1609.1206576037753,3358
1611.1569353134305,3284
1613.1926909661765,3212
1615.2279248149953,3156
1617.2626371129481,3075
1619.2968281131757,3114
1621.3304980688963,3076
1623.3636472334088,2991
1625.39627586009,2971
1627.428384202396,2997
1629.459972513861,2981
1631.4910410480993,2907
1633.5215900588028,2897
1635.551619799744,2955
1637.5811305247717,2836
1639.6101224878166,2883
1641.6385959428862,2919
1643.6665511440683,2889
1645.693988345528,2840
1647.7209078015112,2910
1649.7473097663405,2830
1651.7731944944203,2839
1653.7985622402307,2761
1655.823413258333,2784
1657.847747803366,2824
1659.8715661300494,2834
1661.8948684931793,2838
1663.9176551476316,2783
1665.9399263483624,2878
1667.9616823504057,2767
1669.982923408873,2823
1672.0036497789574,2721
1674.0238617159293,2737
1676.043559475138,2785
1678.0627433120121,2721
1680.081413482059,2788
1682.0995702408654,2717
1684.117213844096,2686
1686.134344547495,2725
1688.1509626068864,2690
1690.1670682781705,2773
1692.182661817329,2709
1694.1977434804217,2731
1696.2123135235875,2735
1698.226372203043,2760
1700.2399197750851,2709
1702.2529564960905,2736
1704.2654826225112,2739
1706.277498410882,2737
1708.2890041178139,2688
1710.2999999999988,2792
1712.3104863142066,2715
1714.3204633172854,2767
1716.329931266163,2737
1718.3388904178469,2730
1720.3473410294214,2653
1722.3552833580516,2696
1724.3627176609807,2677
1726.3696441955308,2624
1728.3760632191033,2671
1730.3819749891782,2668
1732.3873797633146,2624
1734.3922777991502,2633
1736.3966693544012,2657
1738.4005546868639,2659
1740.4039340544127,2609
1742.406807715001,2658
1744.4091759266616,2670
1746.4110389475054,2616
1748.4123970357223,2550
1750.413250449582,2636
1752.4135994474318,2582
1754.4134442876993,2634
1756.4127852288902,2597
1758.4116225295893,2618
1760.4099564484595,2640
1762.407787244244,2528
1764.405115175764,2653
1766.4019405019203,2604
1768.3982634816916,2605
1770.3940843741357,2509
1772.3894034383907,2493
1774.3842209336717,2624
1776.378537119274,2608
1778.372352254571,2540
1780.3656665990156,2578
1782.3584804121397,2562
1784.3507939535534,2439
1786.3426074829463,2593
1788.3339212600863,2550
1790.3247355448211,2585
1792.3150505970766,2566
1794.3048666768573,2544
1796.2941840442477,2580
1798.2830029594106,2542
1800.2713236825884,2575
1802.2591464741004,2594
1804.2464715943465,2579
1806.2332993038058,2616
1808.2196298630352,2596
1810.2054635326708,2625
1812.190800573428,2487
1814.175641246101,2602
1816.1599858115628,2586
1818.1438345307652,2530
1820.127187664738,2600
1822.1100454745924,2569
1824.092408221516,2561
1826.0742761667766,2555
1828.055649571721,2561
1830.0365286977735,2510
1832.0169138064398,2438
1833.9968051593014,2514
1835.9762030180214,2511
1837.9551076443408,2629
1839.9335193000788,2551
1841.9114382471344,2570
1843.888864747485,2586
1845.8657990631878,2561
1847.842241456378,2549
1849.8181921892697,2445
1851.7936515241558,2476
1853.7686197234098,2562
1855.7430970494815,2500
1857.7170837649014,2495
1859.6905801322787,2568
1861.6635864143004,2525
1863.6361028737338,2576
1865.608129773424,2546
1867.5796673762961,2518
1869.5507159453537,2509
1871.521275743678,2495
1873.4913470344313,2551
1875.4609300808534,2531
1877.4300251462632,2543
1879.3986324940588,2535
1881.366752387717,2505
1883.3343850907936,2549
1885.3015308669228,2612
1887.268189979819,2500
1889.2343626932739,2610
1891.2000492711595,2503
1893.1652499774254,2546
1895.1299650761011,2591
1897.0941948312952,2533
1899.0579395071945,2511
1901.0211993680641,2600
1902.98397467825,2533
1904.9462657021745,2539
1906.9080727043415,2532
1908.869395949332,2551
1910.8302357018065,2531
1912.790592226504,2469
1914.7504657882428,2528
1916.7098566519212,2488
1918.6687650825133,2528
1920.6271913450764,2510
1922.5851357047422,2532
1924.5425984267245,2466
1926.499579776314,2585
1928.4560800188833,2498
1930.4120994198802,2513
1932.367638244833,2521
1934.32269675935,2535
1936.2772752291175,2487
1938.231373919899,2572
1940.1849930975404,2491
1942.1381330279637,2502
1944.0907939771696,2530
1946.0429762112412,2520
1947.9946799963363,2522
1949.9459055986945,2489
1951.896653284633,2516
1953.8469233205478,2549
1955.7967159729142,2508
1957.7460315082863,2512
1959.6948701932974,2542
1961.6432322946594,2472
1963.5911180791632,2412
1965.5385278136787,2462
1967.4854617651545,2574
1969.4319202006182,2557
1971.377903387176,2519
1973.3234115920136,2505
1975.268445082395,2459
1977.2130041256642,2575
1979.1570889892423,2499
1981.1006999406304,2506
1983.04383724741,2449
1984.986501177238,2501
1986.928691997853,2518
1988.8704099770712,2466
1990.811655382789,2549
1992.7524284829801,2509
1994.692729545698,2510
1996.6325588390755,2523
1998.5719166313224,2474
2000.5108031907307,2432
2002.4492187856677,2461
2004.387163684583,2417
2006.3246381560011,2480
2008.2616424685298,2431
2010.1981768908527,2490
2012.1342416917332,2436
2014.069837140014,2447
2016.0049635046162,2426
2017.9396210545406,2500
2019.8738100588666,2357
2021.8075307867502,2454
2023.740783507431,2485
2025.6735684902228,2419
2027.6058860045214,2495
2029.5377363198004,2435
2031.4691197056118,2456
2033.4000364315875,2404
2035.3304867674374,2414
2037.260470982952,2441
2039.189989347998,2460
2041.1190421325232,2437
2043.047629606554,2380
2044.9757520401945,2462
2046.9034097036288,2525
2048.8306028671195,2418
2050.7573318010086,2450
2052.683596775716,2467
2054.609398061742,2371
2056.5347359296647,2498
2058.4596106501403,2525
2060.384022493906,2407
2062.3079717317764,2464
2064.231458634646,2506
2066.1544834734873,2390
2068.077046519352,2474
2069.99914804337,2406
2071.9207883167524,2517
2073.8419676107865,2467
2075.7626861968406,2461
2077.6829443463607,2502
2079.6027423308715,2468
2081.522080421977,2439
2083.440958891362,2509
2085.359378010786,2486
2087.2773380520907,2542
2089.194839287196,2465
2091.111881988101,2532
2093.0284664268825,2486
2094.9445928756973,2372
2096.86026160678,2417
2098.775472892446,2438
2100.690227005088,2410
2102.604524217178,2506
2104.5183648012676,2412
2106.431749029985,2370
2108.34467717604,2450
2110.2571495122206,2466
2112.169166311393,2460
2114.080727846503,2461
2115.9918343905747,2504
2117.902486216711,2527
2119.8126835980956,2427
2121.722426807987,2476
2123.6317161197285,2462
2125.5405518067364,2414
2127.448934142509,2480
2129.356863400624,2442
2131.264339854737,2477
2133.1713637785815,2416
2135.077935445972,2425
2136.9840551308002,2469
2138.889723107037,2493
2140.7949396487334,2490
2142.699705030018,2430
2144.6040195250994,2491
2146.507883408264,2461
2148.4112969538774,2470
2150.3142604363848,2530
2152.2167741303097,2506
2154.1188383102535,2521
2156.0204532508997,2509
2157.9216192270064,2432
2159.822336513414,2421
2161.7226053850413,2480
2163.622426116884,2428
2165.5217989840185,2446
2167.4207242616,2421
2169.319202224862,2442
2171.2172331491165,2506
2173.1148173097563,2516
2175.0119549822507,2551
2176.90864644215,2433
2178.8048919650823,2483
2180.7006918267534,2426
2182.596046302952,2461
2184.4909556695407,2559
2186.3854202024645,2488
2188.279440177746,2457
2190.173015871487,2489
2192.066147559868,2446
2193.958835519149,2503
2195.851080025667,2495
2197.7428813558417,2441
2199.6342397861667,2452
2201.5251555932186,2501
2203.415629053651,2448
2205.3056604441986,2548
2207.19525004167,2470
2209.084398122958,2448
2210.9731049650327,2488
2212.861370844941,2551
2214.749196039812,2497
2216.636580826851,2467
2218.523525483344,2458
2220.410030286655,2493
2222.296095514226,2511
2224.1817214435805,2512
2226.066908352319,2483
2227.951656518121,2505
2229.835966218746,2537
2231.71983773203,2546
2233.6032713358913,2504
2235.486267308324,2445
2237.3688259274036,2472
2239.2509474712824,2525
2241.132632218193,2557
2243.013880446447,2482
2244.8946924344323,2580
2246.7750684606203,2488
2248.6550088035574,2485
2250.534513741871,2562
2252.413583554265,2484
2254.292218519526,2577
2256.170418916517,2446
2258.0481850241786,2538
2259.925517121534,2504
2261.8024154876825,2507
2263.678880401803,2572
2265.5549121431536,2554
2267.430510991071,2526
2269.305677224971,2516
2271.180411124348,2448
2273.0547129687766,2525
2274.9285830379076,2479
2276.8020216114737,2552
2278.6750289692845,2566
2280.5476053912294,2488
2282.4197511572766,2514
2284.2914665474727,2563
2286.162751841943,2483
2288.0336073208937,2496
2289.904033264608,2510
2291.774029953448,2570
2293.6435976678554,2498
2295.5127366883517,2530
2297.381447295534,2500
2299.2497297700825,2650
2301.1175843927526,2598
2302.9850114443825,2597
2304.852011205885,2559
2306.7185839582553,2548
2308.5847299825664,2530
2310.4504495599676,2571
2312.3157429716925,2530
2314.1806104990483,2509
2316.0450524234247,2626
2317.9090690262888,2579
2319.772660589186,2546
2321.635827393742,2563
2323.498569721661,2531
2325.3608878547248,2565
2327.2227820747967,2602
2329.0842526638157,2681
2330.945299903803,2616
2332.805924076857,2516
2334.6661254651535,2599
2336.525904350951,2618
2338.3852610165827,2533
2340.244195744464,2583
2342.102708817088,2595
2343.9608005170253,2617
2345.8184711269287,2632
2347.675720929526,2572
2349.532550207628,2594
2351.38895924412,2565
2353.24494832197,2680
2355.100517724223,2649
2356.955667734004,2661
2358.810398634514,2551
2360.664710709037,2621
2362.5186042409337,2613
2364.3720795136437,2589
2366.225136810686,2647
2368.0777764156583,2659
2369.929998612237,2570
2371.7818036841777,2580
2373.633191915315,2600
2375.484163589562,2631
2377.3347189909114,2636
2379.184858403434,2634
2381.03458211128,2622
2382.8838903986775,2584
2384.732783549936,2651
2386.5812618494406,2641
2388.4293255816588,2631
2390.2769750311327,2570
2392.1242104824883,2626
2393.971032220427,2579
2395.8174405297295,2618
2397.6634356952563,2645
2399.509018001947,2679
2401.3541877348193,2642
2403.1989451789705,2614
2405.043290619576,2655
2406.8872243418905,2617
2408.730746631247,2626
2410.5738577730594,2715
2412.4165580528183,2642
2414.258847756095,2659
2416.100727168537,2618
2417.9421965758734,2612
2419.783256263912,2698
2421.623906518538,2696
2423.4641476257157,2801
2425.303979871491,2730
2427.143403541984,2661
2428.9824189233977,2620
2430.821026302012,2665
2432.6592259641866,2657
2434.497018196361,2783
2436.33440328505,2675
2438.171381516851,2714
2440.00795317844,2806
2441.844118556569,2670
2443.6798779380724,2752
2445.5152316098606,2719
2447.3501798589255,2726
2449.1847229723357,2674
2451.0188612372403,2694
2452.8525949408663,2688
2454.6859243705203,2690
2456.518849813587,2691
2458.3513715575314,2705
2460.183489889895,2665
2462.015205098301,2688
2463.8465174704493,2690
2465.67742729412,2679
2467.5079348571717,2726
2469.338040447542,2740
2471.1677443532476,2723
2472.9970468623833,2711
2474.825948263123,2694
2476.6544488437207,2671
2478.482548892508,2710
2480.310248697896,2700
2482.137548548374,2604
2483.9644487325118,2694
2485.790949538956,2697
2487.617051256433,2754
2489.44275417375,2706
2491.26805857979,2702
2493.0929647635157,2775
2494.917473013971,2760
2496.741583620276,2785
2498.5652968716304,2769
2500.3886130573137,2794
2502.2115324666834,2749
2504.0340553891765,2807
2505.856182114308,2810
2507.6779129316733,2804
2509.499248130945,2832
2511.3201880018764,2770
2513.140732834298,2709
2514.9608829181198,2775
2516.780638543331,2759
2518.6,2722
2520.418967578273,2784
2522.237541568376,2814
2524.0557222606144,2693
2525.8735099453706,2782
2527.6909049131086,2755
2529.507907454368,2865
2531.32451785977,2800
2533.140736420014,2778
2534.9565634258774,2888
2536.771999168218,2776
2538.5870439379714,2818
2540.4016980261526,2806
2542.2159617238544,2771
2544.02983532225,2785
2545.8433191125914,2834
2547.656413386209,2947
2549.4691184345115,2819
2551.2814345489874,2795
2553.093362021204,2864
2554.904901142808,2863
2556.716052205523,2819
2558.526815501153,2856
2560.3371913215824,2888
2562.147179958771,2842
2563.956781704761,2916
2565.7659968516705,2829
2567.5748256916986,2964
2569.3832685171224,2864
2571.1913256202984,2945
2572.9989972936614,2946
2574.806283829725,2989
2576.613185521084,3022
2578.4197026604074,2927
2580.2258355404483,3003
2582.031584454035,3032
2583.836949694077,3000
2585.6419315535613,2950
2587.4465303255533,2901
2589.2507463032002,2984
2591.0545797797245,3059
2592.8580310484303,3038
2594.6611004026995,3112
2596.463788135992,3086
2598.266094541849,3136
2600.0680199138874,3081
2601.869564545807,3021
2603.670728731383,3071
2605.4715127644704,3123
2607.2719169390048,3053
2609.071941548998,3142
2610.8715868885433,3087
2612.670853251811,3081
2614.469740933052,3079
2616.268250226594,3129
2618.0663814268455,3075
2619.864134828292,3130
2621.6615107255006,3135
2623.458509413115,3056
2625.2551311858597,3116
2627.0513763385347,3122
2628.8472451660223,3045
2630.6427379632833,3038
2632.4378550253564,3005
2634.232596647359,3050
2636.026963124488,3112
2637.8209547520187,3091
2639.6145718253065,3044
2641.407814639785,3112
2643.200683490966,3011
2644.9931786744414,3023
2646.7853004858807,3030
2648.577049221034,3041
2650.3684251757277,2986
2652.1594286458712,2866
2653.9500599274484,2978
2655.740319316525,2884
2657.5302071092437,2933
2659.3197236018286,2976
2661.10886909058,2954
2662.8976438718782,2915
2664.686048242183,2821
2666.4740824980327,2872
2668.2617469360443,2891
2670.0490418529134,2774
2671.8359675454153,2842
2673.622524310403,2821
2675.408712444811,2816
2677.1945322456495,2810
2678.979984010009,2822
2680.76506803506,2839
2682.5497846180497,2860
2684.334134056306,2783
2686.1181166472343,2820
2687.9017326883213,2790
2689.6849824771293,2777
2691.4678663113013,2818
2693.2503844885596,2862
2695.032537306705,2768
2696.8143250636167,2845
2698.5957480572542,2848
2700.3768065856534,2733
2702.1575009469316,2808
2703.937831439283,2672
2705.717798360982,2757
2707.4974020103837,2726
2709.276642685917,2689
2711.055520686095,2683
2712.834036309506,2752
2714.612189854819,2760
2716.389981620782,2754
2718.1674119062204,2746
2719.944481010041,2750
2721.721189231226,2756
2723.4975368688415,2662
2725.273524222027,2695
2727.0491515900053,2771
2728.824419272075,2838
2730.5993275676146,2733
2732.3738767760838,2724
2734.148067197016,2743
2735.921899130031,2698
2737.6953728748194,2725
2739.468488731156,2771
2741.2412469988926,2776
2743.0136479779617,2741
2744.785691968372,2718
2746.5573792702116,2721
2748.3287101836504,2713
2750.099685008934,2746
2751.870304046388,2709
2753.640567596418,2792
2755.4104759595057,2670
2757.1800294362156,2592
2758.949228327187,2692
2760.7180729331412,2692
2762.486563554877,2687
2764.254700493272,2668
2766.022484049284,2711
2767.789914523947,2634
2769.5569922183786,2649
2771.3237174337705,2734
2773.090090471394,2717
2774.8561116326036,2711
2776.6217812188274,2699
2778.3870995315756,2680
2780.1520668724356,2681
2781.9166835430747,2657
2783.6809498452394,2714
2785.444866080754,2714
2787.2084325515225,2718
2788.971649559527,2802
2790.73451740683,2738
2792.4970363955713,2631
2794.2592068279705,2737
2796.0210290063264,2709
2797.7825032330147,2669
2799.543629810493,2691
2801.304409041296,2665
2803.0648412280366,2668
2804.8249266734088,2730
2806.5846656801846,2766
2808.344058551212,2679
2810.1031055894246,2743
2811.8618070978273,2680
2813.6201633795085,2759
2815.378174737636,2734
2817.1358414754536,2784
2818.893163896285,2746
2820.6501423035334,2759
2822.4067770006814,2729
2824.1630682912883,2688
2825.9190164789957,2703
2827.6746218675207,2746
2829.429884760661,2778
2831.184805462294,2740
2832.9393842763743,2722
2834.693621506936,2756
2836.4475174580916,2718
2838.201072434034,2679
2839.954286739034,2722
2841.707160677441,2679
2843.459694553685,2716
2845.2118886722724,2661
2846.96374333779,2701
2848.7152588549034,2760
2850.4664355283567,2728
2852.217273662973,2739
2853.9677735636546,2705
2855.7179355353833,2818
2857.4677598832186,2763
2859.217246912299,2780
2860.9663969278427,2728
2862.715210235146,2779
2864.4636871395846,2742
2866.211827946614,2743
2867.9596329617652,2732
2869.7071024906536,2776
2871.4542368389684,2798
2873.20103631248,2699
2874.947501217038,2680
2876.6936318585695,2632
2878.4394285430812,2770
2880.1848915766604,2740
2881.9300212654707,2743
2883.6748179157553,2711
2885.4192818338374,2749
2887.1634133261173,2734
2888.907212699077,2704
2890.6506802592744,2639
2892.393816313348,2753
2894.1366211680142,2666
2895.8790951300693,2702
2897.621238506388,2745
2899.363051603925,2753
2901.1045347297118,2653
2902.8456881908596,2670
2904.58651229456,2815
2906.327007348081,2689
2908.067173658772,2728
2909.8070115340597,2749
2911.5465212814497,2661
2913.285703208527,2726
2915.0245576229563,2732
2916.7630848324807,2692
2918.5012851449196,2774
2920.2391588681758,2668
2921.976706310227,2640
2923.7139277791334,2669
2925.4508235830313,2665
2927.187394030137,2672
2928.923639428745,2724
2930.6595600872306,2749
2932.395156314046,2729
2934.1304284177218,2694
2935.8653767068713,2703
2937.6000014901815,2735
2939.3343030764227,2718
2941.068281774442,2719
2942.8019378931644,2766
2944.5352717415976,2769
2946.2682836288236,2766
2948.0009738640065,2723
2949.7333427563885,2684
2951.465390615289,2710
2953.1971177501086,2658
2954.9285244703265,2666
2956.6596110855,2697
2958.3903779052657,2651
2960.1208252393385,2699
2961.8509533975125,2685
2963.5807626896617,2698
2965.3102534257378,2733
2967.0394259157715,2753
2968.768280469873,2745
2970.496817398232,2706
2972.2250370111146,2675
2973.952939618869,2694
2975.6805255319196,2683
2977.4077950607707,2697
2979.134748516006,2697
2980.861386208289,2754
2982.587708448359,2763
2984.313715547037,2708
2986.039407815222,2736
2987.764785563891,2679
2989.489849104102,2785
2991.2145987469908,2791
2992.9390348037705,2769
2994.6631575857346,2668
2996.3869674042576,2701
2998.1104645707887,2747
2999.83364939686,2681
3001.5565221940783,2695
3003.2790832741334,2677
3005.0013329487924,2663
3006.7232715298996,2606
3008.4448993293804,2652
3010.166216659239,2694
3011.887223831558,2655
3013.607921158498,2580
3015.3283089522993,2708
3017.0483875252826,2661
3018.7681571898443,2627
3020.4876182584626,2749
3022.2067710436927,2705
3023.9256158581707,2727
3025.644153014609,2733
3027.362382825801,2665
3029.0803056046193,2672
3030.797921664012,2621
3032.5152313170106,2760
3034.2322348767225,2694
3035.9489326563353,2664
3037.665324969115,2701
3039.3814121284063,2709
3041.097194447633,2713
3042.812672240299,2721
3044.5278458199855,2679
3046.2427155003525,2752
3047.9572815951406,2732
3049.671544418167,2640
3051.38550428333,2706
3053.0991615046073,2694
3054.812516396051,2772
3056.5255692717974,2686
3058.2383204460575,2728
3059.9507702331257,2744
3061.662918947372,2636
3063.3747669032446,2694
3065.0863144152736,2712
3066.7975617980674,2754
3068.508509366309,2660
3070.219157434767,2701
3071.9295063182844,2668
3073.639556331785,2727
3075.3493077902704,2704
3077.058761008821,2620
3078.7679163025964,2638
3080.476773986837,2655
3082.1853343768594,2734
3083.89359778806,2710
3085.6015645359153,2589
3087.3092349359786,2647
3089.016609303884,2707
3090.7236879553434,2710
3092.4304712061476,2702
3094.136959372166,2666
3095.843152769349,2662
3097.5490517137237,2708
3099.2546565213966,2599
3100.959967508554,2685
3102.66498499146,2685
3104.3697092864577,2681
3106.0741407099695,2648
3107.778279578498,2686
3109.482126208622,2709
3111.1856809170004,2719
3112.8889440203716,2683
3114.5919158355528,2725
3116.294596679439,2745
3117.996986869006,2717
3119.6990867213062,2633
3121.4008965534726,2756
3123.102416682717,2728
3124.803647426329,2758
3126.5045891016784,2743
3128.205242026213,2669
3129.90560651746,2724
3131.605682893025,2659
3133.3054714705922,2718
3135.0049725679282,2673
3136.7041865028714,2721
3138.4031135933465,2707
3140.101754157353,2726
3141.800108512971,2683
3143.498176978357,2706
3145.1959598717494,2688
3146.8934575114636,2668
3148.5906702158954,2667
3150.2875983035183,2699
3151.9842420928853,2740
3153.680601902627,2690
3155.376678051456,2619
3157.07247085816,2595
3158.767980641609,2565
3160.463207720748,2583
3162.158152414606,2672
3163.8528150422862,2651
3165.5471959229726,2637
3167.2412953759303,2672
3168.9351137204976,2645
3170.628651276098,2705
3172.3219083622307,2694
3174.014885298474,2640
3175.707582404485,2663
3177.4000000000005,2637
3179.092138404835,2675
3180.7839979388846,2721
3182.47557892212,2676
3184.166881674594,2700
3185.8579065164386,2660
3187.5486537678626,2752
3189.2391237491547,2686
3190.9293167806827,2727
3192.6192331828934,2725
3194.3088732763117,2634
3195.998237381542,2622
3197.687325819268,2642
3199.376138910251,2657
3201.064676975334,2627
3202.7529403354347,2659
3204.4409293115523,2606
3206.1286442247647,2646
3207.816085396229,2680
3209.5032531471825,2668
3211.190147798936,2588
3212.8767696728846,2615
3214.5631190905015,2627
3216.2491963733373,2666
3217.9350018430214,2642
3219.6205358212637,2625
3221.305798629851,2540
3222.990790590651,2545
3224.6755120256103,2564
3226.359963256751,2556
3228.0441446061795,2575
3229.7280563960758,2497
3231.411698948703,2595
3233.0950725863995,2664
3234.778177631587,2580
3236.461014406761,2622
3238.1435832345005,2691
3239.8258844374595,2624
3241.507918338374,2625
3243.1896852600576,2655
3244.8711855254023,2617
3246.552419457381,2716
3248.233387379042,2665
3249.914089613516,2604
3251.59452648401,2610
3253.274698313813,2602
3254.95460542629,2631
3256.6342481448855,2711
3258.313626793125,2556
3259.9927416946084,2639
3261.6715931730196,2535
3263.3501815521176,2526
3265.0285071557437,2643
3266.706570307815,2497
3268.3843713323286,2540
3270.0619105533615,2531
3271.739188295068,2576
3273.4162048816834,2516
3275.0929606375184,2678
3276.769455886966,2562
3278.445690954498,2607
3280.1216661646613,2566
3281.797381842087,2702
3283.4728383114807,2626
3285.1480358976296,2651
3286.8229749253996,2620
3288.4976557197333,2620
3290.172078605655,2542
3291.846243908266,2515
3293.5201519527463,2557
3295.193803064357,2604
3296.8671975684374,2560
3298.5403357904024,2597
3300.21321805575,2487
3301.8858446900567,2525
3303.558216018975,2502
3305.23033236824,2680
3306.9021940636603,2576
3308.57380143113,2561
3310.2451547966184,2549
3311.916254486174,2662
3313.5871008259246,2537
3315.2576941420766,2524
3316.9280347609147,2583
3318.5981230088046,2501
3320.2679592121895,2495
3321.9375436975924,2506
3323.606876791612,2457
3325.27595882093,2530
3326.944790112305,2536
3328.6133709925753,2537
3330.2817017886573,2403
3331.949782827547,2473
3333.617614436319,2495
3335.2851969421245,2493
3336.952530672199,2520
3338.619615953853,2537
3340.286453114475,2551
3341.9530424815357,2625
3343.619384382583,2568
3345.2854791452437,2538
3346.951327097224,2528
3348.6169285663073,2580
3350.2822838803577,2568
3351.947393367319,2620
3353.61225735521,2565
3355.2768761721345,2519
3356.9412501462693,2492
3358.605379605873,2552
3360.2692648792827,2596
3361.9329062949146,2520
3363.596304181263,2480
