CollectionTime,6/28/2024 2:15:21 PM
ExposureUsed,3
CalibratedSpectrum
-962.7078968117929,1939
-959.9714848408522,2067
-957.2358232597828,2074
-954.5009119013725,2041
-951.7667505983302,2020
-949.0333391832855,1997
-946.3006774887896,1947
-943.5687653473143,2014
-940.837602591253,2000
-938.1071890529199,2025
-935.3775245645503,2015
-932.6486089583007,2032
-929.9204420662485,1980
-927.1930237203925,2059
-924.4663537526524,2095
-921.7404319948689,2024
-919.0152582788041,1954
-916.2908324361409,2071
-913.5671542984834,2038
-910.8442236973568,2083
-908.1220404642074,1990
-905.4006044304027,1956
-902.679915427231,2009
-899.959973285902,1980
-897.2407778375464,2049
-894.5223289132158,1997
-891.8046263438832,1944
-889.0876699604426,1966
-886.3714595937089,1902
-883.6559950744183,1903
-880.9412762332282,1862
-878.2273029007168,1951
-875.5140749073835,1930
-872.8015920836489,1923
-870.0898542598545,1948
-867.3788612662631,1928
-864.6686129330585,1886
-861.9591090903457,1924
-859.2503495681506,1891
-856.5423341964203,1953
-853.8350628050229,1919
-851.1285352237478,1886
-848.4227512823054,1901
-845.7177108103272,1895
-843.0134136373656,1879
-840.3098595928943,1876
-837.6070485063082,1871
-834.9049802069229,1934
-832.2036545239757,1927
-829.5030712866244,1921
-826.8032303239481,1857
-824.1041314649472,1879
-821.4057745385428,1964
-818.7081593735775,1839
-816.0112857988148,1908
-813.3151536429393,1914
-810.6197627345566,1934
-807.9251129021936,1861
-805.2312039742981,1841
-802.5380357792392,1928
-799.8456081453069,1944
-797.1539209007124,1796
-794.462973873588,1875
-791.772766891987,1862
-789.083299783884,1839
-786.3945723771743,1901
-783.7065844996748,1856
-781.0193359791231,1827
-778.3328266431781,1862
-775.6470563194197,1904
-772.9620248353489,1892
-770.2777320183878,1860
-767.5941776958798,1855
-764.9113616950891,1863
-762.2292838432011,1893
-759.5479439673222,1858
-756.8673418944801,1861
-754.1874774516235,1839
-751.5083504656222,1862
-748.8299607632671,1877
-746.15230817127,1838
-743.475392516264,1850
-740.7992136248035,1930
-738.1237713233636,1855
-735.4490654383407,1894
-732.7750957960521,1870
-730.1018622227365,1903
-727.4293645445534,1884
-724.7576025875837,1903
-722.0865761778291,1898
-719.4162851412126,1965
-716.7467293035781,1948
-714.0779084906909,1957
-711.409822528237,1974
-708.7424712418238,1909
-706.0758544569796,1871
-703.4099719991541,1918
-700.7448236937178,1852
-698.0804093659622,1883
-695.4167288411002,1948
-692.7537819442656,1911
-690.0915685005134,1897
-687.4300883348199,1869
-684.7693412720819,1910
-682.1093271371178,1860
-679.4500457546669,1942
-676.7914969493897,2020
-674.1336805458676,1971
-671.4765963686034,1914
-668.8202442420206,1899
-666.1646239904642,1973
-663.5097354382001,1983
-660.8555784094151,1996
-658.2021527282176,1981
-655.5494582186366,1927
-652.8974947046223,1968
-650.2462620100463,1982
-647.5957599587009,2000
-644.9459883742998,2011
-642.2969470804776,1980
-639.6486359007902,2021
-637.0010546587141,2025
-634.3542031776476,1926
-631.7080812809096,2000
-629.0626887917401,1922
-626.4180255333008,1966
-623.7740913286734,1997
-621.1308860008619,1898
-618.4884093727904,1944
-615.8466612673046,1970
-613.2056415071715,1928
-610.5653499150785,1964
-607.9257863136347,1919
-605.28695052537,1981
-602.6488423727357,2007
-600.0114616781036,1914
-597.3748082637674,1942
-594.7388819519412,1968
-592.1036825647604,1975
-589.4692099242818,1985
-586.8354638524829,2006
-584.2024441712624,1956
-581.5701507024403,1981
-578.9385832677575,1954
-576.3077416888759,1997
-573.6776257873787,1994
-571.0482353847704,2023
-568.4195703024757,2080
-565.7916303618415,1970
-563.164415384135,1981
-560.5379251905453,1964
-557.9121596021815,1979
-555.2871184400748,2021
-552.6628015251767,1958
-550.0392086783606,1889
-547.4163397204204,1977
-544.794194472071,1986
-542.1727727539491,2083
-539.5520743866118,2017
-536.9320991905377,1993
-534.3128469861261,2064
-531.6943175936979,2067
-529.0765108334947,2112
-526.4594265256793,2191
-523.8430644903358,2331
-521.2274245474689,2475
-518.612506517005,2554
-515.9983102187913,2601
-513.3848354725959,2651
-510.77208209810846,2692
-508.16004991493924,2812
-505.5487387426199,2824
-502.9381484006032,3176
-500.3282787082628,3087
-497.71912948489364,3211
-495.1107005497117,3228
-492.5029917218539,3162
-489.8960028203786,2946
-487.28973366426493,2716
-484.68418407241325,2563
-482.07935386364494,2413
-479.47524285670266,2404
-476.87185087025,2416
-474.2691777228715,2334
-471.66722323307334,2373
-469.0659872192821,2303
-466.4654694998459,2304
-463.86566989303384,2323
-461.26658821703614,2283
-458.66822428996414,2218
-456.07057792985,2240
-453.4736489546475,2306
-450.877437182231,2258
-448.28194243039627,2171
-445.68716451686,2128
-443.09310325926003,2130
-440.49975847515555,2100
-437.9071299820263,2065
-435.31521759727354,2071
-432.72402113821954,2196
-430.13354042210767,2204
-427.5437752661022,2200
-424.95472548728867,2216
-422.36639090267386,2178
-419.7787713291855,2226
-417.1918665836721,2187
-414.60567648290385,2223
-412.0202008435715,2228
-409.4354394822874,2293
-406.8513922155845,2211
-404.26805885991723,2276
-401.685439231661,2195
-399.103533147112,2157
-396.522340422488,2130
-393.9418608739278,2145
-391.3620943174908,2014
-388.7830405691583,1967
-386.2046994448317,1965
-383.6270707603344,1777
-381.05015433141045,1671
-378.473949973725,1446
-375.8984575028645,1349
-373.32367673433623,1143
-370.74960748356875,1082
-368.1762495659117,989
-365.60360279663576,857
-363.03166699093265,761
-360.4604419639154,695
-357.8899275306178,640
-355.32012350599507,638
-352.7510297049233,610
-350.1826459421999,575
-347.61497203254316,567
-345.04800779059235,560
-342.4817530309082,499
-339.91620756797226,503
-337.35137121618743,518
-334.7872437898774,544
-332.22382510328725,550
-329.66111497058273,548
-327.09911320585127,585
-324.53781962310075,621
-321.9772340362607,663
-319.4173562591816,636
-316.8581861056348,574
-314.2997233893127,576
-311.7419679238294,587
-309.1849195227194,577
-306.62857799943856,510
-304.0729431673641,521
-301.51801483979375,530
-298.963792829947,517
-296.41027695096386,572
-293.85746701590574,605
-291.3053628377552,663
-288.7539642294155,727
-286.2032710037115,772
-283.65328297338897,696
-281.1039999511146,716
-278.5554217494762,715
-276.007548180983,708
-273.4603790580651,625
-270.9139141930734,589
-268.3681533982807,666
-265.8230964858798,650
-263.27874326798565,690
-260.7350935566336,716
-258.1921471637804,703
-255.6499039013039,702
-253.10836358100266,654
-250.56752601459698,650
-248.02739101372765,835
-245.48795838995704,952
-242.94922795476816,858
-240.41119951956557,718
-237.8738728956746,770
-235.33724789434166,925
-232.80132432673452,1029
-230.2661020039418,835
-227.73158073697357,725
-225.19776033676033,723
-222.66464061415422,707
-220.1322213799284,698
-217.60050244477725,789
-215.06948361931552,818
-212.53916471408013,845
-210.00954553952818,767
-207.48062590603843,796
-204.9524056239104,970
-202.4248845033651,902
-199.8980623545441,765
-197.37193898751036,752
-194.84651421224817,818
-192.32178783866232,838
-189.79775967657952,857
-187.27442953574644,934
-184.7517972258321,853
-182.2298625564256,859
-179.7086253370378,911
-177.18808537710026,877
-174.66824248596583,818
-172.14909647290835,936
-169.6306471471229,934
-167.11289431772548,883
-164.59583779375328,922
-162.07947738416453,860
-159.5638128978386,882
-157.04884414357605,948
-154.53457093009854,1033
-152.02099306604828,1071
-149.50811035998936,1066
-146.99592262040665,1063
-144.48442965570587,1263
-141.97363127421409,1386
-139.46352728417958,1263
-136.95411749377126,1113
-134.44540171107985,1265
-131.93737974411636,1203
-129.43005140081357,1370
-126.92341648902493,1486
-124.41747481652521,1571
-121.91222619101006,1505
-119.40767042009657,1443
-116.90380731132257,1518
-114.40063667214702,1527
-111.8981583099503,1394
-109.3963720320337,1488
-106.89527764561933,1559
-104.39487495785067,1744
-101.89516377579241,1814
-99.39614390642998,1917
-96.89781515667039,1774
-94.40017733334128,2069
-91.90323024319173,1946
-89.40697369289148,1929
-86.91140748903172,1900
-84.41653143812482,1876
-81.92234534660395,2089
-79.42884902082358,2362
-76.93604226705907,2441
-74.4439248915071,2158
-71.95249670028534,2146
-69.46175749943245,2537
-66.97170709490854,3048
-64.48234529259423,3510
-61.99367189829195,2717
-59.50568671772464,2685
-57.01838955653636,2965
-54.53178022029283,3207
-52.045858514480074,3049
-49.560624244506016,3244
-47.07607721569923,3452
-44.59221723330904,3747
-42.10904410250669,3758
-39.62655762838392,4500
-37.14475761595372,5556
-34.66364387015028,6724
-32.18321619582866,8248
-29.70347439776515,9460
-27.224418280657005,10445
-24.74604764912317,15851
-22.26836230770266,27848
-19.7913620608565,45758
-17.315046712966478,57163
-14.83941606833514,65030
-12.36446993118659,65030
-9.89020810566592,65030
-7.416630395839093,65030
-4.94373660569363,65030
-2.471526539137585,65030
-6.821210263296962E-13,65030
2.47084320796705,65030
4.941003281093458,65030
7.410480415786196,65030
9.879274808531363,65030
12.347386655893956,65030
14.814816154518212,65030
17.28156350112681,65030
19.74762889252179,65030
22.21301252558385,65030
24.67771459727237,37094
27.141735304626195,13376
29.605074844762612,8420
32.06773341487792,10550
34.52971121224755,12975
36.99100843422559,11407
39.45162527824516,9448
41.91156194181792,7736
44.370818622535126,8920
46.82939551806646,11078
49.287292826160524,14059
51.74451074464503,14035
54.201049471426245,10277
56.65690920448981,8082
59.112090141899785,5698
61.56659248179983,5070
64.02041642241159,4107
66.4735621620365,3735
68.92602989905402,3135
71.37781983192338,2753
73.82893215918205,3218
76.27936707944684,3500
78.72912479141326,2844
81.17820549385567,2750
83.62660938562783,2874
86.07433666566146,2703
88.5213875329681,2700
90.96776218663751,2219
93.41346082583925,2230
95.85848364982041,2381
98.30283085790859,2425
100.7465026495089,2253
103.18949922410604,2207
105.63182078126385,2098
108.07346752062438,2313
110.51443964190923,2000
112.95473734491827,1521
115.39436082953114,1443
117.83331029570547,1707
120.27158594347827,1928
122.7091879729652,1549
125.1461165843615,1489
127.58237197794062,1625
130.01795435405518,1666
132.4528639131364,1583
134.88710085569494,1667
137.32066538231982,1637
139.75355769367923,1759
142.1857779905207,1703
144.61732647366978,1962
147.04820334403132,1972
149.47840880258934,1758
151.90794305040674,2041
154.33680628862487,2217
156.76499871846443,2180
159.19252054122433,2461
161.61937195828352,2630
164.04555317109896,2900
166.47106438120693,3104
168.89590579022217,3747
171.320077599839,3858
173.7435800118302,3841
176.16641322804742,4052
178.58857745042144,4231
181.01007288096173,4476
183.43089972175687,4675
185.85105817497413,4761
188.27054844285988,4935
190.6893707277394,4893
193.10752523201643,4902
195.5250121581745,5039
197.9418317087751,5081
200.3579840864594,5191
202.7734694939469,5233
205.18828813403627,5103
207.6024402096051,5043
210.01592592360964,4898
212.42874547908548,4946
214.84089907914665,4784
217.2523869269868,4906
219.66320922587727,4837
222.0733661791695,4747
224.48285799029293,4863
226.8916848627572,4799
229.29984700014882,4958
231.7073446061355,5071
234.11417788446204,4892
236.520347038953,5021
238.92585227351185,5186
241.33069379212054,5116
243.73487179884035,5182
246.1383864978112,5007
248.541238093252,4960
250.9434267894609,5114
253.34495279081432,5111
255.74581630176783,4990
258.1460175268563,5012
260.54555667069314,4895
262.9444339379703,4934
265.3426495334594,5011
267.7402036620107,4947
270.1370965285529,4754
272.53332833809407,4781
274.9288992957214,4857
277.32380960660055,4632
279.718059475976,4618
282.1116491091717,4691
284.5045787115897,4775
286.89684848871195,4733
289.2884586460981,4758
291.67940938938807,4681
294.0697009242996,4671
296.4593334566299,4749
298.84830719225477,4476
301.23662233712923,4571
303.6242790972866,4627
306.01127767884,4634
308.39761828798066,4562
310.78330113097934,4632
313.16832641418534,4619
315.5526943440269,4529
317.9364051270112,4484
320.3194589697242,4470
322.70185607883093,4389
325.0835966610754,4326
327.4646809232805,4302
329.8451090723478,4346
332.2248813152577,4347
334.6039978590701,4320
336.9824589109231,4367
339.36026467803447,4354
341.7374153677,4340
344.113911187295,4293
346.48975234427337,4201
348.8649390461686,4235
351.2394715005918,4351
353.61334991523415,4297
355.9865744978655,4173
358.35914545633375,4302
360.73106299856715,4219
363.10232733257146,4280
365.47293866643247,4320
367.84289720831396,4237
370.2122031664593,4246
372.5808567491905,4210
374.9488581649083,4237
377.31620762209275,4073
379.6829053293021,4147
382.0489514951745,4195
384.4143463284262,4114
386.7790900378528,4172
389.14318283232853,4235
391.50662492080653,4226
393.86941651231916,4033
396.23155781597745,4018
398.5930490409713,4129
400.9538903965696,4079
403.3140820921202,4059
405.6736243370498,4095
408.03251734086336,4071
410.3907613131465,4095
412.74835646356166,4074
415.10530300185144,4113
417.4616011378372,4164
419.81725108141893,4163
422.1722530425758,4081
424.5266072313656,4112
426.880313857925,4142
429.2333731324701,4071
431.58578526529516,4012
433.9375504667738,4016
436.2886689473588,4048
438.63914091758113,3960
440.9889665880513,3999
443.33814616945835,4092
445.68667987257015,4119
448.03456790823395,4008
450.3818104873759,4041
452.72840782100013,4048
455.07436012019105,4087
457.41966759611057,4081
459.7643304600007,3999
462.10834892318155,4063
464.4517231970525,4123
466.79445349309174,3985
469.1365400228566,4145
471.4779829979826,4177
473.81878263018564,4146
476.15893913125876,4065
478.4984527130747,4193
480.8373235875855,4258
483.17555196682144,4262
485.5131380628919,4354
487.8500820879857,4449
490.1863842543697,4601
492.52204477439034,4875
494.8570638604725,5118
497.1914417251204,5456
499.52517858091653,5644
501.85827464052306,5681
504.19073011668036,5882
506.5225452222086,5755
508.85372017000566,5566
511.18425517304956,5317
513.514150444396,5577
515.8434061971808,6233
518.1720226446176,6730
520.4999999999999,7063
522.8273384766991,7360
525.1540382881666,7467
527.480099647932,7165
529.8055227696037,6143
532.1303078668694,4886
534.454455153496,4424
536.777964843328,4118
539.1008371502907,4023
541.4230722883866,3993
543.744670471698,4041
546.0656319143858,3922
548.3859568306899,3891
550.7056454349294,3853
553.0246979415016,3879
555.3431145648834,3863
557.6608955196306,3819
559.978041020377,3915
562.2945512818363,3846
564.6104265188006,3893
566.9256669461412,3893
569.2402727788082,3884
571.5542442318302,3887
573.8675815203156,3908
576.1802848594508,3882
578.4923544645015,3871
580.8037905508126,3851
583.114593333807,3879
585.4247630289875,3890
587.7342998519354,3927
590.0432040183106,3980
592.3514757438526,3911
594.6591152443794,4088
596.9661227357875,3926
599.2724984340531,3918
601.578242555231,3962
603.8833553154542,3981
606.1878369309362,3875
608.4916876179676,3996
610.7949075929192,4028
613.0974970722403,4003
615.3994562724587,3974
617.7007854101818,4065
620.0014847020951,3904
622.3015543649641,3867
624.6009946156324,3921
626.8998056710224,4002
629.1979877481361,3951
631.4955410640538,3929
633.7924658359349,3894
636.0887622810175,4042
638.3844306166192,3887
640.6794710601358,3956
642.9738838290426,3909
645.2676691408932,3914
647.5608272133207,3941
649.853358264037,4058
652.1452625108324,3978
654.4365401715764,3890
656.7271914642178,4015
659.0172166067838,3966
661.3066158173809,3975
663.5953893141935,4064
665.8835373154867,4071
668.1710600396028,4076
670.4579577049639,4136
672.7442305300709,4062
675.0298787335033,3986
677.3149025339197,4113
679.599302150058,4058
681.8830778007342,4072
684.1662297048437,4000
686.4487580813608,4006
688.7306631493387,4034
691.0119451279091,4062
693.2926042362834,4061
695.5726406937516,4036
697.8520547196814,4043
700.1308465335215,3903
702.4090163547982,3924
704.6865644031171,4012
706.9634908981619,4096
709.2397960596965,4067
711.5154801075631,3999
713.7905432616823,4000
716.0649857420548,4005
718.3388077687592,3916
720.612009561953,4045
722.8845913418733,4038
725.1565533288352,4048
727.427895743234,4044
729.6986188055427,4007
731.9687227363137,4006
734.238207756178,3952
736.5070740858458,3970
738.7753219461066,3953
741.0429515578281,4094
743.3099631419569,3982
745.5763569195191,3993
747.8421331116193,4063
750.1072919394409,3962
752.3718336242467,3964
754.6357583873777,3973
756.8990664502545,3951
759.1617580343765,4016
761.423833361321,3867
763.6852926527457,4023
765.9461361303862,3983
768.206364016058,4089
770.4659765316536,4039
772.7249738991469,3977
774.9833563405886,3998
777.2411240781092,3883
779.4982773339183,3957
781.7548163303044,4025
784.010741289634,3971
786.2660524343538,4069
788.5207499869881,3894
790.7748341701416,3955
793.0283052064964,4033
795.2811633188143,4086
797.5334087299362,4040
799.7850416627813,3933
802.0360623403484,4032
804.2864709857143,4070
806.5362678220353,4057
808.7854530725468,4104
811.0340269605625,4037
813.2819897094754,4066
815.5293415427581,4079
817.77608268396,4154
820.0222133567116,3967
822.2677337847211,4016
824.5126441917765,4025
826.7569448017433,3971
829.0006358385675,4026
831.2437175262731,4027
833.4861900889629,3983
835.7280537508192,3979
837.9693087361026,3968
840.2099552691533,3915
842.4499935743896,4044
844.689423876309,4036
846.9282463994886,3987
849.1664613685833,3925
851.4040690083276,3906
853.6410695435349,3894
855.877463199097,4031
858.1132501999847,3966
860.3484307712487,3966
862.5830051380175,4038
864.8169735254988,3997
867.0503361589791,4039
869.2830932638243,3980
871.5152450654786,3984
873.7467917894654,4024
875.9777336613873,4043
878.2080709069252,4094
880.4378037518389,4086
882.666932421968,3990
884.8954571432301,4153
887.1233781416219,4153
889.3506956432192,4087
891.5774098741766,4123
893.803521060728,3968
896.0290294291852,3952
898.2539352059397,4088
900.4782386174619,4038
902.7019398903011,4063
904.925039251085,4021
907.147536926521,3973
909.3694331433943,4044
911.59072812857,4075
913.8114221089921,3957
916.0315153116827,4074
918.2510079637437,3981
920.4699002923547,3889
922.6881925247761,3938
924.905884888345,4017
927.1229776104793,4005
929.3394709186747,4005
931.555365040506,3842
933.7706602036275,3969
935.9853566357709,4010
938.1994545647489,3948
940.4129542184515,3836
942.6258558248488,3954
944.8381596119883,4033
947.0498658079974,3870
949.2609746410825,4045
951.4714863395287,3913
953.6814011316998,3906
955.8907192460387,3964
958.0994409110671,3902
960.3075663553858,3937
962.5150958076741,3982
964.7220294966913,3835
966.928367651274,3924
969.1341105003388,3818
971.3392582728806,3900
973.5438111979742,3901
975.747769504772,3923
977.9511334225061,3777
980.153903180487,3859
982.3560790081052,3844
984.5576611348289,3767
986.7586497902058,3847
988.9590452038618,3723
991.158847605503,3856
993.3580572249133,3713
995.5566742919558,3862
997.7546990365728,3722
999.952131688785,3764
1002.1489724786926,3639
1004.3452216364743,3652
1006.5408793923874,3608
1008.7359459767691,3687
1010.9304216200343,3572
1013.1243065526781,3567
1015.3176010052733,3502
1017.510305208472,3567
1019.7024193930064,3563
1021.8939437896848,3611
1024.0848786293977,3528
1026.2752241431122,3599
1028.4649805618747,3503
1030.6541481168115,3509
1032.842727039127,3517
1035.0307175601051,3487
1037.2181199111074,3594
1039.4049343235752,3421
1041.591161029029,3450
1043.7768002590683,3600
1045.9618522453698,3594
1048.1463172196918,3508
1050.3301954138697,3513
1052.513487059818,3503
1054.69619238953,3418
1056.8783116350783,3505
1059.0598450286152,3390
1061.2407928023704,3507
1063.4211551886528,3522
1065.6009324198508,3470
1067.780124728432,3454
1069.9587323469414,3371
1072.1367555080046,3482
1074.314194444325,3374
1076.4910493886855,3477
1078.667320573947,3509
1080.843008233051,3324
1083.0181125990161,3325
1085.1926339049414,3411
1087.3665723840027,3429
1089.5399282694575,3354
1091.7127017946405,3353
1093.8848931929647,3343
1096.0565026979243,3241
1098.2275305430899,3257
1100.3979769621128,3252
1102.567842188722,3371
1104.737126456726,3308
1106.9058300000124,3339
1109.0739530525475,3374
1111.2414958483764,3301
1113.4084586216231,3201
1115.5748416064907,3318
1117.7406450372605,3294
1119.9058691482942,3334
1122.0705141740304,3267
1124.2345803489884,3271
1126.3980679077658,3230
1128.5609770850388,3270
1130.7233081155623,3348
1132.8850612341707,3187
1135.0462366757774,3255
1137.2068346753745,3184
1139.3668554680326,3265
1141.526299288901,3358
1143.68516637321,3306
1145.8434569562655,3251
1148.001171273455,3266
1150.158309560244,3296
1152.3148720521767,3248
1154.470858984876,3190
1156.626270594044,3203
1158.7811071154629,3290
1160.9353687849912,3196
1163.089055838569,3240
1165.242168512213,3218
1167.3947070420209,3227
1169.5466716641677,3111
1171.6980626149075,3246
1173.8488801305748,3177
1175.9991244475814,3129
1178.1487958024186,3212
1180.2978944316555,3092
1182.4464205719428,3188
1184.5943744600072,3069
1186.7417563326567,3141
1188.8885664267755,3115
1191.0348049793297,3071
1193.1804722273619,3102
1195.325568407995,3111
1197.4700937584303,3110
1199.614048515948,3014
1201.7574329179074,3180
1203.900247201746,3076
1206.042491604982,3192
1208.1841663652099,3117
1210.3252717201053,3132
1212.465807907422,3065
1214.6057751649923,3089
1216.7451737307279,3116
1218.8840038426192,3141
1221.0222657387353,3170
1223.1599596572241,3083
1225.2970858363137,3221
1227.4336445143094,3111
1229.5696359295966,3125
1231.705060320639,3168
1233.8399179259786,3130
1235.9742089842384,3153
1238.107933734118,3113
1240.2410924143974,3097
1242.373685263935,3168
1244.5057125216676,3087
1246.6371744266116,3065
1248.7680712178621,3019
1250.898403134593,3074
1253.028170416058,3117
1255.1573733015875,3085
1257.2860120305932,3103
1259.4140868425648,3129
1261.54159797707,3113
1263.6685456737569,3111
1265.7949301723515,3043
1267.9207517126597,3008
1270.046010534565,3118
1272.1707068780306,3113
1274.2948409830983,3173
1276.4184130898889,3145
1278.541423438603,3186
1280.6638722695184,3180
1282.785759822993,3136
1284.9070863394636,3097
1287.0278520594447,3159
1289.1480572235314,3119
1291.2677020723963,3187
1293.3867868467923,3185
1295.5053117875495,3153
1297.623277135579,3224
1299.740683131868,3072
1301.8575300174857,3237
1303.973818033578,3196
1306.0895474213703,3096
1308.2047184221678,3256
1310.3193312773528,3211
1312.4333862283888,3196
1314.5468835168163,3099
1316.659823384255,3210
1318.7722060724045,3227
1320.8840318230418,3231
1322.9953008780249,3188
1325.1060134792888,3168
1327.2161698688478,3206
1329.3257702887959,3171
1331.4348149813054,3191
1333.5433041886276,3192
1335.6512381530933,3037
1337.7586171171101,3142
1339.8654413231675,3160
1341.9717110138317,3130
1344.0774264317488,3139
1346.1825878196432,3064
1348.2871954203192,3085
1350.3912494766587,3057
1352.4947502316231,3011
1354.5976979282532,3150
1356.7000928096686,3109
1358.8019351190665,3130
1360.9032250997243,3096
1363.0039629949988,3130
1365.1041490483235,3072
1367.2037835032133,3143
1369.3028666032606,3136
1371.401398592137,3105
1373.4993797135926,3127
1375.5968102114575,3074
1377.6936903296396,3151
1379.7900203121262,3144
1381.8858004029835,2991
1383.9810308463561,3085
1386.075711886469,3002
1388.1698437676241,3041
1390.2634267342032,3047
1392.356461030667,3137
1394.4489469015557,3111
1396.5408845914872,3200
1398.6322743451592,3179
1400.7231164073469,3111
1402.813411022907,3276
1404.903158436773,3133
1406.9923588939578,3109
1409.0810126395531,3027
1411.1691199187303,3092
1413.2566809767386,3154
1415.343696058907,3129
1417.4301654106425,3135
1419.5160892774315,3138
1421.6014679048399,3154
1423.6863015385125,3124
1425.7705904241707,3115
1427.8543348076178,3178
1429.9375349347342,3142
1432.0201910514802,3082
1434.102303403894,3192
1436.1838722380944,3213
1438.2648978002767,3204
1440.3453803367174,3231
1442.4253200937692,3233
1444.5047173178677,3195
1446.5835722555234,3148
1448.6618851533285,3286
1450.739656257952,3257
1452.8168858161434,3312
1454.8935740747306,3275
1456.96972128062,3326
1459.045327680797,3394
1461.120393522327,3441
1463.1949190523528,3466
1465.2689045180973,3441
1467.3423501668608,3475
1469.415256246024,3517
1471.4876230030463,3417
1473.559450685465,3582
1475.6307395408976,3496
1477.7014898170391,3593
1479.771701761665,3651
1481.8413756226287,3606
1483.9105116478618,3605
1485.9791100853772,3785
1488.0471711832643,3779
1490.1146951896926,3798
1492.1816823529098,3899
1494.2481329212433,3888
1496.3140471430984,3796
1498.3794252669609,3913
1500.4442675413939,3888
1502.5085742150404,3987
1504.572345536622,4039
1506.6355817549388,4031
1508.6982831188702,4132
1510.7604498773744,4115
1512.8220822794883,4203
1514.8831805743293,4208
1516.9437450110909,4256
1519.003775839048,4314
1521.0632733075522,4362
1523.1222376660367,4527
1525.1806691640113,4578
1527.2385680510652,4620
1529.2959345768668,4812
1531.3527689911643,4894
1533.4090715437833,4909
1535.4648424846291,4974
1537.5200820636855,5147
1539.5747905310159,5091
1541.6289681367616,5281
1543.6826151311434,5294
1545.7357317644614,5388
1547.7883182870937,5404
1549.8403749494987,5527
1551.8919020022113,5564
1553.9428996958477,5706
1555.9933682811015,5810
1558.0433080087469,5844
1560.0927191296346,6042
1562.1416018946961,5966
1564.1899565549415,6160
1566.2377833614592,6120
1568.2850825654164,5911
1570.3318544180606,5916
1572.3780991707158,5598
1574.423817074788,5470
1576.4690083817595,5226
1578.5136733431923,5068
1580.5578122107272,4974
1582.601425236085,4561
1584.6445126710646,4443
1586.6870747675434,4297
1588.7291117774776,4071
1590.7706239529034,4022
1592.8116115459347,3859
1594.8520748087658,3817
1596.8920139936686,3595
1598.9314293529933,3494
1600.9703211391711,3435
1603.008689604711,3406
1605.0465350022005,3264
1607.0838575843068,3243
1609.1206576037753,3176
1611.1569353134305,3166
1613.1926909661765,3110
1615.2279248149953,3012
1617.2626371129481,3037
1619.2968281131757,2994
1621.3304980688963,2958
1623.3636472334088,3061
1625.39627586009,2984
1627.428384202396,2897
1629.459972513861,2914
1631.4910410480993,2883
1633.5215900588028,2805
1635.551619799744,2737
1637.5811305247717,2877
1639.6101224878166,2811
1641.6385959428862,2788
1643.6665511440683,2801
1645.693988345528,2752
1647.7209078015112,2784
1649.7473097663405,2704
1651.7731944944203,2728
1653.7985622402307,2724
1655.823413258333,2663
1657.847747803366,2713
1659.8715661300494,2747
1661.8948684931793,2745
1663.9176551476316,2751
1665.9399263483624,2710
1667.9616823504057,2754
1669.982923408873,2681
1672.0036497789574,2703
1674.0238617159293,2672
1676.043559475138,2788
1678.0627433120121,2693
1680.081413482059,2656
1682.0995702408654,2622
1684.117213844096,2683
1686.134344547495,2659
1688.1509626068864,2665
1690.1670682781705,2674
1692.182661817329,2604
1694.1977434804217,2634
1696.2123135235875,2619
1698.226372203043,2672
1700.2399197750851,2711
1702.2529564960905,2686
1704.2654826225112,2639
1706.277498410882,2748
1708.2890041178139,2686
1710.2999999999988,2721
1712.3104863142066,2624
1714.3204633172854,2632
1716.329931266163,2626
1718.3388904178469,2583
1720.3473410294214,2596
1722.3552833580516,2633
1724.3627176609807,2601
1726.3696441955308,2552
1728.3760632191033,2577
1730.3819749891782,2577
1732.3873797633146,2555
1734.3922777991502,2579
1736.3966693544012,2610
1738.4005546868639,2534
1740.4039340544127,2567
1742.406807715001,2556
1744.4091759266616,2584
1746.4110389475054,2538
1748.4123970357223,2580
1750.413250449582,2546
1752.4135994474318,2476
1754.4134442876993,2558
1756.4127852288902,2556
1758.4116225295893,2447
1760.4099564484595,2516
1762.407787244244,2491
1764.405115175764,2466
1766.4019405019203,2528
1768.3982634816916,2449
1770.3940843741357,2435
1772.3894034383907,2420
1774.3842209336717,2549
1776.378537119274,2466
1778.372352254571,2412
1780.3656665990156,2425
1782.3584804121397,2425
1784.3507939535534,2421
1786.3426074829463,2410
1788.3339212600863,2463
1790.3247355448211,2490
1792.3150505970766,2484
1794.3048666768573,2490
1796.2941840442477,2430
1798.2830029594106,2394
1800.2713236825884,2459
1802.2591464741004,2501
1804.2464715943465,2410
1806.2332993038058,2495
1808.2196298630352,2527
1810.2054635326708,2472
1812.190800573428,2476
1814.175641246101,2478
1816.1599858115628,2456
1818.1438345307652,2543
1820.127187664738,2455
1822.1100454745924,2455
1824.092408221516,2427
1826.0742761667766,2466
1828.055649571721,2444
1830.0365286977735,2420
1832.0169138064398,2472
1833.9968051593014,2462
1835.9762030180214,2483
1837.9551076443408,2397
1839.9335193000788,2484
1841.9114382471344,2500
1843.888864747485,2361
1845.8657990631878,2429
1847.842241456378,2451
1849.8181921892697,2365
1851.7936515241558,2428
1853.7686197234098,2385
1855.7430970494815,2440
1857.7170837649014,2437
1859.6905801322787,2420
1861.6635864143004,2446
1863.6361028737338,2453
1865.608129773424,2479
1867.5796673762961,2412
1869.5507159453537,2452
1871.521275743678,2446
1873.4913470344313,2495
1875.4609300808534,2502
1877.4300251462632,2459
1879.3986324940588,2476
1881.366752387717,2435
1883.3343850907936,2413
1885.3015308669228,2430
1887.268189979819,2462
1889.2343626932739,2571
1891.2000492711595,2465
1893.1652499774254,2389
1895.1299650761011,2422
1897.0941948312952,2486
1899.0579395071945,2503
1901.0211993680641,2482
1902.98397467825,2476
1904.9462657021745,2493
1906.9080727043415,2398
1908.869395949332,2458
1910.8302357018065,2434
1912.790592226504,2442
1914.7504657882428,2413
1916.7098566519212,2381
1918.6687650825133,2470
1920.6271913450764,2415
1922.5851357047422,2499
1924.5425984267245,2404
1926.499579776314,2410
1928.4560800188833,2397
1930.4120994198802,2419
1932.367638244833,2379
1934.32269675935,2411
1936.2772752291175,2431
1938.231373919899,2502
1940.1849930975404,2441
1942.1381330279637,2424
1944.0907939771696,2434
1946.0429762112412,2447
1947.9946799963363,2422
1949.9459055986945,2398
1951.896653284633,2342
1953.8469233205478,2415
1955.7967159729142,2419
1957.7460315082863,2404
1959.6948701932974,2375
1961.6432322946594,2467
1963.5911180791632,2439
1965.5385278136787,2391
1967.4854617651545,2420
1969.4319202006182,2470
1971.377903387176,2341
1973.3234115920136,2443
1975.268445082395,2356
1977.2130041256642,2376
1979.1570889892423,2403
1981.1006999406304,2409
1983.04383724741,2375
1984.986501177238,2368
1986.928691997853,2433
1988.8704099770712,2401
1990.811655382789,2373
1992.7524284829801,2364
1994.692729545698,2474
1996.6325588390755,2311
1998.5719166313224,2385
2000.5108031907307,2431
2002.4492187856677,2413
2004.387163684583,2299
2006.3246381560011,2434
2008.2616424685298,2319
2010.1981768908527,2379
2012.1342416917332,2381
2014.069837140014,2418
2016.0049635046162,2404
2017.9396210545406,2264
2019.8738100588666,2415
2021.8075307867502,2376
2023.740783507431,2370
2025.6735684902228,2330
2027.6058860045214,2366
2029.5377363198004,2397
2031.4691197056118,2315
2033.4000364315875,2336
2035.3304867674374,2374
2037.260470982952,2335
2039.189989347998,2348
2041.1190421325232,2377
2043.047629606554,2382
2044.9757520401945,2355
2046.9034097036288,2329
2048.8306028671195,2347
2050.7573318010086,2343
2052.683596775716,2313
2054.609398061742,2354
2056.5347359296647,2362
2058.4596106501403,2418
2060.384022493906,2317
2062.3079717317764,2376
2064.231458634646,2367
2066.1544834734873,2335
2068.077046519352,2428
2069.99914804337,2475
2071.9207883167524,2378
2073.8419676107865,2375
2075.7626861968406,2353
2077.6829443463607,2306
2079.6027423308715,2346
2081.522080421977,2386
2083.440958891362,2373
2085.359378010786,2334
2087.2773380520907,2392
2089.194839287196,2327
2091.111881988101,2305
2093.0284664268825,2348
2094.9445928756973,2300
2096.86026160678,2381
2098.775472892446,2371
2100.690227005088,2295
2102.604524217178,2314
2104.5183648012676,2286
2106.431749029985,2379
2108.34467717604,2399
2110.2571495122206,2331
2112.169166311393,2390
2114.080727846503,2335
2115.9918343905747,2359
2117.902486216711,2340
2119.8126835980956,2405
2121.722426807987,2339
2123.6317161197285,2340
2125.5405518067364,2329
2127.448934142509,2330
2129.356863400624,2292
2131.264339854737,2392
2133.1713637785815,2425
2135.077935445972,2383
2136.9840551308002,2284
2138.889723107037,2356
2140.7949396487334,2316
2142.699705030018,2421
2144.6040195250994,2381
2146.507883408264,2336
2148.4112969538774,2316
2150.3142604363848,2307
2152.2167741303097,2357
2154.1188383102535,2310
2156.0204532508997,2396
2157.9216192270064,2408
2159.822336513414,2309
2161.7226053850413,2294
2163.622426116884,2341
2165.5217989840185,2446
2167.4207242616,2369
2169.319202224862,2383
2171.2172331491165,2332
2173.1148173097563,2426
2175.0119549822507,2334
2176.90864644215,2389
2178.8048919650823,2424
2180.7006918267534,2383
2182.596046302952,2329
2184.4909556695407,2414
2186.3854202024645,2425
2188.279440177746,2323
2190.173015871487,2456
2192.066147559868,2377
2193.958835519149,2357
2195.851080025667,2400
2197.7428813558417,2327
2199.6342397861667,2406
2201.5251555932186,2248
2203.415629053651,2431
2205.3056604441986,2406
2207.19525004167,2375
2209.084398122958,2427
2210.9731049650327,2414
2212.861370844941,2380
2214.749196039812,2369
2216.636580826851,2438
2218.523525483344,2413
2220.410030286655,2377
2222.296095514226,2389
2224.1817214435805,2396
2226.066908352319,2418
2227.951656518121,2416
2229.835966218746,2462
2231.71983773203,2395
2233.6032713358913,2393
2235.486267308324,2405
2237.3688259274036,2381
2239.2509474712824,2397
2241.132632218193,2458
2243.013880446447,2325
2244.8946924344323,2401
2246.7750684606203,2481
2248.6550088035574,2433
2250.534513741871,2412
2252.413583554265,2416
2254.292218519526,2419
2256.170418916517,2388
2258.0481850241786,2488
2259.925517121534,2463
2261.8024154876825,2378
2263.678880401803,2335
2265.5549121431536,2459
2267.430510991071,2354
2269.305677224971,2388
2271.180411124348,2394
2273.0547129687766,2522
2274.9285830379076,2472
2276.8020216114737,2470
2278.6750289692845,2396
2280.5476053912294,2410
2282.4197511572766,2441
2284.2914665474727,2422
2286.162751841943,2380
2288.0336073208937,2480
2289.904033264608,2363
2291.774029953448,2452
2293.6435976678554,2459
2295.5127366883517,2424
2297.381447295534,2488
2299.2497297700825,2393
2301.1175843927526,2434
2302.9850114443825,2475
2304.852011205885,2331
2306.7185839582553,2458
2308.5847299825664,2492
2310.4504495599676,2519
2312.3157429716925,2508
2314.1806104990483,2453
2316.0450524234247,2475
2317.9090690262888,2447
2319.772660589186,2499
2321.635827393742,2498
2323.498569721661,2468
2325.3608878547248,2506
2327.2227820747967,2503
2329.0842526638157,2559
2330.945299903803,2499
2332.805924076857,2577
2334.6661254651535,2452
2336.525904350951,2459
2338.3852610165827,2508
2340.244195744464,2489
2342.102708817088,2482
2343.9608005170253,2560
2345.8184711269287,2512
2347.675720929526,2498
2349.532550207628,2491
2351.38895924412,2548
2353.24494832197,2551
2355.100517724223,2502
2356.955667734004,2586
2358.810398634514,2573
2360.664710709037,2554
2362.5186042409337,2515
2364.3720795136437,2472
2366.225136810686,2500
2368.0777764156583,2577
2369.929998612237,2599
2371.7818036841777,2616
2373.633191915315,2602
2375.484163589562,2566
2377.3347189909114,2511
2379.184858403434,2549
2381.03458211128,2562
2382.8838903986775,2582
2384.732783549936,2445
2386.5812618494406,2553
2388.4293255816588,2587
2390.2769750311327,2615
2392.1242104824883,2608
2393.971032220427,2544
2395.8174405297295,2567
2397.6634356952563,2552
2399.509018001947,2689
2401.3541877348193,2614
2403.1989451789705,2578
2405.043290619576,2526
2406.8872243418905,2585
2408.730746631247,2580
2410.5738577730594,2564
2412.4165580528183,2510
2414.258847756095,2558
2416.100727168537,2601
2417.9421965758734,2589
2419.783256263912,2642
2421.623906518538,2604
2423.4641476257157,2661
2425.303979871491,2668
2427.143403541984,2557
2428.9824189233977,2598
2430.821026302012,2589
2432.6592259641866,2588
2434.497018196361,2691
2436.33440328505,2671
2438.171381516851,2672
2440.00795317844,2653
2441.844118556569,2652
2443.6798779380724,2563
2445.5152316098606,2566
2447.3501798589255,2655
2449.1847229723357,2635
2451.0188612372403,2598
2452.8525949408663,2571
2454.6859243705203,2583
2456.518849813587,2566
2458.3513715575314,2669
2460.183489889895,2569
2462.015205098301,2590
2463.8465174704493,2572
2465.67742729412,2658
2467.5079348571717,2646
2469.338040447542,2587
2471.1677443532476,2548
2472.9970468623833,2587
2474.825948263123,2642
2476.6544488437207,2617
2478.482548892508,2643
2480.310248697896,2695
2482.137548548374,2540
2483.9644487325118,2618
2485.790949538956,2636
2487.617051256433,2655
2489.44275417375,2694
2491.26805857979,2710
2493.0929647635157,2670
2494.917473013971,2687
2496.741583620276,2583
2498.5652968716304,2614
2500.3886130573137,2627
2502.2115324666834,2720
2504.0340553891765,2642
2505.856182114308,2677
2507.6779129316733,2653
2509.499248130945,2586
2511.3201880018764,2657
2513.140732834298,2690
2514.9608829181198,2683
2516.780638543331,2670
2518.6,2611
2520.418967578273,2628
2522.237541568376,2680
2524.0557222606144,2720
2525.8735099453706,2653
2527.6909049131086,2722
2529.507907454368,2745
2531.32451785977,2753
2533.140736420014,2754
2534.9565634258774,2796
2536.771999168218,2793
2538.5870439379714,2728
2540.4016980261526,2834
2542.2159617238544,2781
2544.02983532225,2774
2545.8433191125914,2743
2547.656413386209,2786
2549.4691184345115,2919
2551.2814345489874,2791
2553.093362021204,2875
2554.904901142808,2836
2556.716052205523,2805
2558.526815501153,2798
2560.3371913215824,2783
2562.147179958771,2787
2563.956781704761,2874
2565.7659968516705,2805
2567.5748256916986,2875
2569.3832685171224,2878
2571.1913256202984,2852
2572.9989972936614,2915
2574.806283829725,2862
2576.613185521084,2972
2578.4197026604074,2908
2580.2258355404483,2983
2582.031584454035,2900
2583.836949694077,2925
2585.6419315535613,2960
2587.4465303255533,3018
2589.2507463032002,2935
2591.0545797797245,2911
2592.8580310484303,2958
2594.6611004026995,2938
2596.463788135992,3004
2598.266094541849,3041
2600.0680199138874,3037
2601.869564545807,3016
2603.670728731383,3050
2605.4715127644704,2992
2607.2719169390048,3068
2609.071941548998,3073
2610.8715868885433,3048
2612.670853251811,3112
2614.469740933052,3088
2616.268250226594,3058
2618.0663814268455,3055
2619.864134828292,3074
2621.6615107255006,3026
2623.458509413115,2967
2625.2551311858597,3084
2627.0513763385347,3000
2628.8472451660223,3015
2630.6427379632833,3004
2632.4378550253564,2981
2634.232596647359,2908
2636.026963124488,3031
2637.8209547520187,2909
2639.6145718253065,2988
2641.407814639785,2922
2643.200683490966,3002
2644.9931786744414,2931
2646.7853004858807,2897
2648.577049221034,2846
2650.3684251757277,2888
2652.1594286458712,2903
2653.9500599274484,2878
2655.740319316525,2824
2657.5302071092437,2937
2659.3197236018286,2913
2661.10886909058,2948
2662.8976438718782,2817
2664.686048242183,2831
2666.4740824980327,2781
2668.2617469360443,2842
2670.0490418529134,2767
2671.8359675454153,2790
2673.622524310403,2825
2675.408712444811,2726
2677.1945322456495,2770
2678.979984010009,2750
2680.76506803506,2805
2682.5497846180497,2749
2684.334134056306,2799
2686.1181166472343,2799
2687.9017326883213,2718
2689.6849824771293,2784
2691.4678663113013,2754
2693.2503844885596,2746
2695.032537306705,2695
2696.8143250636167,2754
2698.5957480572542,2695
2700.3768065856534,2707
2702.1575009469316,2717
2703.937831439283,2710
2705.717798360982,2701
2707.4974020103837,2767
2709.276642685917,2716
2711.055520686095,2658
2712.834036309506,2673
2714.612189854819,2674
2716.389981620782,2679
2718.1674119062204,2679
2719.944481010041,2743
2721.721189231226,2723
2723.4975368688415,2609
2725.273524222027,2642
2727.0491515900053,2707
2728.824419272075,2685
2730.5993275676146,2655
2732.3738767760838,2645
2734.148067197016,2548
2735.921899130031,2620
2737.6953728748194,2607
2739.468488731156,2655
2741.2412469988926,2715
2743.0136479779617,2633
2744.785691968372,2655
2746.5573792702116,2616
2748.3287101836504,2691
2750.099685008934,2707
2751.870304046388,2756
2753.640567596418,2634
2755.4104759595057,2654
2757.1800294362156,2640
2758.949228327187,2626
2760.7180729331412,2670
2762.486563554877,2707
2764.254700493272,2679
2766.022484049284,2644
2767.789914523947,2611
2769.5569922183786,2703
2771.3237174337705,2596
2773.090090471394,2679
2774.8561116326036,2645
2776.6217812188274,2609
2778.3870995315756,2700
2780.1520668724356,2707
2781.9166835430747,2608
2783.6809498452394,2604
2785.444866080754,2688
2787.2084325515225,2634
2788.971649559527,2664
2790.73451740683,2704
2792.4970363955713,2653
2794.2592068279705,2625
2796.0210290063264,2708
2797.7825032330147,2672
2799.543629810493,2601
2801.304409041296,2718
2803.0648412280366,2620
2804.8249266734088,2748
2806.5846656801846,2672
2808.344058551212,2622
2810.1031055894246,2748
2811.8618070978273,2651
2813.6201633795085,2642
2815.378174737636,2742
2817.1358414754536,2766
2818.893163896285,2689
2820.6501423035334,2703
2822.4067770006814,2688
2824.1630682912883,2708
2825.9190164789957,2623
2827.6746218675207,2759
2829.429884760661,2769
2831.184805462294,2720
2832.9393842763743,2641
2834.693621506936,2648
2836.4475174580916,2754
2838.201072434034,2692
2839.954286739034,2719
2841.707160677441,2845
2843.459694553685,2764
2845.2118886722724,2666
2846.96374333779,2645
2848.7152588549034,2592
2850.4664355283567,2647
2852.217273662973,2738
2853.9677735636546,2752
2855.7179355353833,2776
2857.4677598832186,2808
2859.217246912299,2706
2860.9663969278427,2614
2862.715210235146,2741
2864.4636871395846,2722
2866.211827946614,2719
2867.9596329617652,2716
2869.7071024906536,2739
2871.4542368389684,2787
2873.20103631248,2754
2874.947501217038,2752
2876.6936318585695,2738
2878.4394285430812,2702
2880.1848915766604,2769
2881.9300212654707,2700
2883.6748179157553,2655
2885.4192818338374,2650
2887.1634133261173,2643
2888.907212699077,2727
2890.6506802592744,2717
2892.393816313348,2674
2894.1366211680142,2664
2895.8790951300693,2728
2897.621238506388,2710
2899.363051603925,2681
2901.1045347297118,2680
2902.8456881908596,2680
2904.58651229456,2738
2906.327007348081,2696
2908.067173658772,2709
2909.8070115340597,2710
2911.5465212814497,2679
2913.285703208527,2628
2915.0245576229563,2635
2916.7630848324807,2678
2918.5012851449196,2660
2920.2391588681758,2676
2921.976706310227,2639
2923.7139277791334,2672
2925.4508235830313,2678
2927.187394030137,2658
2928.923639428745,2731
2930.6595600872306,2706
2932.395156314046,2714
2934.1304284177218,2720
2935.8653767068713,2656
2937.6000014901815,2758
2939.3343030764227,2740
2941.068281774442,2686
2942.8019378931644,2718
2944.5352717415976,2698
2946.2682836288236,2730
2948.0009738640065,2740
2949.7333427563885,2676
2951.465390615289,2647
2953.1971177501086,2700
2954.9285244703265,2645
2956.6596110855,2636
2958.3903779052657,2591
2960.1208252393385,2618
2961.8509533975125,2599
2963.5807626896617,2659
2965.3102534257378,2676
2967.0394259157715,2685
2968.768280469873,2667
2970.496817398232,2682
2972.2250370111146,2716
2973.952939618869,2727
2975.6805255319196,2759
2977.4077950607707,2708
2979.134748516006,2682
2980.861386208289,2754
2982.587708448359,2828
2984.313715547037,2717
2986.039407815222,2722
2987.764785563891,2703
2989.489849104102,2678
2991.2145987469908,2786
2992.9390348037705,2657
2994.6631575857346,2741
2996.3869674042576,2681
2998.1104645707887,2750
2999.83364939686,2654
3001.5565221940783,2642
3003.2790832741334,2631
3005.0013329487924,2668
3006.7232715298996,2614
3008.4448993293804,2665
3010.166216659239,2566
3011.887223831558,2683
3013.607921158498,2640
3015.3283089522993,2643
3017.0483875252826,2655
3018.7681571898443,2609
3020.4876182584626,2688
3022.2067710436927,2651
3023.9256158581707,2697
3025.644153014609,2649
3027.362382825801,2636
3029.0803056046193,2677
3030.797921664012,2754
3032.5152313170106,2713
3034.2322348767225,2669
3035.9489326563353,2643
3037.665324969115,2636
3039.3814121284063,2620
3041.097194447633,2697
3042.812672240299,2608
3044.5278458199855,2757
3046.2427155003525,2769
3047.9572815951406,2732
3049.671544418167,2630
3051.38550428333,2578
3053.0991615046073,2679
3054.812516396051,2640
3056.5255692717974,2625
3058.2383204460575,2679
3059.9507702331257,2657
3061.662918947372,2631
3063.3747669032446,2770
3065.0863144152736,2642
3066.7975617980674,2707
3068.508509366309,2816
3070.219157434767,2642
3071.9295063182844,2670
3073.639556331785,2679
3075.3493077902704,2686
3077.058761008821,2738
3078.7679163025964,2706
3080.476773986837,2671
3082.1853343768594,2615
3083.89359778806,2668
3085.6015645359153,2631
3087.3092349359786,2615
3089.016609303884,2646
3090.7236879553434,2626
3092.4304712061476,2622
3094.136959372166,2649
3095.843152769349,2726
3097.5490517137237,2599
3099.2546565213966,2591
3100.959967508554,2630
3102.66498499146,2607
3104.3697092864577,2645
3106.0741407099695,2611
3107.778279578498,2636
3109.482126208622,2727
3111.1856809170004,2631
3112.8889440203716,2706
3114.5919158355528,2586
3116.294596679439,2628
3117.996986869006,2740
3119.6990867213062,2639
3121.4008965534726,2660
3123.102416682717,2697
3124.803647426329,2729
3126.5045891016784,2739
3128.205242026213,2668
3129.90560651746,2705
3131.605682893025,2653
3133.3054714705922,2712
3135.0049725679282,2608
3136.7041865028714,2716
3138.4031135933465,2753
3140.101754157353,2732
3141.800108512971,2630
3143.498176978357,2709
3145.1959598717494,2608
3146.8934575114636,2563
3148.5906702158954,2728
3150.2875983035183,2631
3151.9842420928853,2634
3153.680601902627,2625
3155.376678051456,2650
3157.07247085816,2650
3158.767980641609,2689
3160.463207720748,2676
3162.158152414606,2654
3163.8528150422862,2646
3165.5471959229726,2713
3167.2412953759303,2631
3168.9351137204976,2660
3170.628651276098,2694
3172.3219083622307,2651
3174.014885298474,2684
3175.707582404485,2716
3177.4000000000005,2692
3179.092138404835,2754
3180.7839979388846,2714
3182.47557892212,2660
3184.166881674594,2706
3185.8579065164386,2642
3187.5486537678626,2609
3189.2391237491547,2657
3190.9293167806827,2681
3192.6192331828934,2632
3194.3088732763117,2663
3195.998237381542,2671
3197.687325819268,2721
3199.376138910251,2653
3201.064676975334,2667
3202.7529403354347,2607
3204.4409293115523,2643
3206.1286442247647,2612
3207.816085396229,2607
3209.5032531471825,2620
3211.190147798936,2670
3212.8767696728846,2583
3214.5631190905015,2625
3216.2491963733373,2588
3217.9350018430214,2643
3219.6205358212637,2579
3221.305798629851,2559
3222.990790590651,2543
3224.6755120256103,2567
3226.359963256751,2471
3228.0441446061795,2527
3229.7280563960758,2566
3231.411698948703,2583
3233.0950725863995,2536
3234.778177631587,2618
3236.461014406761,2655
3238.1435832345005,2537
3239.8258844374595,2516
3241.507918338374,2591
3243.1896852600576,2594
3244.8711855254023,2547
3246.552419457381,2633
3248.233387379042,2583
3249.914089613516,2486
3251.59452648401,2589
3253.274698313813,2609
3254.95460542629,2627
3256.6342481448855,2578
3258.313626793125,2503
3259.9927416946084,2563
3261.6715931730196,2563
3263.3501815521176,2558
3265.0285071557437,2484
3266.706570307815,2491
3268.3843713323286,2527
3270.0619105533615,2533
3271.739188295068,2543
3273.4162048816834,2599
3275.0929606375184,2574
3276.769455886966,2517
3278.445690954498,2580
3280.1216661646613,2571
3281.797381842087,2576
3283.4728383114807,2568
3285.1480358976296,2553
3286.8229749253996,2564
3288.4976557197333,2584
3290.172078605655,2572
3291.846243908266,2561
3293.5201519527463,2485
3295.193803064357,2536
3296.8671975684374,2511
3298.5403357904024,2552
3300.21321805575,2492
3301.8858446900567,2595
3303.558216018975,2563
3305.23033236824,2507
3306.9021940636603,2524
3308.57380143113,2568
3310.2451547966184,2554
3311.916254486174,2593
3313.5871008259246,2557
3315.2576941420766,2439
3316.9280347609147,2482
3318.5981230088046,2610
3320.2679592121895,2541
3321.9375436975924,2546
3323.606876791612,2423
3325.27595882093,2577
3326.944790112305,2601
3328.6133709925753,2514
3330.2817017886573,2486
3331.949782827547,2441
3333.617614436319,2526
3335.2851969421245,2556
3336.952530672199,2471
3338.619615953853,2489
3340.286453114475,2559
3341.9530424815357,2535
3343.619384382583,2555
3345.2854791452437,2586
3346.951327097224,2539
3348.6169285663073,2527
3350.2822838803577,2523
3351.947393367319,2617
3353.61225735521,2496
3355.2768761721345,2450
3356.9412501462693,2553
3358.605379605873,2522
3360.2692648792827,2603
3361.9329062949146,2531
3363.596304181263,2387
