CollectionTime,6/28/2024 2:12:49 PM
ExposureUsed,3
CalibratedSpectrum
-962.7078968117929,688
-959.9714848408522,748
-957.2358232597828,701
-954.5009119013725,695
-951.7667505983302,751
-949.0333391832855,778
-946.3006774887896,732
-943.5687653473143,734
-940.837602591253,731
-938.1071890529199,725
-935.3775245645503,766
-932.6486089583007,741
-929.9204420662485,745
-927.1930237203925,760
-924.4663537526524,741
-921.7404319948689,762
-919.0152582788041,772
-916.2908324361409,785
-913.5671542984834,770
-910.8442236973568,784
-908.1220404642074,786
-905.4006044304027,794
-902.679915427231,805
-899.959973285902,783
-897.2407778375464,818
-894.5223289132158,800
-891.8046263438832,739
-889.0876699604426,759
-886.3714595937089,731
-883.6559950744183,759
-880.9412762332282,712
-878.2273029007168,738
-875.5140749073835,734
-872.8015920836489,726
-870.0898542598545,706
-867.3788612662631,646
-864.6686129330585,664
-861.9591090903457,686
-859.2503495681506,674
-856.5423341964203,707
-853.8350628050229,671
-851.1285352237478,724
-848.4227512823054,701
-845.7177108103272,678
-843.0134136373656,705
-840.3098595928943,722
-837.6070485063082,776
-834.9049802069229,727
-832.2036545239757,735
-829.5030712866244,666
-826.8032303239481,664
-824.1041314649472,666
-821.4057745385428,670
-818.7081593735775,725
-816.0112857988148,714
-813.3151536429393,690
-810.6197627345566,710
-807.9251129021936,710
-805.2312039742981,736
-802.5380357792392,706
-799.8456081453069,669
-797.1539209007124,706
-794.462973873588,727
-791.772766891987,655
-789.083299783884,693
-786.3945723771743,713
-783.7065844996748,683
-781.0193359791231,726
-778.3328266431781,699
-775.6470563194197,731
-772.9620248353489,691
-770.2777320183878,728
-767.5941776958798,716
-764.9113616950891,733
-762.2292838432011,718
-759.5479439673222,707
-756.8673418944801,697
-754.1874774516235,704
-751.5083504656222,717
-748.8299607632671,717
-746.15230817127,747
-743.475392516264,722
-740.7992136248035,722
-738.1237713233636,723
-735.4490654383407,723
-732.7750957960521,750
-730.1018622227365,772
-727.4293645445534,773
-724.7576025875837,750
-722.0865761778291,755
-719.4162851412126,766
-716.7467293035781,772
-714.0779084906909,756
-711.409822528237,780
-708.7424712418238,747
-706.0758544569796,749
-703.4099719991541,733
-700.7448236937178,753
-698.0804093659622,772
-695.4167288411002,777
-692.7537819442656,716
-690.0915685005134,748
-687.4300883348199,757
-684.7693412720819,796
-682.1093271371178,778
-679.4500457546669,768
-676.7914969493897,828
-674.1336805458676,779
-671.4765963686034,802
-668.8202442420206,829
-666.1646239904642,761
-663.5097354382001,824
-660.8555784094151,814
-658.2021527282176,799
-655.5494582186366,846
-652.8974947046223,875
-650.2462620100463,861
-647.5957599587009,816
-644.9459883742998,847
-642.2969470804776,861
-639.6486359007902,918
-637.0010546587141,954
-634.3542031776476,848
-631.7080812809096,783
-629.0626887917401,809
-626.4180255333008,804
-623.7740913286734,813
-621.1308860008619,781
-618.4884093727904,774
-615.8466612673046,783
-613.2056415071715,787
-610.5653499150785,798
-607.9257863136347,809
-605.28695052537,799
-602.6488423727357,821
-600.0114616781036,784
-597.3748082637674,859
-594.7388819519412,829
-592.1036825647604,855
-589.4692099242818,814
-586.8354638524829,812
-584.2024441712624,810
-581.5701507024403,813
-578.9385832677575,845
-576.3077416888759,876
-573.6776257873787,837
-571.0482353847704,865
-568.4195703024757,891
-565.7916303618415,878
-563.164415384135,904
-560.5379251905453,859
-557.9121596021815,871
-555.2871184400748,799
-552.6628015251767,885
-550.0392086783606,874
-547.4163397204204,854
-544.794194472071,852
-542.1727727539491,894
-539.5520743866118,886
-536.9320991905377,918
-534.3128469861261,985
-531.6943175936979,976
-529.0765108334947,986
-526.4594265256793,1092
-523.8430644903358,1274
-521.2274245474689,1340
-518.612506517005,1468
-515.9983102187913,1538
-513.3848354725959,1627
-510.77208209810846,1677
-508.16004991493924,1742
-505.5487387426199,1836
-502.9381484006032,1999
-500.3282787082628,2172
-497.71912948489364,2217
-495.1107005497117,2320
-492.5029917218539,2166
-489.8960028203786,2042
-487.28973366426493,1758
-484.68418407241325,1600
-482.07935386364494,1412
-479.47524285670266,1300
-476.87185087025,1304
-474.2691777228715,1230
-471.66722323307334,1171
-469.0659872192821,1129
-466.4654694998459,1205
-463.86566989303384,1113
-461.26658821703614,1111
-458.66822428996414,1107
-456.07057792985,1125
-453.4736489546475,1072
-450.877437182231,1109
-448.28194243039627,1088
-445.68716451686,1118
-443.09310325926003,1053
-440.49975847515555,1053
-437.9071299820263,1051
-435.31521759727354,1103
-432.72402113821954,1079
-430.13354042210767,1124
-427.5437752661022,1128
-424.95472548728867,1178
-422.36639090267386,1188
-419.7787713291855,1174
-417.1918665836721,1095
-414.60567648290385,1058
-412.0202008435715,1174
-409.4354394822874,1171
-406.8513922155845,1158
-404.26805885991723,1131
-401.685439231661,1216
-399.103533147112,1179
-396.522340422488,1122
-393.9418608739278,1131
-391.3620943174908,1108
-388.7830405691583,1098
-386.2046994448317,1069
-383.6270707603344,1034
-381.05015433141045,956
-378.473949973725,819
-375.8984575028645,814
-373.32367673433623,802
-370.74960748356875,737
-368.1762495659117,684
-365.60360279663576,647
-363.03166699093265,654
-360.4604419639154,636
-357.8899275306178,554
-355.32012350599507,591
-352.7510297049233,581
-350.1826459421999,583
-347.61497203254316,620
-345.04800779059235,573
-342.4817530309082,548
-339.91620756797226,561
-337.35137121618743,569
-334.7872437898774,541
-332.22382510328725,583
-329.66111497058273,659
-327.09911320585127,595
-324.53781962310075,566
-321.9772340362607,646
-319.4173562591816,648
-316.8581861056348,606
-314.2997233893127,632
-311.7419679238294,701
-309.1849195227194,666
-306.62857799943856,588
-304.0729431673641,586
-301.51801483979375,565
-298.963792829947,594
-296.41027695096386,636
-293.85746701590574,654
-291.3053628377552,735
-288.7539642294155,662
-286.2032710037115,650
-283.65328297338897,681
-281.1039999511146,644
-278.5554217494762,623
-276.007548180983,653
-273.4603790580651,708
-270.9139141930734,706
-268.3681533982807,735
-265.8230964858798,748
-263.27874326798565,727
-260.7350935566336,678
-258.1921471637804,688
-255.6499039013039,673
-253.10836358100266,685
-250.56752601459698,676
-248.02739101372765,765
-245.48795838995704,896
-242.94922795476816,980
-240.41119951956557,949
-237.8738728956746,930
-235.33724789434166,933
-232.80132432673452,1059
-230.2661020039418,1094
-227.73158073697357,900
-225.19776033676033,799
-222.66464061415422,829
-220.1322213799284,864
-217.60050244477725,802
-215.06948361931552,834
-212.53916471408013,825
-210.00954553952818,858
-207.48062590603843,832
-204.9524056239104,996
-202.4248845033651,945
-199.8980623545441,874
-197.37193898751036,832
-194.84651421224817,830
-192.32178783866232,1008
-189.79775967657952,1019
-187.27442953574644,971
-184.7517972258321,962
-182.2298625564256,966
-179.7086253370378,943
-177.18808537710026,970
-174.66824248596583,915
-172.14909647290835,1015
-169.6306471471229,1004
-167.11289431772548,1107
-164.59583779375328,1110
-162.07947738416453,1040
-159.5638128978386,1042
-157.04884414357605,1086
-154.53457093009854,1297
-152.02099306604828,1276
-149.50811035998936,1225
-146.99592262040665,1075
-144.48442965570587,1146
-141.97363127421409,1213
-139.46352728417958,1309
-136.95411749377126,1232
-134.44540171107985,1332
-131.93737974411636,1356
-129.43005140081357,1446
-126.92341648902493,1339
-124.41747481652521,1323
-121.91222619101006,1409
-119.40767042009657,1357
-116.90380731132257,1524
-114.40063667214702,1524
-111.8981583099503,1550
-109.3963720320337,1792
-106.89527764561933,1938
-104.39487495785067,2080
-101.89516377579241,2054
-99.39614390642998,1992
-96.89781515667039,1986
-94.40017733334128,2372
-91.90323024319173,2209
-89.40697369289148,2073
-86.91140748903172,2163
-84.41653143812482,2178
-81.92234534660395,2212
-79.42884902082358,2322
-76.93604226705907,2555
-74.4439248915071,2331
-71.95249670028534,2302
-69.46175749943245,2304
-66.97170709490854,3054
-64.48234529259423,3786
-61.99367189829195,2744
-59.50568671772464,2519
-57.01838955653636,3095
-54.53178022029283,3718
-52.045858514480074,3918
-49.560624244506016,3913
-47.07607721569923,3654
-44.59221723330904,3545
-42.10904410250669,3597
-39.62655762838392,4581
-37.14475761595372,5744
-34.66364387015028,6078
-32.18321619582866,7351
-29.70347439776515,8340
-27.224418280657005,10737
-24.74604764912317,15737
-22.26836230770266,25992
-19.7913620608565,44256
-17.315046712966478,55696
-14.83941606833514,65030
-12.36446993118659,65030
-9.89020810566592,65030
-7.416630395839093,65030
-4.94373660569363,65030
-2.471526539137585,65030
-6.821210263296962E-13,65030
2.47084320796705,65030
4.941003281093458,65030
7.410480415786196,65030
9.879274808531363,65030
12.347386655893956,65030
14.814816154518212,65030
17.28156350112681,65030
19.74762889252179,65030
22.21301252558385,65030
24.67771459727237,43402
27.141735304626195,17558
29.605074844762612,10511
32.06773341487792,10330
34.52971121224755,10417
36.99100843422559,10674
39.45162527824516,10716
41.91156194181792,10220
44.370818622535126,10920
46.82939551806646,14093
49.287292826160524,19165
51.74451074464503,16933
54.201049471426245,11652
56.65690920448981,8980
59.112090141899785,5770
61.56659248179983,4490
64.02041642241159,4234
66.4735621620365,3599
68.92602989905402,2869
71.37781983192338,3683
73.82893215918205,3516
76.27936707944684,3275
78.72912479141326,2738
81.17820549385567,2489
83.62660938562783,2232
86.07433666566146,2759
88.5213875329681,2730
90.96776218663751,2311
93.41346082583925,1838
95.85848364982041,1893
98.30283085790859,2182
100.7465026495089,1889
103.18949922410604,2072
105.63182078126385,2189
108.07346752062438,2166
110.51443964190923,1746
112.95473734491827,1809
115.39436082953114,1601
117.83331029570547,1879
120.27158594347827,2151
122.7091879729652,1627
125.1461165843615,1510
127.58237197794062,1466
130.01795435405518,1511
132.4528639131364,1580
134.88710085569494,1653
137.32066538231982,1548
139.75355769367923,1592
142.1857779905207,1720
144.61732647366978,1729
147.04820334403132,1781
149.47840880258934,1726
151.90794305040674,1834
154.33680628862487,1819
156.76499871846443,1965
159.19252054122433,2083
161.61937195828352,1982
164.04555317109896,2097
166.47106438120693,2491
168.89590579022217,2734
171.320077599839,2991
173.7435800118302,3154
176.16641322804742,3129
178.58857745042144,3031
181.01007288096173,3207
183.43089972175687,3261
185.85105817497413,3282
188.27054844285988,3167
190.6893707277394,3258
193.10752523201643,3176
195.5250121581745,3185
197.9418317087751,3330
200.3579840864594,3335
202.7734694939469,3495
205.18828813403627,3374
207.6024402096051,3308
210.01592592360964,3279
212.42874547908548,3239
214.84089907914665,3189
217.2523869269868,3116
219.66320922587727,3205
222.0733661791695,3064
224.48285799029293,3170
226.8916848627572,3353
229.29984700014882,3346
231.7073446061355,3305
234.11417788446204,3203
236.520347038953,3351
238.92585227351185,3441
241.33069379212054,3444
243.73487179884035,3282
246.1383864978112,3241
248.541238093252,3306
250.9434267894609,3347
253.34495279081432,3397
255.74581630176783,3336
258.1460175268563,3444
260.54555667069314,3434
262.9444339379703,3263
265.3426495334594,3326
267.7402036620107,3230
270.1370965285529,3029
272.53332833809407,2984
274.9288992957214,2983
277.32380960660055,2932
279.718059475976,3015
282.1116491091717,3106
284.5045787115897,3166
286.89684848871195,3113
289.2884586460981,3014
291.67940938938807,3028
294.0697009242996,3002
296.4593334566299,2924
298.84830719225477,2897
301.23662233712923,2885
303.6242790972866,2841
306.01127767884,2849
308.39761828798066,2909
310.78330113097934,2933
313.16832641418534,2794
315.5526943440269,2730
317.9364051270112,2711
320.3194589697242,2705
322.70185607883093,2717
325.0835966610754,2594
327.4646809232805,2613
329.8451090723478,2661
332.2248813152577,2668
334.6039978590701,2623
336.9824589109231,2600
339.36026467803447,2577
341.7374153677,2564
344.113911187295,2483
346.48975234427337,2472
348.8649390461686,2359
351.2394715005918,2398
353.61334991523415,2449
355.9865744978655,2509
358.35914545633375,2435
360.73106299856715,2462
363.10232733257146,2398
365.47293866643247,2466
367.84289720831396,2451
370.2122031664593,2364
372.5808567491905,2437
374.9488581649083,2390
377.31620762209275,2410
379.6829053293021,2303
382.0489514951745,2345
384.4143463284262,2306
386.7790900378528,2322
389.14318283232853,2254
391.50662492080653,2417
393.86941651231916,2328
396.23155781597745,2308
398.5930490409713,2223
400.9538903965696,2300
403.3140820921202,2265
405.6736243370498,2232
408.03251734086336,2346
410.3907613131465,2259
412.74835646356166,2265
415.10530300185144,2158
417.4616011378372,2272
419.81725108141893,2256
422.1722530425758,2257
424.5266072313656,2292
426.880313857925,2194
429.2333731324701,2165
431.58578526529516,2191
433.9375504667738,2195
436.2886689473588,2215
438.63914091758113,2173
440.9889665880513,2145
443.33814616945835,2130
445.68667987257015,2076
448.03456790823395,2167
450.3818104873759,2077
452.72840782100013,2100
455.07436012019105,2173
457.41966759611057,2152
459.7643304600007,2166
462.10834892318155,2190
464.4517231970525,2150
466.79445349309174,2153
469.1365400228566,2092
471.4779829979826,2181
473.81878263018564,2173
476.15893913125876,2243
478.4984527130747,2328
480.8373235875855,2328
483.17555196682144,2348
485.5131380628919,2527
487.8500820879857,2572
490.1863842543697,2823
492.52204477439034,3086
494.8570638604725,3358
497.1914417251204,3715
499.52517858091653,3886
501.85827464052306,3999
504.19073011668036,4050
506.5225452222086,3841
508.85372017000566,3753
511.18425517304956,3629
513.514150444396,3816
515.8434061971808,4453
518.1720226446176,4962
520.4999999999999,5318
522.8273384766991,5690
525.1540382881666,5684
527.480099647932,5513
529.8055227696037,4319
532.1303078668694,3121
534.454455153496,2545
536.777964843328,2250
539.1008371502907,2159
541.4230722883866,2117
543.744670471698,2145
546.0656319143858,2132
548.3859568306899,2025
550.7056454349294,2017
553.0246979415016,1969
555.3431145648834,1905
557.6608955196306,1882
559.978041020377,1972
562.2945512818363,1890
564.6104265188006,1882
566.9256669461412,1866
569.2402727788082,1943
571.5542442318302,1900
573.8675815203156,1913
576.1802848594508,1911
578.4923544645015,1975
580.8037905508126,2009
583.114593333807,1903
585.4247630289875,1885
587.7342998519354,1900
590.0432040183106,1955
592.3514757438526,1895
594.6591152443794,1947
596.9661227357875,1834
599.2724984340531,1912
601.578242555231,1918
603.8833553154542,2019
606.1878369309362,1969
608.4916876179676,1973
610.7949075929192,1921
613.0974970722403,1937
615.3994562724587,1989
617.7007854101818,1928
620.0014847020951,1946
622.3015543649641,1939
624.6009946156324,1907
626.8998056710224,1902
629.1979877481361,1945
631.4955410640538,1954
633.7924658359349,1881
636.0887622810175,1958
638.3844306166192,1925
640.6794710601358,1978
642.9738838290426,1943
645.2676691408932,1969
647.5608272133207,1997
649.853358264037,1963
652.1452625108324,2006
654.4365401715764,2019
656.7271914642178,2002
659.0172166067838,1979
661.3066158173809,1984
663.5953893141935,2019
665.8835373154867,1966
668.1710600396028,1971
670.4579577049639,1949
672.7442305300709,1986
675.0298787335033,2003
677.3149025339197,2021
679.599302150058,1984
681.8830778007342,1966
684.1662297048437,1968
686.4487580813608,2019
688.7306631493387,1994
691.0119451279091,2000
693.2926042362834,2073
695.5726406937516,1970
697.8520547196814,1975
700.1308465335215,2011
702.4090163547982,1962
704.6865644031171,1999
706.9634908981619,2025
709.2397960596965,1898
711.5154801075631,1955
713.7905432616823,1954
716.0649857420548,2001
718.3388077687592,1907
720.612009561953,1886
722.8845913418733,1952
725.1565533288352,2002
727.427895743234,1945
729.6986188055427,2017
731.9687227363137,1963
734.238207756178,1928
736.5070740858458,1941
738.7753219461066,2009
741.0429515578281,1930
743.3099631419569,1976
745.5763569195191,1947
747.8421331116193,2049
750.1072919394409,2019
752.3718336242467,1985
754.6357583873777,2024
756.8990664502545,1973
759.1617580343765,2043
761.423833361321,2003
763.6852926527457,2003
765.9461361303862,2019
768.206364016058,2058
770.4659765316536,1986
772.7249738991469,2025
774.9833563405886,2030
777.2411240781092,2012
779.4982773339183,2087
781.7548163303044,1992
784.010741289634,1982
786.2660524343538,2093
788.5207499869881,2055
790.7748341701416,2043
793.0283052064964,2012
795.2811633188143,1950
797.5334087299362,1980
799.7850416627813,2066
802.0360623403484,1994
804.2864709857143,2074
806.5362678220353,2035
808.7854530725468,2114
811.0340269605625,2026
813.2819897094754,2062
815.5293415427581,2089
817.77608268396,1979
820.0222133567116,2020
822.2677337847211,2046
824.5126441917765,1984
826.7569448017433,2033
829.0006358385675,1997
831.2437175262731,2030
833.4861900889629,2012
835.7280537508192,2010
837.9693087361026,2031
840.2099552691533,2021
842.4499935743896,2015
844.689423876309,2026
846.9282463994886,1944
849.1664613685833,2003
851.4040690083276,1982
853.6410695435349,1979
855.877463199097,2016
858.1132501999847,2057
860.3484307712487,1976
862.5830051380175,2056
864.8169735254988,2058
867.0503361589791,2050
869.2830932638243,1994
871.5152450654786,2057
873.7467917894654,2083
875.9777336613873,2073
878.2080709069252,2078
880.4378037518389,2168
882.666932421968,2159
884.8954571432301,2038
887.1233781416219,2123
889.3506956432192,2110
891.5774098741766,2127
893.803521060728,2086
896.0290294291852,2027
898.2539352059397,1992
900.4782386174619,2100
902.7019398903011,2122
904.925039251085,2120
907.147536926521,2129
909.3694331433943,2071
911.59072812857,2090
913.8114221089921,2068
916.0315153116827,2124
918.2510079637437,1976
920.4699002923547,1986
922.6881925247761,1946
924.905884888345,1964
927.1229776104793,2078
929.3394709186747,2025
931.555365040506,2054
933.7706602036275,2023
935.9853566357709,2025
938.1994545647489,2102
940.4129542184515,2003
942.6258558248488,2036
944.8381596119883,2019
947.0498658079974,1986
949.2609746410825,2128
951.4714863395287,1994
953.6814011316998,2021
955.8907192460387,1974
958.0994409110671,2005
960.3075663553858,1954
962.5150958076741,2031
964.7220294966913,2026
966.928367651274,1905
969.1341105003388,1925
971.3392582728806,1935
973.5438111979742,1926
975.747769504772,1901
977.9511334225061,1991
980.153903180487,1932
982.3560790081052,1944
984.5576611348289,1894
986.7586497902058,1867
988.9590452038618,1816
991.158847605503,1820
993.3580572249133,1818
995.5566742919558,1780
997.7546990365728,1782
999.952131688785,1754
1002.1489724786926,1769
1004.3452216364743,1708
1006.5408793923874,1697
1008.7359459767691,1677
1010.9304216200343,1711
1013.1243065526781,1648
1015.3176010052733,1656
1017.510305208472,1647
1019.7024193930064,1614
1021.8939437896848,1658
1024.0848786293977,1610
1026.2752241431122,1652
1028.4649805618747,1642
1030.6541481168115,1640
1032.842727039127,1657
1035.0307175601051,1537
1037.2181199111074,1613
1039.4049343235752,1562
1041.591161029029,1600
1043.7768002590683,1610
1045.9618522453698,1645
1048.1463172196918,1637
1050.3301954138697,1566
1052.513487059818,1598
1054.69619238953,1626
1056.8783116350783,1592
1059.0598450286152,1601
1061.2407928023704,1568
1063.4211551886528,1577
1065.6009324198508,1578
1067.780124728432,1601
1069.9587323469414,1541
1072.1367555080046,1565
1074.314194444325,1580
1076.4910493886855,1468
1078.667320573947,1547
1080.843008233051,1561
1083.0181125990161,1556
1085.1926339049414,1522
1087.3665723840027,1506
1089.5399282694575,1480
1091.7127017946405,1487
1093.8848931929647,1547
1096.0565026979243,1466
1098.2275305430899,1478
1100.3979769621128,1518
1102.567842188722,1524
1104.737126456726,1518
1106.9058300000124,1449
1109.0739530525475,1392
1111.2414958483764,1470
1113.4084586216231,1521
1115.5748416064907,1453
1117.7406450372605,1474
1119.9058691482942,1418
1122.0705141740304,1423
1124.2345803489884,1425
1126.3980679077658,1460
1128.5609770850388,1476
1130.7233081155623,1466
1132.8850612341707,1387
1135.0462366757774,1435
1137.2068346753745,1407
1139.3668554680326,1407
1141.526299288901,1441
1143.68516637321,1488
1145.8434569562655,1405
1148.001171273455,1438
1150.158309560244,1457
1152.3148720521767,1410
1154.470858984876,1442
1156.626270594044,1381
1158.7811071154629,1426
1160.9353687849912,1400
1163.089055838569,1482
1165.242168512213,1437
1167.3947070420209,1425
1169.5466716641677,1410
1171.6980626149075,1435
1173.8488801305748,1441
1175.9991244475814,1393
1178.1487958024186,1394
1180.2978944316555,1444
1182.4464205719428,1425
1184.5943744600072,1388
1186.7417563326567,1422
1188.8885664267755,1349
1191.0348049793297,1397
1193.1804722273619,1404
1195.325568407995,1405
1197.4700937584303,1446
1199.614048515948,1339
1201.7574329179074,1403
1203.900247201746,1385
1206.042491604982,1409
1208.1841663652099,1398
1210.3252717201053,1376
1212.465807907422,1352
1214.6057751649923,1397
1216.7451737307279,1407
1218.8840038426192,1426
1221.0222657387353,1488
1223.1599596572241,1489
1225.2970858363137,1389
1227.4336445143094,1368
1229.5696359295966,1432
1231.705060320639,1421
1233.8399179259786,1464
1235.9742089842384,1458
1238.107933734118,1412
1240.2410924143974,1480
1242.373685263935,1436
1244.5057125216676,1394
1246.6371744266116,1433
1248.7680712178621,1408
1250.898403134593,1449
1253.028170416058,1447
1255.1573733015875,1418
1257.2860120305932,1443
1259.4140868425648,1416
1261.54159797707,1413
1263.6685456737569,1412
1265.7949301723515,1433
1267.9207517126597,1464
1270.046010534565,1450
1272.1707068780306,1458
1274.2948409830983,1501
1276.4184130898889,1535
1278.541423438603,1511
1280.6638722695184,1492
1282.785759822993,1459
1284.9070863394636,1463
1287.0278520594447,1500
1289.1480572235314,1474
1291.2677020723963,1528
1293.3867868467923,1515
1295.5053117875495,1511
1297.623277135579,1563
1299.740683131868,1500
1301.8575300174857,1542
1303.973818033578,1568
1306.0895474213703,1582
1308.2047184221678,1550
1310.3193312773528,1592
1312.4333862283888,1541
1314.5468835168163,1589
1316.659823384255,1581
1318.7722060724045,1581
1320.8840318230418,1535
1322.9953008780249,1557
1325.1060134792888,1570
1327.2161698688478,1586
1329.3257702887959,1549
1331.4348149813054,1600
1333.5433041886276,1568
1335.6512381530933,1602
1337.7586171171101,1581
1339.8654413231675,1506
1341.9717110138317,1559
1344.0774264317488,1479
1346.1825878196432,1541
1348.2871954203192,1545
1350.3912494766587,1557
1352.4947502316231,1520
1354.5976979282532,1582
1356.7000928096686,1578
1358.8019351190665,1552
1360.9032250997243,1523
1363.0039629949988,1494
1365.1041490483235,1541
1367.2037835032133,1532
1369.3028666032606,1498
1371.401398592137,1562
1373.4993797135926,1555
1375.5968102114575,1501
1377.6936903296396,1509
1379.7900203121262,1500
1381.8858004029835,1548
1383.9810308463561,1594
1386.075711886469,1585
1388.1698437676241,1508
1390.2634267342032,1520
1392.356461030667,1564
1394.4489469015557,1573
1396.5408845914872,1524
1398.6322743451592,1590
1400.7231164073469,1562
1402.813411022907,1666
1404.903158436773,1551
1406.9923588939578,1590
1409.0810126395531,1559
1411.1691199187303,1573
1413.2566809767386,1599
1415.343696058907,1591
1417.4301654106425,1690
1419.5160892774315,1597
1421.6014679048399,1565
1423.6863015385125,1581
1425.7705904241707,1638
1427.8543348076178,1612
1429.9375349347342,1687
1432.0201910514802,1623
1434.102303403894,1694
1436.1838722380944,1696
1438.2648978002767,1692
1440.3453803367174,1711
1442.4253200937692,1753
1444.5047173178677,1840
1446.5835722555234,1769
1448.6618851533285,1782
1450.739656257952,1818
1452.8168858161434,1815
1454.8935740747306,1800
1456.96972128062,1783
1459.045327680797,1864
1461.120393522327,1843
1463.1949190523528,1887
1465.2689045180973,1880
1467.3423501668608,1986
1469.415256246024,1964
1471.4876230030463,2009
1473.559450685465,2087
1475.6307395408976,2108
1477.7014898170391,2155
1479.771701761665,2106
1481.8413756226287,2114
1483.9105116478618,2109
1485.9791100853772,2179
1488.0471711832643,2228
1490.1146951896926,2311
1492.1816823529098,2318
1494.2481329212433,2307
1496.3140471430984,2395
1498.3794252669609,2330
1500.4442675413939,2374
1502.5085742150404,2525
1504.572345536622,2427
1506.6355817549388,2464
1508.6982831188702,2460
1510.7604498773744,2578
1512.8220822794883,2588
1514.8831805743293,2702
1516.9437450110909,2844
1519.003775839048,2837
1521.0632733075522,2847
1523.1222376660367,2858
1525.1806691640113,2982
1527.2385680510652,2976
1529.2959345768668,3110
1531.3527689911643,3077
1533.4090715437833,3167
1535.4648424846291,3148
1537.5200820636855,3360
1539.5747905310159,3390
1541.6289681367616,3436
1543.6826151311434,3475
1545.7357317644614,3498
1547.7883182870937,3518
1549.8403749494987,3602
1551.8919020022113,3623
1553.9428996958477,3731
1555.9933682811015,3878
1558.0433080087469,3953
1560.0927191296346,4084
1562.1416018946961,4215
1564.1899565549415,4167
1566.2377833614592,4259
1568.2850825654164,4123
1570.3318544180606,4038
1572.3780991707158,3853
1574.423817074788,3700
1576.4690083817595,3579
1578.5136733431923,3374
1580.5578122107272,3185
1582.601425236085,3040
1584.6445126710646,2829
1586.6870747675434,2795
1588.7291117774776,2632
1590.7706239529034,2577
1592.8116115459347,2458
1594.8520748087658,2317
1596.8920139936686,2221
1598.9314293529933,2133
1600.9703211391711,2062
1603.008689604711,1987
1605.0465350022005,1972
1607.0838575843068,1912
1609.1206576037753,1896
1611.1569353134305,1842
1613.1926909661765,1800
1615.2279248149953,1742
1617.2626371129481,1806
1619.2968281131757,1762
1621.3304980688963,1762
1623.3636472334088,1715
1625.39627586009,1683
1627.428384202396,1666
1629.459972513861,1616
1631.4910410480993,1612
1633.5215900588028,1687
1635.551619799744,1655
1637.5811305247717,1582
1639.6101224878166,1595
1641.6385959428862,1636
1643.6665511440683,1564
1645.693988345528,1589
1647.7209078015112,1485
1649.7473097663405,1540
1651.7731944944203,1545
1653.7985622402307,1573
1655.823413258333,1560
1657.847747803366,1503
1659.8715661300494,1559
1661.8948684931793,1510
1663.9176551476316,1510
1665.9399263483624,1451
1667.9616823504057,1496
1669.982923408873,1461
1672.0036497789574,1571
1674.0238617159293,1512
1676.043559475138,1512
1678.0627433120121,1488
1680.081413482059,1516
1682.0995702408654,1525
1684.117213844096,1490
1686.134344547495,1497
1688.1509626068864,1527
1690.1670682781705,1510
1692.182661817329,1483
1694.1977434804217,1468
1696.2123135235875,1437
1698.226372203043,1499
1700.2399197750851,1507
1702.2529564960905,1469
1704.2654826225112,1536
1706.277498410882,1483
1708.2890041178139,1486
1710.2999999999988,1502
1712.3104863142066,1511
1714.3204633172854,1475
1716.329931266163,1470
1718.3388904178469,1496
1720.3473410294214,1494
1722.3552833580516,1501
1724.3627176609807,1440
1726.3696441955308,1433
1728.3760632191033,1459
1730.3819749891782,1444
1732.3873797633146,1491
1734.3922777991502,1454
1736.3966693544012,1511
1738.4005546868639,1474
1740.4039340544127,1432
1742.406807715001,1417
1744.4091759266616,1441
1746.4110389475054,1432
1748.4123970357223,1391
1750.413250449582,1474
1752.4135994474318,1415
1754.4134442876993,1412
1756.4127852288902,1415
1758.4116225295893,1365
1760.4099564484595,1406
1762.407787244244,1439
1764.405115175764,1397
1766.4019405019203,1390
1768.3982634816916,1384
1770.3940843741357,1369
1772.3894034383907,1385
1774.3842209336717,1417
1776.378537119274,1371
1778.372352254571,1384
1780.3656665990156,1355
1782.3584804121397,1364
1784.3507939535534,1384
1786.3426074829463,1381
1788.3339212600863,1345
1790.3247355448211,1387
1792.3150505970766,1353
1794.3048666768573,1268
1796.2941840442477,1381
1798.2830029594106,1335
1800.2713236825884,1344
1802.2591464741004,1387
1804.2464715943465,1422
1806.2332993038058,1383
1808.2196298630352,1364
1810.2054635326708,1384
1812.190800573428,1403
1814.175641246101,1391
1816.1599858115628,1337
1818.1438345307652,1396
1820.127187664738,1398
1822.1100454745924,1293
1824.092408221516,1407
1826.0742761667766,1373
1828.055649571721,1339
1830.0365286977735,1346
1832.0169138064398,1363
1833.9968051593014,1377
1835.9762030180214,1279
1837.9551076443408,1309
1839.9335193000788,1326
1841.9114382471344,1276
1843.888864747485,1305
1845.8657990631878,1332
1847.842241456378,1374
1849.8181921892697,1343
1851.7936515241558,1311
1853.7686197234098,1339
1855.7430970494815,1304
1857.7170837649014,1380
1859.6905801322787,1342
1861.6635864143004,1363
1863.6361028737338,1374
1865.608129773424,1339
1867.5796673762961,1342
1869.5507159453537,1358
1871.521275743678,1358
1873.4913470344313,1282
1875.4609300808534,1342
1877.4300251462632,1319
1879.3986324940588,1352
1881.366752387717,1377
1883.3343850907936,1289
1885.3015308669228,1317
1887.268189979819,1364
1889.2343626932739,1402
1891.2000492711595,1371
1893.1652499774254,1435
1895.1299650761011,1373
1897.0941948312952,1394
1899.0579395071945,1381
1901.0211993680641,1345
1902.98397467825,1335
1904.9462657021745,1341
1906.9080727043415,1392
1908.869395949332,1348
1910.8302357018065,1439
1912.790592226504,1386
1914.7504657882428,1346
1916.7098566519212,1335
1918.6687650825133,1340
1920.6271913450764,1398
1922.5851357047422,1402
1924.5425984267245,1342
1926.499579776314,1372
1928.4560800188833,1414
1930.4120994198802,1342
1932.367638244833,1380
1934.32269675935,1356
1936.2772752291175,1355
1938.231373919899,1380
1940.1849930975404,1349
1942.1381330279637,1417
1944.0907939771696,1397
1946.0429762112412,1387
1947.9946799963363,1350
1949.9459055986945,1376
1951.896653284633,1309
1953.8469233205478,1362
1955.7967159729142,1327
1957.7460315082863,1373
1959.6948701932974,1321
1961.6432322946594,1323
1963.5911180791632,1364
1965.5385278136787,1372
1967.4854617651545,1377
1969.4319202006182,1357
1971.377903387176,1401
1973.3234115920136,1357
1975.268445082395,1387
1977.2130041256642,1319
1979.1570889892423,1379
1981.1006999406304,1337
1983.04383724741,1392
1984.986501177238,1310
1986.928691997853,1328
1988.8704099770712,1310
1990.811655382789,1348
1992.7524284829801,1370
1994.692729545698,1352
1996.6325588390755,1275
1998.5719166313224,1287
2000.5108031907307,1332
2002.4492187856677,1284
2004.387163684583,1358
2006.3246381560011,1353
2008.2616424685298,1358
2010.1981768908527,1345
2012.1342416917332,1365
2014.069837140014,1347
2016.0049635046162,1322
2017.9396210545406,1346
2019.8738100588666,1390
2021.8075307867502,1328
2023.740783507431,1336
2025.6735684902228,1377
2027.6058860045214,1328
2029.5377363198004,1324
2031.4691197056118,1307
2033.4000364315875,1338
2035.3304867674374,1332
2037.260470982952,1320
2039.189989347998,1305
2041.1190421325232,1302
2043.047629606554,1294
2044.9757520401945,1312
2046.9034097036288,1296
2048.8306028671195,1368
2050.7573318010086,1348
2052.683596775716,1300
2054.609398061742,1324
2056.5347359296647,1317
2058.4596106501403,1306
2060.384022493906,1359
2062.3079717317764,1342
2064.231458634646,1279
2066.1544834734873,1334
2068.077046519352,1342
2069.99914804337,1308
2071.9207883167524,1361
2073.8419676107865,1351
2075.7626861968406,1326
2077.6829443463607,1363
2079.6027423308715,1356
2081.522080421977,1329
2083.440958891362,1341
2085.359378010786,1321
2087.2773380520907,1335
2089.194839287196,1271
2091.111881988101,1350
2093.0284664268825,1387
2094.9445928756973,1286
2096.86026160678,1307
2098.775472892446,1337
2100.690227005088,1333
2102.604524217178,1316
2104.5183648012676,1306
2106.431749029985,1300
2108.34467717604,1400
2110.2571495122206,1361
2112.169166311393,1284
2114.080727846503,1414
2115.9918343905747,1335
2117.902486216711,1325
2119.8126835980956,1332
2121.722426807987,1288
2123.6317161197285,1284
2125.5405518067364,1315
2127.448934142509,1344
2129.356863400624,1295
2131.264339854737,1289
2133.1713637785815,1302
2135.077935445972,1369
2136.9840551308002,1393
2138.889723107037,1340
2140.7949396487334,1317
2142.699705030018,1373
2144.6040195250994,1347
2146.507883408264,1397
2148.4112969538774,1353
2150.3142604363848,1400
2152.2167741303097,1334
2154.1188383102535,1365
2156.0204532508997,1316
2157.9216192270064,1288
2159.822336513414,1328
2161.7226053850413,1325
2163.622426116884,1335
2165.5217989840185,1342
2167.4207242616,1308
2169.319202224862,1302
2171.2172331491165,1313
2173.1148173097563,1322
2175.0119549822507,1335
2176.90864644215,1327
2178.8048919650823,1307
2180.7006918267534,1362
2182.596046302952,1354
2184.4909556695407,1362
2186.3854202024645,1385
2188.279440177746,1303
2190.173015871487,1314
2192.066147559868,1330
2193.958835519149,1280
2195.851080025667,1288
2197.7428813558417,1320
2199.6342397861667,1375
2201.5251555932186,1317
2203.415629053651,1342
2205.3056604441986,1317
2207.19525004167,1346
2209.084398122958,1402
2210.9731049650327,1349
2212.861370844941,1354
2214.749196039812,1336
2216.636580826851,1334
2218.523525483344,1295
2220.410030286655,1369
2222.296095514226,1400
2224.1817214435805,1317
2226.066908352319,1347
2227.951656518121,1357
2229.835966218746,1337
2231.71983773203,1348
2233.6032713358913,1313
2235.486267308324,1359
2237.3688259274036,1369
2239.2509474712824,1288
2241.132632218193,1284
2243.013880446447,1295
2244.8946924344323,1312
2246.7750684606203,1341
2248.6550088035574,1308
2250.534513741871,1358
2252.413583554265,1292
2254.292218519526,1354
2256.170418916517,1309
2258.0481850241786,1323
2259.925517121534,1343
2261.8024154876825,1303
2263.678880401803,1383
2265.5549121431536,1340
2267.430510991071,1310
2269.305677224971,1342
2271.180411124348,1375
2273.0547129687766,1358
2274.9285830379076,1353
2276.8020216114737,1311
2278.6750289692845,1313
2280.5476053912294,1282
2282.4197511572766,1350
2284.2914665474727,1317
2286.162751841943,1373
2288.0336073208937,1333
2289.904033264608,1370
2291.774029953448,1374
2293.6435976678554,1346
2295.5127366883517,1370
2297.381447295534,1325
2299.2497297700825,1304
2301.1175843927526,1368
2302.9850114443825,1339
2304.852011205885,1368
2306.7185839582553,1396
2308.5847299825664,1392
2310.4504495599676,1363
2312.3157429716925,1369
2314.1806104990483,1402
2316.0450524234247,1333
2317.9090690262888,1410
2319.772660589186,1307
2321.635827393742,1398
2323.498569721661,1313
2325.3608878547248,1386
2327.2227820747967,1319
2329.0842526638157,1390
2330.945299903803,1308
2332.805924076857,1373
2334.6661254651535,1333
2336.525904350951,1402
2338.3852610165827,1428
2340.244195744464,1422
2342.102708817088,1377
2343.9608005170253,1347
2345.8184711269287,1352
2347.675720929526,1341
2349.532550207628,1350
2351.38895924412,1342
2353.24494832197,1358
2355.100517724223,1348
2356.955667734004,1345
2358.810398634514,1307
2360.664710709037,1389
2362.5186042409337,1366
2364.3720795136437,1348
2366.225136810686,1388
2368.0777764156583,1382
2369.929998612237,1350
2371.7818036841777,1357
2373.633191915315,1382
2375.484163589562,1372
2377.3347189909114,1422
2379.184858403434,1399
2381.03458211128,1388
2382.8838903986775,1358
2384.732783549936,1458
2386.5812618494406,1370
2388.4293255816588,1392
2390.2769750311327,1423
2392.1242104824883,1376
2393.971032220427,1422
2395.8174405297295,1367
2397.6634356952563,1335
2399.509018001947,1438
2401.3541877348193,1422
2403.1989451789705,1421
2405.043290619576,1413
2406.8872243418905,1375
2408.730746631247,1411
2410.5738577730594,1409
2412.4165580528183,1409
2414.258847756095,1402
2416.100727168537,1403
2417.9421965758734,1410
2419.783256263912,1364
2421.623906518538,1324
2423.4641476257157,1413
2425.303979871491,1424
2427.143403541984,1449
2428.9824189233977,1417
2430.821026302012,1506
2432.6592259641866,1429
2434.497018196361,1437
2436.33440328505,1446
2438.171381516851,1459
2440.00795317844,1402
2441.844118556569,1392
2443.6798779380724,1444
2445.5152316098606,1422
2447.3501798589255,1389
2449.1847229723357,1404
2451.0188612372403,1416
2452.8525949408663,1372
2454.6859243705203,1412
2456.518849813587,1370
2458.3513715575314,1383
2460.183489889895,1476
2462.015205098301,1366
2463.8465174704493,1369
2465.67742729412,1357
2467.5079348571717,1389
2469.338040447542,1391
2471.1677443532476,1402
2472.9970468623833,1401
2474.825948263123,1373
2476.6544488437207,1429
2478.482548892508,1466
2480.310248697896,1454
2482.137548548374,1432
2483.9644487325118,1424
2485.790949538956,1404
2487.617051256433,1406
2489.44275417375,1450
2491.26805857979,1428
2493.0929647635157,1385
2494.917473013971,1442
2496.741583620276,1431
2498.5652968716304,1447
2500.3886130573137,1411
2502.2115324666834,1448
2504.0340553891765,1439
2505.856182114308,1480
2507.6779129316733,1423
2509.499248130945,1486
2511.3201880018764,1449
2513.140732834298,1448
2514.9608829181198,1442
2516.780638543331,1492
2518.6,1493
2520.418967578273,1479
2522.237541568376,1472
2524.0557222606144,1414
2525.8735099453706,1432
2527.6909049131086,1396
2529.507907454368,1479
2531.32451785977,1478
2533.140736420014,1539
2534.9565634258774,1485
2536.771999168218,1561
2538.5870439379714,1515
2540.4016980261526,1517
2542.2159617238544,1520
2544.02983532225,1516
2545.8433191125914,1479
2547.656413386209,1572
2549.4691184345115,1496
2551.2814345489874,1516
2553.093362021204,1559
2554.904901142808,1584
2556.716052205523,1622
2558.526815501153,1542
2560.3371913215824,1578
2562.147179958771,1642
2563.956781704761,1547
2565.7659968516705,1575
2567.5748256916986,1588
2569.3832685171224,1556
2571.1913256202984,1645
2572.9989972936614,1652
2574.806283829725,1601
2576.613185521084,1583
2578.4197026604074,1571
2580.2258355404483,1586
2582.031584454035,1607
2583.836949694077,1590
2585.6419315535613,1619
2587.4465303255533,1661
2589.2507463032002,1643
2591.0545797797245,1589
2592.8580310484303,1632
2594.6611004026995,1689
2596.463788135992,1751
2598.266094541849,1750
2600.0680199138874,1711
2601.869564545807,1747
2603.670728731383,1707
2605.4715127644704,1698
2607.2719169390048,1733
2609.071941548998,1691
2610.8715868885433,1772
2612.670853251811,1737
2614.469740933052,1729
2616.268250226594,1745
2618.0663814268455,1778
2619.864134828292,1712
2621.6615107255006,1769
2623.458509413115,1682
2625.2551311858597,1708
2627.0513763385347,1687
2628.8472451660223,1722
2630.6427379632833,1701
2632.4378550253564,1748
2634.232596647359,1728
2636.026963124488,1647
2637.8209547520187,1705
2639.6145718253065,1700
2641.407814639785,1681
2643.200683490966,1624
2644.9931786744414,1631
2646.7853004858807,1589
2648.577049221034,1611
2650.3684251757277,1633
2652.1594286458712,1626
2653.9500599274484,1566
2655.740319316525,1559
2657.5302071092437,1531
2659.3197236018286,1560
2661.10886909058,1593
2662.8976438718782,1568
2664.686048242183,1528
2666.4740824980327,1522
2668.2617469360443,1506
2670.0490418529134,1566
2671.8359675454153,1556
2673.622524310403,1449
2675.408712444811,1516
2677.1945322456495,1535
2678.979984010009,1447
2680.76506803506,1446
2682.5497846180497,1451
2684.334134056306,1431
2686.1181166472343,1484
2687.9017326883213,1403
2689.6849824771293,1498
2691.4678663113013,1441
2693.2503844885596,1413
2695.032537306705,1451
2696.8143250636167,1397
2698.5957480572542,1445
2700.3768065856534,1400
2702.1575009469316,1381
2703.937831439283,1415
2705.717798360982,1425
2707.4974020103837,1433
2709.276642685917,1359
2711.055520686095,1343
2712.834036309506,1371
2714.612189854819,1428
2716.389981620782,1411
2718.1674119062204,1331
2719.944481010041,1331
2721.721189231226,1370
2723.4975368688415,1397
2725.273524222027,1414
2727.0491515900053,1397
2728.824419272075,1342
2730.5993275676146,1404
2732.3738767760838,1441
2734.148067197016,1388
2735.921899130031,1392
2737.6953728748194,1374
2739.468488731156,1394
2741.2412469988926,1391
2743.0136479779617,1334
2744.785691968372,1363
2746.5573792702116,1325
2748.3287101836504,1311
2750.099685008934,1374
2751.870304046388,1378
2753.640567596418,1380
2755.4104759595057,1366
2757.1800294362156,1365
2758.949228327187,1424
2760.7180729331412,1354
2762.486563554877,1320
2764.254700493272,1358
2766.022484049284,1351
2767.789914523947,1361
2769.5569922183786,1369
2771.3237174337705,1333
2773.090090471394,1324
2774.8561116326036,1309
2776.6217812188274,1329
2778.3870995315756,1346
2780.1520668724356,1333
2781.9166835430747,1338
2783.6809498452394,1348
2785.444866080754,1322
2787.2084325515225,1338
2788.971649559527,1358
2790.73451740683,1327
2792.4970363955713,1304
2794.2592068279705,1328
2796.0210290063264,1392
2797.7825032330147,1319
2799.543629810493,1329
2801.304409041296,1267
2803.0648412280366,1324
2804.8249266734088,1351
2806.5846656801846,1343
2808.344058551212,1376
2810.1031055894246,1294
2811.8618070978273,1318
2813.6201633795085,1310
2815.378174737636,1354
2817.1358414754536,1379
2818.893163896285,1348
2820.6501423035334,1353
2822.4067770006814,1381
2824.1630682912883,1364
2825.9190164789957,1385
2827.6746218675207,1338
2829.429884760661,1335
2831.184805462294,1343
2832.9393842763743,1316
2834.693621506936,1311
2836.4475174580916,1311
2838.201072434034,1309
2839.954286739034,1350
2841.707160677441,1361
2843.459694553685,1287
2845.2118886722724,1321
2846.96374333779,1332
2848.7152588549034,1297
2850.4664355283567,1402
2852.217273662973,1303
2853.9677735636546,1340
2855.7179355353833,1298
2857.4677598832186,1332
2859.217246912299,1341
2860.9663969278427,1336
2862.715210235146,1321
2864.4636871395846,1331
2866.211827946614,1298
2867.9596329617652,1342
2869.7071024906536,1358
2871.4542368389684,1380
2873.20103631248,1336
2874.947501217038,1375
2876.6936318585695,1364
2878.4394285430812,1300
2880.1848915766604,1361
2881.9300212654707,1366
2883.6748179157553,1331
2885.4192818338374,1316
2887.1634133261173,1293
2888.907212699077,1318
2890.6506802592744,1356
2892.393816313348,1326
2894.1366211680142,1354
2895.8790951300693,1341
2897.621238506388,1365
2899.363051603925,1360
2901.1045347297118,1374
2902.8456881908596,1340
2904.58651229456,1305
2906.327007348081,1345
2908.067173658772,1352
2909.8070115340597,1373
2911.5465212814497,1379
2913.285703208527,1286
2915.0245576229563,1322
2916.7630848324807,1382
2918.5012851449196,1297
2920.2391588681758,1364
2921.976706310227,1421
2923.7139277791334,1373
2925.4508235830313,1321
2927.187394030137,1351
2928.923639428745,1371
2930.6595600872306,1337
2932.395156314046,1296
2934.1304284177218,1314
2935.8653767068713,1348
2937.6000014901815,1298
2939.3343030764227,1326
2941.068281774442,1362
2942.8019378931644,1303
2944.5352717415976,1274
2946.2682836288236,1378
2948.0009738640065,1328
2949.7333427563885,1330
2951.465390615289,1341
2953.1971177501086,1324
2954.9285244703265,1303
2956.6596110855,1281
2958.3903779052657,1308
2960.1208252393385,1341
2961.8509533975125,1322
2963.5807626896617,1289
2965.3102534257378,1366
2967.0394259157715,1329
2968.768280469873,1288
2970.496817398232,1332
2972.2250370111146,1350
2973.952939618869,1382
2975.6805255319196,1287
2977.4077950607707,1287
2979.134748516006,1396
2980.861386208289,1355
2982.587708448359,1332
2984.313715547037,1386
2986.039407815222,1359
2987.764785563891,1377
2989.489849104102,1370
2991.2145987469908,1324
2992.9390348037705,1287
2994.6631575857346,1304
2996.3869674042576,1357
2998.1104645707887,1321
2999.83364939686,1336
3001.5565221940783,1364
3003.2790832741334,1330
3005.0013329487924,1369
3006.7232715298996,1360
3008.4448993293804,1326
3010.166216659239,1271
3011.887223831558,1313
3013.607921158498,1314
3015.3283089522993,1337
3017.0483875252826,1343
3018.7681571898443,1387
3020.4876182584626,1323
3022.2067710436927,1307
3023.9256158581707,1335
3025.644153014609,1342
3027.362382825801,1376
3029.0803056046193,1313
3030.797921664012,1322
3032.5152313170106,1372
3034.2322348767225,1331
3035.9489326563353,1342
3037.665324969115,1317
3039.3814121284063,1328
3041.097194447633,1323
3042.812672240299,1335
3044.5278458199855,1337
3046.2427155003525,1344
3047.9572815951406,1342
3049.671544418167,1348
3051.38550428333,1348
3053.0991615046073,1330
3054.812516396051,1352
3056.5255692717974,1334
3058.2383204460575,1294
3059.9507702331257,1365
3061.662918947372,1322
3063.3747669032446,1324
3065.0863144152736,1319
3066.7975617980674,1399
3068.508509366309,1343
3070.219157434767,1314
3071.9295063182844,1357
3073.639556331785,1307
3075.3493077902704,1308
3077.058761008821,1379
3078.7679163025964,1338
3080.476773986837,1307
3082.1853343768594,1338
3083.89359778806,1347
3085.6015645359153,1294
3087.3092349359786,1349
3089.016609303884,1311
3090.7236879553434,1326
3092.4304712061476,1321
3094.136959372166,1311
3095.843152769349,1321
3097.5490517137237,1368
3099.2546565213966,1379
3100.959967508554,1387
3102.66498499146,1328
3104.3697092864577,1320
3106.0741407099695,1311
3107.778279578498,1367
3109.482126208622,1322
3111.1856809170004,1359
3112.8889440203716,1352
3114.5919158355528,1371
3116.294596679439,1309
3117.996986869006,1371
3119.6990867213062,1310
3121.4008965534726,1326
3123.102416682717,1357
3124.803647426329,1346
3126.5045891016784,1373
3128.205242026213,1435
3129.90560651746,1350
3131.605682893025,1368
3133.3054714705922,1391
3135.0049725679282,1368
3136.7041865028714,1347
3138.4031135933465,1326
3140.101754157353,1410
3141.800108512971,1397
3143.498176978357,1404
3145.1959598717494,1332
3146.8934575114636,1355
3148.5906702158954,1295
3150.2875983035183,1318
3151.9842420928853,1266
3153.680601902627,1342
3155.376678051456,1373
3157.07247085816,1313
3158.767980641609,1293
3160.463207720748,1296
3162.158152414606,1322
3163.8528150422862,1334
3165.5471959229726,1335
3167.2412953759303,1363
3168.9351137204976,1288
3170.628651276098,1328
3172.3219083622307,1376
3174.014885298474,1382
3175.707582404485,1433
3177.4000000000005,1339
3179.092138404835,1354
3180.7839979388846,1354
3182.47557892212,1312
3184.166881674594,1299
3185.8579065164386,1345
3187.5486537678626,1350
3189.2391237491547,1285
3190.9293167806827,1319
3192.6192331828934,1341
3194.3088732763117,1377
3195.998237381542,1325
3197.687325819268,1321
3199.376138910251,1304
3201.064676975334,1362
3202.7529403354347,1332
3204.4409293115523,1319
3206.1286442247647,1351
3207.816085396229,1325
3209.5032531471825,1292
3211.190147798936,1296
3212.8767696728846,1290
3214.5631190905015,1344
3216.2491963733373,1307
3217.9350018430214,1278
3219.6205358212637,1351
3221.305798629851,1280
3222.990790590651,1226
3224.6755120256103,1241
3226.359963256751,1293
3228.0441446061795,1308
3229.7280563960758,1304
3231.411698948703,1329
3233.0950725863995,1306
3234.778177631587,1361
3236.461014406761,1282
3238.1435832345005,1355
3239.8258844374595,1268
3241.507918338374,1357
3243.1896852600576,1319
3244.8711855254023,1306
3246.552419457381,1284
3248.233387379042,1342
3249.914089613516,1301
3251.59452648401,1290
3253.274698313813,1357
3254.95460542629,1280
3256.6342481448855,1303
3258.313626793125,1286
3259.9927416946084,1251
3261.6715931730196,1287
3263.3501815521176,1306
3265.0285071557437,1227
3266.706570307815,1272
3268.3843713323286,1290
3270.0619105533615,1296
3271.739188295068,1292
3273.4162048816834,1363
3275.0929606375184,1258
3276.769455886966,1286
3278.445690954498,1328
3280.1216661646613,1277
3281.797381842087,1322
3283.4728383114807,1316
3285.1480358976296,1308
3286.8229749253996,1281
3288.4976557197333,1284
3290.172078605655,1297
3291.846243908266,1296
3293.5201519527463,1312
3295.193803064357,1316
3296.8671975684374,1304
3298.5403357904024,1290
3300.21321805575,1296
3301.8858446900567,1279
3303.558216018975,1297
3305.23033236824,1336
3306.9021940636603,1326
3308.57380143113,1303
3310.2451547966184,1290
3311.916254486174,1304
3313.5871008259246,1325
3315.2576941420766,1231
3316.9280347609147,1225
3318.5981230088046,1296
3320.2679592121895,1294
3321.9375436975924,1322
3323.606876791612,1279
3325.27595882093,1243
3326.944790112305,1282
3328.6133709925753,1307
3330.2817017886573,1235
3331.949782827547,1258
3333.617614436319,1353
3335.2851969421245,1265
3336.952530672199,1327
3338.619615953853,1375
3340.286453114475,1326
3341.9530424815357,1257
3343.619384382583,1356
3345.2854791452437,1297
3346.951327097224,1331
3348.6169285663073,1282
3350.2822838803577,1276
3351.947393367319,1319
3353.61225735521,1312
3355.2768761721345,1282
3356.9412501462693,1335
3358.605379605873,1326
3360.2692648792827,1265
3361.9329062949146,1269
3363.596304181263,1343
