CollectionTime,6/28/2024 2:14:18 PM
ExposureUsed,3
CalibratedSpectrum
-962.7078968117929,784
-959.9714848408522,836
-957.2358232597828,860
-954.5009119013725,816
-951.7667505983302,865
-949.0333391832855,908
-946.3006774887896,854
-943.5687653473143,856
-940.837602591253,878
-938.1071890529199,883
-935.3775245645503,840
-932.6486089583007,888
-929.9204420662485,881
-927.1930237203925,860
-924.4663537526524,862
-921.7404319948689,788
-919.0152582788041,884
-916.2908324361409,875
-913.5671542984834,885
-910.8442236973568,871
-908.1220404642074,831
-905.4006044304027,884
-902.679915427231,848
-899.959973285902,861
-897.2407778375464,857
-894.5223289132158,913
-891.8046263438832,814
-889.0876699604426,829
-886.3714595937089,836
-883.6559950744183,827
-880.9412762332282,774
-878.2273029007168,783
-875.5140749073835,832
-872.8015920836489,807
-870.0898542598545,775
-867.3788612662631,768
-864.6686129330585,752
-861.9591090903457,760
-859.2503495681506,778
-856.5423341964203,790
-853.8350628050229,795
-851.1285352237478,797
-848.4227512823054,806
-845.7177108103272,792
-843.0134136373656,790
-840.3098595928943,797
-837.6070485063082,810
-834.9049802069229,849
-832.2036545239757,776
-829.5030712866244,828
-826.8032303239481,777
-824.1041314649472,796
-821.4057745385428,811
-818.7081593735775,759
-816.0112857988148,714
-813.3151536429393,787
-810.6197627345566,793
-807.9251129021936,744
-805.2312039742981,792
-802.5380357792392,793
-799.8456081453069,804
-797.1539209007124,753
-794.462973873588,796
-791.772766891987,786
-789.083299783884,767
-786.3945723771743,784
-783.7065844996748,781
-781.0193359791231,787
-778.3328266431781,817
-775.6470563194197,773
-772.9620248353489,813
-770.2777320183878,797
-767.5941776958798,785
-764.9113616950891,842
-762.2292838432011,819
-759.5479439673222,783
-756.8673418944801,786
-754.1874774516235,812
-751.5083504656222,848
-748.8299607632671,824
-746.15230817127,864
-743.475392516264,816
-740.7992136248035,806
-738.1237713233636,816
-735.4490654383407,795
-732.7750957960521,808
-730.1018622227365,849
-727.4293645445534,862
-724.7576025875837,901
-722.0865761778291,817
-719.4162851412126,832
-716.7467293035781,824
-714.0779084906909,856
-711.409822528237,886
-708.7424712418238,870
-706.0758544569796,887
-703.4099719991541,854
-700.7448236937178,860
-698.0804093659622,910
-695.4167288411002,901
-692.7537819442656,917
-690.0915685005134,931
-687.4300883348199,892
-684.7693412720819,846
-682.1093271371178,859
-679.4500457546669,885
-676.7914969493897,866
-674.1336805458676,883
-671.4765963686034,890
-668.8202442420206,895
-666.1646239904642,899
-663.5097354382001,930
-660.8555784094151,942
-658.2021527282176,955
-655.5494582186366,894
-652.8974947046223,932
-650.2462620100463,924
-647.5957599587009,982
-644.9459883742998,923
-642.2969470804776,926
-639.6486359007902,977
-637.0010546587141,1019
-634.3542031776476,990
-631.7080812809096,934
-629.0626887917401,905
-626.4180255333008,909
-623.7740913286734,949
-621.1308860008619,920
-618.4884093727904,923
-615.8466612673046,947
-613.2056415071715,963
-610.5653499150785,901
-607.9257863136347,939
-605.28695052537,933
-602.6488423727357,979
-600.0114616781036,939
-597.3748082637674,981
-594.7388819519412,1005
-592.1036825647604,920
-589.4692099242818,896
-586.8354638524829,991
-584.2024441712624,986
-581.5701507024403,928
-578.9385832677575,981
-576.3077416888759,960
-573.6776257873787,994
-571.0482353847704,1004
-568.4195703024757,1051
-565.7916303618415,1019
-563.164415384135,996
-560.5379251905453,1031
-557.9121596021815,954
-555.2871184400748,998
-552.6628015251767,969
-550.0392086783606,1034
-547.4163397204204,968
-544.794194472071,993
-542.1727727539491,1011
-539.5520743866118,1026
-536.9320991905377,1058
-534.3128469861261,1099
-531.6943175936979,1103
-529.0765108334947,1152
-526.4594265256793,1238
-523.8430644903358,1362
-521.2274245474689,1509
-518.612506517005,1548
-515.9983102187913,1627
-513.3848354725959,1736
-510.77208209810846,1778
-508.16004991493924,1819
-505.5487387426199,1882
-502.9381484006032,2096
-500.3282787082628,2253
-497.71912948489364,2260
-495.1107005497117,2307
-492.5029917218539,2224
-489.8960028203786,2027
-487.28973366426493,1882
-484.68418407241325,1673
-482.07935386364494,1472
-479.47524285670266,1475
-476.87185087025,1397
-474.2691777228715,1345
-471.66722323307334,1316
-469.0659872192821,1275
-466.4654694998459,1272
-463.86566989303384,1274
-461.26658821703614,1302
-458.66822428996414,1250
-456.07057792985,1250
-453.4736489546475,1226
-450.877437182231,1227
-448.28194243039627,1222
-445.68716451686,1225
-443.09310325926003,1183
-440.49975847515555,1163
-437.9071299820263,1173
-435.31521759727354,1191
-432.72402113821954,1229
-430.13354042210767,1307
-427.5437752661022,1311
-424.95472548728867,1405
-422.36639090267386,1322
-419.7787713291855,1297
-417.1918665836721,1330
-414.60567648290385,1217
-412.0202008435715,1241
-409.4354394822874,1247
-406.8513922155845,1317
-404.26805885991723,1304
-401.685439231661,1337
-399.103533147112,1317
-396.522340422488,1292
-393.9418608739278,1263
-391.3620943174908,1276
-388.7830405691583,1219
-386.2046994448317,1184
-383.6270707603344,1160
-381.05015433141045,991
-378.473949973725,907
-375.8984575028645,878
-373.32367673433623,791
-370.74960748356875,805
-368.1762495659117,732
-365.60360279663576,654
-363.03166699093265,629
-360.4604419639154,616
-357.8899275306178,560
-355.32012350599507,523
-352.7510297049233,587
-350.1826459421999,564
-347.61497203254316,565
-345.04800779059235,558
-342.4817530309082,544
-339.91620756797226,547
-337.35137121618743,543
-334.7872437898774,568
-332.22382510328725,560
-329.66111497058273,641
-327.09911320585127,617
-324.53781962310075,614
-321.9772340362607,635
-319.4173562591816,619
-316.8581861056348,561
-314.2997233893127,596
-311.7419679238294,673
-309.1849195227194,690
-306.62857799943856,569
-304.0729431673641,570
-301.51801483979375,587
-298.963792829947,555
-296.41027695096386,664
-293.85746701590574,702
-291.3053628377552,766
-288.7539642294155,803
-286.2032710037115,671
-283.65328297338897,664
-281.1039999511146,703
-278.5554217494762,646
-276.007548180983,707
-273.4603790580651,730
-270.9139141930734,734
-268.3681533982807,731
-265.8230964858798,758
-263.27874326798565,700
-260.7350935566336,642
-258.1921471637804,647
-255.6499039013039,667
-253.10836358100266,633
-250.56752601459698,679
-248.02739101372765,755
-245.48795838995704,798
-242.94922795476816,806
-240.41119951956557,850
-237.8738728956746,967
-235.33724789434166,946
-232.80132432673452,918
-230.2661020039418,936
-227.73158073697357,874
-225.19776033676033,806
-222.66464061415422,854
-220.1322213799284,794
-217.60050244477725,763
-215.06948361931552,784
-212.53916471408013,754
-210.00954553952818,800
-207.48062590603843,782
-204.9524056239104,943
-202.4248845033651,898
-199.8980623545441,870
-197.37193898751036,829
-194.84651421224817,827
-192.32178783866232,953
-189.79775967657952,997
-187.27442953574644,961
-184.7517972258321,924
-182.2298625564256,916
-179.7086253370378,964
-177.18808537710026,958
-174.66824248596583,909
-172.14909647290835,996
-169.6306471471229,992
-167.11289431772548,987
-164.59583779375328,1084
-162.07947738416453,1078
-159.5638128978386,974
-157.04884414357605,1035
-154.53457093009854,1164
-152.02099306604828,1172
-149.50811035998936,1174
-146.99592262040665,1121
-144.48442965570587,1134
-141.97363127421409,1204
-139.46352728417958,1357
-136.95411749377126,1264
-134.44540171107985,1300
-131.93737974411636,1425
-129.43005140081357,1456
-126.92341648902493,1342
-124.41747481652521,1306
-121.91222619101006,1305
-119.40767042009657,1366
-116.90380731132257,1483
-114.40063667214702,1368
-111.8981583099503,1433
-109.3963720320337,1688
-106.89527764561933,1786
-104.39487495785067,2013
-101.89516377579241,2134
-99.39614390642998,2066
-96.89781515667039,1948
-94.40017733334128,2161
-91.90323024319173,1983
-89.40697369289148,2008
-86.91140748903172,2024
-84.41653143812482,2011
-81.92234534660395,2089
-79.42884902082358,2386
-76.93604226705907,2633
-74.4439248915071,2430
-71.95249670028534,2378
-69.46175749943245,2231
-66.97170709490854,2704
-64.48234529259423,3630
-61.99367189829195,2810
-59.50568671772464,2693
-57.01838955653636,3120
-54.53178022029283,3592
-52.045858514480074,3629
-49.560624244506016,3920
-47.07607721569923,3547
-44.59221723330904,3730
-42.10904410250669,3751
-39.62655762838392,4729
-37.14475761595372,5347
-34.66364387015028,6596
-32.18321619582866,7659
-29.70347439776515,9136
-27.224418280657005,11348
-24.74604764912317,15604
-22.26836230770266,25949
-19.7913620608565,43333
-17.315046712966478,52598
-14.83941606833514,54840
-12.36446993118659,65031
-9.89020810566592,65031
-7.416630395839093,65031
-4.94373660569363,65031
-2.471526539137585,65031
-6.821210263296962E-13,65031
2.47084320796705,65031
4.941003281093458,65031
7.410480415786196,65031
9.879274808531363,65031
12.347386655893956,65031
14.814816154518212,65031
17.28156350112681,65031
19.74762889252179,65031
22.21301252558385,65031
24.67771459727237,44255
27.141735304626195,17208
29.605074844762612,10006
32.06773341487792,10536
34.52971121224755,11678
36.99100843422559,11505
39.45162527824516,11464
41.91156194181792,11099
44.370818622535126,10811
46.82939551806646,12826
49.287292826160524,16979
51.74451074464503,15597
54.201049471426245,12019
56.65690920448981,9275
59.112090141899785,5812
61.56659248179983,4480
64.02041642241159,4234
66.4735621620365,4053
68.92602989905402,2918
71.37781983192338,3520
73.82893215918205,3811
76.27936707944684,3517
78.72912479141326,2834
81.17820549385567,3062
83.62660938562783,2568
86.07433666566146,3005
88.5213875329681,2996
90.96776218663751,2569
93.41346082583925,2008
95.85848364982041,2021
98.30283085790859,2194
100.7465026495089,2002
103.18949922410604,1992
105.63182078126385,1981
108.07346752062438,2154
110.51443964190923,1718
112.95473734491827,1681
115.39436082953114,1769
117.83331029570547,1868
120.27158594347827,2249
122.7091879729652,1568
125.1461165843615,1412
127.58237197794062,1424
130.01795435405518,1348
132.4528639131364,1405
134.88710085569494,1716
137.32066538231982,1614
139.75355769367923,1534
142.1857779905207,1780
144.61732647366978,1925
147.04820334403132,1718
149.47840880258934,1672
151.90794305040674,1798
154.33680628862487,1744
156.76499871846443,1845
159.19252054122433,2084
161.61937195828352,2101
164.04555317109896,2223
166.47106438120693,2584
168.89590579022217,2800
171.320077599839,2977
173.7435800118302,3321
176.16641322804742,3402
178.58857745042144,3429
181.01007288096173,3405
183.43089972175687,3487
185.85105817497413,3603
188.27054844285988,3457
190.6893707277394,3373
193.10752523201643,3435
195.5250121581745,3427
197.9418317087751,3452
200.3579840864594,3665
202.7734694939469,3558
205.18828813403627,3429
207.6024402096051,3401
210.01592592360964,3335
212.42874547908548,3314
214.84089907914665,3327
217.2523869269868,3354
219.66320922587727,3296
222.0733661791695,3275
224.48285799029293,3313
226.8916848627572,3339
229.29984700014882,3554
231.7073446061355,3419
234.11417788446204,3391
236.520347038953,3564
238.92585227351185,3636
241.33069379212054,3576
243.73487179884035,3516
246.1383864978112,3515
248.541238093252,3465
250.9434267894609,3535
253.34495279081432,3488
255.74581630176783,3462
258.1460175268563,3571
260.54555667069314,3526
262.9444339379703,3511
265.3426495334594,3358
267.7402036620107,3317
270.1370965285529,3328
272.53332833809407,3156
274.9288992957214,3080
277.32380960660055,3100
279.718059475976,3086
282.1116491091717,3053
284.5045787115897,3132
286.89684848871195,3232
289.2884586460981,3022
291.67940938938807,3046
294.0697009242996,3019
296.4593334566299,3111
298.84830719225477,2966
301.23662233712923,2932
303.6242790972866,3127
306.01127767884,3023
308.39761828798066,2890
310.78330113097934,2882
313.16832641418534,2955
315.5526943440269,2885
317.9364051270112,2786
320.3194589697242,2743
322.70185607883093,2703
325.0835966610754,2617
327.4646809232805,2737
329.8451090723478,2688
332.2248813152577,2798
334.6039978590701,2712
336.9824589109231,2571
339.36026467803447,2714
341.7374153677,2598
344.113911187295,2554
346.48975234427337,2574
348.8649390461686,2493
351.2394715005918,2616
353.61334991523415,2497
355.9865744978655,2509
358.35914545633375,2420
360.73106299856715,2459
363.10232733257146,2462
365.47293866643247,2502
367.84289720831396,2506
370.2122031664593,2512
372.5808567491905,2444
374.9488581649083,2364
377.31620762209275,2285
379.6829053293021,2412
382.0489514951745,2331
384.4143463284262,2328
386.7790900378528,2330
389.14318283232853,2355
391.50662492080653,2331
393.86941651231916,2299
396.23155781597745,2295
398.5930490409713,2300
400.9538903965696,2296
403.3140820921202,2304
405.6736243370498,2229
408.03251734086336,2295
410.3907613131465,2368
412.74835646356166,2368
415.10530300185144,2312
417.4616011378372,2294
419.81725108141893,2304
422.1722530425758,2223
424.5266072313656,2331
426.880313857925,2297
429.2333731324701,2175
431.58578526529516,2189
433.9375504667738,2232
436.2886689473588,2180
438.63914091758113,2268
440.9889665880513,2173
443.33814616945835,2148
445.68667987257015,2170
448.03456790823395,2186
450.3818104873759,2186
452.72840782100013,2181
455.07436012019105,2187
457.41966759611057,2169
459.7643304600007,2287
462.10834892318155,2223
464.4517231970525,2257
466.79445349309174,2236
469.1365400228566,2172
471.4779829979826,2209
473.81878263018564,2283
476.15893913125876,2303
478.4984527130747,2410
480.8373235875855,2352
483.17555196682144,2417
485.5131380628919,2545
487.8500820879857,2646
490.1863842543697,2798
492.52204477439034,3001
494.8570638604725,3333
497.1914417251204,3591
499.52517858091653,3821
501.85827464052306,3880
504.19073011668036,3952
506.5225452222086,3851
508.85372017000566,3783
511.18425517304956,3562
513.514150444396,3836
515.8434061971808,4415
518.1720226446176,4788
520.4999999999999,5242
522.8273384766991,5447
525.1540382881666,5600
527.480099647932,5353
529.8055227696037,4198
532.1303078668694,3090
534.454455153496,2433
536.777964843328,2307
539.1008371502907,2144
541.4230722883866,2158
543.744670471698,2132
546.0656319143858,2084
548.3859568306899,2113
550.7056454349294,2071
553.0246979415016,2031
555.3431145648834,1967
557.6608955196306,2026
559.978041020377,2005
562.2945512818363,1984
564.6104265188006,2049
566.9256669461412,2019
569.2402727788082,1916
571.5542442318302,2006
573.8675815203156,1981
576.1802848594508,1985
578.4923544645015,1966
580.8037905508126,1994
583.114593333807,1961
585.4247630289875,1970
587.7342998519354,1984
590.0432040183106,1961
592.3514757438526,1999
594.6591152443794,1979
596.9661227357875,2047
599.2724984340531,2026
601.578242555231,1932
603.8833553154542,2079
606.1878369309362,2088
608.4916876179676,2036
610.7949075929192,2077
613.0974970722403,1994
615.3994562724587,2019
617.7007854101818,2040
620.0014847020951,1973
622.3015543649641,2065
624.6009946156324,2056
626.8998056710224,2071
629.1979877481361,2037
631.4955410640538,2039
633.7924658359349,2020
636.0887622810175,2030
638.3844306166192,2075
640.6794710601358,2123
642.9738838290426,2105
645.2676691408932,1995
647.5608272133207,2045
649.853358264037,2089
652.1452625108324,2168
654.4365401715764,2100
656.7271914642178,2035
659.0172166067838,2060
661.3066158173809,2169
663.5953893141935,2108
665.8835373154867,2124
668.1710600396028,2077
670.4579577049639,2141
672.7442305300709,2164
675.0298787335033,2102
677.3149025339197,2139
679.599302150058,2056
681.8830778007342,2053
684.1662297048437,2133
686.4487580813608,2083
688.7306631493387,2142
691.0119451279091,2098
693.2926042362834,2112
695.5726406937516,2161
697.8520547196814,2164
700.1308465335215,2157
702.4090163547982,2057
704.6865644031171,2153
706.9634908981619,2116
709.2397960596965,2070
711.5154801075631,2098
713.7905432616823,2158
716.0649857420548,2102
718.3388077687592,2041
720.612009561953,2111
722.8845913418733,2095
725.1565533288352,2116
727.427895743234,2130
729.6986188055427,2104
731.9687227363137,2059
734.238207756178,2118
736.5070740858458,2088
738.7753219461066,2083
741.0429515578281,2131
743.3099631419569,2089
745.5763569195191,2052
747.8421331116193,2134
750.1072919394409,2098
752.3718336242467,2148
754.6357583873777,2120
756.8990664502545,2081
759.1617580343765,2063
761.423833361321,2043
763.6852926527457,2134
765.9461361303862,2157
768.206364016058,2102
770.4659765316536,2083
772.7249738991469,2096
774.9833563405886,2121
777.2411240781092,2130
779.4982773339183,2178
781.7548163303044,2164
784.010741289634,2106
786.2660524343538,2168
788.5207499869881,2141
790.7748341701416,2140
793.0283052064964,2127
795.2811633188143,2139
797.5334087299362,2114
799.7850416627813,2183
802.0360623403484,2093
804.2864709857143,2210
806.5362678220353,2139
808.7854530725468,2171
811.0340269605625,2180
813.2819897094754,2123
815.5293415427581,2081
817.77608268396,2126
820.0222133567116,2136
822.2677337847211,2126
824.5126441917765,2191
826.7569448017433,2143
829.0006358385675,2127
831.2437175262731,2037
833.4861900889629,2066
835.7280537508192,2111
837.9693087361026,2166
840.2099552691533,2178
842.4499935743896,2187
844.689423876309,2100
846.9282463994886,2070
849.1664613685833,2111
851.4040690083276,2076
853.6410695435349,2118
855.877463199097,2147
858.1132501999847,2078
860.3484307712487,2163
862.5830051380175,2125
864.8169735254988,2072
867.0503361589791,2098
869.2830932638243,2077
871.5152450654786,2127
873.7467917894654,2145
875.9777336613873,2162
878.2080709069252,2138
880.4378037518389,2183
882.666932421968,2207
884.8954571432301,2150
887.1233781416219,2209
889.3506956432192,2282
891.5774098741766,2156
893.803521060728,2171
896.0290294291852,2202
898.2539352059397,2151
900.4782386174619,2144
902.7019398903011,2179
904.925039251085,2214
907.147536926521,2100
909.3694331433943,2193
911.59072812857,2152
913.8114221089921,2212
916.0315153116827,2199
918.2510079637437,2114
920.4699002923547,2108
922.6881925247761,2112
924.905884888345,2105
927.1229776104793,2057
929.3394709186747,2093
931.555365040506,2068
933.7706602036275,2120
935.9853566357709,2157
938.1994545647489,2152
940.4129542184515,2119
942.6258558248488,2195
944.8381596119883,2145
947.0498658079974,2120
949.2609746410825,2163
951.4714863395287,2062
953.6814011316998,2048
955.8907192460387,2137
958.0994409110671,2014
960.3075663553858,2060
962.5150958076741,2069
964.7220294966913,2006
966.928367651274,1982
969.1341105003388,2038
971.3392582728806,1988
973.5438111979742,1989
975.747769504772,2005
977.9511334225061,1965
980.153903180487,1972
982.3560790081052,2019
984.5576611348289,1907
986.7586497902058,1920
988.9590452038618,1939
991.158847605503,1927
993.3580572249133,1886
995.5566742919558,1826
997.7546990365728,1834
999.952131688785,1774
1002.1489724786926,1767
1004.3452216364743,1816
1006.5408793923874,1733
1008.7359459767691,1782
1010.9304216200343,1730
1013.1243065526781,1742
1015.3176010052733,1711
1017.510305208472,1756
1019.7024193930064,1718
1021.8939437896848,1716
1024.0848786293977,1711
1026.2752241431122,1664
1028.4649805618747,1720
1030.6541481168115,1707
1032.842727039127,1662
1035.0307175601051,1714
1037.2181199111074,1614
1039.4049343235752,1693
1041.591161029029,1710
1043.7768002590683,1622
1045.9618522453698,1687
1048.1463172196918,1645
1050.3301954138697,1652
1052.513487059818,1609
1054.69619238953,1635
1056.8783116350783,1650
1059.0598450286152,1614
1061.2407928023704,1664
1063.4211551886528,1675
1065.6009324198508,1678
1067.780124728432,1617
1069.9587323469414,1541
1072.1367555080046,1676
1074.314194444325,1659
1076.4910493886855,1584
1078.667320573947,1597
1080.843008233051,1562
1083.0181125990161,1584
1085.1926339049414,1618
1087.3665723840027,1592
1089.5399282694575,1551
1091.7127017946405,1568
1093.8848931929647,1538
1096.0565026979243,1552
1098.2275305430899,1586
1100.3979769621128,1581
1102.567842188722,1516
1104.737126456726,1552
1106.9058300000124,1490
1109.0739530525475,1515
1111.2414958483764,1565
1113.4084586216231,1533
1115.5748416064907,1552
1117.7406450372605,1514
1119.9058691482942,1545
1122.0705141740304,1519
1124.2345803489884,1503
1126.3980679077658,1555
1128.5609770850388,1468
1130.7233081155623,1478
1132.8850612341707,1479
1135.0462366757774,1499
1137.2068346753745,1493
1139.3668554680326,1490
1141.526299288901,1523
1143.68516637321,1530
1145.8434569562655,1455
1148.001171273455,1483
1150.158309560244,1542
1152.3148720521767,1531
1154.470858984876,1519
1156.626270594044,1501
1158.7811071154629,1492
1160.9353687849912,1494
1163.089055838569,1473
1165.242168512213,1510
1167.3947070420209,1475
1169.5466716641677,1473
1171.6980626149075,1499
1173.8488801305748,1506
1175.9991244475814,1515
1178.1487958024186,1459
1180.2978944316555,1518
1182.4464205719428,1498
1184.5943744600072,1474
1186.7417563326567,1454
1188.8885664267755,1462
1191.0348049793297,1476
1193.1804722273619,1468
1195.325568407995,1438
1197.4700937584303,1508
1199.614048515948,1487
1201.7574329179074,1433
1203.900247201746,1490
1206.042491604982,1481
1208.1841663652099,1530
1210.3252717201053,1481
1212.465807907422,1418
1214.6057751649923,1465
1216.7451737307279,1456
1218.8840038426192,1481
1221.0222657387353,1549
1223.1599596572241,1530
1225.2970858363137,1562
1227.4336445143094,1498
1229.5696359295966,1532
1231.705060320639,1518
1233.8399179259786,1549
1235.9742089842384,1562
1238.107933734118,1502
1240.2410924143974,1573
1242.373685263935,1557
1244.5057125216676,1499
1246.6371744266116,1495
1248.7680712178621,1535
1250.898403134593,1493
1253.028170416058,1478
1255.1573733015875,1488
1257.2860120305932,1475
1259.4140868425648,1603
1261.54159797707,1527
1263.6685456737569,1540
1265.7949301723515,1523
1267.9207517126597,1543
1270.046010534565,1551
1272.1707068780306,1555
1274.2948409830983,1591
1276.4184130898889,1589
1278.541423438603,1651
1280.6638722695184,1614
1282.785759822993,1586
1284.9070863394636,1650
1287.0278520594447,1559
1289.1480572235314,1637
1291.2677020723963,1604
1293.3867868467923,1647
1295.5053117875495,1615
1297.623277135579,1641
1299.740683131868,1624
1301.8575300174857,1663
1303.973818033578,1658
1306.0895474213703,1712
1308.2047184221678,1698
1310.3193312773528,1666
1312.4333862283888,1678
1314.5468835168163,1638
1316.659823384255,1706
1318.7722060724045,1671
1320.8840318230418,1689
1322.9953008780249,1677
1325.1060134792888,1717
1327.2161698688478,1626
1329.3257702887959,1744
1331.4348149813054,1681
1333.5433041886276,1695
1335.6512381530933,1663
1337.7586171171101,1666
1339.8654413231675,1675
1341.9717110138317,1709
1344.0774264317488,1660
1346.1825878196432,1698
1348.2871954203192,1686
1350.3912494766587,1627
1352.4947502316231,1664
1354.5976979282532,1712
1356.7000928096686,1689
1358.8019351190665,1713
1360.9032250997243,1688
1363.0039629949988,1727
1365.1041490483235,1666
1367.2037835032133,1702
1369.3028666032606,1622
1371.401398592137,1671
1373.4993797135926,1756
1375.5968102114575,1710
1377.6936903296396,1732
1379.7900203121262,1781
1381.8858004029835,1735
1383.9810308463561,1682
1386.075711886469,1701
1388.1698437676241,1693
1390.2634267342032,1745
1392.356461030667,1729
1394.4489469015557,1683
1396.5408845914872,1739
1398.6322743451592,1733
1400.7231164073469,1761
1402.813411022907,1767
1404.903158436773,1733
1406.9923588939578,1686
1409.0810126395531,1709
1411.1691199187303,1786
1413.2566809767386,1829
1415.343696058907,1776
1417.4301654106425,1810
1419.5160892774315,1771
1421.6014679048399,1821
1423.6863015385125,1821
1425.7705904241707,1756
1427.8543348076178,1781
1429.9375349347342,1825
1432.0201910514802,1839
1434.102303403894,1848
1436.1838722380944,1800
1438.2648978002767,1860
1440.3453803367174,1965
1442.4253200937692,1907
1444.5047173178677,1946
1446.5835722555234,1929
1448.6618851533285,1962
1450.739656257952,2031
1452.8168858161434,1988
1454.8935740747306,2016
1456.96972128062,2035
1459.045327680797,2085
1461.120393522327,2111
1463.1949190523528,2040
1465.2689045180973,2149
1467.3423501668608,2164
1469.415256246024,2176
1471.4876230030463,2283
1473.559450685465,2247
1475.6307395408976,2301
1477.7014898170391,2361
1479.771701761665,2314
1481.8413756226287,2451
1483.9105116478618,2372
1485.9791100853772,2493
1488.0471711832643,2509
1490.1146951896926,2540
1492.1816823529098,2579
1494.2481329212433,2631
1496.3140471430984,2577
1498.3794252669609,2652
1500.4442675413939,2816
1502.5085742150404,2862
1504.572345536622,2773
1506.6355817549388,2856
1508.6982831188702,2955
1510.7604498773744,3003
1512.8220822794883,2987
1514.8831805743293,3009
1516.9437450110909,3036
1519.003775839048,3124
1521.0632733075522,3162
1523.1222376660367,3337
1525.1806691640113,3319
1527.2385680510652,3420
1529.2959345768668,3491
1531.3527689911643,3559
1533.4090715437833,3632
1535.4648424846291,3708
1537.5200820636855,3878
1539.5747905310159,3916
1541.6289681367616,3935
1543.6826151311434,3944
1545.7357317644614,4149
1547.7883182870937,4088
1549.8403749494987,4176
1551.8919020022113,4368
1553.9428996958477,4511
1555.9933682811015,4574
1558.0433080087469,4611
1560.0927191296346,4670
1562.1416018946961,4841
1564.1899565549415,4849
1566.2377833614592,4791
1568.2850825654164,4742
1570.3318544180606,4605
1572.3780991707158,4340
1574.423817074788,4235
1576.4690083817595,4099
1578.5136733431923,3921
1580.5578122107272,3666
1582.601425236085,3488
1584.6445126710646,3287
1586.6870747675434,3052
1588.7291117774776,2917
1590.7706239529034,2891
1592.8116115459347,2732
1594.8520748087658,2573
1596.8920139936686,2486
1598.9314293529933,2431
1600.9703211391711,2303
1603.008689604711,2195
1605.0465350022005,2176
1607.0838575843068,2082
1609.1206576037753,2054
1611.1569353134305,2050
1613.1926909661765,1887
1615.2279248149953,1954
1617.2626371129481,1888
1619.2968281131757,1854
1621.3304980688963,1855
1623.3636472334088,1739
1625.39627586009,1803
1627.428384202396,1775
1629.459972513861,1750
1631.4910410480993,1736
1633.5215900588028,1750
1635.551619799744,1678
1637.5811305247717,1724
1639.6101224878166,1697
1641.6385959428862,1674
1643.6665511440683,1669
1645.693988345528,1622
1647.7209078015112,1627
1649.7473097663405,1565
1651.7731944944203,1663
1653.7985622402307,1595
1655.823413258333,1658
1657.847747803366,1554
1659.8715661300494,1572
1661.8948684931793,1576
1663.9176551476316,1607
1665.9399263483624,1544
1667.9616823504057,1606
1669.982923408873,1523
1672.0036497789574,1586
1674.0238617159293,1649
1676.043559475138,1602
1678.0627433120121,1577
1680.081413482059,1595
1682.0995702408654,1536
1684.117213844096,1541
1686.134344547495,1589
1688.1509626068864,1609
1690.1670682781705,1590
1692.182661817329,1572
1694.1977434804217,1528
1696.2123135235875,1591
1698.226372203043,1562
1700.2399197750851,1512
1702.2529564960905,1607
1704.2654826225112,1561
1706.277498410882,1583
1708.2890041178139,1581
1710.2999999999988,1616
1712.3104863142066,1519
1714.3204633172854,1577
1716.329931266163,1527
1718.3388904178469,1547
1720.3473410294214,1577
1722.3552833580516,1531
1724.3627176609807,1536
1726.3696441955308,1545
1728.3760632191033,1538
1730.3819749891782,1509
1732.3873797633146,1542
1734.3922777991502,1515
1736.3966693544012,1439
1738.4005546868639,1522
1740.4039340544127,1539
1742.406807715001,1499
1744.4091759266616,1497
1746.4110389475054,1479
1748.4123970357223,1439
1750.413250449582,1434
1752.4135994474318,1478
1754.4134442876993,1484
1756.4127852288902,1458
1758.4116225295893,1421
1760.4099564484595,1471
1762.407787244244,1417
1764.405115175764,1413
1766.4019405019203,1395
1768.3982634816916,1395
1770.3940843741357,1440
1772.3894034383907,1415
1774.3842209336717,1428
1776.378537119274,1423
1778.372352254571,1380
1780.3656665990156,1408
1782.3584804121397,1407
1784.3507939535534,1348
1786.3426074829463,1416
1788.3339212600863,1432
1790.3247355448211,1456
1792.3150505970766,1443
1794.3048666768573,1391
1796.2941840442477,1415
1798.2830029594106,1432
1800.2713236825884,1372
1802.2591464741004,1393
1804.2464715943465,1400
1806.2332993038058,1406
1808.2196298630352,1365
1810.2054635326708,1376
1812.190800573428,1359
1814.175641246101,1389
1816.1599858115628,1408
1818.1438345307652,1366
1820.127187664738,1375
1822.1100454745924,1407
1824.092408221516,1379
1826.0742761667766,1408
1828.055649571721,1351
1830.0365286977735,1360
1832.0169138064398,1395
1833.9968051593014,1406
1835.9762030180214,1416
1837.9551076443408,1415
1839.9335193000788,1422
1841.9114382471344,1373
1843.888864747485,1423
1845.8657990631878,1431
1847.842241456378,1404
1849.8181921892697,1443
1851.7936515241558,1420
1853.7686197234098,1378
1855.7430970494815,1412
1857.7170837649014,1418
1859.6905801322787,1387
1861.6635864143004,1385
1863.6361028737338,1423
1865.608129773424,1403
1867.5796673762961,1374
1869.5507159453537,1393
1871.521275743678,1442
1873.4913470344313,1375
1875.4609300808534,1360
1877.4300251462632,1388
1879.3986324940588,1389
1881.366752387717,1366
1883.3343850907936,1413
1885.3015308669228,1446
1887.268189979819,1423
1889.2343626932739,1387
1891.2000492711595,1420
1893.1652499774254,1409
1895.1299650761011,1371
1897.0941948312952,1433
1899.0579395071945,1437
1901.0211993680641,1427
1902.98397467825,1452
1904.9462657021745,1363
1906.9080727043415,1450
1908.869395949332,1402
1910.8302357018065,1373
1912.790592226504,1383
1914.7504657882428,1436
1916.7098566519212,1455
1918.6687650825133,1422
1920.6271913450764,1451
1922.5851357047422,1458
1924.5425984267245,1449
1926.499579776314,1387
1928.4560800188833,1381
1930.4120994198802,1427
1932.367638244833,1414
1934.32269675935,1412
1936.2772752291175,1420
1938.231373919899,1373
1940.1849930975404,1431
1942.1381330279637,1390
1944.0907939771696,1380
1946.0429762112412,1407
1947.9946799963363,1451
1949.9459055986945,1419
1951.896653284633,1429
1953.8469233205478,1436
1955.7967159729142,1426
1957.7460315082863,1474
1959.6948701932974,1459
1961.6432322946594,1460
1963.5911180791632,1470
1965.5385278136787,1435
1967.4854617651545,1440
1969.4319202006182,1394
1971.377903387176,1452
1973.3234115920136,1407
1975.268445082395,1435
1977.2130041256642,1412
1979.1570889892423,1430
1981.1006999406304,1416
1983.04383724741,1443
1984.986501177238,1452
1986.928691997853,1400
1988.8704099770712,1357
1990.811655382789,1404
1992.7524284829801,1425
1994.692729545698,1481
1996.6325588390755,1379
1998.5719166313224,1407
2000.5108031907307,1466
2002.4492187856677,1456
2004.387163684583,1431
2006.3246381560011,1383
2008.2616424685298,1383
2010.1981768908527,1407
2012.1342416917332,1445
2014.069837140014,1394
2016.0049635046162,1443
2017.9396210545406,1401
2019.8738100588666,1374
2021.8075307867502,1441
2023.740783507431,1421
2025.6735684902228,1385
2027.6058860045214,1408
2029.5377363198004,1429
2031.4691197056118,1417
2033.4000364315875,1411
2035.3304867674374,1428
2037.260470982952,1366
2039.189989347998,1431
2041.1190421325232,1339
2043.047629606554,1405
2044.9757520401945,1392
2046.9034097036288,1419
2048.8306028671195,1375
2050.7573318010086,1428
2052.683596775716,1454
2054.609398061742,1444
2056.5347359296647,1395
2058.4596106501403,1433
2060.384022493906,1435
2062.3079717317764,1411
2064.231458634646,1399
2066.1544834734873,1451
2068.077046519352,1451
2069.99914804337,1381
2071.9207883167524,1398
2073.8419676107865,1439
2075.7626861968406,1419
2077.6829443463607,1433
2079.6027423308715,1433
2081.522080421977,1411
2083.440958891362,1432
2085.359378010786,1412
2087.2773380520907,1446
2089.194839287196,1421
2091.111881988101,1482
2093.0284664268825,1447
2094.9445928756973,1382
2096.86026160678,1432
2098.775472892446,1432
2100.690227005088,1443
2102.604524217178,1410
2104.5183648012676,1399
2106.431749029985,1418
2108.34467717604,1403
2110.2571495122206,1420
2112.169166311393,1411
2114.080727846503,1412
2115.9918343905747,1435
2117.902486216711,1377
2119.8126835980956,1420
2121.722426807987,1469
2123.6317161197285,1412
2125.5405518067364,1450
2127.448934142509,1432
2129.356863400624,1472
2131.264339854737,1427
2133.1713637785815,1422
2135.077935445972,1455
2136.9840551308002,1401
2138.889723107037,1464
2140.7949396487334,1455
2142.699705030018,1437
2144.6040195250994,1466
2146.507883408264,1411
2148.4112969538774,1386
2150.3142604363848,1405
2152.2167741303097,1493
2154.1188383102535,1437
2156.0204532508997,1439
2157.9216192270064,1398
2159.822336513414,1419
2161.7226053850413,1409
2163.622426116884,1483
2165.5217989840185,1442
2167.4207242616,1372
2169.319202224862,1373
2171.2172331491165,1528
2173.1148173097563,1431
2175.0119549822507,1402
2176.90864644215,1388
2178.8048919650823,1435
2180.7006918267534,1462
2182.596046302952,1456
2184.4909556695407,1489
2186.3854202024645,1452
2188.279440177746,1404
2190.173015871487,1413
2192.066147559868,1371
2193.958835519149,1490
2195.851080025667,1453
2197.7428813558417,1479
2199.6342397861667,1434
2201.5251555932186,1401
2203.415629053651,1477
2205.3056604441986,1406
2207.19525004167,1442
2209.084398122958,1438
2210.9731049650327,1452
2212.861370844941,1473
2214.749196039812,1384
2216.636580826851,1455
2218.523525483344,1496
2220.410030286655,1438
2222.296095514226,1484
2224.1817214435805,1517
2226.066908352319,1441
2227.951656518121,1448
2229.835966218746,1438
2231.71983773203,1449
2233.6032713358913,1400
2235.486267308324,1463
2237.3688259274036,1454
2239.2509474712824,1395
2241.132632218193,1442
2243.013880446447,1426
2244.8946924344323,1421
2246.7750684606203,1418
2248.6550088035574,1388
2250.534513741871,1498
2252.413583554265,1460
2254.292218519526,1421
2256.170418916517,1395
2258.0481850241786,1385
2259.925517121534,1472
2261.8024154876825,1410
2263.678880401803,1452
2265.5549121431536,1410
2267.430510991071,1455
2269.305677224971,1437
2271.180411124348,1515
2273.0547129687766,1406
2274.9285830379076,1420
2276.8020216114737,1444
2278.6750289692845,1377
2280.5476053912294,1415
2282.4197511572766,1359
2284.2914665474727,1463
2286.162751841943,1464
2288.0336073208937,1453
2289.904033264608,1400
2291.774029953448,1388
2293.6435976678554,1460
2295.5127366883517,1405
2297.381447295534,1477
2299.2497297700825,1354
2301.1175843927526,1466
2302.9850114443825,1487
2304.852011205885,1370
2306.7185839582553,1418
2308.5847299825664,1460
2310.4504495599676,1452
2312.3157429716925,1454
2314.1806104990483,1428
2316.0450524234247,1428
2317.9090690262888,1456
2319.772660589186,1440
2321.635827393742,1396
2323.498569721661,1409
2325.3608878547248,1405
2327.2227820747967,1458
2329.0842526638157,1492
2330.945299903803,1436
2332.805924076857,1397
2334.6661254651535,1439
2336.525904350951,1440
2338.3852610165827,1415
2340.244195744464,1454
2342.102708817088,1378
2343.9608005170253,1407
2345.8184711269287,1399
2347.675720929526,1431
2349.532550207628,1415
2351.38895924412,1439
2353.24494832197,1451
2355.100517724223,1427
2356.955667734004,1437
2358.810398634514,1441
2360.664710709037,1468
2362.5186042409337,1460
2364.3720795136437,1497
2366.225136810686,1447
2368.0777764156583,1466
2369.929998612237,1486
2371.7818036841777,1402
2373.633191915315,1456
2375.484163589562,1448
2377.3347189909114,1446
2379.184858403434,1456
2381.03458211128,1443
2382.8838903986775,1412
2384.732783549936,1403
2386.5812618494406,1376
2388.4293255816588,1425
2390.2769750311327,1450
2392.1242104824883,1475
2393.971032220427,1412
2395.8174405297295,1487
2397.6634356952563,1398
2399.509018001947,1442
2401.3541877348193,1403
2403.1989451789705,1455
2405.043290619576,1421
2406.8872243418905,1444
2408.730746631247,1402
2410.5738577730594,1404
2412.4165580528183,1406
2414.258847756095,1487
2416.100727168537,1406
2417.9421965758734,1430
2419.783256263912,1445
2421.623906518538,1403
2423.4641476257157,1460
2425.303979871491,1431
2427.143403541984,1447
2428.9824189233977,1462
2430.821026302012,1480
2432.6592259641866,1458
2434.497018196361,1547
2436.33440328505,1451
2438.171381516851,1382
2440.00795317844,1487
2441.844118556569,1470
2443.6798779380724,1447
2445.5152316098606,1446
2447.3501798589255,1487
2449.1847229723357,1455
2451.0188612372403,1471
2452.8525949408663,1495
2454.6859243705203,1434
2456.518849813587,1455
2458.3513715575314,1415
2460.183489889895,1453
2462.015205098301,1420
2463.8465174704493,1393
2465.67742729412,1431
2467.5079348571717,1426
2469.338040447542,1421
2471.1677443532476,1393
2472.9970468623833,1421
2474.825948263123,1463
2476.6544488437207,1392
2478.482548892508,1443
2480.310248697896,1459
2482.137548548374,1472
2483.9644487325118,1460
2485.790949538956,1487
2487.617051256433,1408
2489.44275417375,1433
2491.26805857979,1450
2493.0929647635157,1419
2494.917473013971,1455
2496.741583620276,1483
2498.5652968716304,1460
2500.3886130573137,1422
2502.2115324666834,1461
2504.0340553891765,1488
2505.856182114308,1439
2507.6779129316733,1475
2509.499248130945,1464
2511.3201880018764,1455
2513.140732834298,1441
2514.9608829181198,1478
2516.780638543331,1495
2518.6,1494
2520.418967578273,1458
2522.237541568376,1472
2524.0557222606144,1474
2525.8735099453706,1491
2527.6909049131086,1464
2529.507907454368,1514
2531.32451785977,1474
2533.140736420014,1450
2534.9565634258774,1510
2536.771999168218,1509
2538.5870439379714,1574
2540.4016980261526,1570
2542.2159617238544,1547
2544.02983532225,1585
2545.8433191125914,1592
2547.656413386209,1602
2549.4691184345115,1575
2551.2814345489874,1550
2553.093362021204,1565
2554.904901142808,1571
2556.716052205523,1550
2558.526815501153,1592
2560.3371913215824,1623
2562.147179958771,1655
2563.956781704761,1578
2565.7659968516705,1592
2567.5748256916986,1611
2569.3832685171224,1628
2571.1913256202984,1611
2572.9989972936614,1645
2574.806283829725,1656
2576.613185521084,1667
2578.4197026604074,1674
2580.2258355404483,1744
2582.031584454035,1695
2583.836949694077,1711
2585.6419315535613,1720
2587.4465303255533,1698
2589.2507463032002,1768
2591.0545797797245,1799
2592.8580310484303,1795
2594.6611004026995,1732
2596.463788135992,1831
2598.266094541849,1811
2600.0680199138874,1785
2601.869564545807,1768
2603.670728731383,1740
2605.4715127644704,1770
2607.2719169390048,1826
2609.071941548998,1771
2610.8715868885433,1775
2612.670853251811,1755
2614.469740933052,1818
2616.268250226594,1791
2618.0663814268455,1899
2619.864134828292,1797
2621.6615107255006,1796
2623.458509413115,1870
2625.2551311858597,1795
2627.0513763385347,1753
2628.8472451660223,1781
2630.6427379632833,1762
2632.4378550253564,1769
2634.232596647359,1729
2636.026963124488,1771
2637.8209547520187,1807
2639.6145718253065,1748
2641.407814639785,1707
2643.200683490966,1735
2644.9931786744414,1680
2646.7853004858807,1720
2648.577049221034,1735
2650.3684251757277,1724
2652.1594286458712,1691
2653.9500599274484,1710
2655.740319316525,1625
2657.5302071092437,1592
2659.3197236018286,1614
2661.10886909058,1568
2662.8976438718782,1621
2664.686048242183,1568
2666.4740824980327,1577
2668.2617469360443,1640
2670.0490418529134,1560
2671.8359675454153,1588
2673.622524310403,1532
2675.408712444811,1599
2677.1945322456495,1548
2678.979984010009,1472
2680.76506803506,1546
2682.5497846180497,1571
2684.334134056306,1538
2686.1181166472343,1485
2687.9017326883213,1513
2689.6849824771293,1507
2691.4678663113013,1501
2693.2503844885596,1523
2695.032537306705,1507
2696.8143250636167,1480
2698.5957480572542,1476
2700.3768065856534,1458
2702.1575009469316,1471
2703.937831439283,1432
2705.717798360982,1471
2707.4974020103837,1474
2709.276642685917,1428
2711.055520686095,1525
2712.834036309506,1443
2714.612189854819,1488
2716.389981620782,1418
2718.1674119062204,1428
2719.944481010041,1462
2721.721189231226,1433
2723.4975368688415,1520
2725.273524222027,1455
2727.0491515900053,1473
2728.824419272075,1407
2730.5993275676146,1443
2732.3738767760838,1440
2734.148067197016,1424
2735.921899130031,1444
2737.6953728748194,1431
2739.468488731156,1449
2741.2412469988926,1429
2743.0136479779617,1387
2744.785691968372,1475
2746.5573792702116,1358
2748.3287101836504,1441
2750.099685008934,1410
2751.870304046388,1456
2753.640567596418,1442
2755.4104759595057,1419
2757.1800294362156,1427
2758.949228327187,1449
2760.7180729331412,1400
2762.486563554877,1376
2764.254700493272,1416
2766.022484049284,1384
2767.789914523947,1450
2769.5569922183786,1435
2771.3237174337705,1410
2773.090090471394,1435
2774.8561116326036,1436
2776.6217812188274,1429
2778.3870995315756,1413
2780.1520668724356,1397
2781.9166835430747,1414
2783.6809498452394,1412
2785.444866080754,1448
2787.2084325515225,1494
2788.971649559527,1456
2790.73451740683,1368
2792.4970363955713,1411
2794.2592068279705,1420
2796.0210290063264,1450
2797.7825032330147,1428
2799.543629810493,1401
2801.304409041296,1414
2803.0648412280366,1379
2804.8249266734088,1436
2806.5846656801846,1392
2808.344058551212,1443
2810.1031055894246,1431
2811.8618070978273,1461
2813.6201633795085,1434
2815.378174737636,1398
2817.1358414754536,1411
2818.893163896285,1435
2820.6501423035334,1433
2822.4067770006814,1432
2824.1630682912883,1451
2825.9190164789957,1386
2827.6746218675207,1408
2829.429884760661,1455
2831.184805462294,1454
2832.9393842763743,1405
2834.693621506936,1421
2836.4475174580916,1466
2838.201072434034,1420
2839.954286739034,1381
2841.707160677441,1415
2843.459694553685,1424
2845.2118886722724,1384
2846.96374333779,1443
2848.7152588549034,1392
2850.4664355283567,1388
2852.217273662973,1413
2853.9677735636546,1434
2855.7179355353833,1420
2857.4677598832186,1418
2859.217246912299,1404
2860.9663969278427,1416
2862.715210235146,1438
2864.4636871395846,1431
2866.211827946614,1442
2867.9596329617652,1374
2869.7071024906536,1456
2871.4542368389684,1422
2873.20103631248,1434
2874.947501217038,1428
2876.6936318585695,1415
2878.4394285430812,1395
2880.1848915766604,1421
2881.9300212654707,1375
2883.6748179157553,1433
2885.4192818338374,1417
2887.1634133261173,1408
2888.907212699077,1447
2890.6506802592744,1427
2892.393816313348,1374
2894.1366211680142,1418
2895.8790951300693,1376
2897.621238506388,1439
2899.363051603925,1382
2901.1045347297118,1446
2902.8456881908596,1457
2904.58651229456,1437
2906.327007348081,1331
2908.067173658772,1413
2909.8070115340597,1361
2911.5465212814497,1445
2913.285703208527,1393
2915.0245576229563,1439
2916.7630848324807,1492
2918.5012851449196,1441
2920.2391588681758,1392
2921.976706310227,1378
2923.7139277791334,1397
2925.4508235830313,1374
2927.187394030137,1365
2928.923639428745,1369
2930.6595600872306,1393
2932.395156314046,1439
2934.1304284177218,1363
2935.8653767068713,1444
2937.6000014901815,1393
2939.3343030764227,1411
2941.068281774442,1450
2942.8019378931644,1423
2944.5352717415976,1420
2946.2682836288236,1401
2948.0009738640065,1425
2949.7333427563885,1414
2951.465390615289,1409
2953.1971177501086,1486
2954.9285244703265,1424
2956.6596110855,1418
2958.3903779052657,1392
2960.1208252393385,1404
2961.8509533975125,1393
2963.5807626896617,1361
2965.3102534257378,1371
2967.0394259157715,1456
2968.768280469873,1430
2970.496817398232,1367
2972.2250370111146,1393
2973.952939618869,1383
2975.6805255319196,1417
2977.4077950607707,1420
2979.134748516006,1429
2980.861386208289,1357
2982.587708448359,1408
2984.313715547037,1385
2986.039407815222,1415
2987.764785563891,1375
2989.489849104102,1308
2991.2145987469908,1384
2992.9390348037705,1480
2994.6631575857346,1370
2996.3869674042576,1343
2998.1104645707887,1354
2999.83364939686,1441
3001.5565221940783,1417
3003.2790832741334,1373
3005.0013329487924,1320
3006.7232715298996,1342
3008.4448993293804,1341
3010.166216659239,1378
3011.887223831558,1353
3013.607921158498,1322
3015.3283089522993,1362
3017.0483875252826,1333
3018.7681571898443,1345
3020.4876182584626,1435
3022.2067710436927,1381
3023.9256158581707,1368
3025.644153014609,1396
3027.362382825801,1360
3029.0803056046193,1334
3030.797921664012,1347
3032.5152313170106,1419
3034.2322348767225,1379
3035.9489326563353,1374
3037.665324969115,1376
3039.3814121284063,1425
3041.097194447633,1400
3042.812672240299,1390
3044.5278458199855,1329
3046.2427155003525,1352
3047.9572815951406,1295
3049.671544418167,1364
3051.38550428333,1413
3053.0991615046073,1384
3054.812516396051,1402
3056.5255692717974,1405
3058.2383204460575,1349
3059.9507702331257,1358
3061.662918947372,1377
3063.3747669032446,1381
3065.0863144152736,1376
3066.7975617980674,1392
3068.508509366309,1387
3070.219157434767,1403
3071.9295063182844,1382
3073.639556331785,1346
3075.3493077902704,1347
3077.058761008821,1312
3078.7679163025964,1373
3080.476773986837,1344
3082.1853343768594,1329
3083.89359778806,1334
3085.6015645359153,1355
3087.3092349359786,1333
3089.016609303884,1370
3090.7236879553434,1412
3092.4304712061476,1391
3094.136959372166,1373
3095.843152769349,1377
3097.5490517137237,1377
3099.2546565213966,1384
3100.959967508554,1315
3102.66498499146,1344
3104.3697092864577,1402
3106.0741407099695,1404
3107.778279578498,1335
3109.482126208622,1299
3111.1856809170004,1311
3112.8889440203716,1318
3114.5919158355528,1422
3116.294596679439,1399
3117.996986869006,1323
3119.6990867213062,1409
3121.4008965534726,1389
3123.102416682717,1398
3124.803647426329,1370
3126.5045891016784,1407
3128.205242026213,1355
3129.90560651746,1364
3131.605682893025,1370
3133.3054714705922,1370
3135.0049725679282,1359
3136.7041865028714,1366
3138.4031135933465,1325
3140.101754157353,1385
3141.800108512971,1355
3143.498176978357,1376
3145.1959598717494,1321
3146.8934575114636,1381
3148.5906702158954,1378
3150.2875983035183,1339
3151.9842420928853,1357
3153.680601902627,1370
3155.376678051456,1348
3157.07247085816,1329
3158.767980641609,1291
3160.463207720748,1318
3162.158152414606,1336
3163.8528150422862,1315
3165.5471959229726,1348
3167.2412953759303,1269
3168.9351137204976,1318
3170.628651276098,1398
3172.3219083622307,1379
3174.014885298474,1362
3175.707582404485,1383
3177.4000000000005,1363
3179.092138404835,1339
3180.7839979388846,1312
3182.47557892212,1327
3184.166881674594,1382
3185.8579065164386,1350
3187.5486537678626,1309
3189.2391237491547,1323
3190.9293167806827,1426
3192.6192331828934,1329
3194.3088732763117,1373
3195.998237381542,1358
3197.687325819268,1327
3199.376138910251,1332
3201.064676975334,1298
3202.7529403354347,1304
3204.4409293115523,1311
3206.1286442247647,1337
3207.816085396229,1339
3209.5032531471825,1379
3211.190147798936,1413
3212.8767696728846,1375
3214.5631190905015,1308
3216.2491963733373,1308
3217.9350018430214,1297
3219.6205358212637,1295
3221.305798629851,1311
3222.990790590651,1321
3224.6755120256103,1286
3226.359963256751,1263
3228.0441446061795,1299
3229.7280563960758,1314
3231.411698948703,1360
3233.0950725863995,1296
3234.778177631587,1301
3236.461014406761,1351
3238.1435832345005,1311
3239.8258844374595,1325
3241.507918338374,1308
3243.1896852600576,1375
3244.8711855254023,1324
3246.552419457381,1332
3248.233387379042,1275
3249.914089613516,1301
3251.59452648401,1407
3253.274698313813,1278
3254.95460542629,1286
3256.6342481448855,1315
3258.313626793125,1301
3259.9927416946084,1340
3261.6715931730196,1264
3263.3501815521176,1301
3265.0285071557437,1359
3266.706570307815,1286
3268.3843713323286,1291
3270.0619105533615,1344
3271.739188295068,1266
3273.4162048816834,1304
3275.0929606375184,1330
3276.769455886966,1289
3278.445690954498,1328
3280.1216661646613,1326
3281.797381842087,1375
3283.4728383114807,1329
3285.1480358976296,1319
3286.8229749253996,1359
3288.4976557197333,1281
3290.172078605655,1340
3291.846243908266,1331
3293.5201519527463,1301
3295.193803064357,1321
3296.8671975684374,1375
3298.5403357904024,1357
3300.21321805575,1327
3301.8858446900567,1362
3303.558216018975,1306
3305.23033236824,1311
3306.9021940636603,1321
3308.57380143113,1347
3310.2451547966184,1395
3311.916254486174,1332
3313.5871008259246,1326
3315.2576941420766,1297
3316.9280347609147,1292
3318.5981230088046,1286
3320.2679592121895,1288
3321.9375436975924,1311
3323.606876791612,1331
3325.27595882093,1312
3326.944790112305,1268
3328.6133709925753,1298
3330.2817017886573,1350
3331.949782827547,1351
3333.617614436319,1287
3335.2851969421245,1309
3336.952530672199,1351
3338.619615953853,1350
3340.286453114475,1378
3341.9530424815357,1317
3343.619384382583,1315
3345.2854791452437,1364
3346.951327097224,1321
3348.6169285663073,1335
3350.2822838803577,1341
3351.947393367319,1323
3353.61225735521,1297
3355.2768761721345,1361
3356.9412501462693,1341
3358.605379605873,1354
3360.2692648792827,1339
3361.9329062949146,1319
3363.596304181263,1351
