CollectionTime,7/9/2024 12:10:02 PM
ExposureUsed,3
CalibratedSpectrum
-962.7078968117929,526
-959.9714848408522,580
-957.2358232597828,610
-954.5009119013725,585
-951.7667505983302,595
-949.0333391832855,574
-946.3006774887896,594
-943.5687653473143,600
-940.837602591253,609
-938.1071890529199,588
-935.3775245645503,583
-932.6486089583007,575
-929.9204420662485,644
-927.1930237203925,630
-924.4663537526524,598
-921.7404319948689,617
-919.0152582788041,630
-916.2908324361409,658
-913.5671542984834,671
-910.8442236973568,611
-908.1220404642074,632
-905.4006044304027,621
-902.679915427231,603
-899.959973285902,632
-897.2407778375464,605
-894.5223289132158,579
-891.8046263438832,616
-889.0876699604426,600
-886.3714595937089,613
-883.6559950744183,603
-880.9412762332282,611
-878.2273029007168,639
-875.5140749073835,594
-872.8015920836489,607
-870.0898542598545,601
-867.3788612662631,582
-864.6686129330585,622
-861.9591090903457,638
-859.2503495681506,623
-856.5423341964203,642
-853.8350628050229,623
-851.1285352237478,631
-848.4227512823054,584
-845.7177108103272,597
-843.0134136373656,618
-840.3098595928943,665
-837.6070485063082,634
-834.9049802069229,626
-832.2036545239757,619
-829.5030712866244,614
-826.8032303239481,659
-824.1041314649472,635
-821.4057745385428,657
-818.7081593735775,607
-816.0112857988148,577
-813.3151536429393,617
-810.6197627345566,637
-807.9251129021936,611
-805.2312039742981,627
-802.5380357792392,609
-799.8456081453069,627
-797.1539209007124,641
-794.462973873588,658
-791.772766891987,675
-789.083299783884,666
-786.3945723771743,654
-783.7065844996748,604
-781.0193359791231,602
-778.3328266431781,654
-775.6470563194197,620
-772.9620248353489,623
-770.2777320183878,627
-767.5941776958798,630
-764.9113616950891,612
-762.2292838432011,650
-759.5479439673222,628
-756.8673418944801,642
-754.1874774516235,678
-751.5083504656222,649
-748.8299607632671,666
-746.15230817127,643
-743.475392516264,653
-740.7992136248035,654
-738.1237713233636,652
-735.4490654383407,639
-732.7750957960521,649
-730.1018622227365,681
-727.4293645445534,681
-724.7576025875837,685
-722.0865761778291,649
-719.4162851412126,652
-716.7467293035781,685
-714.0779084906909,694
-711.409822528237,661
-708.7424712418238,663
-706.0758544569796,653
-703.4099719991541,693
-700.7448236937178,676
-698.0804093659622,698
-695.4167288411002,674
-692.7537819442656,668
-690.0915685005134,668
-687.4300883348199,684
-684.7693412720819,677
-682.1093271371178,685
-679.4500457546669,689
-676.7914969493897,691
-674.1336805458676,670
-671.4765963686034,655
-668.8202442420206,662
-666.1646239904642,731
-663.5097354382001,689
-660.8555784094151,713
-658.2021527282176,693
-655.5494582186366,716
-652.8974947046223,668
-650.2462620100463,767
-647.5957599587009,738
-644.9459883742998,732
-642.2969470804776,734
-639.6486359007902,740
-637.0010546587141,751
-634.3542031776476,718
-631.7080812809096,732
-629.0626887917401,770
-626.4180255333008,737
-623.7740913286734,740
-621.1308860008619,716
-618.4884093727904,723
-615.8466612673046,718
-613.2056415071715,755
-610.5653499150785,743
-607.9257863136347,807
-605.28695052537,778
-602.6488423727357,768
-600.0114616781036,725
-597.3748082637674,754
-594.7388819519412,769
-592.1036825647604,772
-589.4692099242818,786
-586.8354638524829,821
-584.2024441712624,808
-581.5701507024403,769
-578.9385832677575,811
-576.3077416888759,793
-573.6776257873787,776
-571.0482353847704,799
-568.4195703024757,792
-565.7916303618415,794
-563.164415384135,802
-560.5379251905453,772
-557.9121596021815,772
-555.2871184400748,775
-552.6628015251767,809
-550.0392086783606,799
-547.4163397204204,797
-544.794194472071,855
-542.1727727539491,831
-539.5520743866118,840
-536.9320991905377,814
-534.3128469861261,866
-531.6943175936979,906
-529.0765108334947,898
-526.4594265256793,934
-523.8430644903358,1059
-521.2274245474689,1207
-518.612506517005,1279
-515.9983102187913,1271
-513.3848354725959,1265
-510.77208209810846,1249
-508.16004991493924,1255
-505.5487387426199,1476
-502.9381484006032,1602
-500.3282787082628,1781
-497.71912948489364,1862
-495.1107005497117,1863
-492.5029917218539,1857
-489.8960028203786,1641
-487.28973366426493,1472
-484.68418407241325,1314
-482.07935386364494,1178
-479.47524285670266,1163
-476.87185087025,1103
-474.2691777228715,1106
-471.66722323307334,1087
-469.0659872192821,1109
-466.4654694998459,1093
-463.86566989303384,979
-461.26658821703614,1025
-458.66822428996414,1027
-456.07057792985,1039
-453.4736489546475,1044
-450.877437182231,1007
-448.28194243039627,980
-445.68716451686,986
-443.09310325926003,1018
-440.49975847515555,1052
-437.9071299820263,964
-435.31521759727354,993
-432.72402113821954,1058
-430.13354042210767,1098
-427.5437752661022,1103
-424.95472548728867,1079
-422.36639090267386,1010
-419.7787713291855,1070
-417.1918665836721,1105
-414.60567648290385,1153
-412.0202008435715,1083
-409.4354394822874,1137
-406.8513922155845,1191
-404.26805885991723,1073
-401.685439231661,1100
-399.103533147112,1096
-396.522340422488,1096
-393.9418608739278,1115
-391.3620943174908,1136
-388.7830405691583,1067
-386.2046994448317,1020
-383.6270707603344,958
-381.05015433141045,965
-378.473949973725,919
-375.8984575028645,874
-373.32367673433623,774
-370.74960748356875,712
-368.1762495659117,702
-365.60360279663576,658
-363.03166699093265,659
-360.4604419639154,592
-357.8899275306178,575
-355.32012350599507,516
-352.7510297049233,505
-350.1826459421999,527
-347.61497203254316,510
-345.04800779059235,499
-342.4817530309082,556
-339.91620756797226,537
-337.35137121618743,529
-334.7872437898774,522
-332.22382510328725,570
-329.66111497058273,507
-327.09911320585127,505
-324.53781962310075,543
-321.9772340362607,567
-319.4173562591816,534
-316.8581861056348,525
-314.2997233893127,510
-311.7419679238294,508
-309.1849195227194,491
-306.62857799943856,518
-304.0729431673641,574
-301.51801483979375,605
-298.963792829947,606
-296.41027695096386,602
-293.85746701590574,662
-291.3053628377552,595
-288.7539642294155,642
-286.2032710037115,589
-283.65328297338897,629
-281.1039999511146,645
-278.5554217494762,736
-276.007548180983,655
-273.4603790580651,630
-270.9139141930734,694
-268.3681533982807,639
-265.8230964858798,637
-263.27874326798565,675
-260.7350935566336,692
-258.1921471637804,701
-255.6499039013039,714
-253.10836358100266,746
-250.56752601459698,675
-248.02739101372765,675
-245.48795838995704,751
-242.94922795476816,713
-240.41119951956557,684
-237.8738728956746,741
-235.33724789434166,882
-232.80132432673452,806
-230.2661020039418,737
-227.73158073697357,714
-225.19776033676033,844
-222.66464061415422,899
-220.1322213799284,782
-217.60050244477725,751
-215.06948361931552,747
-212.53916471408013,809
-210.00954553952818,815
-207.48062590603843,728
-204.9524056239104,742
-202.4248845033651,865
-199.8980623545441,868
-197.37193898751036,831
-194.84651421224817,944
-192.32178783866232,891
-189.79775967657952,820
-187.27442953574644,911
-184.7517972258321,933
-182.2298625564256,889
-179.7086253370378,805
-177.18808537710026,827
-174.66824248596583,862
-172.14909647290835,1032
-169.6306471471229,1054
-167.11289431772548,1043
-164.59583779375328,1054
-162.07947738416453,965
-159.5638128978386,1073
-157.04884414357605,1180
-154.53457093009854,1348
-152.02099306604828,1425
-149.50811035998936,1086
-146.99592262040665,1030
-144.48442965570587,1229
-141.97363127421409,1230
-139.46352728417958,1353
-136.95411749377126,1548
-134.44540171107985,1491
-131.93737974411636,1112
-129.43005140081357,1068
-126.92341648902493,1641
-124.41747481652521,2045
-121.91222619101006,2665
-119.40767042009657,3501
-116.90380731132257,4021
-114.40063667214702,4178
-111.8981583099503,3632
-109.3963720320337,2525
-106.89527764561933,2273
-104.39487495785067,2382
-101.89516377579241,3511
-99.39614390642998,4743
-96.89781515667039,5836
-94.40017733334128,6011
-91.90323024319173,5410
-89.40697369289148,4832
-86.91140748903172,5263
-84.41653143812482,6233
-81.92234534660395,6219
-79.42884902082358,5474
-76.93604226705907,6166
-74.4439248915071,8785
-71.95249670028534,13215
-69.46175749943245,15920
-66.97170709490854,16873
-64.48234529259423,15745
-61.99367189829195,13895
-59.50568671772464,10029
-57.01838955653636,8348
-54.53178022029283,9659
-52.045858514480074,11166
-49.560624244506016,12517
-47.07607721569923,15429
-44.59221723330904,15994
-42.10904410250669,14494
-39.62655762838392,12709
-37.14475761595372,10566
-34.66364387015028,9006
-32.18321619582866,9229
-29.70347439776515,10331
-27.224418280657005,12246
-24.74604764912317,14412
-22.26836230770266,21401
-19.7913620608565,38561
-17.315046712966478,65038
-14.83941606833514,65038
-12.36446993118659,65038
-9.89020810566592,65038
-7.416630395839093,65038
-4.94373660569363,65038
-2.471526539137585,65038
-6.821210263296962E-13,65038
2.47084320796705,65038
4.941003281093458,65038
7.410480415786196,65038
9.879274808531363,65038
12.347386655893956,65038
14.814816154518212,65038
17.28156350112681,65038
19.74762889252179,65038
22.21301252558385,65038
24.67771459727237,21963
27.141735304626195,4952
29.605074844762612,3209
32.06773341487792,2553
34.52971121224755,2377
36.99100843422559,2790
39.45162527824516,2482
41.91156194181792,2172
44.370818622535126,2075
46.82939551806646,1805
49.287292826160524,1825
51.74451074464503,1748
54.201049471426245,1516
56.65690920448981,1665
59.112090141899785,1467
61.56659248179983,1326
64.02041642241159,1290
66.4735621620365,1233
68.92602989905402,1200
71.37781983192338,1179
73.82893215918205,1241
76.27936707944684,1361
78.72912479141326,1395
81.17820549385567,1426
83.62660938562783,1565
86.07433666566146,1338
88.5213875329681,1203
90.96776218663751,1134
93.41346082583925,1052
95.85848364982041,1238
98.30283085790859,1468
100.7465026495089,1462
103.18949922410604,1305
105.63182078126385,1276
108.07346752062438,1419
110.51443964190923,1162
112.95473734491827,1134
115.39436082953114,1135
117.83331029570547,1185
120.27158594347827,1087
122.7091879729652,1199
125.1461165843615,1286
127.58237197794062,1235
130.01795435405518,1233
132.4528639131364,1212
134.88710085569494,1205
137.32066538231982,1034
139.75355769367923,922
142.1857779905207,921
144.61732647366978,1017
147.04820334403132,1128
149.47840880258934,1160
151.90794305040674,1115
154.33680628862487,1137
156.76499871846443,1372
159.19252054122433,1637
161.61937195828352,1691
164.04555317109896,1855
166.47106438120693,1979
168.89590579022217,2249
171.320077599839,2374
173.7435800118302,2366
176.16641322804742,2481
178.58857745042144,2669
181.01007288096173,2866
183.43089972175687,2837
185.85105817497413,2764
188.27054844285988,2714
190.6893707277394,2766
193.10752523201643,2785
195.5250121581745,2851
197.9418317087751,2975
200.3579840864594,2903
202.7734694939469,2998
205.18828813403627,2948
207.6024402096051,3051
210.01592592360964,3127
212.42874547908548,3085
214.84089907914665,3102
217.2523869269868,3185
219.66320922587727,3107
222.0733661791695,3072
224.48285799029293,2947
226.8916848627572,3006
229.29984700014882,3131
231.7073446061355,3077
234.11417788446204,3021
236.520347038953,2991
238.92585227351185,3097
241.33069379212054,3062
243.73487179884035,3044
246.1383864978112,3099
248.541238093252,3020
250.9434267894609,3054
253.34495279081432,3030
255.74581630176783,3081
258.1460175268563,2963
260.54555667069314,2914
262.9444339379703,3002
265.3426495334594,2982
267.7402036620107,3014
270.1370965285529,3032
272.53332833809407,2969
274.9288992957214,2980
277.32380960660055,2971
279.718059475976,3022
282.1116491091717,3022
284.5045787115897,3000
286.89684848871195,3014
289.2884586460981,3059
291.67940938938807,3032
294.0697009242996,3053
296.4593334566299,3047
298.84830719225477,2998
301.23662233712923,2950
303.6242790972866,3051
306.01127767884,2872
308.39761828798066,2814
310.78330113097934,2801
313.16832641418534,2929
315.5526943440269,2797
317.9364051270112,2745
320.3194589697242,2752
322.70185607883093,2805
325.0835966610754,2709
327.4646809232805,2676
329.8451090723478,2675
332.2248813152577,2691
334.6039978590701,2669
336.9824589109231,2617
339.36026467803447,2713
341.7374153677,2683
344.113911187295,2567
346.48975234427337,2602
348.8649390461686,2723
351.2394715005918,2595
353.61334991523415,2574
355.9865744978655,2636
358.35914545633375,2610
360.73106299856715,2492
363.10232733257146,2611
365.47293866643247,2532
367.84289720831396,2514
370.2122031664593,2505
372.5808567491905,2521
374.9488581649083,2461
377.31620762209275,2530
379.6829053293021,2401
382.0489514951745,2550
384.4143463284262,2465
386.7790900378528,2413
389.14318283232853,2448
391.50662492080653,2450
393.86941651231916,2413
396.23155781597745,2500
398.5930490409713,2517
400.9538903965696,2516
403.3140820921202,2515
405.6736243370498,2516
408.03251734086336,2442
410.3907613131465,2438
412.74835646356166,2350
415.10530300185144,2376
417.4616011378372,2309
419.81725108141893,2325
422.1722530425758,2404
424.5266072313656,2436
426.880313857925,2418
429.2333731324701,2302
431.58578526529516,2369
433.9375504667738,2314
436.2886689473588,2263
438.63914091758113,2244
440.9889665880513,2295
443.33814616945835,2259
445.68667987257015,2294
448.03456790823395,2278
450.3818104873759,2354
452.72840782100013,2388
455.07436012019105,2370
457.41966759611057,2315
459.7643304600007,2281
462.10834892318155,2343
464.4517231970525,2337
466.79445349309174,2351
469.1365400228566,2415
471.4779829979826,2470
473.81878263018564,2423
476.15893913125876,2430
478.4984527130747,2470
480.8373235875855,2507
483.17555196682144,2577
485.5131380628919,2735
487.8500820879857,2939
490.1863842543697,3138
492.52204477439034,3452
494.8570638604725,3621
497.1914417251204,3863
499.52517858091653,4185
501.85827464052306,4343
504.19073011668036,3999
506.5225452222086,3853
508.85372017000566,3739
511.18425517304956,3703
513.514150444396,3853
515.8434061971808,4692
518.1720226446176,6039
520.4999999999999,6274
522.8273384766991,6018
525.1540382881666,5343
527.480099647932,4681
529.8055227696037,3923
532.1303078668694,3217
534.454455153496,2743
536.777964843328,2592
539.1008371502907,2523
541.4230722883866,2597
543.744670471698,2548
546.0656319143858,2349
548.3859568306899,2453
550.7056454349294,2463
553.0246979415016,2359
555.3431145648834,2338
557.6608955196306,2344
559.978041020377,2303
562.2945512818363,2454
564.6104265188006,2451
566.9256669461412,2449
569.2402727788082,2411
571.5542442318302,2463
573.8675815203156,2436
576.1802848594508,2572
578.4923544645015,2494
580.8037905508126,2448
583.114593333807,2421
585.4247630289875,2460
587.7342998519354,2421
590.0432040183106,2436
592.3514757438526,2539
594.6591152443794,2503
596.9661227357875,2524
599.2724984340531,2446
601.578242555231,2506
603.8833553154542,2427
606.1878369309362,2493
608.4916876179676,2461
610.7949075929192,2446
613.0974970722403,2405
615.3994562724587,2436
617.7007854101818,2436
620.0014847020951,2463
622.3015543649641,2383
624.6009946156324,2472
626.8998056710224,2372
629.1979877481361,2400
631.4955410640538,2401
633.7924658359349,2418
636.0887622810175,2331
638.3844306166192,2366
640.6794710601358,2408
642.9738838290426,2418
645.2676691408932,2303
647.5608272133207,2339
649.853358264037,2408
652.1452625108324,2461
654.4365401715764,2438
656.7271914642178,2489
659.0172166067838,2545
661.3066158173809,2416
663.5953893141935,2405
665.8835373154867,2383
668.1710600396028,2397
670.4579577049639,2422
672.7442305300709,2470
675.0298787335033,2389
677.3149025339197,2381
679.599302150058,2371
681.8830778007342,2394
684.1662297048437,2419
686.4487580813608,2454
688.7306631493387,2457
691.0119451279091,2421
693.2926042362834,2472
695.5726406937516,2445
697.8520547196814,2441
700.1308465335215,2440
702.4090163547982,2431
704.6865644031171,2381
706.9634908981619,2347
709.2397960596965,2353
711.5154801075631,2524
713.7905432616823,2353
716.0649857420548,2340
718.3388077687592,2373
720.612009561953,2430
722.8845913418733,2449
725.1565533288352,2378
727.427895743234,2388
729.6986188055427,2441
731.9687227363137,2410
734.238207756178,2510
736.5070740858458,2417
738.7753219461066,2345
741.0429515578281,2446
743.3099631419569,2370
745.5763569195191,2443
747.8421331116193,2428
750.1072919394409,2380
752.3718336242467,2414
754.6357583873777,2474
756.8990664502545,2385
759.1617580343765,2379
761.423833361321,2394
763.6852926527457,2359
765.9461361303862,2424
768.206364016058,2424
770.4659765316536,2476
772.7249738991469,2424
774.9833563405886,2559
777.2411240781092,2525
779.4982773339183,2554
781.7548163303044,2484
784.010741289634,2639
786.2660524343538,2580
788.5207499869881,2461
790.7748341701416,2516
793.0283052064964,2567
795.2811633188143,2498
797.5334087299362,2546
799.7850416627813,2470
802.0360623403484,2467
804.2864709857143,2524
806.5362678220353,2434
808.7854530725468,2516
811.0340269605625,2554
813.2819897094754,2458
815.5293415427581,2457
817.77608268396,2564
820.0222133567116,2486
822.2677337847211,2422
824.5126441917765,2416
826.7569448017433,2432
829.0006358385675,2456
831.2437175262731,2463
833.4861900889629,2498
835.7280537508192,2420
837.9693087361026,2411
840.2099552691533,2404
842.4499935743896,2388
844.689423876309,2589
846.9282463994886,2553
849.1664613685833,2504
851.4040690083276,2448
853.6410695435349,2530
855.877463199097,2420
858.1132501999847,2459
860.3484307712487,2448
862.5830051380175,2504
864.8169735254988,2534
867.0503361589791,2548
869.2830932638243,2529
871.5152450654786,2544
873.7467917894654,2554
875.9777336613873,2456
878.2080709069252,2513
880.4378037518389,2495
882.666932421968,2573
884.8954571432301,2469
887.1233781416219,2467
889.3506956432192,2625
891.5774098741766,2614
893.803521060728,2623
896.0290294291852,2578
898.2539352059397,2580
900.4782386174619,2573
902.7019398903011,2495
904.925039251085,2529
907.147536926521,2573
909.3694331433943,2582
911.59072812857,2489
913.8114221089921,2531
916.0315153116827,2492
918.2510079637437,2501
920.4699002923547,2468
922.6881925247761,2399
924.905884888345,2444
927.1229776104793,2574
929.3394709186747,2473
931.555365040506,2410
933.7706602036275,2456
935.9853566357709,2391
938.1994545647489,2458
940.4129542184515,2395
942.6258558248488,2409
944.8381596119883,2335
947.0498658079974,2387
949.2609746410825,2450
951.4714863395287,2372
953.6814011316998,2389
955.8907192460387,2399
958.0994409110671,2394
960.3075663553858,2322
962.5150958076741,2353
964.7220294966913,2348
966.928367651274,2390
969.1341105003388,2334
971.3392582728806,2310
973.5438111979742,2314
975.747769504772,2299
977.9511334225061,2322
980.153903180487,2262
982.3560790081052,2264
984.5576611348289,2252
986.7586497902058,2300
988.9590452038618,2188
991.158847605503,2342
993.3580572249133,2269
995.5566742919558,2224
997.7546990365728,2151
999.952131688785,2182
1002.1489724786926,2077
1004.3452216364743,2049
1006.5408793923874,2038
1008.7359459767691,2071
1010.9304216200343,2057
1013.1243065526781,2016
1015.3176010052733,2125
1017.510305208472,2087
1019.7024193930064,2022
1021.8939437896848,1974
1024.0848786293977,2032
1026.2752241431122,1988
1028.4649805618747,1988
1030.6541481168115,1969
1032.842727039127,1931
1035.0307175601051,2053
1037.2181199111074,1916
1039.4049343235752,1967
1041.591161029029,1960
1043.7768002590683,1995
1045.9618522453698,1922
1048.1463172196918,1905
1050.3301954138697,1918
1052.513487059818,1928
1054.69619238953,1916
1056.8783116350783,1899
1059.0598450286152,1938
1061.2407928023704,1997
1063.4211551886528,1954
1065.6009324198508,1971
1067.780124728432,1994
1069.9587323469414,1937
1072.1367555080046,1895
1074.314194444325,1917
1076.4910493886855,1861
1078.667320573947,1884
1080.843008233051,1899
1083.0181125990161,1842
1085.1926339049414,1908
1087.3665723840027,1854
1089.5399282694575,1817
1091.7127017946405,1884
1093.8848931929647,1873
1096.0565026979243,1889
1098.2275305430899,1889
1100.3979769621128,1779
1102.567842188722,1826
1104.737126456726,1841
1106.9058300000124,1799
1109.0739530525475,1842
1111.2414958483764,1826
1113.4084586216231,1785
1115.5748416064907,1825
1117.7406450372605,1844
1119.9058691482942,1887
1122.0705141740304,1855
1124.2345803489884,1742
1126.3980679077658,1821
1128.5609770850388,1758
1130.7233081155623,1853
1132.8850612341707,1789
1135.0462366757774,1822
1137.2068346753745,1839
1139.3668554680326,1870
1141.526299288901,1836
1143.68516637321,1769
1145.8434569562655,1780
1148.001171273455,1705
1150.158309560244,1754
1152.3148720521767,1821
1154.470858984876,1722
1156.626270594044,1832
1158.7811071154629,1787
1160.9353687849912,1807
1163.089055838569,1838
1165.242168512213,1779
1167.3947070420209,1813
1169.5466716641677,1740
1171.6980626149075,1759
1173.8488801305748,1761
1175.9991244475814,1807
1178.1487958024186,1815
1180.2978944316555,1752
1182.4464205719428,1796
1184.5943744600072,1750
1186.7417563326567,1762
1188.8885664267755,1816
1191.0348049793297,1761
1193.1804722273619,1740
1195.325568407995,1790
1197.4700937584303,1756
1199.614048515948,1756
1201.7574329179074,1793
1203.900247201746,1788
1206.042491604982,1798
1208.1841663652099,1754
1210.3252717201053,1761
1212.465807907422,1803
1214.6057751649923,1773
1216.7451737307279,1825
1218.8840038426192,1758
1221.0222657387353,1782
1223.1599596572241,1813
1225.2970858363137,1776
1227.4336445143094,1827
1229.5696359295966,1854
1231.705060320639,1807
1233.8399179259786,1819
1235.9742089842384,1796
1238.107933734118,1853
1240.2410924143974,1898
1242.373685263935,1874
1244.5057125216676,1814
1246.6371744266116,1842
1248.7680712178621,1775
1250.898403134593,1843
1253.028170416058,1852
1255.1573733015875,1872
1257.2860120305932,1827
1259.4140868425648,1860
1261.54159797707,1860
1263.6685456737569,1863
1265.7949301723515,1871
1267.9207517126597,1853
1270.046010534565,1865
1272.1707068780306,1869
1274.2948409830983,1842
1276.4184130898889,1880
1278.541423438603,1861
1280.6638722695184,1852
1282.785759822993,1855
1284.9070863394636,1870
1287.0278520594447,1893
1289.1480572235314,1878
1291.2677020723963,1912
1293.3867868467923,1889
1295.5053117875495,1889
1297.623277135579,1917
1299.740683131868,1980
1301.8575300174857,1965
1303.973818033578,1877
1306.0895474213703,1946
1308.2047184221678,1932
1310.3193312773528,1987
1312.4333862283888,2012
1314.5468835168163,1968
1316.659823384255,1967
1318.7722060724045,2012
1320.8840318230418,1972
1322.9953008780249,1996
1325.1060134792888,1962
1327.2161698688478,2098
1329.3257702887959,1926
1331.4348149813054,1980
1333.5433041886276,2042
1335.6512381530933,1956
1337.7586171171101,1999
1339.8654413231675,1926
1341.9717110138317,1934
1344.0774264317488,1974
1346.1825878196432,1948
1348.2871954203192,1950
1350.3912494766587,1950
1352.4947502316231,1939
1354.5976979282532,1958
1356.7000928096686,2010
1358.8019351190665,1994
1360.9032250997243,2002
1363.0039629949988,1941
1365.1041490483235,1947
1367.2037835032133,1894
1369.3028666032606,2040
1371.401398592137,1970
1373.4993797135926,1935
1375.5968102114575,1956
1377.6936903296396,1913
1379.7900203121262,1935
1381.8858004029835,1934
1383.9810308463561,2055
1386.075711886469,2026
1388.1698437676241,1945
1390.2634267342032,1977
1392.356461030667,1913
1394.4489469015557,1985
1396.5408845914872,2011
1398.6322743451592,2005
1400.7231164073469,1965
1402.813411022907,2072
1404.903158436773,2044
1406.9923588939578,2015
1409.0810126395531,2052
1411.1691199187303,1939
1413.2566809767386,2011
1415.343696058907,1959
1417.4301654106425,2075
1419.5160892774315,2031
1421.6014679048399,2022
1423.6863015385125,2046
1425.7705904241707,2066
1427.8543348076178,2012
1429.9375349347342,2031
1432.0201910514802,2085
1434.102303403894,1999
1436.1838722380944,2018
1438.2648978002767,2011
1440.3453803367174,2056
1442.4253200937692,1987
1444.5047173178677,2001
1446.5835722555234,2049
1448.6618851533285,2145
1450.739656257952,2159
1452.8168858161434,2148
1454.8935740747306,2149
1456.96972128062,2125
1459.045327680797,2063
1461.120393522327,2208
1463.1949190523528,2149
1465.2689045180973,2070
1467.3423501668608,2128
1469.415256246024,2134
1471.4876230030463,2170
1473.559450685465,2237
1475.6307395408976,2209
1477.7014898170391,2220
1479.771701761665,2235
1481.8413756226287,2228
1483.9105116478618,2259
1485.9791100853772,2305
1488.0471711832643,2334
1490.1146951896926,2251
1492.1816823529098,2265
1494.2481329212433,2336
1496.3140471430984,2331
1498.3794252669609,2344
1500.4442675413939,2439
1502.5085742150404,2428
1504.572345536622,2414
1506.6355817549388,2430
1508.6982831188702,2466
1510.7604498773744,2496
1512.8220822794883,2454
1514.8831805743293,2522
1516.9437450110909,2520
1519.003775839048,2519
1521.0632733075522,2623
1523.1222376660367,2606
1525.1806691640113,2645
1527.2385680510652,2754
1529.2959345768668,2744
1531.3527689911643,2798
1533.4090715437833,2879
1535.4648424846291,2938
1537.5200820636855,3063
1539.5747905310159,3029
1541.6289681367616,2991
1543.6826151311434,3107
1545.7357317644614,3142
1547.7883182870937,3172
1549.8403749494987,3217
1551.8919020022113,3357
1553.9428996958477,3407
1555.9933682811015,3430
1558.0433080087469,3543
1560.0927191296346,3520
1562.1416018946961,3558
1564.1899565549415,3614
1566.2377833614592,3584
1568.2850825654164,3643
1570.3318544180606,3521
1572.3780991707158,3417
1574.423817074788,3333
1576.4690083817595,3255
1578.5136733431923,2998
1580.5578122107272,2997
1582.601425236085,2937
1584.6445126710646,2788
1586.6870747675434,2647
1588.7291117774776,2591
1590.7706239529034,2592
1592.8116115459347,2458
1594.8520748087658,2449
1596.8920139936686,2363
1598.9314293529933,2278
1600.9703211391711,2235
1603.008689604711,2293
1605.0465350022005,2260
1607.0838575843068,2301
1609.1206576037753,2104
1611.1569353134305,2224
1613.1926909661765,2085
1615.2279248149953,2056
1617.2626371129481,2069
1619.2968281131757,2093
1621.3304980688963,2093
1623.3636472334088,2025
1625.39627586009,1987
1627.428384202396,2006
1629.459972513861,2035
1631.4910410480993,2002
1633.5215900588028,2053
1635.551619799744,2015
1637.5811305247717,2031
1639.6101224878166,2025
1641.6385959428862,1998
1643.6665511440683,1975
1645.693988345528,1965
1647.7209078015112,1988
1649.7473097663405,1981
1651.7731944944203,1923
1653.7985622402307,1957
1655.823413258333,1992
1657.847747803366,1931
1659.8715661300494,1915
1661.8948684931793,1943
1663.9176551476316,1889
1665.9399263483624,1858
1667.9616823504057,1891
1669.982923408873,1890
1672.0036497789574,1978
1674.0238617159293,1963
1676.043559475138,1906
1678.0627433120121,1908
1680.081413482059,1922
1682.0995702408654,1913
1684.117213844096,1923
1686.134344547495,1927
1688.1509626068864,1966
1690.1670682781705,1926
1692.182661817329,1909
1694.1977434804217,1882
1696.2123135235875,1890
1698.226372203043,1859
1700.2399197750851,1998
1702.2529564960905,1931
1704.2654826225112,1910
1706.277498410882,1954
1708.2890041178139,1978
1710.2999999999988,1967
1712.3104863142066,1934
1714.3204633172854,1922
1716.329931266163,1992
1718.3388904178469,1878
1720.3473410294214,1913
1722.3552833580516,1864
1724.3627176609807,1881
1726.3696441955308,1934
1728.3760632191033,1954
1730.3819749891782,1878
1732.3873797633146,1912
1734.3922777991502,1947
1736.3966693544012,1932
1738.4005546868639,1852
1740.4039340544127,1998
1742.406807715001,1824
1744.4091759266616,1962
1746.4110389475054,1874
1748.4123970357223,1891
1750.413250449582,1861
1752.4135994474318,1907
1754.4134442876993,1897
1756.4127852288902,1933
1758.4116225295893,1922
1760.4099564484595,1896
1762.407787244244,1830
1764.405115175764,1933
1766.4019405019203,1854
1768.3982634816916,1865
1770.3940843741357,1958
1772.3894034383907,1911
1774.3842209336717,1839
1776.378537119274,1891
1778.372352254571,1870
1780.3656665990156,1853
1782.3584804121397,1777
1784.3507939535534,1919
1786.3426074829463,1860
1788.3339212600863,1870
1790.3247355448211,1960
1792.3150505970766,1882
1794.3048666768573,1870
1796.2941840442477,1862
1798.2830029594106,1949
1800.2713236825884,1935
1802.2591464741004,1930
1804.2464715943465,1857
1806.2332993038058,1922
1808.2196298630352,1901
1810.2054635326708,1914
1812.190800573428,1903
1814.175641246101,1899
1816.1599858115628,1922
1818.1438345307652,1936
1820.127187664738,1886
1822.1100454745924,1910
1824.092408221516,1865
1826.0742761667766,1831
1828.055649571721,1900
1830.0365286977735,1907
1832.0169138064398,1864
1833.9968051593014,1897
1835.9762030180214,1851
1837.9551076443408,1896
1839.9335193000788,1865
1841.9114382471344,1862
1843.888864747485,1844
1845.8657990631878,1865
1847.842241456378,1830
1849.8181921892697,1882
1851.7936515241558,1871
1853.7686197234098,1890
1855.7430970494815,1848
1857.7170837649014,1849
1859.6905801322787,1860
1861.6635864143004,1888
1863.6361028737338,1891
1865.608129773424,1866
1867.5796673762961,1862
1869.5507159453537,1864
1871.521275743678,1887
1873.4913470344313,1822
1875.4609300808534,1816
1877.4300251462632,1811
1879.3986324940588,1807
1881.366752387717,1836
1883.3343850907936,1838
1885.3015308669228,1856
1887.268189979819,1837
1889.2343626932739,1853
1891.2000492711595,1900
1893.1652499774254,1790
1895.1299650761011,1825
1897.0941948312952,1834
1899.0579395071945,1882
1901.0211993680641,1879
1902.98397467825,1940
1904.9462657021745,1883
1906.9080727043415,1870
1908.869395949332,1871
1910.8302357018065,1844
1912.790592226504,1896
1914.7504657882428,1858
1916.7098566519212,1797
1918.6687650825133,1849
1920.6271913450764,1778
1922.5851357047422,1833
1924.5425984267245,1836
1926.499579776314,1832
1928.4560800188833,1880
1930.4120994198802,1828
1932.367638244833,1883
1934.32269675935,1814
1936.2772752291175,1852
1938.231373919899,1871
1940.1849930975404,1800
1942.1381330279637,1866
1944.0907939771696,1793
1946.0429762112412,1814
1947.9946799963363,1887
1949.9459055986945,1867
1951.896653284633,1858
1953.8469233205478,1838
1955.7967159729142,1813
1957.7460315082863,1835
1959.6948701932974,1831
1961.6432322946594,1852
1963.5911180791632,1905
1965.5385278136787,1835
1967.4854617651545,1798
1969.4319202006182,1803
1971.377903387176,1809
1973.3234115920136,1833
1975.268445082395,1835
1977.2130041256642,1905
1979.1570889892423,1822
1981.1006999406304,1838
1983.04383724741,1937
1984.986501177238,1846
1986.928691997853,1835
1988.8704099770712,1785
1990.811655382789,1955
1992.7524284829801,1899
1994.692729545698,1882
1996.6325588390755,1891
1998.5719166313224,1805
2000.5108031907307,1849
2002.4492187856677,1866
2004.387163684583,1807
2006.3246381560011,1798
2008.2616424685298,1728
2010.1981768908527,1773
2012.1342416917332,1778
2014.069837140014,1846
2016.0049635046162,1860
2017.9396210545406,1852
2019.8738100588666,1817
2021.8075307867502,1838
2023.740783507431,1824
2025.6735684902228,1844
2027.6058860045214,1793
2029.5377363198004,1850
2031.4691197056118,1823
2033.4000364315875,1786
2035.3304867674374,1813
2037.260470982952,1810
2039.189989347998,1783
2041.1190421325232,1850
2043.047629606554,1784
2044.9757520401945,1815
2046.9034097036288,1791
2048.8306028671195,1818
2050.7573318010086,1819
2052.683596775716,1772
2054.609398061742,1796
2056.5347359296647,1712
2058.4596106501403,1823
2060.384022493906,1853
2062.3079717317764,1764
2064.231458634646,1868
2066.1544834734873,1789
2068.077046519352,1859
2069.99914804337,1800
2071.9207883167524,1721
2073.8419676107865,1883
2075.7626861968406,1759
2077.6829443463607,1755
2079.6027423308715,1718
2081.522080421977,1783
2083.440958891362,1865
2085.359378010786,1835
2087.2773380520907,1778
2089.194839287196,1793
2091.111881988101,1842
2093.0284664268825,1783
2094.9445928756973,1763
2096.86026160678,1791
2098.775472892446,1809
2100.690227005088,1774
2102.604524217178,1812
2104.5183648012676,1770
2106.431749029985,1870
2108.34467717604,1745
2110.2571495122206,1801
2112.169166311393,1841
2114.080727846503,1814
2115.9918343905747,1847
2117.902486216711,1866
2119.8126835980956,1874
2121.722426807987,1857
2123.6317161197285,1808
2125.5405518067364,1836
2127.448934142509,1811
2129.356863400624,1831
2131.264339854737,1864
2133.1713637785815,1862
2135.077935445972,1949
2136.9840551308002,1908
2138.889723107037,1869
2140.7949396487334,1841
2142.699705030018,1879
2144.6040195250994,1952
2146.507883408264,1898
2148.4112969538774,1859
2150.3142604363848,2007
2152.2167741303097,1895
2154.1188383102535,1926
2156.0204532508997,1869
2157.9216192270064,1936
2159.822336513414,1795
2161.7226053850413,1950
2163.622426116884,1906
2165.5217989840185,1872
2167.4207242616,1919
2169.319202224862,1858
2171.2172331491165,1942
2173.1148173097563,1873
2175.0119549822507,1981
2176.90864644215,1923
2178.8048919650823,1975
2180.7006918267534,1990
2182.596046302952,2053
2184.4909556695407,2037
2186.3854202024645,1991
2188.279440177746,2012
2190.173015871487,2027
2192.066147559868,2006
2193.958835519149,2012
2195.851080025667,2070
2197.7428813558417,2027
2199.6342397861667,2005
2201.5251555932186,2049
2203.415629053651,1982
2205.3056604441986,2038
2207.19525004167,2074
2209.084398122958,2106
2210.9731049650327,2104
2212.861370844941,2074
2214.749196039812,2135
2216.636580826851,2060
2218.523525483344,2140
2220.410030286655,2080
2222.296095514226,2228
2224.1817214435805,2163
2226.066908352319,2061
2227.951656518121,2115
2229.835966218746,2054
2231.71983773203,2088
2233.6032713358913,2178
2235.486267308324,2079
2237.3688259274036,2076
2239.2509474712824,2070
2241.132632218193,2193
2243.013880446447,2129
2244.8946924344323,2149
2246.7750684606203,2181
2248.6550088035574,2146
2250.534513741871,2202
2252.413583554265,2157
2254.292218519526,2185
2256.170418916517,2160
2258.0481850241786,2005
2259.925517121534,2083
2261.8024154876825,2074
2263.678880401803,2138
2265.5549121431536,2154
2267.430510991071,2178
2269.305677224971,2130
2271.180411124348,2152
2273.0547129687766,2089
2274.9285830379076,2024
2276.8020216114737,2030
2278.6750289692845,2010
2280.5476053912294,1976
2282.4197511572766,2080
2284.2914665474727,2151
2286.162751841943,2212
2288.0336073208937,2173
2289.904033264608,2132
2291.774029953448,2135
2293.6435976678554,2092
2295.5127366883517,2016
2297.381447295534,1993
2299.2497297700825,1954
2301.1175843927526,1930
2302.9850114443825,1826
2304.852011205885,1768
2306.7185839582553,1764
2308.5847299825664,1740
2310.4504495599676,1759
2312.3157429716925,1695
2314.1806104990483,1710
2316.0450524234247,1643
2317.9090690262888,1666
2319.772660589186,1703
2321.635827393742,1696
2323.498569721661,1702
2325.3608878547248,1690
2327.2227820747967,1686
2329.0842526638157,1695
2330.945299903803,1648
2332.805924076857,1647
2334.6661254651535,1648
2336.525904350951,1610
2338.3852610165827,1745
2340.244195744464,1638
2342.102708817088,1636
2343.9608005170253,1626
2345.8184711269287,1634
2347.675720929526,1650
2349.532550207628,1695
2351.38895924412,1691
2353.24494832197,1700
2355.100517724223,1670
2356.955667734004,1612
2358.810398634514,1672
2360.664710709037,1633
2362.5186042409337,1652
2364.3720795136437,1628
2366.225136810686,1672
2368.0777764156583,1692
2369.929998612237,1687
2371.7818036841777,1649
2373.633191915315,1705
2375.484163589562,1695
2377.3347189909114,1654
2379.184858403434,1683
2381.03458211128,1639
2382.8838903986775,1789
2384.732783549936,1738
2386.5812618494406,1668
2388.4293255816588,1673
2390.2769750311327,1627
2392.1242104824883,1657
2393.971032220427,1707
2395.8174405297295,1707
2397.6634356952563,1733
2399.509018001947,1719
2401.3541877348193,1685
2403.1989451789705,1690
2405.043290619576,1737
2406.8872243418905,1669
2408.730746631247,1640
2410.5738577730594,1727
2412.4165580528183,1692
2414.258847756095,1633
2416.100727168537,1738
2417.9421965758734,1665
2419.783256263912,1677
2421.623906518538,1700
2423.4641476257157,1672
2425.303979871491,1642
2427.143403541984,1705
2428.9824189233977,1739
2430.821026302012,1671
2432.6592259641866,1740
2434.497018196361,1701
2436.33440328505,1688
2438.171381516851,1743
2440.00795317844,1652
2441.844118556569,1727
2443.6798779380724,1745
2445.5152316098606,1719
2447.3501798589255,1716
2449.1847229723357,1711
2451.0188612372403,1707
2452.8525949408663,1633
2454.6859243705203,1695
2456.518849813587,1666
2458.3513715575314,1655
2460.183489889895,1719
2462.015205098301,1703
2463.8465174704493,1684
2465.67742729412,1779
2467.5079348571717,1669
2469.338040447542,1727
2471.1677443532476,1694
2472.9970468623833,1702
2474.825948263123,1668
2476.6544488437207,1763
2478.482548892508,1680
2480.310248697896,1689
2482.137548548374,1780
2483.9644487325118,1728
2485.790949538956,1755
2487.617051256433,1709
2489.44275417375,1718
2491.26805857979,1695
2493.0929647635157,1656
2494.917473013971,1746
2496.741583620276,1751
2498.5652968716304,1702
2500.3886130573137,1786
2502.2115324666834,1771
2504.0340553891765,1756
2505.856182114308,1687
2507.6779129316733,1759
2509.499248130945,1718
2511.3201880018764,1701
2513.140732834298,1722
2514.9608829181198,1724
2516.780638543331,1712
2518.6,1700
2520.418967578273,1706
2522.237541568376,1714
2524.0557222606144,1712
2525.8735099453706,1719
2527.6909049131086,1803
2529.507907454368,1758
2531.32451785977,1740
2533.140736420014,1772
2534.9565634258774,1755
2536.771999168218,1799
2538.5870439379714,1736
2540.4016980261526,1684
2542.2159617238544,1797
2544.02983532225,1712
2545.8433191125914,1779
2547.656413386209,1772
2549.4691184345115,1801
2551.2814345489874,1753
2553.093362021204,1817
2554.904901142808,1823
2556.716052205523,1748
2558.526815501153,1787
2560.3371913215824,1838
2562.147179958771,1876
2563.956781704761,1754
2565.7659968516705,1793
2567.5748256916986,1843
2569.3832685171224,1791
2571.1913256202984,1862
2572.9989972936614,1954
2574.806283829725,1869
2576.613185521084,1893
2578.4197026604074,1842
2580.2258355404483,1886
2582.031584454035,1884
2583.836949694077,1803
2585.6419315535613,1895
2587.4465303255533,1888
2589.2507463032002,1881
2591.0545797797245,1877
2592.8580310484303,1935
2594.6611004026995,1888
2596.463788135992,1903
2598.266094541849,1959
2600.0680199138874,1924
2601.869564545807,1979
2603.670728731383,2003
2605.4715127644704,2007
2607.2719169390048,1928
2609.071941548998,1956
2610.8715868885433,1941
2612.670853251811,1972
2614.469740933052,1895
2616.268250226594,1953
2618.0663814268455,1983
2619.864134828292,2060
2621.6615107255006,1972
2623.458509413115,2018
2625.2551311858597,2016
2627.0513763385347,1976
2628.8472451660223,1991
2630.6427379632833,1949
2632.4378550253564,1899
2634.232596647359,1887
2636.026963124488,1847
2637.8209547520187,1890
2639.6145718253065,1923
2641.407814639785,1914
2643.200683490966,1913
2644.9931786744414,1908
2646.7853004858807,1839
2648.577049221034,1821
2650.3684251757277,1856
2652.1594286458712,1768
2653.9500599274484,1828
2655.740319316525,1872
2657.5302071092437,1881
2659.3197236018286,1884
2661.10886909058,1776
2662.8976438718782,1865
2664.686048242183,1905
2666.4740824980327,1817
2668.2617469360443,1827
2670.0490418529134,1836
2671.8359675454153,1827
2673.622524310403,1850
2675.408712444811,1776
2677.1945322456495,1698
2678.979984010009,1793
2680.76506803506,1783
2682.5497846180497,1857
2684.334134056306,1741
2686.1181166472343,1737
2687.9017326883213,1793
2689.6849824771293,1747
2691.4678663113013,1785
2693.2503844885596,1807
2695.032537306705,1761
2696.8143250636167,1779
2698.5957480572542,1800
2700.3768065856534,1701
2702.1575009469316,1695
2703.937831439283,1714
2705.717798360982,1764
2707.4974020103837,1755
2709.276642685917,1729
2711.055520686095,1777
2712.834036309506,1681
2714.612189854819,1750
2716.389981620782,1697
2718.1674119062204,1713
2719.944481010041,1780
2721.721189231226,1765
2723.4975368688415,1713
2725.273524222027,1770
2727.0491515900053,1702
2728.824419272075,1776
2730.5993275676146,1727
2732.3738767760838,1733
2734.148067197016,1713
2735.921899130031,1684
2737.6953728748194,1738
2739.468488731156,1780
2741.2412469988926,1755
2743.0136479779617,1698
2744.785691968372,1727
2746.5573792702116,1766
2748.3287101836504,1675
2750.099685008934,1707
2751.870304046388,1659
2753.640567596418,1752
2755.4104759595057,1712
2757.1800294362156,1724
2758.949228327187,1743
2760.7180729331412,1696
2762.486563554877,1710
2764.254700493272,1735
2766.022484049284,1715
2767.789914523947,1682
2769.5569922183786,1681
2771.3237174337705,1690
2773.090090471394,1672
2774.8561116326036,1652
2776.6217812188274,1706
2778.3870995315756,1726
2780.1520668724356,1715
2781.9166835430747,1711
2783.6809498452394,1736
2785.444866080754,1743
2787.2084325515225,1632
2788.971649559527,1735
2790.73451740683,1681
2792.4970363955713,1696
2794.2592068279705,1749
2796.0210290063264,1664
2797.7825032330147,1673
2799.543629810493,1669
2801.304409041296,1743
2803.0648412280366,1694
2804.8249266734088,1691
2806.5846656801846,1690
2808.344058551212,1765
2810.1031055894246,1731
2811.8618070978273,1733
2813.6201633795085,1723
2815.378174737636,1719
2817.1358414754536,1745
2818.893163896285,1706
2820.6501423035334,1709
2822.4067770006814,1684
2824.1630682912883,1720
2825.9190164789957,1704
2827.6746218675207,1678
2829.429884760661,1696
2831.184805462294,1687
2832.9393842763743,1722
2834.693621506936,1721
2836.4475174580916,1756
2838.201072434034,1770
2839.954286739034,1754
2841.707160677441,1794
2843.459694553685,1710
2845.2118886722724,1709
2846.96374333779,1722
2848.7152588549034,1724
2850.4664355283567,1721
2852.217273662973,1737
2853.9677735636546,1778
2855.7179355353833,1742
2857.4677598832186,1708
2859.217246912299,1776
2860.9663969278427,1707
2862.715210235146,1729
2864.4636871395846,1740
2866.211827946614,1691
2867.9596329617652,1680
2869.7071024906536,1713
2871.4542368389684,1696
2873.20103631248,1709
2874.947501217038,1737
2876.6936318585695,1751
2878.4394285430812,1751
2880.1848915766604,1727
2881.9300212654707,1690
2883.6748179157553,1785
2885.4192818338374,1697
2887.1634133261173,1746
2888.907212699077,1672
2890.6506802592744,1747
2892.393816313348,1692
2894.1366211680142,1758
2895.8790951300693,1737
2897.621238506388,1771
2899.363051603925,1732
2901.1045347297118,1715
2902.8456881908596,1616
2904.58651229456,1704
2906.327007348081,1690
2908.067173658772,1759
2909.8070115340597,1714
2911.5465212814497,1672
2913.285703208527,1736
2915.0245576229563,1709
2916.7630848324807,1670
2918.5012851449196,1679
2920.2391588681758,1715
2921.976706310227,1725
2923.7139277791334,1733
2925.4508235830313,1750
2927.187394030137,1747
2928.923639428745,1708
2930.6595600872306,1713
2932.395156314046,1642
2934.1304284177218,1687
2935.8653767068713,1764
2937.6000014901815,1776
2939.3343030764227,1746
2941.068281774442,1741
2942.8019378931644,1715
2944.5352717415976,1732
2946.2682836288236,1705
2948.0009738640065,1743
2949.7333427563885,1840
2951.465390615289,1798
2953.1971177501086,1693
2954.9285244703265,1721
2956.6596110855,1742
2958.3903779052657,1702
2960.1208252393385,1704
2961.8509533975125,1803
2963.5807626896617,1752
2965.3102534257378,1760
2967.0394259157715,1709
2968.768280469873,1730
2970.496817398232,1719
2972.2250370111146,1727
2973.952939618869,1736
2975.6805255319196,1783
2977.4077950607707,1785
2979.134748516006,1820
2980.861386208289,1770
2982.587708448359,1824
2984.313715547037,1779
2986.039407815222,1755
2987.764785563891,1777
2989.489849104102,1763
2991.2145987469908,1626
2992.9390348037705,1728
2994.6631575857346,1737
2996.3869674042576,1769
2998.1104645707887,1689
2999.83364939686,1832
3001.5565221940783,1746
3003.2790832741334,1737
3005.0013329487924,1770
3006.7232715298996,1719
3008.4448993293804,1648
3010.166216659239,1737
3011.887223831558,1814
3013.607921158498,1666
3015.3283089522993,1702
3017.0483875252826,1680
3018.7681571898443,1742
3020.4876182584626,1730
3022.2067710436927,1819
3023.9256158581707,1750
3025.644153014609,1750
3027.362382825801,1701
3029.0803056046193,1792
3030.797921664012,1780
3032.5152313170106,1677
3034.2322348767225,1712
3035.9489326563353,1799
3037.665324969115,1751
3039.3814121284063,1719
3041.097194447633,1741
3042.812672240299,1713
3044.5278458199855,1780
3046.2427155003525,1696
3047.9572815951406,1626
3049.671544418167,1661
3051.38550428333,1646
3053.0991615046073,1680
3054.812516396051,1719
3056.5255692717974,1711
3058.2383204460575,1689
3059.9507702331257,1705
3061.662918947372,1744
3063.3747669032446,1704
3065.0863144152736,1696
3066.7975617980674,1736
3068.508509366309,1782
3070.219157434767,1775
3071.9295063182844,1692
3073.639556331785,1747
3075.3493077902704,1798
3077.058761008821,1744
3078.7679163025964,1707
3080.476773986837,1784
3082.1853343768594,1766
3083.89359778806,1695
3085.6015645359153,1724
3087.3092349359786,1790
3089.016609303884,1759
3090.7236879553434,1824
3092.4304712061476,1793
3094.136959372166,1742
3095.843152769349,1674
3097.5490517137237,1718
3099.2546565213966,1763
3100.959967508554,1781
3102.66498499146,1771
3104.3697092864577,1739
3106.0741407099695,1730
3107.778279578498,1744
3109.482126208622,1792
3111.1856809170004,1731
3112.8889440203716,1725
3114.5919158355528,1762
3116.294596679439,1754
3117.996986869006,1785
3119.6990867213062,1760
3121.4008965534726,1743
3123.102416682717,1858
3124.803647426329,1841
3126.5045891016784,1778
3128.205242026213,1778
3129.90560651746,1711
3131.605682893025,1769
3133.3054714705922,1689
3135.0049725679282,1730
3136.7041865028714,1761
3138.4031135933465,1747
3140.101754157353,1736
3141.800108512971,1800
3143.498176978357,1772
3145.1959598717494,1741
3146.8934575114636,1729
3148.5906702158954,1756
3150.2875983035183,1775
3151.9842420928853,1821
3153.680601902627,1732
3155.376678051456,1706
3157.07247085816,1727
3158.767980641609,1814
3160.463207720748,1735
3162.158152414606,1750
3163.8528150422862,1753
3165.5471959229726,1768
3167.2412953759303,1795
3168.9351137204976,1775
3170.628651276098,1746
3172.3219083622307,1734
3174.014885298474,1768
3175.707582404485,1716
3177.4000000000005,1755
3179.092138404835,1778
3180.7839979388846,1722
3182.47557892212,1732
3184.166881674594,1746
3185.8579065164386,1800
3187.5486537678626,1748
3189.2391237491547,1778
3190.9293167806827,1787
3192.6192331828934,1737
3194.3088732763117,1733
3195.998237381542,1721
3197.687325819268,1699
3199.376138910251,1745
3201.064676975334,1749
3202.7529403354347,1807
3204.4409293115523,1720
3206.1286442247647,1708
3207.816085396229,1697
3209.5032531471825,1660
3211.190147798936,1720
3212.8767696728846,1687
3214.5631190905015,1639
3216.2491963733373,1676
3217.9350018430214,1729
3219.6205358212637,1732
3221.305798629851,1672
3222.990790590651,1711
3224.6755120256103,1703
3226.359963256751,1683
3228.0441446061795,1779
3229.7280563960758,1706
3231.411698948703,1717
3233.0950725863995,1725
3234.778177631587,1736
3236.461014406761,1743
3238.1435832345005,1704
3239.8258844374595,1819
3241.507918338374,1775
3243.1896852600576,1726
3244.8711855254023,1719
3246.552419457381,1774
3248.233387379042,1797
3249.914089613516,1761
3251.59452648401,1740
3253.274698313813,1700
3254.95460542629,1720
3256.6342481448855,1659
3258.313626793125,1692
3259.9927416946084,1745
3261.6715931730196,1691
3263.3501815521176,1657
3265.0285071557437,1719
3266.706570307815,1708
3268.3843713323286,1701
3270.0619105533615,1672
3271.739188295068,1703
3273.4162048816834,1703
3275.0929606375184,1727
3276.769455886966,1716
3278.445690954498,1792
3280.1216661646613,1726
3281.797381842087,1810
3283.4728383114807,1782
3285.1480358976296,1731
3286.8229749253996,1752
3288.4976557197333,1689
3290.172078605655,1703
3291.846243908266,1734
3293.5201519527463,1673
3295.193803064357,1695
3296.8671975684374,1701
3298.5403357904024,1691
3300.21321805575,1711
3301.8858446900567,1676
3303.558216018975,1741
3305.23033236824,1731
3306.9021940636603,1695
3308.57380143113,1731
3310.2451547966184,1762
3311.916254486174,1706
3313.5871008259246,1775
3315.2576941420766,1774
3316.9280347609147,1807
3318.5981230088046,1762
3320.2679592121895,1733
3321.9375436975924,1700
3323.606876791612,1653
3325.27595882093,1669
3326.944790112305,1681
3328.6133709925753,1627
3330.2817017886573,1732
3331.949782827547,1650
3333.617614436319,1666
3335.2851969421245,1670
3336.952530672199,1763
3338.619615953853,1725
3340.286453114475,1762
3341.9530424815357,1689
3343.619384382583,1786
3345.2854791452437,1685
3346.951327097224,1721
3348.6169285663073,1810
3350.2822838803577,1731
3351.947393367319,1796
3353.61225735521,1749
3355.2768761721345,1726
3356.9412501462693,1793
3358.605379605873,1679
3360.2692648792827,1747
3361.9329062949146,1775
3363.596304181263,1757
