CollectionTime,7/9/2024 12:08:33 PM
ExposureUsed,3
CalibratedSpectrum
-962.7078968117929,1402
-959.9714848408522,1493
-957.2358232597828,1543
-954.5009119013725,1468
-951.7667505983302,1477
-949.0333391832855,1517
-946.3006774887896,1496
-943.5687653473143,1505
-940.837602591253,1496
-938.1071890529199,1504
-935.3775245645503,1478
-932.6486089583007,1490
-929.9204420662485,1521
-927.1930237203925,1517
-924.4663537526524,1579
-921.7404319948689,1568
-919.0152582788041,1533
-916.2908324361409,1518
-913.5671542984834,1474
-910.8442236973568,1533
-908.1220404642074,1503
-905.4006044304027,1547
-902.679915427231,1538
-899.959973285902,1508
-897.2407778375464,1515
-894.5223289132158,1515
-891.8046263438832,1529
-889.0876699604426,1524
-886.3714595937089,1560
-883.6559950744183,1515
-880.9412762332282,1545
-878.2273029007168,1490
-875.5140749073835,1535
-872.8015920836489,1576
-870.0898542598545,1554
-867.3788612662631,1539
-864.6686129330585,1552
-861.9591090903457,1538
-859.2503495681506,1507
-856.5423341964203,1596
-853.8350628050229,1490
-851.1285352237478,1500
-848.4227512823054,1507
-845.7177108103272,1548
-843.0134136373656,1558
-840.3098595928943,1574
-837.6070485063082,1552
-834.9049802069229,1571
-832.2036545239757,1551
-829.5030712866244,1553
-826.8032303239481,1600
-824.1041314649472,1552
-821.4057745385428,1594
-818.7081593735775,1618
-816.0112857988148,1543
-813.3151536429393,1579
-810.6197627345566,1632
-807.9251129021936,1512
-805.2312039742981,1510
-802.5380357792392,1572
-799.8456081453069,1638
-797.1539209007124,1626
-794.462973873588,1606
-791.772766891987,1639
-789.083299783884,1664
-786.3945723771743,1624
-783.7065844996748,1594
-781.0193359791231,1573
-778.3328266431781,1564
-775.6470563194197,1602
-772.9620248353489,1587
-770.2777320183878,1600
-767.5941776958798,1613
-764.9113616950891,1688
-762.2292838432011,1611
-759.5479439673222,1630
-756.8673418944801,1640
-754.1874774516235,1606
-751.5083504656222,1622
-748.8299607632671,1656
-746.15230817127,1559
-743.475392516264,1585
-740.7992136248035,1570
-738.1237713233636,1656
-735.4490654383407,1643
-732.7750957960521,1562
-730.1018622227365,1654
-727.4293645445534,1674
-724.7576025875837,1653
-722.0865761778291,1646
-719.4162851412126,1629
-716.7467293035781,1697
-714.0779084906909,1609
-711.409822528237,1653
-708.7424712418238,1615
-706.0758544569796,1622
-703.4099719991541,1707
-700.7448236937178,1643
-698.0804093659622,1745
-695.4167288411002,1693
-692.7537819442656,1670
-690.0915685005134,1686
-687.4300883348199,1669
-684.7693412720819,1626
-682.1093271371178,1698
-679.4500457546669,1653
-676.7914969493897,1644
-674.1336805458676,1716
-671.4765963686034,1691
-668.8202442420206,1742
-666.1646239904642,1670
-663.5097354382001,1732
-660.8555784094151,1677
-658.2021527282176,1677
-655.5494582186366,1745
-652.8974947046223,1706
-650.2462620100463,1775
-647.5957599587009,1734
-644.9459883742998,1722
-642.2969470804776,1734
-639.6486359007902,1791
-637.0010546587141,1817
-634.3542031776476,1795
-631.7080812809096,1732
-629.0626887917401,1764
-626.4180255333008,1755
-623.7740913286734,1843
-621.1308860008619,1795
-618.4884093727904,1768
-615.8466612673046,1800
-613.2056415071715,1813
-610.5653499150785,1748
-607.9257863136347,1727
-605.28695052537,1791
-602.6488423727357,1752
-600.0114616781036,1810
-597.3748082637674,1825
-594.7388819519412,1811
-592.1036825647604,1759
-589.4692099242818,1865
-586.8354638524829,1849
-584.2024441712624,1817
-581.5701507024403,1837
-578.9385832677575,1810
-576.3077416888759,1858
-573.6776257873787,1833
-571.0482353847704,1782
-568.4195703024757,1846
-565.7916303618415,1843
-563.164415384135,1891
-560.5379251905453,1797
-557.9121596021815,1874
-555.2871184400748,1844
-552.6628015251767,1903
-550.0392086783606,1883
-547.4163397204204,1801
-544.794194472071,1845
-542.1727727539491,1911
-539.5520743866118,1906
-536.9320991905377,1889
-534.3128469861261,1914
-531.6943175936979,1874
-529.0765108334947,1972
-526.4594265256793,2072
-523.8430644903358,2171
-521.2274245474689,2261
-518.612506517005,2383
-515.9983102187913,2359
-513.3848354725959,2396
-510.77208209810846,2383
-508.16004991493924,2434
-505.5487387426199,2545
-502.9381484006032,2712
-500.3282787082628,2933
-497.71912948489364,2921
-495.1107005497117,2931
-492.5029917218539,2849
-489.8960028203786,2665
-487.28973366426493,2538
-484.68418407241325,2358
-482.07935386364494,2206
-479.47524285670266,2274
-476.87185087025,2142
-474.2691777228715,2124
-471.66722323307334,2182
-469.0659872192821,2139
-466.4654694998459,2150
-463.86566989303384,2112
-461.26658821703614,2158
-458.66822428996414,2115
-456.07057792985,2135
-453.4736489546475,2123
-450.877437182231,2096
-448.28194243039627,2154
-445.68716451686,2099
-443.09310325926003,2095
-440.49975847515555,2092
-437.9071299820263,1981
-435.31521759727354,2064
-432.72402113821954,2100
-430.13354042210767,2156
-427.5437752661022,2119
-424.95472548728867,2066
-422.36639090267386,2070
-419.7787713291855,2143
-417.1918665836721,2194
-414.60567648290385,2231
-412.0202008435715,2187
-409.4354394822874,2209
-406.8513922155845,2223
-404.26805885991723,2184
-401.685439231661,2220
-399.103533147112,2184
-396.522340422488,2184
-393.9418608739278,2119
-391.3620943174908,2079
-388.7830405691583,2103
-386.2046994448317,1934
-383.6270707603344,1827
-381.05015433141045,1702
-378.473949973725,1568
-375.8984575028645,1383
-373.32367673433623,1251
-370.74960748356875,1042
-368.1762495659117,922
-365.60360279663576,837
-363.03166699093265,763
-360.4604419639154,699
-357.8899275306178,619
-355.32012350599507,582
-352.7510297049233,550
-350.1826459421999,532
-347.61497203254316,542
-345.04800779059235,532
-342.4817530309082,549
-339.91620756797226,525
-337.35137121618743,533
-334.7872437898774,543
-332.22382510328725,564
-329.66111497058273,554
-327.09911320585127,506
-324.53781962310075,541
-321.9772340362607,592
-319.4173562591816,592
-316.8581861056348,538
-314.2997233893127,558
-311.7419679238294,558
-309.1849195227194,550
-306.62857799943856,560
-304.0729431673641,572
-301.51801483979375,614
-298.963792829947,566
-296.41027695096386,613
-293.85746701590574,630
-291.3053628377552,641
-288.7539642294155,650
-286.2032710037115,605
-283.65328297338897,595
-281.1039999511146,622
-278.5554217494762,708
-276.007548180983,652
-273.4603790580651,619
-270.9139141930734,646
-268.3681533982807,648
-265.8230964858798,662
-263.27874326798565,621
-260.7350935566336,658
-258.1921471637804,725
-255.6499039013039,746
-253.10836358100266,716
-250.56752601459698,662
-248.02739101372765,694
-245.48795838995704,741
-242.94922795476816,725
-240.41119951956557,694
-237.8738728956746,751
-235.33724789434166,814
-232.80132432673452,763
-230.2661020039418,707
-227.73158073697357,731
-225.19776033676033,821
-222.66464061415422,984
-220.1322213799284,906
-217.60050244477725,813
-215.06948361931552,752
-212.53916471408013,838
-210.00954553952818,832
-207.48062590603843,829
-204.9524056239104,809
-202.4248845033651,908
-199.8980623545441,894
-197.37193898751036,856
-194.84651421224817,891
-192.32178783866232,927
-189.79775967657952,906
-187.27442953574644,1017
-184.7517972258321,1078
-182.2298625564256,981
-179.7086253370378,895
-177.18808537710026,911
-174.66824248596583,955
-172.14909647290835,1049
-169.6306471471229,1072
-167.11289431772548,1002
-164.59583779375328,992
-162.07947738416453,945
-159.5638128978386,1055
-157.04884414357605,1323
-154.53457093009854,1476
-152.02099306604828,1466
-149.50811035998936,1128
-146.99592262040665,1042
-144.48442965570587,1109
-141.97363127421409,1196
-139.46352728417958,1366
-136.95411749377126,1616
-134.44540171107985,1498
-131.93737974411636,1232
-129.43005140081357,1031
-126.92341648902493,1499
-124.41747481652521,2056
-121.91222619101006,2694
-119.40767042009657,3501
-116.90380731132257,4067
-114.40063667214702,4068
-111.8981583099503,3547
-109.3963720320337,2733
-106.89527764561933,2321
-104.39487495785067,2255
-101.89516377579241,3370
-99.39614390642998,4655
-96.89781515667039,5613
-94.40017733334128,5743
-91.90323024319173,5411
-89.40697369289148,5614
-86.91140748903172,6876
-84.41653143812482,7717
-81.92234534660395,7039
-79.42884902082358,5402
-76.93604226705907,6371
-74.4439248915071,10177
-71.95249670028534,15825
-69.46175749943245,19205
-66.97170709490854,19558
-64.48234529259423,18535
-61.99367189829195,15934
-59.50568671772464,11452
-57.01838955653636,8941
-54.53178022029283,10090
-52.045858514480074,12808
-49.560624244506016,13925
-47.07607721569923,16589
-44.59221723330904,18619
-42.10904410250669,18129
-39.62655762838392,15865
-37.14475761595372,13702
-34.66364387015028,12824
-32.18321619582866,12308
-29.70347439776515,11667
-27.224418280657005,12437
-24.74604764912317,13835
-22.26836230770266,20618
-19.7913620608565,37555
-17.315046712966478,65038
-14.83941606833514,65038
-12.36446993118659,65038
-9.89020810566592,65038
-7.416630395839093,65038
-4.94373660569363,65038
-2.471526539137585,65038
-6.821210263296962E-13,65038
2.47084320796705,65038
4.941003281093458,65038
7.410480415786196,65038
9.879274808531363,65038
12.347386655893956,65038
14.814816154518212,65038
17.28156350112681,65038
19.74762889252179,65038
22.21301252558385,65038
24.67771459727237,22768
27.141735304626195,5138
29.605074844762612,3419
32.06773341487792,2884
34.52971121224755,2613
36.99100843422559,3026
39.45162527824516,2657
41.91156194181792,2223
44.370818622535126,2161
46.82939551806646,1986
49.287292826160524,1759
51.74451074464503,2005
54.201049471426245,1909
56.65690920448981,1917
59.112090141899785,1584
61.56659248179983,1511
64.02041642241159,1445
66.4735621620365,1247
68.92602989905402,1277
71.37781983192338,1233
73.82893215918205,1303
76.27936707944684,1324
78.72912479141326,1332
81.17820549385567,1299
83.62660938562783,1611
86.07433666566146,1629
88.5213875329681,1196
90.96776218663751,1144
93.41346082583925,1088
95.85848364982041,1214
98.30283085790859,1357
100.7465026495089,1362
103.18949922410604,1290
105.63182078126385,1324
108.07346752062438,1584
110.51443964190923,1241
112.95473734491827,1125
115.39436082953114,1140
117.83331029570547,1150
120.27158594347827,1069
122.7091879729652,1145
125.1461165843615,1102
127.58237197794062,1066
130.01795435405518,1078
132.4528639131364,1185
134.88710085569494,1330
137.32066538231982,1180
139.75355769367923,1013
142.1857779905207,982
144.61732647366978,1054
147.04820334403132,1080
149.47840880258934,1145
151.90794305040674,1185
154.33680628862487,1346
156.76499871846443,1551
159.19252054122433,1901
161.61937195828352,2096
164.04555317109896,2258
166.47106438120693,2432
168.89590579022217,2907
171.320077599839,3089
173.7435800118302,3309
176.16641322804742,3212
178.58857745042144,3609
181.01007288096173,3944
183.43089972175687,3880
185.85105817497413,3740
188.27054844285988,3852
190.6893707277394,3882
193.10752523201643,3845
195.5250121581745,3925
197.9418317087751,4007
200.3579840864594,4044
202.7734694939469,4198
205.18828813403627,4291
207.6024402096051,4264
210.01592592360964,4512
212.42874547908548,4364
214.84089907914665,4424
217.2523869269868,4438
219.66320922587727,4261
222.0733661791695,4303
224.48285799029293,4379
226.8916848627572,4339
229.29984700014882,4387
231.7073446061355,4342
234.11417788446204,4295
236.520347038953,4282
238.92585227351185,4357
241.33069379212054,4299
243.73487179884035,4389
246.1383864978112,4317
248.541238093252,4392
250.9434267894609,4295
253.34495279081432,4318
255.74581630176783,4257
258.1460175268563,4290
260.54555667069314,4179
262.9444339379703,4277
265.3426495334594,4256
267.7402036620107,4274
270.1370965285529,4198
272.53332833809407,4179
274.9288992957214,4213
277.32380960660055,4194
279.718059475976,4384
282.1116491091717,4324
284.5045787115897,4246
286.89684848871195,4530
289.2884586460981,4368
291.67940938938807,4445
294.0697009242996,4283
296.4593334566299,4438
298.84830719225477,4253
301.23662233712923,4264
303.6242790972866,4271
306.01127767884,4246
308.39761828798066,4210
310.78330113097934,4223
313.16832641418534,4069
315.5526943440269,4109
317.9364051270112,4026
320.3194589697242,4042
322.70185607883093,4018
325.0835966610754,4062
327.4646809232805,3970
329.8451090723478,3988
332.2248813152577,4019
334.6039978590701,3940
336.9824589109231,3884
339.36026467803447,3877
341.7374153677,3918
344.113911187295,3942
346.48975234427337,3941
348.8649390461686,3972
351.2394715005918,3926
353.61334991523415,3949
355.9865744978655,3906
358.35914545633375,3850
360.73106299856715,3898
363.10232733257146,4035
365.47293866643247,3935
367.84289720831396,3878
370.2122031664593,3775
372.5808567491905,3779
374.9488581649083,3833
377.31620762209275,3868
379.6829053293021,3826
382.0489514951745,3690
384.4143463284262,3779
386.7790900378528,3786
389.14318283232853,3734
391.50662492080653,3742
393.86941651231916,3876
396.23155781597745,3808
398.5930490409713,3694
400.9538903965696,3768
403.3140820921202,3746
405.6736243370498,3681
408.03251734086336,3820
410.3907613131465,3709
412.74835646356166,3794
415.10530300185144,3644
417.4616011378372,3650
419.81725108141893,3670
422.1722530425758,3760
424.5266072313656,3654
426.880313857925,3749
429.2333731324701,3694
431.58578526529516,3726
433.9375504667738,3722
436.2886689473588,3700
438.63914091758113,3607
440.9889665880513,3635
443.33814616945835,3573
445.68667987257015,3542
448.03456790823395,3585
450.3818104873759,3508
452.72840782100013,3556
455.07436012019105,3568
457.41966759611057,3610
459.7643304600007,3549
462.10834892318155,3726
464.4517231970525,3626
466.79445349309174,3643
469.1365400228566,3699
471.4779829979826,3629
473.81878263018564,3637
476.15893913125876,3652
478.4984527130747,3753
480.8373235875855,3818
483.17555196682144,3901
485.5131380628919,4087
487.8500820879857,4212
490.1863842543697,4256
492.52204477439034,4662
494.8570638604725,5034
497.1914417251204,5300
499.52517858091653,5644
501.85827464052306,5650
504.19073011668036,5630
506.5225452222086,5402
508.85372017000566,5240
511.18425517304956,5113
513.514150444396,5326
515.8434061971808,6225
518.1720226446176,7382
520.4999999999999,7783
522.8273384766991,7398
525.1540382881666,6812
527.480099647932,6092
529.8055227696037,5436
532.1303078668694,4724
534.454455153496,4193
536.777964843328,4021
539.1008371502907,4096
541.4230722883866,4029
543.744670471698,3984
546.0656319143858,3931
548.3859568306899,3823
550.7056454349294,3945
553.0246979415016,3799
555.3431145648834,3809
557.6608955196306,3856
559.978041020377,3737
562.2945512818363,3706
564.6104265188006,3771
566.9256669461412,3885
569.2402727788082,3748
571.5542442318302,3867
573.8675815203156,3848
576.1802848594508,3895
578.4923544645015,3903
580.8037905508126,3869
583.114593333807,3927
585.4247630289875,3964
587.7342998519354,3782
590.0432040183106,3898
592.3514757438526,3977
594.6591152443794,3774
596.9661227357875,3780
599.2724984340531,3844
601.578242555231,3870
603.8833553154542,3868
606.1878369309362,3943
608.4916876179676,3752
610.7949075929192,3716
613.0974970722403,3735
615.3994562724587,3793
617.7007854101818,3778
620.0014847020951,3796
622.3015543649641,3744
624.6009946156324,3728
626.8998056710224,3651
629.1979877481361,3674
631.4955410640538,3717
633.7924658359349,3741
636.0887622810175,3684
638.3844306166192,3877
640.6794710601358,3732
642.9738838290426,3787
645.2676691408932,3852
647.5608272133207,3769
649.853358264037,3667
652.1452625108324,3761
654.4365401715764,3746
656.7271914642178,3751
659.0172166067838,3805
661.3066158173809,3755
663.5953893141935,3622
665.8835373154867,3698
668.1710600396028,3770
670.4579577049639,3717
672.7442305300709,3714
675.0298787335033,3739
677.3149025339197,3701
679.599302150058,3770
681.8830778007342,3685
684.1662297048437,3791
686.4487580813608,3791
688.7306631493387,3829
691.0119451279091,3726
693.2926042362834,3770
695.5726406937516,3695
697.8520547196814,3686
700.1308465335215,3563
702.4090163547982,3602
704.6865644031171,3678
706.9634908981619,3640
709.2397960596965,3844
711.5154801075631,3758
713.7905432616823,3692
716.0649857420548,3822
718.3388077687592,3658
720.612009561953,3759
722.8845913418733,3716
725.1565533288352,3685
727.427895743234,3763
729.6986188055427,3859
731.9687227363137,3785
734.238207756178,3856
736.5070740858458,3735
738.7753219461066,3802
741.0429515578281,3672
743.3099631419569,3700
745.5763569195191,3789
747.8421331116193,3680
750.1072919394409,3730
752.3718336242467,3788
754.6357583873777,3838
756.8990664502545,3758
759.1617580343765,3744
761.423833361321,3743
763.6852926527457,3732
765.9461361303862,3686
768.206364016058,3743
770.4659765316536,3729
772.7249738991469,3801
774.9833563405886,3861
777.2411240781092,3821
779.4982773339183,3869
781.7548163303044,3834
784.010741289634,3786
786.2660524343538,3981
788.5207499869881,3734
790.7748341701416,3751
793.0283052064964,3828
795.2811633188143,3900
797.5334087299362,3782
799.7850416627813,3844
802.0360623403484,3809
804.2864709857143,3731
806.5362678220353,3858
808.7854530725468,3778
811.0340269605625,3914
813.2819897094754,3862
815.5293415427581,3683
817.77608268396,3752
820.0222133567116,3843
822.2677337847211,3700
824.5126441917765,3800
826.7569448017433,3844
829.0006358385675,3761
831.2437175262731,3766
833.4861900889629,3743
835.7280537508192,3778
837.9693087361026,3752
840.2099552691533,3752
842.4499935743896,3783
844.689423876309,3822
846.9282463994886,3791
849.1664613685833,3833
851.4040690083276,3779
853.6410695435349,3714
855.877463199097,3683
858.1132501999847,3797
860.3484307712487,3806
862.5830051380175,3821
864.8169735254988,3855
867.0503361589791,3792
869.2830932638243,3708
871.5152450654786,3715
873.7467917894654,3850
875.9777336613873,3818
878.2080709069252,3823
880.4378037518389,3906
882.666932421968,3925
884.8954571432301,3874
887.1233781416219,3890
889.3506956432192,3858
891.5774098741766,3938
893.803521060728,3937
896.0290294291852,3886
898.2539352059397,3714
900.4782386174619,3816
902.7019398903011,3778
904.925039251085,3873
907.147536926521,3761
909.3694331433943,3785
911.59072812857,3762
913.8114221089921,3793
916.0315153116827,3821
918.2510079637437,3760
920.4699002923547,3657
922.6881925247761,3776
924.905884888345,3668
927.1229776104793,3652
929.3394709186747,3608
931.555365040506,3550
933.7706602036275,3630
935.9853566357709,3638
938.1994545647489,3688
940.4129542184515,3713
942.6258558248488,3642
944.8381596119883,3656
947.0498658079974,3626
949.2609746410825,3655
951.4714863395287,3624
953.6814011316998,3545
955.8907192460387,3639
958.0994409110671,3638
960.3075663553858,3597
962.5150958076741,3617
964.7220294966913,3566
966.928367651274,3597
969.1341105003388,3615
971.3392582728806,3568
973.5438111979742,3563
975.747769504772,3571
977.9511334225061,3539
980.153903180487,3552
982.3560790081052,3607
984.5576611348289,3457
986.7586497902058,3485
988.9590452038618,3425
991.158847605503,3523
993.3580572249133,3422
995.5566742919558,3446
997.7546990365728,3394
999.952131688785,3357
1002.1489724786926,3337
1004.3452216364743,3265
1006.5408793923874,3281
1008.7359459767691,3251
1010.9304216200343,3314
1013.1243065526781,3222
1015.3176010052733,3236
1017.510305208472,3189
1019.7024193930064,3147
1021.8939437896848,3260
1024.0848786293977,3175
1026.2752241431122,3159
1028.4649805618747,3099
1030.6541481168115,3215
1032.842727039127,3316
1035.0307175601051,3152
1037.2181199111074,3126
1039.4049343235752,3221
1041.591161029029,3270
1043.7768002590683,3194
1045.9618522453698,3142
1048.1463172196918,3158
1050.3301954138697,3093
1052.513487059818,3189
1054.69619238953,3180
1056.8783116350783,3141
1059.0598450286152,3104
1061.2407928023704,3202
1063.4211551886528,3230
1065.6009324198508,3243
1067.780124728432,3127
1069.9587323469414,3198
1072.1367555080046,3108
1074.314194444325,3169
1076.4910493886855,3155
1078.667320573947,3086
1080.843008233051,3159
1083.0181125990161,3103
1085.1926339049414,3162
1087.3665723840027,3136
1089.5399282694575,3161
1091.7127017946405,3039
1093.8848931929647,3032
1096.0565026979243,3070
1098.2275305430899,3095
1100.3979769621128,3085
1102.567842188722,3077
1104.737126456726,3098
1106.9058300000124,2975
1109.0739530525475,3009
1111.2414958483764,2997
1113.4084586216231,2996
1115.5748416064907,2907
1117.7406450372605,2976
1119.9058691482942,3005
1122.0705141740304,2970
1124.2345803489884,2972
1126.3980679077658,2957
1128.5609770850388,3019
1130.7233081155623,3076
1132.8850612341707,3011
1135.0462366757774,3087
1137.2068346753745,2978
1139.3668554680326,2927
1141.526299288901,2968
1143.68516637321,3039
1145.8434569562655,2989
1148.001171273455,2954
1150.158309560244,2986
1152.3148720521767,2864
1154.470858984876,2989
1156.626270594044,2969
1158.7811071154629,2949
1160.9353687849912,2899
1163.089055838569,2892
1165.242168512213,2932
1167.3947070420209,2888
1169.5466716641677,2951
1171.6980626149075,2913
1173.8488801305748,2884
1175.9991244475814,2883
1178.1487958024186,2980
1180.2978944316555,2961
1182.4464205719428,2963
1184.5943744600072,2917
1186.7417563326567,2832
1188.8885664267755,2855
1191.0348049793297,2899
1193.1804722273619,2860
1195.325568407995,2939
1197.4700937584303,2887
1199.614048515948,2886
1201.7574329179074,2897
1203.900247201746,2877
1206.042491604982,2853
1208.1841663652099,2883
1210.3252717201053,2920
1212.465807907422,2855
1214.6057751649923,2914
1216.7451737307279,2996
1218.8840038426192,2950
1221.0222657387353,2937
1223.1599596572241,2902
1225.2970858363137,2878
1227.4336445143094,2882
1229.5696359295966,2923
1231.705060320639,2890
1233.8399179259786,3012
1235.9742089842384,2948
1238.107933734118,2980
1240.2410924143974,2995
1242.373685263935,2886
1244.5057125216676,2989
1246.6371744266116,2935
1248.7680712178621,2826
1250.898403134593,3005
1253.028170416058,2917
1255.1573733015875,2972
1257.2860120305932,2914
1259.4140868425648,2896
1261.54159797707,2896
1263.6685456737569,2953
1265.7949301723515,2934
1267.9207517126597,2877
1270.046010534565,2937
1272.1707068780306,2872
1274.2948409830983,2943
1276.4184130898889,2983
1278.541423438603,2922
1280.6638722695184,2887
1282.785759822993,2890
1284.9070863394636,3062
1287.0278520594447,3000
1289.1480572235314,2927
1291.2677020723963,3023
1293.3867868467923,3032
1295.5053117875495,3087
1297.623277135579,3065
1299.740683131868,3012
1301.8575300174857,3053
1303.973818033578,3083
1306.0895474213703,3109
1308.2047184221678,3051
1310.3193312773528,3062
1312.4333862283888,3009
1314.5468835168163,3029
1316.659823384255,2983
1318.7722060724045,2989
1320.8840318230418,3024
1322.9953008780249,3069
1325.1060134792888,3048
1327.2161698688478,3067
1329.3257702887959,3084
1331.4348149813054,2992
1333.5433041886276,3037
1335.6512381530933,2995
1337.7586171171101,3031
1339.8654413231675,3078
1341.9717110138317,3065
1344.0774264317488,3011
1346.1825878196432,3042
1348.2871954203192,2938
1350.3912494766587,2985
1352.4947502316231,2973
1354.5976979282532,3004
1356.7000928096686,3023
1358.8019351190665,3029
1360.9032250997243,3033
1363.0039629949988,2982
1365.1041490483235,2998
1367.2037835032133,2991
1369.3028666032606,2977
1371.401398592137,3056
1373.4993797135926,3025
1375.5968102114575,3026
1377.6936903296396,2963
1379.7900203121262,2986
1381.8858004029835,2965
1383.9810308463561,3015
1386.075711886469,2930
1388.1698437676241,2972
1390.2634267342032,2943
1392.356461030667,2980
1394.4489469015557,2993
1396.5408845914872,3013
1398.6322743451592,3115
1400.7231164073469,2983
1402.813411022907,2961
1404.903158436773,2972
1406.9923588939578,3053
1409.0810126395531,3068
1411.1691199187303,2955
1413.2566809767386,3007
1415.343696058907,3022
1417.4301654106425,3051
1419.5160892774315,3079
1421.6014679048399,2999
1423.6863015385125,3050
1425.7705904241707,3187
1427.8543348076178,3007
1429.9375349347342,3022
1432.0201910514802,3002
1434.102303403894,3058
1436.1838722380944,3116
1438.2648978002767,3086
1440.3453803367174,3098
1442.4253200937692,3123
1444.5047173178677,3134
1446.5835722555234,3075
1448.6618851533285,3114
1450.739656257952,3130
1452.8168858161434,3093
1454.8935740747306,3087
1456.96972128062,3145
1459.045327680797,3133
1461.120393522327,3240
1463.1949190523528,3122
1465.2689045180973,3088
1467.3423501668608,3212
1469.415256246024,3182
1471.4876230030463,3180
1473.559450685465,3220
1475.6307395408976,3305
1477.7014898170391,3267
1479.771701761665,3188
1481.8413756226287,3279
1483.9105116478618,3281
1485.9791100853772,3289
1488.0471711832643,3296
1490.1146951896926,3310
1492.1816823529098,3318
1494.2481329212433,3380
1496.3140471430984,3335
1498.3794252669609,3344
1500.4442675413939,3285
1502.5085742150404,3394
1504.572345536622,3345
1506.6355817549388,3338
1508.6982831188702,3460
1510.7604498773744,3457
1512.8220822794883,3538
1514.8831805743293,3530
1516.9437450110909,3471
1519.003775839048,3548
1521.0632733075522,3512
1523.1222376660367,3595
1525.1806691640113,3684
1527.2385680510652,3717
1529.2959345768668,3771
1531.3527689911643,3816
1533.4090715437833,3854
1535.4648424846291,3978
1537.5200820636855,3950
1539.5747905310159,3985
1541.6289681367616,4146
1543.6826151311434,4100
1545.7357317644614,4113
1547.7883182870937,4189
1549.8403749494987,4208
1551.8919020022113,4284
1553.9428996958477,4306
1555.9933682811015,4303
1558.0433080087469,4526
1560.0927191296346,4462
1562.1416018946961,4518
1564.1899565549415,4621
1566.2377833614592,4596
1568.2850825654164,4701
1570.3318544180606,4500
1572.3780991707158,4427
1574.423817074788,4346
1576.4690083817595,4281
1578.5136733431923,4150
1580.5578122107272,4008
1582.601425236085,3876
1584.6445126710646,3867
1586.6870747675434,3785
1588.7291117774776,3807
1590.7706239529034,3642
1592.8116115459347,3534
1594.8520748087658,3501
1596.8920139936686,3216
1598.9314293529933,3382
1600.9703211391711,3230
1603.008689604711,3231
1605.0465350022005,3204
1607.0838575843068,3119
1609.1206576037753,3123
1611.1569353134305,3111
1613.1926909661765,3079
1615.2279248149953,3125
1617.2626371129481,3061
1619.2968281131757,3122
1621.3304980688963,3117
1623.3636472334088,3114
1625.39627586009,3070
1627.428384202396,3032
1629.459972513861,3077
1631.4910410480993,3015
1633.5215900588028,2996
1635.551619799744,3004
1637.5811305247717,3047
1639.6101224878166,3027
1641.6385959428862,3105
1643.6665511440683,2985
1645.693988345528,2950
1647.7209078015112,2916
1649.7473097663405,2869
1651.7731944944203,2953
1653.7985622402307,3007
1655.823413258333,2915
1657.847747803366,2840
1659.8715661300494,2975
1661.8948684931793,2898
1663.9176551476316,2891
1665.9399263483624,2952
1667.9616823504057,2862
1669.982923408873,2880
1672.0036497789574,2955
1674.0238617159293,2918
1676.043559475138,2933
1678.0627433120121,2860
1680.081413482059,2891
1682.0995702408654,2849
1684.117213844096,2930
1686.134344547495,2903
1688.1509626068864,2870
1690.1670682781705,2843
1692.182661817329,2861
1694.1977434804217,3023
1696.2123135235875,2946
1698.226372203043,2874
1700.2399197750851,2949
1702.2529564960905,2915
1704.2654826225112,2895
1706.277498410882,2869
1708.2890041178139,2958
1710.2999999999988,2806
1712.3104863142066,2754
1714.3204633172854,2875
1716.329931266163,2822
1718.3388904178469,2863
1720.3473410294214,2925
1722.3552833580516,2843
1724.3627176609807,2868
1726.3696441955308,2937
1728.3760632191033,2810
1730.3819749891782,2870
1732.3873797633146,2807
1734.3922777991502,2862
1736.3966693544012,2841
1738.4005546868639,2794
1740.4039340544127,2860
1742.406807715001,2908
1744.4091759266616,2876
1746.4110389475054,2787
1748.4123970357223,2878
1750.413250449582,2797
1752.4135994474318,2837
1754.4134442876993,2798
1756.4127852288902,2804
1758.4116225295893,2847
1760.4099564484595,2868
1762.407787244244,2790
1764.405115175764,2802
1766.4019405019203,2800
1768.3982634816916,2860
1770.3940843741357,2794
1772.3894034383907,2765
1774.3842209336717,2798
1776.378537119274,2834
1778.372352254571,2845
1780.3656665990156,2775
1782.3584804121397,2858
1784.3507939535534,2785
1786.3426074829463,2765
1788.3339212600863,2858
1790.3247355448211,2804
1792.3150505970766,2835
1794.3048666768573,2778
1796.2941840442477,2859
1798.2830029594106,2803
1800.2713236825884,2808
1802.2591464741004,2829
1804.2464715943465,2817
1806.2332993038058,2793
1808.2196298630352,2839
1810.2054635326708,2859
1812.190800573428,2850
1814.175641246101,2790
1816.1599858115628,2780
1818.1438345307652,2806
1820.127187664738,2844
1822.1100454745924,2838
1824.092408221516,2795
1826.0742761667766,2785
1828.055649571721,2801
1830.0365286977735,2815
1832.0169138064398,2728
1833.9968051593014,2775
1835.9762030180214,2791
1837.9551076443408,2867
1839.9335193000788,2800
1841.9114382471344,2807
1843.888864747485,2749
1845.8657990631878,2687
1847.842241456378,2753
1849.8181921892697,2788
1851.7936515241558,2780
1853.7686197234098,2704
1855.7430970494815,2793
1857.7170837649014,2731
1859.6905801322787,2772
1861.6635864143004,2778
1863.6361028737338,2807
1865.608129773424,2709
1867.5796673762961,2757
1869.5507159453537,2854
1871.521275743678,2750
1873.4913470344313,2696
1875.4609300808534,2684
1877.4300251462632,2760
1879.3986324940588,2791
1881.366752387717,2777
1883.3343850907936,2706
1885.3015308669228,2882
1887.268189979819,2822
1889.2343626932739,2811
1891.2000492711595,2800
1893.1652499774254,2772
1895.1299650761011,2766
1897.0941948312952,2706
1899.0579395071945,2783
1901.0211993680641,2838
1902.98397467825,2775
1904.9462657021745,2732
1906.9080727043415,2778
1908.869395949332,2688
1910.8302357018065,2753
1912.790592226504,2708
1914.7504657882428,2670
1916.7098566519212,2727
1918.6687650825133,2740
1920.6271913450764,2769
1922.5851357047422,2754
1924.5425984267245,2651
1926.499579776314,2719
1928.4560800188833,2812
1930.4120994198802,2705
1932.367638244833,2715
1934.32269675935,2829
1936.2772752291175,2740
1938.231373919899,2759
1940.1849930975404,2807
1942.1381330279637,2724
1944.0907939771696,2742
1946.0429762112412,2769
1947.9946799963363,2734
1949.9459055986945,2770
1951.896653284633,2776
1953.8469233205478,2729
1955.7967159729142,2731
1957.7460315082863,2762
1959.6948701932974,2743
1961.6432322946594,2639
1963.5911180791632,2693
1965.5385278136787,2752
1967.4854617651545,2715
1969.4319202006182,2817
1971.377903387176,2736
1973.3234115920136,2701
1975.268445082395,2749
1977.2130041256642,2658
1979.1570889892423,2726
1981.1006999406304,2687
1983.04383724741,2792
1984.986501177238,2799
1986.928691997853,2708
1988.8704099770712,2685
1990.811655382789,2692
1992.7524284829801,2827
1994.692729545698,2741
1996.6325588390755,2723
1998.5719166313224,2753
2000.5108031907307,2706
2002.4492187856677,2688
2004.387163684583,2749
2006.3246381560011,2703
2008.2616424685298,2764
2010.1981768908527,2667
2012.1342416917332,2664
2014.069837140014,2705
2016.0049635046162,2677
2017.9396210545406,2722
2019.8738100588666,2655
2021.8075307867502,2683
2023.740783507431,2761
2025.6735684902228,2581
2027.6058860045214,2715
2029.5377363198004,2611
2031.4691197056118,2678
2033.4000364315875,2639
2035.3304867674374,2699
2037.260470982952,2709
2039.189989347998,2631
2041.1190421325232,2743
2043.047629606554,2663
2044.9757520401945,2729
2046.9034097036288,2694
2048.8306028671195,2694
2050.7573318010086,2803
2052.683596775716,2706
2054.609398061742,2668
2056.5347359296647,2697
2058.4596106501403,2736
2060.384022493906,2752
2062.3079717317764,2630
2064.231458634646,2698
2066.1544834734873,2671
2068.077046519352,2668
2069.99914804337,2692
2071.9207883167524,2586
2073.8419676107865,2696
2075.7626861968406,2647
2077.6829443463607,2690
2079.6027423308715,2687
2081.522080421977,2600
2083.440958891362,2662
2085.359378010786,2718
2087.2773380520907,2700
2089.194839287196,2662
2091.111881988101,2683
2093.0284664268825,2701
2094.9445928756973,2711
2096.86026160678,2723
2098.775472892446,2684
2100.690227005088,2732
2102.604524217178,2620
2104.5183648012676,2643
2106.431749029985,2706
2108.34467717604,2646
2110.2571495122206,2732
2112.169166311393,2702
2114.080727846503,2726
2115.9918343905747,2806
2117.902486216711,2690
2119.8126835980956,2672
2121.722426807987,2647
2123.6317161197285,2653
2125.5405518067364,2718
2127.448934142509,2703
2129.356863400624,2743
2131.264339854737,2696
2133.1713637785815,2675
2135.077935445972,2748
2136.9840551308002,2772
2138.889723107037,2703
2140.7949396487334,2789
2142.699705030018,2765
2144.6040195250994,2714
2146.507883408264,2692
2148.4112969538774,2826
2150.3142604363848,2815
2152.2167741303097,2793
2154.1188383102535,2673
2156.0204532508997,2703
2157.9216192270064,2785
2159.822336513414,2809
2161.7226053850413,2756
2163.622426116884,2772
2165.5217989840185,2772
2167.4207242616,2779
2169.319202224862,2696
2171.2172331491165,2734
2173.1148173097563,2871
2175.0119549822507,2835
2176.90864644215,2829
2178.8048919650823,2815
2180.7006918267534,2784
2182.596046302952,2863
2184.4909556695407,2755
2186.3854202024645,2753
2188.279440177746,2850
2190.173015871487,2797
2192.066147559868,2736
2193.958835519149,2857
2195.851080025667,2752
2197.7428813558417,2796
2199.6342397861667,2834
2201.5251555932186,2822
2203.415629053651,2843
2205.3056604441986,2854
2207.19525004167,2852
2209.084398122958,2904
2210.9731049650327,2829
2212.861370844941,2882
2214.749196039812,2897
2216.636580826851,2867
2218.523525483344,2905
2220.410030286655,2878
2222.296095514226,2893
2224.1817214435805,2965
2226.066908352319,2834
2227.951656518121,2912
2229.835966218746,2931
2231.71983773203,2854
2233.6032713358913,2903
2235.486267308324,2969
2237.3688259274036,2991
2239.2509474712824,2842
2241.132632218193,2904
2243.013880446447,2959
2244.8946924344323,2920
2246.7750684606203,2857
2248.6550088035574,2900
2250.534513741871,2944
2252.413583554265,2891
2254.292218519526,2922
2256.170418916517,2842
2258.0481850241786,2898
2259.925517121534,2850
2261.8024154876825,2932
2263.678880401803,2899
2265.5549121431536,2895
2267.430510991071,2930
2269.305677224971,2866
2271.180411124348,2867
2273.0547129687766,2882
2274.9285830379076,2908
2276.8020216114737,2728
2278.6750289692845,2837
2280.5476053912294,2871
2282.4197511572766,2957
2284.2914665474727,2965
2286.162751841943,2921
2288.0336073208937,2984
2289.904033264608,2957
2291.774029953448,2954
2293.6435976678554,2811
2295.5127366883517,2847
2297.381447295534,2813
2299.2497297700825,2794
2301.1175843927526,2668
2302.9850114443825,2611
2304.852011205885,2639
2306.7185839582553,2655
2308.5847299825664,2622
2310.4504495599676,2544
2312.3157429716925,2513
2314.1806104990483,2538
2316.0450524234247,2536
2317.9090690262888,2515
2319.772660589186,2443
2321.635827393742,2518
2323.498569721661,2456
2325.3608878547248,2543
2327.2227820747967,2519
2329.0842526638157,2565
2330.945299903803,2482
2332.805924076857,2536
2334.6661254651535,2501
2336.525904350951,2561
2338.3852610165827,2470
2340.244195744464,2492
2342.102708817088,2456
2343.9608005170253,2429
2345.8184711269287,2515
2347.675720929526,2513
2349.532550207628,2466
2351.38895924412,2489
2353.24494832197,2543
2355.100517724223,2601
2356.955667734004,2421
2358.810398634514,2534
2360.664710709037,2445
2362.5186042409337,2516
2364.3720795136437,2487
2366.225136810686,2434
2368.0777764156583,2366
2369.929998612237,2541
2371.7818036841777,2481
2373.633191915315,2575
2375.484163589562,2557
2377.3347189909114,2496
2379.184858403434,2465
2381.03458211128,2521
2382.8838903986775,2513
2384.732783549936,2487
2386.5812618494406,2490
2388.4293255816588,2555
2390.2769750311327,2497
2392.1242104824883,2524
2393.971032220427,2493
2395.8174405297295,2515
2397.6634356952563,2495
2399.509018001947,2521
2401.3541877348193,2548
2403.1989451789705,2590
2405.043290619576,2535
2406.8872243418905,2521
2408.730746631247,2516
2410.5738577730594,2450
2412.4165580528183,2497
2414.258847756095,2612
2416.100727168537,2494
2417.9421965758734,2461
2419.783256263912,2443
2421.623906518538,2492
2423.4641476257157,2469
2425.303979871491,2557
2427.143403541984,2567
2428.9824189233977,2482
2430.821026302012,2472
2432.6592259641866,2532
2434.497018196361,2537
2436.33440328505,2570
2438.171381516851,2470
2440.00795317844,2551
2441.844118556569,2562
2443.6798779380724,2620
2445.5152316098606,2590
2447.3501798589255,2458
2449.1847229723357,2487
2451.0188612372403,2484
2452.8525949408663,2555
2454.6859243705203,2453
2456.518849813587,2554
2458.3513715575314,2560
2460.183489889895,2518
2462.015205098301,2528
2463.8465174704493,2561
2465.67742729412,2510
2467.5079348571717,2477
2469.338040447542,2490
2471.1677443532476,2516
2472.9970468623833,2494
2474.825948263123,2578
2476.6544488437207,2566
2478.482548892508,2489
2480.310248697896,2593
2482.137548548374,2450
2483.9644487325118,2546
2485.790949538956,2490
2487.617051256433,2551
2489.44275417375,2481
2491.26805857979,2455
2493.0929647635157,2518
2494.917473013971,2529
2496.741583620276,2487
2498.5652968716304,2603
2500.3886130573137,2574
2502.2115324666834,2551
2504.0340553891765,2496
2505.856182114308,2453
2507.6779129316733,2505
2509.499248130945,2545
2511.3201880018764,2564
2513.140732834298,2545
2514.9608829181198,2537
2516.780638543331,2532
2518.6,2479
2520.418967578273,2516
2522.237541568376,2539
2524.0557222606144,2616
2525.8735099453706,2563
2527.6909049131086,2433
2529.507907454368,2522
2531.32451785977,2583
2533.140736420014,2625
2534.9565634258774,2618
2536.771999168218,2579
2538.5870439379714,2557
2540.4016980261526,2587
2542.2159617238544,2661
2544.02983532225,2686
2545.8433191125914,2596
2547.656413386209,2613
2549.4691184345115,2595
2551.2814345489874,2709
2553.093362021204,2702
2554.904901142808,2576
2556.716052205523,2646
2558.526815501153,2650
2560.3371913215824,2580
2562.147179958771,2740
2563.956781704761,2585
2565.7659968516705,2660
2567.5748256916986,2638
2569.3832685171224,2719
2571.1913256202984,2628
2572.9989972936614,2654
2574.806283829725,2592
2576.613185521084,2669
2578.4197026604074,2710
2580.2258355404483,2684
2582.031584454035,2676
2583.836949694077,2728
2585.6419315535613,2715
2587.4465303255533,2675
2589.2507463032002,2681
2591.0545797797245,2679
2592.8580310484303,2804
2594.6611004026995,2707
2596.463788135992,2676
2598.266094541849,2692
2600.0680199138874,2740
2601.869564545807,2783
2603.670728731383,2751
2605.4715127644704,2726
2607.2719169390048,2731
2609.071941548998,2759
2610.8715868885433,2755
2612.670853251811,2792
2614.469740933052,2736
2616.268250226594,2779
2618.0663814268455,2716
2619.864134828292,2801
2621.6615107255006,2688
2623.458509413115,2785
2625.2551311858597,2810
2627.0513763385347,2809
2628.8472451660223,2702
2630.6427379632833,2690
2632.4378550253564,2746
2634.232596647359,2729
2636.026963124488,2680
2637.8209547520187,2766
2639.6145718253065,2754
2641.407814639785,2687
2643.200683490966,2674
2644.9931786744414,2759
2646.7853004858807,2706
2648.577049221034,2737
2650.3684251757277,2702
2652.1594286458712,2779
2653.9500599274484,2695
2655.740319316525,2722
2657.5302071092437,2715
2659.3197236018286,2680
2661.10886909058,2565
2662.8976438718782,2678
2664.686048242183,2648
2666.4740824980327,2645
2668.2617469360443,2609
2670.0490418529134,2626
2671.8359675454153,2599
2673.622524310403,2674
2675.408712444811,2626
2677.1945322456495,2613
2678.979984010009,2549
2680.76506803506,2507
2682.5497846180497,2623
2684.334134056306,2542
2686.1181166472343,2564
2687.9017326883213,2594
2689.6849824771293,2499
2691.4678663113013,2586
2693.2503844885596,2533
2695.032537306705,2514
2696.8143250636167,2579
2698.5957480572542,2569
2700.3768065856534,2510
2702.1575009469316,2568
2703.937831439283,2564
2705.717798360982,2494
2707.4974020103837,2511
2709.276642685917,2567
2711.055520686095,2515
2712.834036309506,2463
2714.612189854819,2551
2716.389981620782,2544
2718.1674119062204,2511
2719.944481010041,2564
2721.721189231226,2548
2723.4975368688415,2559
2725.273524222027,2523
2727.0491515900053,2545
2728.824419272075,2527
2730.5993275676146,2522
2732.3738767760838,2544
2734.148067197016,2472
2735.921899130031,2469
2737.6953728748194,2646
2739.468488731156,2585
2741.2412469988926,2510
2743.0136479779617,2555
2744.785691968372,2523
2746.5573792702116,2499
2748.3287101836504,2610
2750.099685008934,2484
2751.870304046388,2524
2753.640567596418,2495
2755.4104759595057,2497
2757.1800294362156,2550
2758.949228327187,2522
2760.7180729331412,2600
2762.486563554877,2438
2764.254700493272,2542
2766.022484049284,2476
2767.789914523947,2495
2769.5569922183786,2601
2771.3237174337705,2485
2773.090090471394,2466
2774.8561116326036,2506
2776.6217812188274,2578
2778.3870995315756,2483
2780.1520668724356,2542
2781.9166835430747,2514
2783.6809498452394,2538
2785.444866080754,2549
2787.2084325515225,2484
2788.971649559527,2541
2790.73451740683,2542
2792.4970363955713,2553
2794.2592068279705,2465
2796.0210290063264,2531
2797.7825032330147,2575
2799.543629810493,2546
2801.304409041296,2596
2803.0648412280366,2530
2804.8249266734088,2528
2806.5846656801846,2602
2808.344058551212,2620
2810.1031055894246,2564
2811.8618070978273,2517
2813.6201633795085,2501
2815.378174737636,2573
2817.1358414754536,2542
2818.893163896285,2537
2820.6501423035334,2561
2822.4067770006814,2584
2824.1630682912883,2530
2825.9190164789957,2599
2827.6746218675207,2540
2829.429884760661,2551
2831.184805462294,2605
2832.9393842763743,2486
2834.693621506936,2513
2836.4475174580916,2484
2838.201072434034,2561
2839.954286739034,2557
2841.707160677441,2570
2843.459694553685,2553
2845.2118886722724,2554
2846.96374333779,2623
2848.7152588549034,2633
2850.4664355283567,2575
2852.217273662973,2533
2853.9677735636546,2542
2855.7179355353833,2566
2857.4677598832186,2537
2859.217246912299,2520
2860.9663969278427,2553
2862.715210235146,2519
2864.4636871395846,2493
2866.211827946614,2566
2867.9596329617652,2533
2869.7071024906536,2542
2871.4542368389684,2467
2873.20103631248,2447
2874.947501217038,2516
2876.6936318585695,2534
2878.4394285430812,2521
2880.1848915766604,2472
2881.9300212654707,2458
2883.6748179157553,2571
2885.4192818338374,2604
2887.1634133261173,2504
2888.907212699077,2503
2890.6506802592744,2515
2892.393816313348,2578
2894.1366211680142,2537
2895.8790951300693,2604
2897.621238506388,2451
2899.363051603925,2571
2901.1045347297118,2538
2902.8456881908596,2536
2904.58651229456,2486
2906.327007348081,2486
2908.067173658772,2537
2909.8070115340597,2584
2911.5465212814497,2537
2913.285703208527,2536
2915.0245576229563,2508
2916.7630848324807,2508
2918.5012851449196,2434
2920.2391588681758,2574
2921.976706310227,2499
2923.7139277791334,2536
2925.4508235830313,2505
2927.187394030137,2481
2928.923639428745,2594
2930.6595600872306,2519
2932.395156314046,2600
2934.1304284177218,2441
2935.8653767068713,2522
2937.6000014901815,2480
2939.3343030764227,2574
2941.068281774442,2556
2942.8019378931644,2540
2944.5352717415976,2576
2946.2682836288236,2558
2948.0009738640065,2508
2949.7333427563885,2596
2951.465390615289,2554
2953.1971177501086,2516
2954.9285244703265,2576
2956.6596110855,2574
2958.3903779052657,2591
2960.1208252393385,2531
2961.8509533975125,2531
2963.5807626896617,2569
2965.3102534257378,2513
2967.0394259157715,2560
2968.768280469873,2517
2970.496817398232,2494
2972.2250370111146,2512
2973.952939618869,2572
2975.6805255319196,2636
2977.4077950607707,2693
2979.134748516006,2541
2980.861386208289,2626
2982.587708448359,2574
2984.313715547037,2570
2986.039407815222,2576
2987.764785563891,2536
2989.489849104102,2582
2991.2145987469908,2525
2992.9390348037705,2655
2994.6631575857346,2529
2996.3869674042576,2531
2998.1104645707887,2482
2999.83364939686,2558
3001.5565221940783,2579
3003.2790832741334,2582
3005.0013329487924,2510
3006.7232715298996,2564
3008.4448993293804,2537
3010.166216659239,2563
3011.887223831558,2554
3013.607921158498,2605
3015.3283089522993,2559
3017.0483875252826,2598
3018.7681571898443,2521
3020.4876182584626,2512
3022.2067710436927,2535
3023.9256158581707,2540
3025.644153014609,2533
3027.362382825801,2608
3029.0803056046193,2586
3030.797921664012,2565
3032.5152313170106,2518
3034.2322348767225,2605
3035.9489326563353,2573
3037.665324969115,2587
3039.3814121284063,2579
3041.097194447633,2517
3042.812672240299,2483
3044.5278458199855,2540
3046.2427155003525,2621
3047.9572815951406,2553
3049.671544418167,2516
3051.38550428333,2505
3053.0991615046073,2499
3054.812516396051,2522
3056.5255692717974,2574
3058.2383204460575,2534
3059.9507702331257,2557
3061.662918947372,2651
3063.3747669032446,2566
3065.0863144152736,2478
3066.7975617980674,2500
3068.508509366309,2646
3070.219157434767,2531
3071.9295063182844,2608
3073.639556331785,2519
3075.3493077902704,2521
3077.058761008821,2592
3078.7679163025964,2569
3080.476773986837,2567
3082.1853343768594,2586
3083.89359778806,2542
3085.6015645359153,2676
3087.3092349359786,2589
3089.016609303884,2624
3090.7236879553434,2670
3092.4304712061476,2576
3094.136959372166,2561
3095.843152769349,2538
3097.5490517137237,2621
3099.2546565213966,2547
3100.959967508554,2528
3102.66498499146,2599
3104.3697092864577,2569
3106.0741407099695,2516
3107.778279578498,2559
3109.482126208622,2527
3111.1856809170004,2636
3112.8889440203716,2598
3114.5919158355528,2581
3116.294596679439,2573
3117.996986869006,2549
3119.6990867213062,2656
3121.4008965534726,2603
3123.102416682717,2624
3124.803647426329,2613
3126.5045891016784,2564
3128.205242026213,2662
3129.90560651746,2666
3131.605682893025,2526
3133.3054714705922,2573
3135.0049725679282,2668
3136.7041865028714,2639
3138.4031135933465,2528
3140.101754157353,2591
3141.800108512971,2605
3143.498176978357,2575
3145.1959598717494,2648
3146.8934575114636,2564
3148.5906702158954,2587
3150.2875983035183,2510
3151.9842420928853,2554
3153.680601902627,2606
3155.376678051456,2570
3157.07247085816,2543
3158.767980641609,2556
3160.463207720748,2598
3162.158152414606,2633
3163.8528150422862,2603
3165.5471959229726,2632
3167.2412953759303,2594
3168.9351137204976,2578
3170.628651276098,2610
3172.3219083622307,2548
3174.014885298474,2619
3175.707582404485,2663
3177.4000000000005,2749
3179.092138404835,2594
3180.7839979388846,2527
3182.47557892212,2524
3184.166881674594,2657
3185.8579065164386,2653
3187.5486537678626,2549
3189.2391237491547,2631
3190.9293167806827,2514
3192.6192331828934,2527
3194.3088732763117,2550
3195.998237381542,2676
3197.687325819268,2621
3199.376138910251,2548
3201.064676975334,2608
3202.7529403354347,2611
3204.4409293115523,2538
3206.1286442247647,2533
3207.816085396229,2614
3209.5032531471825,2625
3211.190147798936,2517
3212.8767696728846,2606
3214.5631190905015,2515
3216.2491963733373,2589
3217.9350018430214,2591
3219.6205358212637,2546
3221.305798629851,2550
3222.990790590651,2501
3224.6755120256103,2569
3226.359963256751,2447
3228.0441446061795,2546
3229.7280563960758,2515
3231.411698948703,2550
3233.0950725863995,2542
3234.778177631587,2566
3236.461014406761,2616
3238.1435832345005,2613
3239.8258844374595,2540
3241.507918338374,2550
3243.1896852600576,2586
3244.8711855254023,2623
3246.552419457381,2667
3248.233387379042,2669
3249.914089613516,2651
3251.59452648401,2600
3253.274698313813,2616
3254.95460542629,2593
3256.6342481448855,2579
3258.313626793125,2553
3259.9927416946084,2581
3261.6715931730196,2558
3263.3501815521176,2553
3265.0285071557437,2509
3266.706570307815,2555
3268.3843713323286,2504
3270.0619105533615,2506
3271.739188295068,2459
3273.4162048816834,2690
3275.0929606375184,2640
3276.769455886966,2566
3278.445690954498,2623
3280.1216661646613,2575
3281.797381842087,2592
3283.4728383114807,2675
3285.1480358976296,2626
3286.8229749253996,2609
3288.4976557197333,2550
3290.172078605655,2616
3291.846243908266,2622
3293.5201519527463,2573
3295.193803064357,2525
3296.8671975684374,2472
3298.5403357904024,2549
3300.21321805575,2530
3301.8858446900567,2615
3303.558216018975,2541
3305.23033236824,2628
3306.9021940636603,2563
3308.57380143113,2623
3310.2451547966184,2572
3311.916254486174,2632
3313.5871008259246,2579
3315.2576941420766,2621
3316.9280347609147,2644
3318.5981230088046,2557
3320.2679592121895,2530
3321.9375436975924,2505
3323.606876791612,2513
3325.27595882093,2555
3326.944790112305,2582
3328.6133709925753,2562
3330.2817017886573,2589
3331.949782827547,2520
3333.617614436319,2565
3335.2851969421245,2591
3336.952530672199,2609
3338.619615953853,2673
3340.286453114475,2589
3341.9530424815357,2599
3343.619384382583,2607
3345.2854791452437,2673
3346.951327097224,2673
3348.6169285663073,2582
3350.2822838803577,2554
3351.947393367319,2630
3353.61225735521,2638
3355.2768761721345,2640
3356.9412501462693,2605
3358.605379605873,2604
3360.2692648792827,2630
3361.9329062949146,2546
3363.596304181263,2554
