CollectionTime,7/9/2024 12:08:10 PM
ExposureUsed,3
CalibratedSpectrum
-962.7078968117929,577
-959.9714848408522,587
-957.2358232597828,623
-954.5009119013725,583
-951.7667505983302,595
-949.0333391832855,586
-946.3006774887896,641
-943.5687653473143,626
-940.837602591253,612
-938.1071890529199,626
-935.3775245645503,599
-932.6486089583007,631
-929.9204420662485,621
-927.1930237203925,647
-924.4663537526524,609
-921.7404319948689,635
-919.0152582788041,650
-916.2908324361409,677
-913.5671542984834,678
-910.8442236973568,624
-908.1220404642074,648
-905.4006044304027,663
-902.679915427231,618
-899.959973285902,608
-897.2407778375464,665
-894.5223289132158,662
-891.8046263438832,698
-889.0876699604426,652
-886.3714595937089,649
-883.6559950744183,633
-880.9412762332282,667
-878.2273029007168,634
-875.5140749073835,630
-872.8015920836489,634
-870.0898542598545,662
-867.3788612662631,618
-864.6686129330585,636
-861.9591090903457,661
-859.2503495681506,681
-856.5423341964203,632
-853.8350628050229,624
-851.1285352237478,608
-848.4227512823054,636
-845.7177108103272,684
-843.0134136373656,655
-840.3098595928943,650
-837.6070485063082,673
-834.9049802069229,682
-832.2036545239757,669
-829.5030712866244,681
-826.8032303239481,675
-824.1041314649472,653
-821.4057745385428,682
-818.7081593735775,655
-816.0112857988148,682
-813.3151536429393,646
-810.6197627345566,693
-807.9251129021936,614
-805.2312039742981,665
-802.5380357792392,657
-799.8456081453069,675
-797.1539209007124,667
-794.462973873588,647
-791.772766891987,663
-789.083299783884,659
-786.3945723771743,668
-783.7065844996748,649
-781.0193359791231,646
-778.3328266431781,663
-775.6470563194197,658
-772.9620248353489,676
-770.2777320183878,635
-767.5941776958798,631
-764.9113616950891,686
-762.2292838432011,715
-759.5479439673222,697
-756.8673418944801,716
-754.1874774516235,696
-751.5083504656222,696
-748.8299607632671,674
-746.15230817127,715
-743.475392516264,701
-740.7992136248035,706
-738.1237713233636,709
-735.4490654383407,703
-732.7750957960521,709
-730.1018622227365,705
-727.4293645445534,727
-724.7576025875837,702
-722.0865761778291,704
-719.4162851412126,719
-716.7467293035781,696
-714.0779084906909,678
-711.409822528237,707
-708.7424712418238,705
-706.0758544569796,701
-703.4099719991541,708
-700.7448236937178,713
-698.0804093659622,738
-695.4167288411002,739
-692.7537819442656,688
-690.0915685005134,753
-687.4300883348199,766
-684.7693412720819,733
-682.1093271371178,719
-679.4500457546669,750
-676.7914969493897,738
-674.1336805458676,735
-671.4765963686034,741
-668.8202442420206,734
-666.1646239904642,738
-663.5097354382001,759
-660.8555784094151,807
-658.2021527282176,779
-655.5494582186366,758
-652.8974947046223,774
-650.2462620100463,784
-647.5957599587009,814
-644.9459883742998,771
-642.2969470804776,782
-639.6486359007902,787
-637.0010546587141,853
-634.3542031776476,825
-631.7080812809096,783
-629.0626887917401,792
-626.4180255333008,792
-623.7740913286734,826
-621.1308860008619,823
-618.4884093727904,842
-615.8466612673046,784
-613.2056415071715,815
-610.5653499150785,793
-607.9257863136347,826
-605.28695052537,823
-602.6488423727357,787
-600.0114616781036,829
-597.3748082637674,805
-594.7388819519412,836
-592.1036825647604,838
-589.4692099242818,890
-586.8354638524829,872
-584.2024441712624,844
-581.5701507024403,876
-578.9385832677575,872
-576.3077416888759,919
-573.6776257873787,887
-571.0482353847704,910
-568.4195703024757,856
-565.7916303618415,913
-563.164415384135,865
-560.5379251905453,878
-557.9121596021815,875
-555.2871184400748,872
-552.6628015251767,913
-550.0392086783606,843
-547.4163397204204,879
-544.794194472071,908
-542.1727727539491,890
-539.5520743866118,922
-536.9320991905377,948
-534.3128469861261,967
-531.6943175936979,957
-529.0765108334947,1020
-526.4594265256793,1044
-523.8430644903358,1131
-521.2274245474689,1358
-518.612506517005,1450
-515.9983102187913,1370
-513.3848354725959,1330
-510.77208209810846,1315
-508.16004991493924,1407
-505.5487387426199,1522
-502.9381484006032,1740
-500.3282787082628,1864
-497.71912948489364,1947
-495.1107005497117,2007
-492.5029917218539,1860
-489.8960028203786,1737
-487.28973366426493,1566
-484.68418407241325,1398
-482.07935386364494,1257
-479.47524285670266,1269
-476.87185087025,1219
-474.2691777228715,1184
-471.66722323307334,1155
-469.0659872192821,1145
-466.4654694998459,1125
-463.86566989303384,1142
-461.26658821703614,1149
-458.66822428996414,1147
-456.07057792985,1134
-453.4736489546475,1087
-450.877437182231,1096
-448.28194243039627,1123
-445.68716451686,1092
-443.09310325926003,1083
-440.49975847515555,1114
-437.9071299820263,1067
-435.31521759727354,1074
-432.72402113821954,1099
-430.13354042210767,1135
-427.5437752661022,1191
-424.95472548728867,1134
-422.36639090267386,1103
-419.7787713291855,1211
-417.1918665836721,1222
-414.60567648290385,1160
-412.0202008435715,1152
-409.4354394822874,1205
-406.8513922155845,1210
-404.26805885991723,1207
-401.685439231661,1190
-399.103533147112,1226
-396.522340422488,1193
-393.9418608739278,1174
-391.3620943174908,1245
-388.7830405691583,1208
-386.2046994448317,1096
-383.6270707603344,1079
-381.05015433141045,1024
-378.473949973725,929
-375.8984575028645,940
-373.32367673433623,871
-370.74960748356875,776
-368.1762495659117,812
-365.60360279663576,697
-363.03166699093265,652
-360.4604419639154,618
-357.8899275306178,572
-355.32012350599507,547
-352.7510297049233,534
-350.1826459421999,497
-347.61497203254316,520
-345.04800779059235,538
-342.4817530309082,561
-339.91620756797226,570
-337.35137121618743,558
-334.7872437898774,564
-332.22382510328725,561
-329.66111497058273,527
-327.09911320585127,517
-324.53781962310075,599
-321.9772340362607,610
-319.4173562591816,597
-316.8581861056348,554
-314.2997233893127,549
-311.7419679238294,510
-309.1849195227194,543
-306.62857799943856,564
-304.0729431673641,581
-301.51801483979375,628
-298.963792829947,570
-296.41027695096386,621
-293.85746701590574,658
-291.3053628377552,682
-288.7539642294155,640
-286.2032710037115,639
-283.65328297338897,617
-281.1039999511146,674
-278.5554217494762,710
-276.007548180983,624
-273.4603790580651,597
-270.9139141930734,625
-268.3681533982807,643
-265.8230964858798,642
-263.27874326798565,652
-260.7350935566336,646
-258.1921471637804,696
-255.6499039013039,714
-253.10836358100266,694
-250.56752601459698,681
-248.02739101372765,705
-245.48795838995704,764
-242.94922795476816,714
-240.41119951956557,701
-237.8738728956746,714
-235.33724789434166,836
-232.80132432673452,773
-230.2661020039418,728
-227.73158073697357,751
-225.19776033676033,787
-222.66464061415422,932
-220.1322213799284,862
-217.60050244477725,826
-215.06948361931552,731
-212.53916471408013,786
-210.00954553952818,820
-207.48062590603843,800
-204.9524056239104,816
-202.4248845033651,944
-199.8980623545441,854
-197.37193898751036,867
-194.84651421224817,935
-192.32178783866232,925
-189.79775967657952,899
-187.27442953574644,989
-184.7517972258321,1035
-182.2298625564256,987
-179.7086253370378,883
-177.18808537710026,970
-174.66824248596583,939
-172.14909647290835,1026
-169.6306471471229,1070
-167.11289431772548,1048
-164.59583779375328,1035
-162.07947738416453,935
-159.5638128978386,1021
-157.04884414357605,1220
-154.53457093009854,1474
-152.02099306604828,1524
-149.50811035998936,1164
-146.99592262040665,995
-144.48442965570587,1060
-141.97363127421409,1065
-139.46352728417958,1375
-136.95411749377126,1614
-134.44540171107985,1551
-131.93737974411636,1196
-129.43005140081357,1103
-126.92341648902493,1553
-124.41747481652521,2001
-121.91222619101006,2531
-119.40767042009657,3397
-116.90380731132257,4111
-114.40063667214702,4397
-111.8981583099503,3586
-109.3963720320337,2667
-106.89527764561933,2214
-104.39487495785067,2190
-101.89516377579241,3200
-99.39614390642998,4393
-96.89781515667039,5400
-94.40017733334128,5529
-91.90323024319173,5789
-89.40697369289148,6166
-86.91140748903172,7448
-84.41653143812482,7808
-81.92234534660395,6623
-79.42884902082358,4596
-76.93604226705907,5893
-74.4439248915071,10403
-71.95249670028534,15929
-69.46175749943245,18793
-66.97170709490854,19009
-64.48234529259423,17905
-61.99367189829195,15549
-59.50568671772464,11520
-57.01838955653636,9179
-54.53178022029283,10481
-52.045858514480074,13421
-49.560624244506016,14512
-47.07607721569923,17101
-44.59221723330904,19007
-42.10904410250669,18499
-39.62655762838392,16327
-37.14475761595372,14415
-34.66364387015028,14175
-32.18321619582866,13090
-29.70347439776515,12043
-27.224418280657005,13134
-24.74604764912317,14568
-22.26836230770266,20776
-19.7913620608565,36829
-17.315046712966478,65038
-14.83941606833514,65038
-12.36446993118659,65038
-9.89020810566592,65038
-7.416630395839093,65038
-4.94373660569363,65038
-2.471526539137585,65038
-6.821210263296962E-13,65038
2.47084320796705,65038
4.941003281093458,65038
7.410480415786196,65038
9.879274808531363,65038
12.347386655893956,65038
14.814816154518212,65038
17.28156350112681,65038
19.74762889252179,65038
22.21301252558385,65038
24.67771459727237,23017
27.141735304626195,5294
29.605074844762612,3815
32.06773341487792,3161
34.52971121224755,2731
36.99100843422559,2948
39.45162527824516,2707
41.91156194181792,2364
44.370818622535126,2223
46.82939551806646,2036
49.287292826160524,1815
51.74451074464503,2121
54.201049471426245,1987
56.65690920448981,1870
59.112090141899785,1599
61.56659248179983,1536
64.02041642241159,1446
66.4735621620365,1346
68.92602989905402,1348
71.37781983192338,1339
73.82893215918205,1336
76.27936707944684,1295
78.72912479141326,1356
81.17820549385567,1397
83.62660938562783,1690
86.07433666566146,1696
88.5213875329681,1267
90.96776218663751,1183
93.41346082583925,1196
95.85848364982041,1222
98.30283085790859,1292
100.7465026495089,1374
103.18949922410604,1306
105.63182078126385,1338
108.07346752062438,1557
110.51443964190923,1220
112.95473734491827,1140
115.39436082953114,1155
117.83331029570547,1195
120.27158594347827,1130
122.7091879729652,1183
125.1461165843615,1120
127.58237197794062,1079
130.01795435405518,1094
132.4528639131364,1262
134.88710085569494,1346
137.32066538231982,1215
139.75355769367923,1043
142.1857779905207,1053
144.61732647366978,1061
147.04820334403132,1014
149.47840880258934,1076
151.90794305040674,1092
154.33680628862487,1281
156.76499871846443,1402
159.19252054122433,1681
161.61937195828352,1782
164.04555317109896,1790
166.47106438120693,1927
168.89590579022217,2187
171.320077599839,2408
173.7435800118302,2521
176.16641322804742,2509
178.58857745042144,2763
181.01007288096173,3037
183.43089972175687,2846
185.85105817497413,2938
188.27054844285988,2841
190.6893707277394,2786
193.10752523201643,2808
195.5250121581745,2828
197.9418317087751,2884
200.3579840864594,2885
202.7734694939469,3027
205.18828813403627,3006
207.6024402096051,3131
210.01592592360964,3246
212.42874547908548,3276
214.84089907914665,3114
217.2523869269868,3210
219.66320922587727,3104
222.0733661791695,3046
224.48285799029293,3160
226.8916848627572,3097
229.29984700014882,3192
231.7073446061355,3108
234.11417788446204,3045
236.520347038953,3002
238.92585227351185,3083
241.33069379212054,3100
243.73487179884035,3178
246.1383864978112,3098
248.541238093252,3174
250.9434267894609,3158
253.34495279081432,3061
255.74581630176783,2953
258.1460175268563,3039
260.54555667069314,3037
262.9444339379703,2976
265.3426495334594,3011
267.7402036620107,3104
270.1370965285529,3062
272.53332833809407,2965
274.9288992957214,3051
277.32380960660055,3007
279.718059475976,2995
282.1116491091717,3061
284.5045787115897,3008
286.89684848871195,3010
289.2884586460981,3093
291.67940938938807,3123
294.0697009242996,3144
296.4593334566299,3041
298.84830719225477,3093
301.23662233712923,3023
303.6242790972866,2999
306.01127767884,2882
308.39761828798066,2858
310.78330113097934,2964
313.16832641418534,2937
315.5526943440269,2789
317.9364051270112,2879
320.3194589697242,2811
322.70185607883093,2902
325.0835966610754,2818
327.4646809232805,2735
329.8451090723478,2702
332.2248813152577,2679
334.6039978590701,2676
336.9824589109231,2715
339.36026467803447,2606
341.7374153677,2593
344.113911187295,2635
346.48975234427337,2614
348.8649390461686,2607
351.2394715005918,2603
353.61334991523415,2643
355.9865744978655,2569
358.35914545633375,2580
360.73106299856715,2602
363.10232733257146,2507
365.47293866643247,2579
367.84289720831396,2550
370.2122031664593,2512
372.5808567491905,2546
374.9488581649083,2560
377.31620762209275,2531
379.6829053293021,2406
382.0489514951745,2465
384.4143463284262,2507
386.7790900378528,2443
389.14318283232853,2481
391.50662492080653,2456
393.86941651231916,2459
396.23155781597745,2487
398.5930490409713,2501
400.9538903965696,2455
403.3140820921202,2399
405.6736243370498,2535
408.03251734086336,2481
410.3907613131465,2382
412.74835646356166,2393
415.10530300185144,2466
417.4616011378372,2423
419.81725108141893,2361
422.1722530425758,2386
424.5266072313656,2381
426.880313857925,2336
429.2333731324701,2427
431.58578526529516,2316
433.9375504667738,2330
436.2886689473588,2358
438.63914091758113,2325
440.9889665880513,2308
443.33814616945835,2267
445.68667987257015,2266
448.03456790823395,2276
450.3818104873759,2313
452.72840782100013,2267
455.07436012019105,2274
457.41966759611057,2346
459.7643304600007,2334
462.10834892318155,2277
464.4517231970525,2370
466.79445349309174,2314
469.1365400228566,2440
471.4779829979826,2411
473.81878263018564,2420
476.15893913125876,2447
478.4984527130747,2507
480.8373235875855,2536
483.17555196682144,2664
485.5131380628919,2727
487.8500820879857,2854
490.1863842543697,3157
492.52204477439034,3482
494.8570638604725,3804
497.1914417251204,4099
499.52517858091653,4293
501.85827464052306,4364
504.19073011668036,4124
506.5225452222086,3980
508.85372017000566,3831
511.18425517304956,3782
513.514150444396,3918
515.8434061971808,4820
518.1720226446176,6042
520.4999999999999,6356
522.8273384766991,6040
525.1540382881666,5577
527.480099647932,4848
529.8055227696037,4081
532.1303078668694,3400
534.454455153496,2856
536.777964843328,2776
539.1008371502907,2695
541.4230722883866,2685
543.744670471698,2614
546.0656319143858,2608
548.3859568306899,2622
550.7056454349294,2650
553.0246979415016,2499
555.3431145648834,2418
557.6608955196306,2457
559.978041020377,2414
562.2945512818363,2486
564.6104265188006,2539
566.9256669461412,2505
569.2402727788082,2480
571.5542442318302,2490
573.8675815203156,2613
576.1802848594508,2599
578.4923544645015,2566
580.8037905508126,2578
583.114593333807,2616
585.4247630289875,2566
587.7342998519354,2549
590.0432040183106,2532
592.3514757438526,2533
594.6591152443794,2528
596.9661227357875,2536
599.2724984340531,2459
601.578242555231,2611
603.8833553154542,2495
606.1878369309362,2559
608.4916876179676,2433
610.7949075929192,2449
613.0974970722403,2395
615.3994562724587,2527
617.7007854101818,2447
620.0014847020951,2450
622.3015543649641,2457
624.6009946156324,2414
626.8998056710224,2503
629.1979877481361,2518
631.4955410640538,2411
633.7924658359349,2468
636.0887622810175,2455
638.3844306166192,2359
640.6794710601358,2465
642.9738838290426,2382
645.2676691408932,2380
647.5608272133207,2525
649.853358264037,2546
652.1452625108324,2378
654.4365401715764,2457
656.7271914642178,2523
659.0172166067838,2433
661.3066158173809,2364
663.5953893141935,2414
665.8835373154867,2403
668.1710600396028,2385
670.4579577049639,2388
672.7442305300709,2420
675.0298787335033,2459
677.3149025339197,2356
679.599302150058,2400
681.8830778007342,2435
684.1662297048437,2372
686.4487580813608,2381
688.7306631493387,2423
691.0119451279091,2381
693.2926042362834,2428
695.5726406937516,2443
697.8520547196814,2464
700.1308465335215,2348
702.4090163547982,2326
704.6865644031171,2380
706.9634908981619,2379
709.2397960596965,2387
711.5154801075631,2373
713.7905432616823,2404
716.0649857420548,2436
718.3388077687592,2459
720.612009561953,2495
722.8845913418733,2398
725.1565533288352,2513
727.427895743234,2425
729.6986188055427,2465
731.9687227363137,2473
734.238207756178,2335
736.5070740858458,2478
738.7753219461066,2484
741.0429515578281,2388
743.3099631419569,2485
745.5763569195191,2352
747.8421331116193,2418
750.1072919394409,2495
752.3718336242467,2448
754.6357583873777,2509
756.8990664502545,2383
759.1617580343765,2525
761.423833361321,2451
763.6852926527457,2498
765.9461361303862,2537
768.206364016058,2577
770.4659765316536,2522
772.7249738991469,2442
774.9833563405886,2577
777.2411240781092,2486
779.4982773339183,2528
781.7548163303044,2480
784.010741289634,2564
786.2660524343538,2676
788.5207499869881,2480
790.7748341701416,2491
793.0283052064964,2543
795.2811633188143,2528
797.5334087299362,2559
799.7850416627813,2594
802.0360623403484,2516
804.2864709857143,2456
806.5362678220353,2581
808.7854530725468,2575
811.0340269605625,2550
813.2819897094754,2577
815.5293415427581,2602
817.77608268396,2490
820.0222133567116,2547
822.2677337847211,2486
824.5126441917765,2503
826.7569448017433,2530
829.0006358385675,2523
831.2437175262731,2619
833.4861900889629,2535
835.7280537508192,2585
837.9693087361026,2448
840.2099552691533,2474
842.4499935743896,2511
844.689423876309,2565
846.9282463994886,2605
849.1664613685833,2554
851.4040690083276,2573
853.6410695435349,2543
855.877463199097,2626
858.1132501999847,2510
860.3484307712487,2559
862.5830051380175,2592
864.8169735254988,2639
867.0503361589791,2598
869.2830932638243,2568
871.5152450654786,2550
873.7467917894654,2590
875.9777336613873,2529
878.2080709069252,2617
880.4378037518389,2654
882.666932421968,2707
884.8954571432301,2646
887.1233781416219,2629
889.3506956432192,2667
891.5774098741766,2654
893.803521060728,2723
896.0290294291852,2585
898.2539352059397,2683
900.4782386174619,2614
902.7019398903011,2609
904.925039251085,2618
907.147536926521,2655
909.3694331433943,2564
911.59072812857,2540
913.8114221089921,2582
916.0315153116827,2480
918.2510079637437,2598
920.4699002923547,2543
922.6881925247761,2541
924.905884888345,2485
927.1229776104793,2586
929.3394709186747,2492
931.555365040506,2466
933.7706602036275,2542
935.9853566357709,2515
938.1994545647489,2444
940.4129542184515,2485
942.6258558248488,2456
944.8381596119883,2522
947.0498658079974,2461
949.2609746410825,2466
951.4714863395287,2460
953.6814011316998,2403
955.8907192460387,2455
958.0994409110671,2416
960.3075663553858,2385
962.5150958076741,2341
964.7220294966913,2387
966.928367651274,2447
969.1341105003388,2472
971.3392582728806,2324
973.5438111979742,2399
975.747769504772,2369
977.9511334225061,2358
980.153903180487,2376
982.3560790081052,2420
984.5576611348289,2336
986.7586497902058,2307
988.9590452038618,2348
991.158847605503,2284
993.3580572249133,2255
995.5566742919558,2309
997.7546990365728,2214
999.952131688785,2157
1002.1489724786926,2159
1004.3452216364743,2085
1006.5408793923874,2173
1008.7359459767691,2155
1010.9304216200343,2137
1013.1243065526781,2212
1015.3176010052733,2177
1017.510305208472,2128
1019.7024193930064,2077
1021.8939437896848,2082
1024.0848786293977,2085
1026.2752241431122,2013
1028.4649805618747,2087
1030.6541481168115,2090
1032.842727039127,2029
1035.0307175601051,2075
1037.2181199111074,2009
1039.4049343235752,1991
1041.591161029029,2106
1043.7768002590683,1999
1045.9618522453698,1963
1048.1463172196918,2011
1050.3301954138697,2035
1052.513487059818,1972
1054.69619238953,2030
1056.8783116350783,1954
1059.0598450286152,2025
1061.2407928023704,2009
1063.4211551886528,1956
1065.6009324198508,2009
1067.780124728432,2007
1069.9587323469414,2016
1072.1367555080046,2006
1074.314194444325,2046
1076.4910493886855,2027
1078.667320573947,1995
1080.843008233051,1958
1083.0181125990161,1986
1085.1926339049414,1963
1087.3665723840027,2013
1089.5399282694575,1946
1091.7127017946405,1963
1093.8848931929647,1919
1096.0565026979243,1962
1098.2275305430899,1986
1100.3979769621128,1914
1102.567842188722,1939
1104.737126456726,1947
1106.9058300000124,2010
1109.0739530525475,1937
1111.2414958483764,1885
1113.4084586216231,1880
1115.5748416064907,1923
1117.7406450372605,1930
1119.9058691482942,1931
1122.0705141740304,1913
1124.2345803489884,1936
1126.3980679077658,1883
1128.5609770850388,1910
1130.7233081155623,1902
1132.8850612341707,1831
1135.0462366757774,1830
1137.2068346753745,1991
1139.3668554680326,1900
1141.526299288901,1838
1143.68516637321,1905
1145.8434569562655,1947
1148.001171273455,1890
1150.158309560244,1888
1152.3148720521767,1900
1154.470858984876,1845
1156.626270594044,1797
1158.7811071154629,1851
1160.9353687849912,1884
1163.089055838569,1879
1165.242168512213,1889
1167.3947070420209,1835
1169.5466716641677,1775
1171.6980626149075,1867
1173.8488801305748,1850
1175.9991244475814,1902
1178.1487958024186,1881
1180.2978944316555,1848
1182.4464205719428,1794
1184.5943744600072,1770
1186.7417563326567,1797
1188.8885664267755,1776
1191.0348049793297,1786
1193.1804722273619,1841
1195.325568407995,1883
1197.4700937584303,1858
1199.614048515948,1848
1201.7574329179074,1848
1203.900247201746,1887
1206.042491604982,1947
1208.1841663652099,1885
1210.3252717201053,1896
1212.465807907422,1862
1214.6057751649923,1922
1216.7451737307279,1892
1218.8840038426192,1912
1221.0222657387353,1869
1223.1599596572241,1836
1225.2970858363137,1909
1227.4336445143094,1898
1229.5696359295966,1904
1231.705060320639,1923
1233.8399179259786,1893
1235.9742089842384,1928
1238.107933734118,1906
1240.2410924143974,1926
1242.373685263935,1901
1244.5057125216676,1871
1246.6371744266116,1976
1248.7680712178621,1919
1250.898403134593,1911
1253.028170416058,1928
1255.1573733015875,1925
1257.2860120305932,1903
1259.4140868425648,1944
1261.54159797707,1990
1263.6685456737569,1924
1265.7949301723515,1936
1267.9207517126597,1919
1270.046010534565,1889
1272.1707068780306,1942
1274.2948409830983,1943
1276.4184130898889,2015
1278.541423438603,1938
1280.6638722695184,1948
1282.785759822993,1935
1284.9070863394636,1969
1287.0278520594447,1922
1289.1480572235314,2045
1291.2677020723963,2004
1293.3867868467923,2057
1295.5053117875495,2032
1297.623277135579,1998
1299.740683131868,2043
1301.8575300174857,2050
1303.973818033578,1963
1306.0895474213703,2092
1308.2047184221678,2008
1310.3193312773528,2113
1312.4333862283888,2064
1314.5468835168163,2054
1316.659823384255,2036
1318.7722060724045,2034
1320.8840318230418,2040
1322.9953008780249,2044
1325.1060134792888,2026
1327.2161698688478,2082
1329.3257702887959,2024
1331.4348149813054,1981
1333.5433041886276,2054
1335.6512381530933,1973
1337.7586171171101,1961
1339.8654413231675,1959
1341.9717110138317,2044
1344.0774264317488,2064
1346.1825878196432,2010
1348.2871954203192,1907
1350.3912494766587,1975
1352.4947502316231,2037
1354.5976979282532,1937
1356.7000928096686,1990
1358.8019351190665,1998
1360.9032250997243,1978
1363.0039629949988,2028
1365.1041490483235,1980
1367.2037835032133,1964
1369.3028666032606,2004
1371.401398592137,1996
1373.4993797135926,2006
1375.5968102114575,2038
1377.6936903296396,1999
1379.7900203121262,1999
1381.8858004029835,2008
1383.9810308463561,1991
1386.075711886469,2013
1388.1698437676241,2037
1390.2634267342032,1955
1392.356461030667,2036
1394.4489469015557,2020
1396.5408845914872,2080
1398.6322743451592,2029
1400.7231164073469,2007
1402.813411022907,2058
1404.903158436773,2085
1406.9923588939578,2134
1409.0810126395531,2111
1411.1691199187303,2042
1413.2566809767386,2087
1415.343696058907,2127
1417.4301654106425,2080
1419.5160892774315,2137
1421.6014679048399,2118
1423.6863015385125,2111
1425.7705904241707,2062
1427.8543348076178,2066
1429.9375349347342,2125
1432.0201910514802,2160
1434.102303403894,2069
1436.1838722380944,2072
1438.2648978002767,2154
1440.3453803367174,2125
1442.4253200937692,2175
1444.5047173178677,2142
1446.5835722555234,2154
1448.6618851533285,2220
1450.739656257952,2194
1452.8168858161434,2158
1454.8935740747306,2138
1456.96972128062,2221
1459.045327680797,2107
1461.120393522327,2100
1463.1949190523528,2311
1465.2689045180973,2181
1467.3423501668608,2282
1469.415256246024,2200
1471.4876230030463,2279
1473.559450685465,2136
1475.6307395408976,2297
1477.7014898170391,2340
1479.771701761665,2349
1481.8413756226287,2258
1483.9105116478618,2443
1485.9791100853772,2283
1488.0471711832643,2325
1490.1146951896926,2369
1492.1816823529098,2330
1494.2481329212433,2342
1496.3140471430984,2382
1498.3794252669609,2389
1500.4442675413939,2433
1502.5085742150404,2439
1504.572345536622,2434
1506.6355817549388,2452
1508.6982831188702,2492
1510.7604498773744,2573
1512.8220822794883,2461
1514.8831805743293,2526
1516.9437450110909,2558
1519.003775839048,2685
1521.0632733075522,2668
1523.1222376660367,2691
1525.1806691640113,2759
1527.2385680510652,2769
1529.2959345768668,2735
1531.3527689911643,2950
1533.4090715437833,2958
1535.4648424846291,2944
1537.5200820636855,3033
1539.5747905310159,3078
1541.6289681367616,3096
1543.6826151311434,3103
1545.7357317644614,3197
1547.7883182870937,3185
1549.8403749494987,3243
1551.8919020022113,3359
1553.9428996958477,3352
1555.9933682811015,3517
1558.0433080087469,3563
1560.0927191296346,3523
1562.1416018946961,3669
1564.1899565549415,3730
1566.2377833614592,3798
1568.2850825654164,3667
1570.3318544180606,3529
1572.3780991707158,3578
1574.423817074788,3410
1576.4690083817595,3329
1578.5136733431923,3127
1580.5578122107272,2956
1582.601425236085,2957
1584.6445126710646,2807
1586.6870747675434,2798
1588.7291117774776,2685
1590.7706239529034,2605
1592.8116115459347,2571
1594.8520748087658,2570
1596.8920139936686,2406
1598.9314293529933,2422
1600.9703211391711,2326
1603.008689604711,2291
1605.0465350022005,2356
1607.0838575843068,2210
1609.1206576037753,2246
1611.1569353134305,2172
1613.1926909661765,2201
1615.2279248149953,2206
1617.2626371129481,2111
1619.2968281131757,2184
1621.3304980688963,2093
1623.3636472334088,2164
1625.39627586009,2133
1627.428384202396,2130
1629.459972513861,2170
1631.4910410480993,2060
1633.5215900588028,2078
1635.551619799744,2105
1637.5811305247717,2125
1639.6101224878166,2058
1641.6385959428862,2041
1643.6665511440683,2021
1645.693988345528,1981
1647.7209078015112,2019
1649.7473097663405,1905
1651.7731944944203,1954
1653.7985622402307,2039
1655.823413258333,1986
1657.847747803366,1987
1659.8715661300494,1935
1661.8948684931793,2058
1663.9176551476316,1990
1665.9399263483624,2006
1667.9616823504057,2054
1669.982923408873,2002
1672.0036497789574,1955
1674.0238617159293,2002
1676.043559475138,1981
1678.0627433120121,2030
1680.081413482059,1944
1682.0995702408654,2008
1684.117213844096,1986
1686.134344547495,1968
1688.1509626068864,1905
1690.1670682781705,1990
1692.182661817329,1986
1694.1977434804217,2020
1696.2123135235875,1955
1698.226372203043,1955
1700.2399197750851,2028
1702.2529564960905,1915
1704.2654826225112,2014
1706.277498410882,1944
1708.2890041178139,2006
1710.2999999999988,1986
1712.3104863142066,1939
1714.3204633172854,2030
1716.329931266163,1974
1718.3388904178469,1972
1720.3473410294214,2014
1722.3552833580516,2015
1724.3627176609807,1970
1726.3696441955308,2039
1728.3760632191033,1971
1730.3819749891782,2011
1732.3873797633146,1982
1734.3922777991502,2001
1736.3966693544012,1872
1738.4005546868639,1944
1740.4039340544127,1987
1742.406807715001,1962
1744.4091759266616,1916
1746.4110389475054,1886
1748.4123970357223,1996
1750.413250449582,1907
1752.4135994474318,1963
1754.4134442876993,1939
1756.4127852288902,1922
1758.4116225295893,2014
1760.4099564484595,2002
1762.407787244244,1927
1764.405115175764,1918
1766.4019405019203,1904
1768.3982634816916,2000
1770.3940843741357,1868
1772.3894034383907,1891
1774.3842209336717,1918
1776.378537119274,1889
1778.372352254571,1930
1780.3656665990156,1947
1782.3584804121397,1881
1784.3507939535534,1909
1786.3426074829463,1950
1788.3339212600863,1903
1790.3247355448211,1935
1792.3150505970766,1990
1794.3048666768573,1971
1796.2941840442477,1916
1798.2830029594106,1950
1800.2713236825884,1913
1802.2591464741004,1943
1804.2464715943465,1917
1806.2332993038058,1870
1808.2196298630352,1938
1810.2054635326708,1955
1812.190800573428,1879
1814.175641246101,1927
1816.1599858115628,1946
1818.1438345307652,1889
1820.127187664738,1899
1822.1100454745924,1957
1824.092408221516,1906
1826.0742761667766,1944
1828.055649571721,1880
1830.0365286977735,1921
1832.0169138064398,1942
1833.9968051593014,1909
1835.9762030180214,1916
1837.9551076443408,1889
1839.9335193000788,1918
1841.9114382471344,1869
1843.888864747485,1895
1845.8657990631878,1914
1847.842241456378,1939
1849.8181921892697,1882
1851.7936515241558,1919
1853.7686197234098,1852
1855.7430970494815,1941
1857.7170837649014,1880
1859.6905801322787,1884
1861.6635864143004,1910
1863.6361028737338,1880
1865.608129773424,1937
1867.5796673762961,1942
1869.5507159453537,1869
1871.521275743678,1891
1873.4913470344313,1837
1875.4609300808534,1885
1877.4300251462632,1931
1879.3986324940588,1917
1881.366752387717,1751
1883.3343850907936,1918
1885.3015308669228,1888
1887.268189979819,1851
1889.2343626932739,1865
1891.2000492711595,1840
1893.1652499774254,1874
1895.1299650761011,1885
1897.0941948312952,1945
1899.0579395071945,1907
1901.0211993680641,1911
1902.98397467825,1858
1904.9462657021745,1950
1906.9080727043415,1859
1908.869395949332,1843
1910.8302357018065,1927
1912.790592226504,1859
1914.7504657882428,1834
1916.7098566519212,1829
1918.6687650825133,1831
1920.6271913450764,1867
1922.5851357047422,1835
1924.5425984267245,1886
1926.499579776314,1882
1928.4560800188833,1907
1930.4120994198802,1927
1932.367638244833,1920
1934.32269675935,1909
1936.2772752291175,1866
1938.231373919899,1874
1940.1849930975404,1888
1942.1381330279637,1851
1944.0907939771696,1890
1946.0429762112412,1916
1947.9946799963363,1743
1949.9459055986945,1881
1951.896653284633,1872
1953.8469233205478,1840
1955.7967159729142,1789
1957.7460315082863,1853
1959.6948701932974,1826
1961.6432322946594,1818
1963.5911180791632,1819
1965.5385278136787,1832
1967.4854617651545,1815
1969.4319202006182,1798
1971.377903387176,1838
1973.3234115920136,1816
1975.268445082395,1826
1977.2130041256642,1858
1979.1570889892423,1845
1981.1006999406304,1854
1983.04383724741,1862
1984.986501177238,1867
1986.928691997853,1842
1988.8704099770712,1828
1990.811655382789,1881
1992.7524284829801,1778
1994.692729545698,1822
1996.6325588390755,1791
1998.5719166313224,1807
2000.5108031907307,1875
2002.4492187856677,1808
2004.387163684583,1852
2006.3246381560011,1777
2008.2616424685298,1772
2010.1981768908527,1786
2012.1342416917332,1815
2014.069837140014,1856
2016.0049635046162,1831
2017.9396210545406,1864
2019.8738100588666,1841
2021.8075307867502,1813
2023.740783507431,1931
2025.6735684902228,1818
2027.6058860045214,1851
2029.5377363198004,1786
2031.4691197056118,1849
2033.4000364315875,1852
2035.3304867674374,1834
2037.260470982952,1900
2039.189989347998,1837
2041.1190421325232,1844
2043.047629606554,1852
2044.9757520401945,1832
2046.9034097036288,1842
2048.8306028671195,1853
2050.7573318010086,1823
2052.683596775716,1801
2054.609398061742,1795
2056.5347359296647,1755
2058.4596106501403,1753
2060.384022493906,1793
2062.3079717317764,1759
2064.231458634646,1829
2066.1544834734873,1878
2068.077046519352,1812
2069.99914804337,1842
2071.9207883167524,1791
2073.8419676107865,1795
2075.7626861968406,1785
2077.6829443463607,1771
2079.6027423308715,1779
2081.522080421977,1766
2083.440958891362,1787
2085.359378010786,1842
2087.2773380520907,1837
2089.194839287196,1852
2091.111881988101,1749
2093.0284664268825,1802
2094.9445928756973,1749
2096.86026160678,1741
2098.775472892446,1783
2100.690227005088,1799
2102.604524217178,1780
2104.5183648012676,1770
2106.431749029985,1767
2108.34467717604,1869
2110.2571495122206,1857
2112.169166311393,1791
2114.080727846503,1743
2115.9918343905747,1768
2117.902486216711,1764
2119.8126835980956,1828
2121.722426807987,1866
2123.6317161197285,1817
2125.5405518067364,1858
2127.448934142509,1870
2129.356863400624,1844
2131.264339854737,1842
2133.1713637785815,1818
2135.077935445972,1843
2136.9840551308002,1924
2138.889723107037,1831
2140.7949396487334,1822
2142.699705030018,1828
2144.6040195250994,1835
2146.507883408264,1813
2148.4112969538774,1817
2150.3142604363848,1849
2152.2167741303097,1900
2154.1188383102535,1875
2156.0204532508997,1806
2157.9216192270064,1907
2159.822336513414,1933
2161.7226053850413,1819
2163.622426116884,1821
2165.5217989840185,1858
2167.4207242616,1886
2169.319202224862,1874
2171.2172331491165,1954
2173.1148173097563,1877
2175.0119549822507,1913
2176.90864644215,1869
2178.8048919650823,1875
2180.7006918267534,1872
2182.596046302952,1896
2184.4909556695407,1927
2186.3854202024645,1966
2188.279440177746,2023
2190.173015871487,1898
2192.066147559868,1969
2193.958835519149,1976
2195.851080025667,1902
2197.7428813558417,1945
2199.6342397861667,1956
2201.5251555932186,2023
2203.415629053651,1968
2205.3056604441986,1964
2207.19525004167,2064
2209.084398122958,1990
2210.9731049650327,1931
2212.861370844941,2020
2214.749196039812,2019
2216.636580826851,1973
2218.523525483344,1996
2220.410030286655,2089
2222.296095514226,2003
2224.1817214435805,2046
2226.066908352319,2002
2227.951656518121,2030
2229.835966218746,1985
2231.71983773203,2026
2233.6032713358913,2018
2235.486267308324,1956
2237.3688259274036,2058
2239.2509474712824,2055
2241.132632218193,1961
2243.013880446447,2033
2244.8946924344323,2011
2246.7750684606203,2047
2248.6550088035574,1991
2250.534513741871,2049
2252.413583554265,2074
2254.292218519526,1974
2256.170418916517,1978
2258.0481850241786,1968
2259.925517121534,2016
2261.8024154876825,1896
2263.678880401803,2015
2265.5549121431536,2061
2267.430510991071,2001
2269.305677224971,2053
2271.180411124348,1962
2273.0547129687766,1991
2274.9285830379076,2025
2276.8020216114737,1925
2278.6750289692845,1902
2280.5476053912294,2032
2282.4197511572766,2018
2284.2914665474727,2069
2286.162751841943,2017
2288.0336073208937,2047
2289.904033264608,2082
2291.774029953448,2056
2293.6435976678554,2060
2295.5127366883517,1980
2297.381447295534,1847
2299.2497297700825,1898
2301.1175843927526,1775
2302.9850114443825,1806
2304.852011205885,1759
2306.7185839582553,1726
2308.5847299825664,1665
2310.4504495599676,1633
2312.3157429716925,1564
2314.1806104990483,1583
2316.0450524234247,1615
2317.9090690262888,1634
2319.772660589186,1645
2321.635827393742,1614
2323.498569721661,1558
2325.3608878547248,1640
2327.2227820747967,1606
2329.0842526638157,1538
2330.945299903803,1678
2332.805924076857,1622
2334.6661254651535,1582
2336.525904350951,1617
2338.3852610165827,1617
2340.244195744464,1607
2342.102708817088,1595
2343.9608005170253,1611
2345.8184711269287,1597
2347.675720929526,1584
2349.532550207628,1562
2351.38895924412,1628
2353.24494832197,1595
2355.100517724223,1567
2356.955667734004,1623
2358.810398634514,1644
2360.664710709037,1653
2362.5186042409337,1574
2364.3720795136437,1601
2366.225136810686,1608
2368.0777764156583,1617
2369.929998612237,1645
2371.7818036841777,1596
2373.633191915315,1628
2375.484163589562,1576
2377.3347189909114,1629
2379.184858403434,1644
2381.03458211128,1671
2382.8838903986775,1616
2384.732783549936,1613
2386.5812618494406,1654
2388.4293255816588,1642
2390.2769750311327,1667
2392.1242104824883,1646
2393.971032220427,1650
2395.8174405297295,1594
2397.6634356952563,1641
2399.509018001947,1590
2401.3541877348193,1614
2403.1989451789705,1672
2405.043290619576,1691
2406.8872243418905,1694
2408.730746631247,1645
2410.5738577730594,1653
2412.4165580528183,1622
2414.258847756095,1594
2416.100727168537,1685
2417.9421965758734,1616
2419.783256263912,1580
2421.623906518538,1637
2423.4641476257157,1644
2425.303979871491,1645
2427.143403541984,1710
2428.9824189233977,1676
2430.821026302012,1692
2432.6592259641866,1609
2434.497018196361,1663
2436.33440328505,1681
2438.171381516851,1619
2440.00795317844,1698
2441.844118556569,1705
2443.6798779380724,1661
2445.5152316098606,1659
2447.3501798589255,1652
2449.1847229723357,1671
2451.0188612372403,1683
2452.8525949408663,1715
2454.6859243705203,1611
2456.518849813587,1612
2458.3513715575314,1666
2460.183489889895,1674
2462.015205098301,1581
2463.8465174704493,1707
2465.67742729412,1653
2467.5079348571717,1674
2469.338040447542,1661
2471.1677443532476,1672
2472.9970468623833,1663
2474.825948263123,1717
2476.6544488437207,1695
2478.482548892508,1640
2480.310248697896,1591
2482.137548548374,1617
2483.9644487325118,1690
2485.790949538956,1642
2487.617051256433,1706
2489.44275417375,1701
2491.26805857979,1728
2493.0929647635157,1645
2494.917473013971,1679
2496.741583620276,1692
2498.5652968716304,1698
2500.3886130573137,1692
2502.2115324666834,1655
2504.0340553891765,1719
2505.856182114308,1671
2507.6779129316733,1722
2509.499248130945,1720
2511.3201880018764,1726
2513.140732834298,1678
2514.9608829181198,1726
2516.780638543331,1666
2518.6,1725
2520.418967578273,1768
2522.237541568376,1663
2524.0557222606144,1728
2525.8735099453706,1731
2527.6909049131086,1670
2529.507907454368,1734
2531.32451785977,1693
2533.140736420014,1673
2534.9565634258774,1677
2536.771999168218,1773
2538.5870439379714,1730
2540.4016980261526,1788
2542.2159617238544,1711
2544.02983532225,1719
2545.8433191125914,1773
2547.656413386209,1745
2549.4691184345115,1772
2551.2814345489874,1762
2553.093362021204,1755
2554.904901142808,1769
2556.716052205523,1720
2558.526815501153,1709
2560.3371913215824,1704
2562.147179958771,1758
2563.956781704761,1727
2565.7659968516705,1818
2567.5748256916986,1733
2569.3832685171224,1796
2571.1913256202984,1708
2572.9989972936614,1839
2574.806283829725,1809
2576.613185521084,1829
2578.4197026604074,1823
2580.2258355404483,1910
2582.031584454035,1803
2583.836949694077,1812
2585.6419315535613,1868
2587.4465303255533,1828
2589.2507463032002,1783
2591.0545797797245,1844
2592.8580310484303,1793
2594.6611004026995,1878
2596.463788135992,1812
2598.266094541849,1892
2600.0680199138874,1864
2601.869564545807,1914
2603.670728731383,1884
2605.4715127644704,1899
2607.2719169390048,1891
2609.071941548998,1915
2610.8715868885433,1948
2612.670853251811,1924
2614.469740933052,1891
2616.268250226594,1961
2618.0663814268455,1889
2619.864134828292,1927
2621.6615107255006,1977
2623.458509413115,1928
2625.2551311858597,1903
2627.0513763385347,1890
2628.8472451660223,1921
2630.6427379632833,1978
2632.4378550253564,1922
2634.232596647359,1888
2636.026963124488,1911
2637.8209547520187,1859
2639.6145718253065,1816
2641.407814639785,1905
2643.200683490966,1881
2644.9931786744414,1873
2646.7853004858807,1873
2648.577049221034,1896
2650.3684251757277,1880
2652.1594286458712,1833
2653.9500599274484,1855
2655.740319316525,1860
2657.5302071092437,1788
2659.3197236018286,1862
2661.10886909058,1834
2662.8976438718782,1811
2664.686048242183,1735
2666.4740824980327,1853
2668.2617469360443,1784
2670.0490418529134,1805
2671.8359675454153,1748
2673.622524310403,1782
2675.408712444811,1811
2677.1945322456495,1792
2678.979984010009,1741
2680.76506803506,1804
2682.5497846180497,1698
2684.334134056306,1720
2686.1181166472343,1713
2687.9017326883213,1775
2689.6849824771293,1714
2691.4678663113013,1782
2693.2503844885596,1747
2695.032537306705,1725
2696.8143250636167,1776
2698.5957480572542,1699
2700.3768065856534,1722
2702.1575009469316,1704
2703.937831439283,1764
2705.717798360982,1708
2707.4974020103837,1708
2709.276642685917,1798
2711.055520686095,1680
2712.834036309506,1714
2714.612189854819,1693
2716.389981620782,1658
2718.1674119062204,1662
2719.944481010041,1692
2721.721189231226,1705
2723.4975368688415,1710
2725.273524222027,1677
2727.0491515900053,1686
2728.824419272075,1679
2730.5993275676146,1710
2732.3738767760838,1658
2734.148067197016,1653
2735.921899130031,1713
2737.6953728748194,1767
2739.468488731156,1709
2741.2412469988926,1725
2743.0136479779617,1696
2744.785691968372,1675
2746.5573792702116,1675
2748.3287101836504,1686
2750.099685008934,1665
2751.870304046388,1697
2753.640567596418,1702
2755.4104759595057,1661
2757.1800294362156,1703
2758.949228327187,1713
2760.7180729331412,1739
2762.486563554877,1709
2764.254700493272,1681
2766.022484049284,1726
2767.789914523947,1686
2769.5569922183786,1668
2771.3237174337705,1693
2773.090090471394,1710
2774.8561116326036,1711
2776.6217812188274,1666
2778.3870995315756,1698
2780.1520668724356,1673
2781.9166835430747,1762
2783.6809498452394,1697
2785.444866080754,1755
2787.2084325515225,1771
2788.971649559527,1719
2790.73451740683,1749
2792.4970363955713,1680
2794.2592068279705,1667
2796.0210290063264,1713
2797.7825032330147,1692
2799.543629810493,1667
2801.304409041296,1677
2803.0648412280366,1656
2804.8249266734088,1687
2806.5846656801846,1731
2808.344058551212,1769
2810.1031055894246,1727
2811.8618070978273,1745
2813.6201633795085,1748
2815.378174737636,1736
2817.1358414754536,1646
2818.893163896285,1738
2820.6501423035334,1654
2822.4067770006814,1663
2824.1630682912883,1710
2825.9190164789957,1688
2827.6746218675207,1754
2829.429884760661,1683
2831.184805462294,1685
2832.9393842763743,1760
2834.693621506936,1716
2836.4475174580916,1679
2838.201072434034,1682
2839.954286739034,1645
2841.707160677441,1714
2843.459694553685,1738
2845.2118886722724,1754
2846.96374333779,1724
2848.7152588549034,1742
2850.4664355283567,1650
2852.217273662973,1755
2853.9677735636546,1705
2855.7179355353833,1763
2857.4677598832186,1766
2859.217246912299,1825
2860.9663969278427,1706
2862.715210235146,1707
2864.4636871395846,1651
2866.211827946614,1775
2867.9596329617652,1686
2869.7071024906536,1707
2871.4542368389684,1723
2873.20103631248,1723
2874.947501217038,1734
2876.6936318585695,1702
2878.4394285430812,1740
2880.1848915766604,1698
2881.9300212654707,1739
2883.6748179157553,1741
2885.4192818338374,1707
2887.1634133261173,1712
2888.907212699077,1711
2890.6506802592744,1748
2892.393816313348,1749
2894.1366211680142,1702
2895.8790951300693,1773
2897.621238506388,1721
2899.363051603925,1735
2901.1045347297118,1674
2902.8456881908596,1674
2904.58651229456,1716
2906.327007348081,1640
2908.067173658772,1738
2909.8070115340597,1729
2911.5465212814497,1667
2913.285703208527,1767
2915.0245576229563,1684
2916.7630848324807,1676
2918.5012851449196,1645
2920.2391588681758,1744
2921.976706310227,1657
2923.7139277791334,1677
2925.4508235830313,1752
2927.187394030137,1708
2928.923639428745,1734
2930.6595600872306,1714
2932.395156314046,1704
2934.1304284177218,1676
2935.8653767068713,1671
2937.6000014901815,1673
2939.3343030764227,1782
2941.068281774442,1729
2942.8019378931644,1709
2944.5352717415976,1767
2946.2682836288236,1716
2948.0009738640065,1717
2949.7333427563885,1713
2951.465390615289,1750
2953.1971177501086,1681
2954.9285244703265,1726
2956.6596110855,1733
2958.3903779052657,1698
2960.1208252393385,1696
2961.8509533975125,1725
2963.5807626896617,1790
2965.3102534257378,1724
2967.0394259157715,1672
2968.768280469873,1731
2970.496817398232,1704
2972.2250370111146,1740
2973.952939618869,1778
2975.6805255319196,1771
2977.4077950607707,1788
2979.134748516006,1789
2980.861386208289,1817
2982.587708448359,1800
2984.313715547037,1739
2986.039407815222,1803
2987.764785563891,1753
2989.489849104102,1717
2991.2145987469908,1758
2992.9390348037705,1773
2994.6631575857346,1751
2996.3869674042576,1708
2998.1104645707887,1684
2999.83364939686,1752
3001.5565221940783,1733
3003.2790832741334,1730
3005.0013329487924,1713
3006.7232715298996,1716
3008.4448993293804,1753
3010.166216659239,1771
3011.887223831558,1682
3013.607921158498,1754
3015.3283089522993,1690
3017.0483875252826,1709
3018.7681571898443,1779
3020.4876182584626,1726
3022.2067710436927,1733
3023.9256158581707,1697
3025.644153014609,1771
3027.362382825801,1655
3029.0803056046193,1739
3030.797921664012,1718
3032.5152313170106,1738
3034.2322348767225,1698
3035.9489326563353,1671
3037.665324969115,1762
3039.3814121284063,1707
3041.097194447633,1698
3042.812672240299,1693
3044.5278458199855,1727
3046.2427155003525,1673
3047.9572815951406,1719
3049.671544418167,1644
3051.38550428333,1689
3053.0991615046073,1769
3054.812516396051,1692
3056.5255692717974,1675
3058.2383204460575,1717
3059.9507702331257,1772
3061.662918947372,1631
3063.3747669032446,1731
3065.0863144152736,1660
3066.7975617980674,1732
3068.508509366309,1717
3070.219157434767,1765
3071.9295063182844,1733
3073.639556331785,1685
3075.3493077902704,1749
3077.058761008821,1746
3078.7679163025964,1686
3080.476773986837,1682
3082.1853343768594,1727
3083.89359778806,1705
3085.6015645359153,1728
3087.3092349359786,1695
3089.016609303884,1636
3090.7236879553434,1749
3092.4304712061476,1695
3094.136959372166,1773
3095.843152769349,1737
3097.5490517137237,1747
3099.2546565213966,1834
3100.959967508554,1697
3102.66498499146,1731
3104.3697092864577,1719
3106.0741407099695,1727
3107.778279578498,1711
3109.482126208622,1671
3111.1856809170004,1714
3112.8889440203716,1730
3114.5919158355528,1681
3116.294596679439,1664
3117.996986869006,1665
3119.6990867213062,1684
3121.4008965534726,1737
3123.102416682717,1719
3124.803647426329,1785
3126.5045891016784,1730
3128.205242026213,1726
3129.90560651746,1732
3131.605682893025,1781
3133.3054714705922,1764
3135.0049725679282,1674
3136.7041865028714,1678
3138.4031135933465,1677
3140.101754157353,1716
3141.800108512971,1718
3143.498176978357,1666
3145.1959598717494,1717
3146.8934575114636,1761
3148.5906702158954,1676
3150.2875983035183,1702
3151.9842420928853,1709
3153.680601902627,1682
3155.376678051456,1676
3157.07247085816,1693
3158.767980641609,1744
3160.463207720748,1723
3162.158152414606,1670
3163.8528150422862,1714
3165.5471959229726,1712
3167.2412953759303,1717
3168.9351137204976,1759
3170.628651276098,1739
3172.3219083622307,1675
3174.014885298474,1671
3175.707582404485,1748
3177.4000000000005,1733
3179.092138404835,1738
3180.7839979388846,1727
3182.47557892212,1731
3184.166881674594,1727
3185.8579065164386,1763
3187.5486537678626,1720
3189.2391237491547,1757
3190.9293167806827,1702
3192.6192331828934,1706
3194.3088732763117,1687
3195.998237381542,1685
3197.687325819268,1714
3199.376138910251,1695
3201.064676975334,1752
3202.7529403354347,1683
3204.4409293115523,1688
3206.1286442247647,1685
3207.816085396229,1684
3209.5032531471825,1638
3211.190147798936,1652
3212.8767696728846,1686
3214.5631190905015,1740
3216.2491963733373,1674
3217.9350018430214,1712
3219.6205358212637,1691
3221.305798629851,1631
3222.990790590651,1661
3224.6755120256103,1645
3226.359963256751,1637
3228.0441446061795,1659
3229.7280563960758,1627
3231.411698948703,1652
3233.0950725863995,1654
3234.778177631587,1709
3236.461014406761,1713
3238.1435832345005,1708
3239.8258844374595,1709
3241.507918338374,1815
3243.1896852600576,1721
3244.8711855254023,1740
3246.552419457381,1682
3248.233387379042,1722
3249.914089613516,1666
3251.59452648401,1651
3253.274698313813,1752
3254.95460542629,1703
3256.6342481448855,1686
3258.313626793125,1647
3259.9927416946084,1652
3261.6715931730196,1648
3263.3501815521176,1678
3265.0285071557437,1682
3266.706570307815,1681
3268.3843713323286,1744
3270.0619105533615,1684
3271.739188295068,1646
3273.4162048816834,1687
3275.0929606375184,1651
3276.769455886966,1770
3278.445690954498,1671
3280.1216661646613,1665
3281.797381842087,1735
3283.4728383114807,1706
3285.1480358976296,1675
3286.8229749253996,1688
3288.4976557197333,1693
3290.172078605655,1684
3291.846243908266,1639
3293.5201519527463,1715
3295.193803064357,1651
3296.8671975684374,1662
3298.5403357904024,1653
3300.21321805575,1663
3301.8858446900567,1669
3303.558216018975,1643
3305.23033236824,1711
3306.9021940636603,1732
3308.57380143113,1732
3310.2451547966184,1634
3311.916254486174,1708
3313.5871008259246,1743
3315.2576941420766,1712
3316.9280347609147,1712
3318.5981230088046,1684
3320.2679592121895,1694
3321.9375436975924,1659
3323.606876791612,1683
3325.27595882093,1669
3326.944790112305,1681
3328.6133709925753,1622
3330.2817017886573,1609
3331.949782827547,1621
3333.617614436319,1657
3335.2851969421245,1655
3336.952530672199,1649
3338.619615953853,1722
3340.286453114475,1660
3341.9530424815357,1663
3343.619384382583,1714
3345.2854791452437,1691
3346.951327097224,1713
3348.6169285663073,1716
3350.2822838803577,1684
3351.947393367319,1738
3353.61225735521,1675
3355.2768761721345,1683
3356.9412501462693,1661
3358.605379605873,1689
3360.2692648792827,1686
3361.9329062949146,1744
3363.596304181263,1697
