CollectionTime,7/9/2024 12:09:26 PM
ExposureUsed,3
CalibratedSpectrum
-962.7078968117929,567
-959.9714848408522,626
-957.2358232597828,646
-954.5009119013725,650
-951.7667505983302,617
-949.0333391832855,600
-946.3006774887896,668
-943.5687653473143,660
-940.837602591253,648
-938.1071890529199,652
-935.3775245645503,655
-932.6486089583007,643
-929.9204420662485,671
-927.1930237203925,669
-924.4663537526524,612
-921.7404319948689,697
-919.0152582788041,661
-916.2908324361409,709
-913.5671542984834,681
-910.8442236973568,648
-908.1220404642074,659
-905.4006044304027,659
-902.679915427231,693
-899.959973285902,640
-897.2407778375464,668
-894.5223289132158,679
-891.8046263438832,684
-889.0876699604426,662
-886.3714595937089,666
-883.6559950744183,658
-880.9412762332282,664
-878.2273029007168,669
-875.5140749073835,655
-872.8015920836489,663
-870.0898542598545,681
-867.3788612662631,654
-864.6686129330585,686
-861.9591090903457,677
-859.2503495681506,677
-856.5423341964203,660
-853.8350628050229,673
-851.1285352237478,643
-848.4227512823054,643
-845.7177108103272,655
-843.0134136373656,708
-840.3098595928943,674
-837.6070485063082,704
-834.9049802069229,665
-832.2036545239757,661
-829.5030712866244,669
-826.8032303239481,684
-824.1041314649472,690
-821.4057745385428,722
-818.7081593735775,695
-816.0112857988148,670
-813.3151536429393,654
-810.6197627345566,705
-807.9251129021936,632
-805.2312039742981,678
-802.5380357792392,704
-799.8456081453069,692
-797.1539209007124,705
-794.462973873588,684
-791.772766891987,709
-789.083299783884,719
-786.3945723771743,714
-783.7065844996748,697
-781.0193359791231,661
-778.3328266431781,698
-775.6470563194197,662
-772.9620248353489,673
-770.2777320183878,658
-767.5941776958798,666
-764.9113616950891,669
-762.2292838432011,687
-759.5479439673222,728
-756.8673418944801,702
-754.1874774516235,723
-751.5083504656222,677
-748.8299607632671,701
-746.15230817127,742
-743.475392516264,712
-740.7992136248035,739
-738.1237713233636,693
-735.4490654383407,664
-732.7750957960521,712
-730.1018622227365,719
-727.4293645445534,730
-724.7576025875837,701
-722.0865761778291,720
-719.4162851412126,705
-716.7467293035781,735
-714.0779084906909,738
-711.409822528237,735
-708.7424712418238,733
-706.0758544569796,744
-703.4099719991541,756
-700.7448236937178,728
-698.0804093659622,747
-695.4167288411002,762
-692.7537819442656,717
-690.0915685005134,758
-687.4300883348199,718
-684.7693412720819,720
-682.1093271371178,731
-679.4500457546669,740
-676.7914969493897,763
-674.1336805458676,764
-671.4765963686034,697
-668.8202442420206,739
-666.1646239904642,762
-663.5097354382001,759
-660.8555784094151,764
-658.2021527282176,730
-655.5494582186366,791
-652.8974947046223,765
-650.2462620100463,753
-647.5957599587009,747
-644.9459883742998,738
-642.2969470804776,770
-639.6486359007902,852
-637.0010546587141,784
-634.3542031776476,793
-631.7080812809096,735
-629.0626887917401,753
-626.4180255333008,774
-623.7740913286734,759
-621.1308860008619,836
-618.4884093727904,784
-615.8466612673046,852
-613.2056415071715,793
-610.5653499150785,807
-607.9257863136347,785
-605.28695052537,837
-602.6488423727357,814
-600.0114616781036,841
-597.3748082637674,767
-594.7388819519412,823
-592.1036825647604,862
-589.4692099242818,851
-586.8354638524829,865
-584.2024441712624,836
-581.5701507024403,828
-578.9385832677575,839
-576.3077416888759,831
-573.6776257873787,875
-571.0482353847704,819
-568.4195703024757,872
-565.7916303618415,873
-563.164415384135,874
-560.5379251905453,863
-557.9121596021815,817
-555.2871184400748,835
-552.6628015251767,892
-550.0392086783606,881
-547.4163397204204,878
-544.794194472071,908
-542.1727727539491,828
-539.5520743866118,910
-536.9320991905377,886
-534.3128469861261,941
-531.6943175936979,938
-529.0765108334947,989
-526.4594265256793,1052
-523.8430644903358,1142
-521.2274245474689,1238
-518.612506517005,1390
-515.9983102187913,1348
-513.3848354725959,1384
-510.77208209810846,1272
-508.16004991493924,1326
-505.5487387426199,1483
-502.9381484006032,1689
-500.3282787082628,1852
-497.71912948489364,1915
-495.1107005497117,1926
-492.5029917218539,1796
-489.8960028203786,1653
-487.28973366426493,1525
-484.68418407241325,1393
-482.07935386364494,1326
-479.47524285670266,1199
-476.87185087025,1201
-474.2691777228715,1188
-471.66722323307334,1154
-469.0659872192821,1154
-466.4654694998459,1102
-463.86566989303384,1054
-461.26658821703614,1135
-458.66822428996414,1146
-456.07057792985,1103
-453.4736489546475,1106
-450.877437182231,1123
-448.28194243039627,1063
-445.68716451686,1054
-443.09310325926003,988
-440.49975847515555,1045
-437.9071299820263,1046
-435.31521759727354,1035
-432.72402113821954,1107
-430.13354042210767,1128
-427.5437752661022,1145
-424.95472548728867,1045
-422.36639090267386,1116
-419.7787713291855,1099
-417.1918665836721,1127
-414.60567648290385,1190
-412.0202008435715,1131
-409.4354394822874,1181
-406.8513922155845,1186
-404.26805885991723,1141
-401.685439231661,1169
-399.103533147112,1134
-396.522340422488,1121
-393.9418608739278,1157
-391.3620943174908,1166
-388.7830405691583,1139
-386.2046994448317,1032
-383.6270707603344,1075
-381.05015433141045,1013
-378.473949973725,974
-375.8984575028645,872
-373.32367673433623,811
-370.74960748356875,751
-368.1762495659117,712
-365.60360279663576,682
-363.03166699093265,644
-360.4604419639154,580
-357.8899275306178,540
-355.32012350599507,561
-352.7510297049233,538
-350.1826459421999,516
-347.61497203254316,519
-345.04800779059235,505
-342.4817530309082,543
-339.91620756797226,545
-337.35137121618743,543
-334.7872437898774,528
-332.22382510328725,521
-329.66111497058273,520
-327.09911320585127,507
-324.53781962310075,565
-321.9772340362607,602
-319.4173562591816,535
-316.8581861056348,519
-314.2997233893127,533
-311.7419679238294,542
-309.1849195227194,518
-306.62857799943856,544
-304.0729431673641,593
-301.51801483979375,595
-298.963792829947,569
-296.41027695096386,625
-293.85746701590574,645
-291.3053628377552,642
-288.7539642294155,640
-286.2032710037115,601
-283.65328297338897,618
-281.1039999511146,638
-278.5554217494762,724
-276.007548180983,676
-273.4603790580651,634
-270.9139141930734,699
-268.3681533982807,691
-265.8230964858798,685
-263.27874326798565,682
-260.7350935566336,682
-258.1921471637804,742
-255.6499039013039,713
-253.10836358100266,661
-250.56752601459698,648
-248.02739101372765,675
-245.48795838995704,738
-242.94922795476816,696
-240.41119951956557,690
-237.8738728956746,769
-235.33724789434166,868
-232.80132432673452,827
-230.2661020039418,728
-227.73158073697357,710
-225.19776033676033,839
-222.66464061415422,898
-220.1322213799284,848
-217.60050244477725,772
-215.06948361931552,719
-212.53916471408013,820
-210.00954553952818,797
-207.48062590603843,721
-204.9524056239104,750
-202.4248845033651,834
-199.8980623545441,832
-197.37193898751036,850
-194.84651421224817,904
-192.32178783866232,918
-189.79775967657952,879
-187.27442953574644,984
-184.7517972258321,983
-182.2298625564256,960
-179.7086253370378,867
-177.18808537710026,860
-174.66824248596583,885
-172.14909647290835,1003
-169.6306471471229,1109
-167.11289431772548,1017
-164.59583779375328,1022
-162.07947738416453,966
-159.5638128978386,1102
-157.04884414357605,1210
-154.53457093009854,1401
-152.02099306604828,1453
-149.50811035998936,1116
-146.99592262040665,1072
-144.48442965570587,1167
-141.97363127421409,1252
-139.46352728417958,1333
-136.95411749377126,1508
-134.44540171107985,1523
-131.93737974411636,1108
-129.43005140081357,1033
-126.92341648902493,1601
-124.41747481652521,2047
-121.91222619101006,2724
-119.40767042009657,3315
-116.90380731132257,3932
-114.40063667214702,4143
-111.8981583099503,3464
-109.3963720320337,2591
-106.89527764561933,2266
-104.39487495785067,2361
-101.89516377579241,3447
-99.39614390642998,4782
-96.89781515667039,5775
-94.40017733334128,5967
-91.90323024319173,5423
-89.40697369289148,4884
-86.91140748903172,5602
-84.41653143812482,6531
-81.92234534660395,6388
-79.42884902082358,5487
-76.93604226705907,6106
-74.4439248915071,9390
-71.95249670028534,13807
-69.46175749943245,16385
-66.97170709490854,17196
-64.48234529259423,16082
-61.99367189829195,14061
-59.50568671772464,10513
-57.01838955653636,8532
-54.53178022029283,10244
-52.045858514480074,12159
-49.560624244506016,13349
-47.07607721569923,16312
-44.59221723330904,17355
-42.10904410250669,15795
-39.62655762838392,13709
-37.14475761595372,11429
-34.66364387015028,10151
-32.18321619582866,9756
-29.70347439776515,10192
-27.224418280657005,11737
-24.74604764912317,13619
-22.26836230770266,20222
-19.7913620608565,37007
-17.315046712966478,65038
-14.83941606833514,65038
-12.36446993118659,65038
-9.89020810566592,65038
-7.416630395839093,65038
-4.94373660569363,65038
-2.471526539137585,65038
-6.821210263296962E-13,65038
2.47084320796705,65038
4.941003281093458,65038
7.410480415786196,65038
9.879274808531363,65038
12.347386655893956,65038
14.814816154518212,65038
17.28156350112681,65038
19.74762889252179,65038
22.21301252558385,65038
24.67771459727237,22132
27.141735304626195,4996
29.605074844762612,3180
32.06773341487792,2574
34.52971121224755,2282
36.99100843422559,2826
39.45162527824516,2557
41.91156194181792,2156
44.370818622535126,2001
46.82939551806646,1803
49.287292826160524,1738
51.74451074464503,1654
54.201049471426245,1520
56.65690920448981,1773
59.112090141899785,1411
61.56659248179983,1370
64.02041642241159,1297
66.4735621620365,1266
68.92602989905402,1276
71.37781983192338,1209
73.82893215918205,1235
76.27936707944684,1331
78.72912479141326,1396
81.17820549385567,1359
83.62660938562783,1498
86.07433666566146,1313
88.5213875329681,1083
90.96776218663751,1142
93.41346082583925,1070
95.85848364982041,1243
98.30283085790859,1487
100.7465026495089,1458
103.18949922410604,1288
105.63182078126385,1230
108.07346752062438,1402
110.51443964190923,1148
112.95473734491827,1156
115.39436082953114,1171
117.83331029570547,1096
120.27158594347827,1082
122.7091879729652,1198
125.1461165843615,1200
127.58237197794062,1248
130.01795435405518,1202
132.4528639131364,1287
134.88710085569494,1196
137.32066538231982,1053
139.75355769367923,918
142.1857779905207,963
144.61732647366978,1000
147.04820334403132,1113
149.47840880258934,1087
151.90794305040674,1098
154.33680628862487,1151
156.76499871846443,1347
159.19252054122433,1569
161.61937195828352,1685
164.04555317109896,1893
166.47106438120693,1957
168.89590579022217,2279
171.320077599839,2399
173.7435800118302,2434
176.16641322804742,2502
178.58857745042144,2696
181.01007288096173,3076
183.43089972175687,3053
185.85105817497413,2901
188.27054844285988,2863
190.6893707277394,2720
193.10752523201643,2791
195.5250121581745,2846
197.9418317087751,2874
200.3579840864594,2979
202.7734694939469,3073
205.18828813403627,3029
207.6024402096051,3198
210.01592592360964,3258
212.42874547908548,3272
214.84089907914665,3266
217.2523869269868,3195
219.66320922587727,3159
222.0733661791695,3149
224.48285799029293,3211
226.8916848627572,3053
229.29984700014882,3173
231.7073446061355,3142
234.11417788446204,3113
236.520347038953,3127
238.92585227351185,3086
241.33069379212054,3037
243.73487179884035,3018
246.1383864978112,3156
248.541238093252,3121
250.9434267894609,3064
253.34495279081432,3174
255.74581630176783,3113
258.1460175268563,3048
260.54555667069314,3055
262.9444339379703,3050
265.3426495334594,3066
267.7402036620107,3100
270.1370965285529,3051
272.53332833809407,3029
274.9288992957214,3054
277.32380960660055,3000
279.718059475976,3009
282.1116491091717,3098
284.5045787115897,3115
286.89684848871195,3045
289.2884586460981,3154
291.67940938938807,3034
294.0697009242996,3153
296.4593334566299,3150
298.84830719225477,3144
301.23662233712923,3072
303.6242790972866,3109
306.01127767884,2917
308.39761828798066,3010
310.78330113097934,2941
313.16832641418534,2934
315.5526943440269,2852
317.9364051270112,2864
320.3194589697242,2856
322.70185607883093,2929
325.0835966610754,2837
327.4646809232805,2772
329.8451090723478,2739
332.2248813152577,2733
334.6039978590701,2806
336.9824589109231,2686
339.36026467803447,2706
341.7374153677,2661
344.113911187295,2682
346.48975234427337,2656
348.8649390461686,2576
351.2394715005918,2631
353.61334991523415,2623
355.9865744978655,2663
358.35914545633375,2624
360.73106299856715,2657
363.10232733257146,2660
365.47293866643247,2580
367.84289720831396,2619
370.2122031664593,2626
372.5808567491905,2729
374.9488581649083,2596
377.31620762209275,2582
379.6829053293021,2462
382.0489514951745,2435
384.4143463284262,2570
386.7790900378528,2467
389.14318283232853,2515
391.50662492080653,2475
393.86941651231916,2566
396.23155781597745,2542
398.5930490409713,2559
400.9538903965696,2512
403.3140820921202,2469
405.6736243370498,2513
408.03251734086336,2540
410.3907613131465,2507
412.74835646356166,2466
415.10530300185144,2500
417.4616011378372,2499
419.81725108141893,2436
422.1722530425758,2519
424.5266072313656,2446
426.880313857925,2470
429.2333731324701,2428
431.58578526529516,2525
433.9375504667738,2400
436.2886689473588,2432
438.63914091758113,2413
440.9889665880513,2469
443.33814616945835,2378
445.68667987257015,2386
448.03456790823395,2390
450.3818104873759,2357
452.72840782100013,2479
455.07436012019105,2419
457.41966759611057,2421
459.7643304600007,2434
462.10834892318155,2348
464.4517231970525,2385
466.79445349309174,2465
469.1365400228566,2452
471.4779829979826,2392
473.81878263018564,2518
476.15893913125876,2425
478.4984527130747,2574
480.8373235875855,2602
483.17555196682144,2681
485.5131380628919,2847
487.8500820879857,2955
490.1863842543697,3231
492.52204477439034,3438
494.8570638604725,3745
497.1914417251204,4053
499.52517858091653,4296
501.85827464052306,4312
504.19073011668036,4269
506.5225452222086,4058
508.85372017000566,3866
511.18425517304956,3823
513.514150444396,3978
515.8434061971808,4923
518.1720226446176,6080
520.4999999999999,6434
522.8273384766991,6037
525.1540382881666,5514
527.480099647932,4801
529.8055227696037,4059
532.1303078668694,3369
534.454455153496,2917
536.777964843328,2791
539.1008371502907,2653
541.4230722883866,2647
543.744670471698,2614
546.0656319143858,2655
548.3859568306899,2583
550.7056454349294,2635
553.0246979415016,2533
555.3431145648834,2453
557.6608955196306,2516
559.978041020377,2446
562.2945512818363,2470
564.6104265188006,2481
566.9256669461412,2568
569.2402727788082,2633
571.5542442318302,2572
573.8675815203156,2556
576.1802848594508,2533
578.4923544645015,2619
580.8037905508126,2591
583.114593333807,2587
585.4247630289875,2524
587.7342998519354,2516
590.0432040183106,2604
592.3514757438526,2591
594.6591152443794,2581
596.9661227357875,2579
599.2724984340531,2590
601.578242555231,2585
603.8833553154542,2574
606.1878369309362,2519
608.4916876179676,2565
610.7949075929192,2522
613.0974970722403,2561
615.3994562724587,2542
617.7007854101818,2479
620.0014847020951,2500
622.3015543649641,2418
624.6009946156324,2447
626.8998056710224,2576
629.1979877481361,2509
631.4955410640538,2508
633.7924658359349,2466
636.0887622810175,2437
638.3844306166192,2474
640.6794710601358,2464
642.9738838290426,2509
645.2676691408932,2444
647.5608272133207,2410
649.853358264037,2507
652.1452625108324,2511
654.4365401715764,2453
656.7271914642178,2466
659.0172166067838,2560
661.3066158173809,2459
663.5953893141935,2471
665.8835373154867,2499
668.1710600396028,2447
670.4579577049639,2488
672.7442305300709,2574
675.0298787335033,2594
677.3149025339197,2466
679.599302150058,2592
681.8830778007342,2478
684.1662297048437,2481
686.4487580813608,2523
688.7306631493387,2430
691.0119451279091,2455
693.2926042362834,2404
695.5726406937516,2566
697.8520547196814,2577
700.1308465335215,2477
702.4090163547982,2479
704.6865644031171,2449
706.9634908981619,2494
709.2397960596965,2404
711.5154801075631,2493
713.7905432616823,2528
716.0649857420548,2433
718.3388077687592,2480
720.612009561953,2549
722.8845913418733,2513
725.1565533288352,2414
727.427895743234,2471
729.6986188055427,2513
731.9687227363137,2527
734.238207756178,2466
736.5070740858458,2448
738.7753219461066,2418
741.0429515578281,2447
743.3099631419569,2554
745.5763569195191,2450
747.8421331116193,2477
750.1072919394409,2518
752.3718336242467,2577
754.6357583873777,2555
756.8990664502545,2493
759.1617580343765,2506
761.423833361321,2522
763.6852926527457,2558
765.9461361303862,2503
768.206364016058,2600
770.4659765316536,2574
772.7249738991469,2581
774.9833563405886,2591
777.2411240781092,2576
779.4982773339183,2532
781.7548163303044,2572
784.010741289634,2603
786.2660524343538,2618
788.5207499869881,2612
790.7748341701416,2563
793.0283052064964,2502
795.2811633188143,2582
797.5334087299362,2502
799.7850416627813,2581
802.0360623403484,2531
804.2864709857143,2591
806.5362678220353,2598
808.7854530725468,2590
811.0340269605625,2554
813.2819897094754,2482
815.5293415427581,2534
817.77608268396,2492
820.0222133567116,2527
822.2677337847211,2500
824.5126441917765,2596
826.7569448017433,2584
829.0006358385675,2569
831.2437175262731,2503
833.4861900889629,2586
835.7280537508192,2584
837.9693087361026,2549
840.2099552691533,2521
842.4499935743896,2626
844.689423876309,2686
846.9282463994886,2585
849.1664613685833,2673
851.4040690083276,2520
853.6410695435349,2605
855.877463199097,2542
858.1132501999847,2598
860.3484307712487,2566
862.5830051380175,2528
864.8169735254988,2544
867.0503361589791,2623
869.2830932638243,2549
871.5152450654786,2619
873.7467917894654,2637
875.9777336613873,2584
878.2080709069252,2684
880.4378037518389,2696
882.666932421968,2677
884.8954571432301,2659
887.1233781416219,2720
889.3506956432192,2639
891.5774098741766,2706
893.803521060728,2666
896.0290294291852,2681
898.2539352059397,2705
900.4782386174619,2640
902.7019398903011,2608
904.925039251085,2578
907.147536926521,2654
909.3694331433943,2572
911.59072812857,2566
913.8114221089921,2613
916.0315153116827,2516
918.2510079637437,2485
920.4699002923547,2481
922.6881925247761,2490
924.905884888345,2536
927.1229776104793,2596
929.3394709186747,2444
931.555365040506,2523
933.7706602036275,2527
935.9853566357709,2512
938.1994545647489,2463
940.4129542184515,2601
942.6258558248488,2422
944.8381596119883,2556
947.0498658079974,2433
949.2609746410825,2478
951.4714863395287,2492
953.6814011316998,2443
955.8907192460387,2406
958.0994409110671,2394
960.3075663553858,2442
962.5150958076741,2436
964.7220294966913,2445
966.928367651274,2375
969.1341105003388,2432
971.3392582728806,2423
973.5438111979742,2474
975.747769504772,2373
977.9511334225061,2342
980.153903180487,2378
982.3560790081052,2408
984.5576611348289,2373
986.7586497902058,2286
988.9590452038618,2323
991.158847605503,2354
993.3580572249133,2234
995.5566742919558,2317
997.7546990365728,2274
999.952131688785,2231
1002.1489724786926,2238
1004.3452216364743,2182
1006.5408793923874,2176
1008.7359459767691,2246
1010.9304216200343,2071
1013.1243065526781,2075
1015.3176010052733,2071
1017.510305208472,2063
1019.7024193930064,2125
1021.8939437896848,2058
1024.0848786293977,2144
1026.2752241431122,2046
1028.4649805618747,2115
1030.6541481168115,2050
1032.842727039127,2106
1035.0307175601051,2058
1037.2181199111074,2002
1039.4049343235752,2014
1041.591161029029,1996
1043.7768002590683,1986
1045.9618522453698,1934
1048.1463172196918,2013
1050.3301954138697,2068
1052.513487059818,1985
1054.69619238953,2017
1056.8783116350783,1967
1059.0598450286152,2061
1061.2407928023704,2001
1063.4211551886528,2003
1065.6009324198508,2005
1067.780124728432,2063
1069.9587323469414,1999
1072.1367555080046,2054
1074.314194444325,1990
1076.4910493886855,2004
1078.667320573947,2016
1080.843008233051,2014
1083.0181125990161,1992
1085.1926339049414,1957
1087.3665723840027,1914
1089.5399282694575,1931
1091.7127017946405,1954
1093.8848931929647,1980
1096.0565026979243,1973
1098.2275305430899,1953
1100.3979769621128,1966
1102.567842188722,1898
1104.737126456726,2020
1106.9058300000124,1976
1109.0739530525475,1976
1111.2414958483764,1925
1113.4084586216231,1946
1115.5748416064907,1970
1117.7406450372605,1993
1119.9058691482942,1948
1122.0705141740304,1879
1124.2345803489884,1843
1126.3980679077658,1952
1128.5609770850388,1894
1130.7233081155623,1921
1132.8850612341707,1911
1135.0462366757774,1891
1137.2068346753745,1895
1139.3668554680326,1880
1141.526299288901,1924
1143.68516637321,1891
1145.8434569562655,1829
1148.001171273455,1877
1150.158309560244,1816
1152.3148720521767,1850
1154.470858984876,1856
1156.626270594044,1856
1158.7811071154629,1954
1160.9353687849912,1892
1163.089055838569,1878
1165.242168512213,1895
1167.3947070420209,1801
1169.5466716641677,1829
1171.6980626149075,1871
1173.8488801305748,1907
1175.9991244475814,1835
1178.1487958024186,1774
1180.2978944316555,1823
1182.4464205719428,1890
1184.5943744600072,1814
1186.7417563326567,1888
1188.8885664267755,1862
1191.0348049793297,1806
1193.1804722273619,1823
1195.325568407995,1924
1197.4700937584303,1835
1199.614048515948,1808
1201.7574329179074,1813
1203.900247201746,1802
1206.042491604982,1842
1208.1841663652099,1864
1210.3252717201053,1934
1212.465807907422,1854
1214.6057751649923,1845
1216.7451737307279,1910
1218.8840038426192,1908
1221.0222657387353,1824
1223.1599596572241,1916
1225.2970858363137,1913
1227.4336445143094,1899
1229.5696359295966,1931
1231.705060320639,1908
1233.8399179259786,1918
1235.9742089842384,1966
1238.107933734118,1847
1240.2410924143974,1845
1242.373685263935,1911
1244.5057125216676,1867
1246.6371744266116,1866
1248.7680712178621,1963
1250.898403134593,1896
1253.028170416058,1892
1255.1573733015875,1916
1257.2860120305932,2013
1259.4140868425648,1904
1261.54159797707,1927
1263.6685456737569,2042
1265.7949301723515,1937
1267.9207517126597,1956
1270.046010534565,1951
1272.1707068780306,1912
1274.2948409830983,1969
1276.4184130898889,1969
1278.541423438603,1930
1280.6638722695184,1982
1282.785759822993,1958
1284.9070863394636,1956
1287.0278520594447,1927
1289.1480572235314,1973
1291.2677020723963,2037
1293.3867868467923,1924
1295.5053117875495,1938
1297.623277135579,1997
1299.740683131868,2006
1301.8575300174857,2016
1303.973818033578,2012
1306.0895474213703,2107
1308.2047184221678,1995
1310.3193312773528,2081
1312.4333862283888,2053
1314.5468835168163,2008
1316.659823384255,2040
1318.7722060724045,2032
1320.8840318230418,2052
1322.9953008780249,2028
1325.1060134792888,1987
1327.2161698688478,2060
1329.3257702887959,1976
1331.4348149813054,1970
1333.5433041886276,2133
1335.6512381530933,2088
1337.7586171171101,2037
1339.8654413231675,2056
1341.9717110138317,1952
1344.0774264317488,1967
1346.1825878196432,2010
1348.2871954203192,2058
1350.3912494766587,2001
1352.4947502316231,1995
1354.5976979282532,1997
1356.7000928096686,1958
1358.8019351190665,2068
1360.9032250997243,2014
1363.0039629949988,2139
1365.1041490483235,1995
1367.2037835032133,1998
1369.3028666032606,2016
1371.401398592137,2039
1373.4993797135926,2026
1375.5968102114575,2078
1377.6936903296396,2031
1379.7900203121262,2054
1381.8858004029835,2111
1383.9810308463561,1994
1386.075711886469,1963
1388.1698437676241,1982
1390.2634267342032,2071
1392.356461030667,2069
1394.4489469015557,2073
1396.5408845914872,2113
1398.6322743451592,2090
1400.7231164073469,2040
1402.813411022907,2084
1404.903158436773,2025
1406.9923588939578,2099
1409.0810126395531,2133
1411.1691199187303,2107
1413.2566809767386,2157
1415.343696058907,2097
1417.4301654106425,2095
1419.5160892774315,2153
1421.6014679048399,2140
1423.6863015385125,2122
1425.7705904241707,2081
1427.8543348076178,2102
1429.9375349347342,2107
1432.0201910514802,2080
1434.102303403894,2030
1436.1838722380944,2117
1438.2648978002767,2087
1440.3453803367174,2128
1442.4253200937692,2161
1444.5047173178677,2134
1446.5835722555234,2158
1448.6618851533285,2217
1450.739656257952,2143
1452.8168858161434,2146
1454.8935740747306,2214
1456.96972128062,2183
1459.045327680797,2189
1461.120393522327,2167
1463.1949190523528,2191
1465.2689045180973,2179
1467.3423501668608,2217
1469.415256246024,2279
1471.4876230030463,2336
1473.559450685465,2243
1475.6307395408976,2261
1477.7014898170391,2312
1479.771701761665,2296
1481.8413756226287,2352
1483.9105116478618,2313
1485.9791100853772,2329
1488.0471711832643,2335
1490.1146951896926,2349
1492.1816823529098,2330
1494.2481329212433,2452
1496.3140471430984,2439
1498.3794252669609,2490
1500.4442675413939,2483
1502.5085742150404,2372
1504.572345536622,2424
1506.6355817549388,2587
1508.6982831188702,2548
1510.7604498773744,2486
1512.8220822794883,2593
1514.8831805743293,2610
1516.9437450110909,2617
1519.003775839048,2620
1521.0632733075522,2688
1523.1222376660367,2680
1525.1806691640113,2761
1527.2385680510652,2760
1529.2959345768668,2829
1531.3527689911643,2924
1533.4090715437833,2985
1535.4648424846291,2997
1537.5200820636855,3162
1539.5747905310159,3185
1541.6289681367616,3061
1543.6826151311434,3111
1545.7357317644614,3250
1547.7883182870937,3286
1549.8403749494987,3319
1551.8919020022113,3348
1553.9428996958477,3386
1555.9933682811015,3508
1558.0433080087469,3605
1560.0927191296346,3556
1562.1416018946961,3751
1564.1899565549415,3642
1566.2377833614592,3711
1568.2850825654164,3710
1570.3318544180606,3542
1572.3780991707158,3460
1574.423817074788,3394
1576.4690083817595,3335
1578.5136733431923,3223
1580.5578122107272,3139
1582.601425236085,3014
1584.6445126710646,2841
1586.6870747675434,2764
1588.7291117774776,2749
1590.7706239529034,2586
1592.8116115459347,2597
1594.8520748087658,2460
1596.8920139936686,2421
1598.9314293529933,2463
1600.9703211391711,2363
1603.008689604711,2297
1605.0465350022005,2268
1607.0838575843068,2346
1609.1206576037753,2227
1611.1569353134305,2224
1613.1926909661765,2201
1615.2279248149953,2169
1617.2626371129481,2165
1619.2968281131757,2195
1621.3304980688963,2166
1623.3636472334088,2044
1625.39627586009,2105
1627.428384202396,2074
1629.459972513861,2137
1631.4910410480993,2088
1633.5215900588028,2019
1635.551619799744,2021
1637.5811305247717,2052
1639.6101224878166,2107
1641.6385959428862,1993
1643.6665511440683,2035
1645.693988345528,1998
1647.7209078015112,2003
1649.7473097663405,2025
1651.7731944944203,2077
1653.7985622402307,2095
1655.823413258333,2002
1657.847747803366,2012
1659.8715661300494,2002
1661.8948684931793,1998
1663.9176551476316,2069
1665.9399263483624,2067
1667.9616823504057,2037
1669.982923408873,1972
1672.0036497789574,2107
1674.0238617159293,2099
1676.043559475138,2036
1678.0627433120121,1998
1680.081413482059,2037
1682.0995702408654,2015
1684.117213844096,2061
1686.134344547495,2068
1688.1509626068864,2052
1690.1670682781705,1982
1692.182661817329,2021
1694.1977434804217,2018
1696.2123135235875,2035
1698.226372203043,1991
1700.2399197750851,2057
1702.2529564960905,2048
1704.2654826225112,1957
1706.277498410882,2036
1708.2890041178139,1979
1710.2999999999988,2029
1712.3104863142066,1984
1714.3204633172854,1983
1716.329931266163,1981
1718.3388904178469,2000
1720.3473410294214,1986
1722.3552833580516,2023
1724.3627176609807,2033
1726.3696441955308,2038
1728.3760632191033,1996
1730.3819749891782,2021
1732.3873797633146,1936
1734.3922777991502,2084
1736.3966693544012,2029
1738.4005546868639,2036
1740.4039340544127,2011
1742.406807715001,1912
1744.4091759266616,2019
1746.4110389475054,1929
1748.4123970357223,2026
1750.413250449582,1994
1752.4135994474318,1989
1754.4134442876993,1963
1756.4127852288902,1921
1758.4116225295893,1920
1760.4099564484595,1936
1762.407787244244,1996
1764.405115175764,2002
1766.4019405019203,1968
1768.3982634816916,1933
1770.3940843741357,2010
1772.3894034383907,1899
1774.3842209336717,2005
1776.378537119274,2043
1778.372352254571,1986
1780.3656665990156,1957
1782.3584804121397,1953
1784.3507939535534,1921
1786.3426074829463,1996
1788.3339212600863,1976
1790.3247355448211,1955
1792.3150505970766,1994
1794.3048666768573,2003
1796.2941840442477,2037
1798.2830029594106,2029
1800.2713236825884,2044
1802.2591464741004,1978
1804.2464715943465,2018
1806.2332993038058,2020
1808.2196298630352,2031
1810.2054635326708,1987
1812.190800573428,1944
1814.175641246101,2053
1816.1599858115628,2036
1818.1438345307652,2012
1820.127187664738,1972
1822.1100454745924,1961
1824.092408221516,1962
1826.0742761667766,2027
1828.055649571721,2019
1830.0365286977735,2025
1832.0169138064398,1954
1833.9968051593014,2020
1835.9762030180214,1977
1837.9551076443408,1986
1839.9335193000788,2006
1841.9114382471344,2006
1843.888864747485,2012
1845.8657990631878,2008
1847.842241456378,1988
1849.8181921892697,1947
1851.7936515241558,1955
1853.7686197234098,1964
1855.7430970494815,1917
1857.7170837649014,2021
1859.6905801322787,1935
1861.6635864143004,1976
1863.6361028737338,1922
1865.608129773424,2030
1867.5796673762961,1959
1869.5507159453537,1937
1871.521275743678,1935
1873.4913470344313,2021
1875.4609300808534,1999
1877.4300251462632,1932
1879.3986324940588,1971
1881.366752387717,1942
1883.3343850907936,2017
1885.3015308669228,1965
1887.268189979819,2006
1889.2343626932739,1937
1891.2000492711595,1935
1893.1652499774254,1942
1895.1299650761011,1995
1897.0941948312952,1935
1899.0579395071945,1988
1901.0211993680641,1934
1902.98397467825,1971
1904.9462657021745,1929
1906.9080727043415,1983
1908.869395949332,1983
1910.8302357018065,1948
1912.790592226504,1948
1914.7504657882428,1969
1916.7098566519212,1902
1918.6687650825133,1965
1920.6271913450764,1934
1922.5851357047422,1961
1924.5425984267245,1945
1926.499579776314,1967
1928.4560800188833,1910
1930.4120994198802,1993
1932.367638244833,1895
1934.32269675935,1927
1936.2772752291175,1984
1938.231373919899,1965
1940.1849930975404,1922
1942.1381330279637,1955
1944.0907939771696,1938
1946.0429762112412,1996
1947.9946799963363,1939
1949.9459055986945,1983
1951.896653284633,1924
1953.8469233205478,1957
1955.7967159729142,1944
1957.7460315082863,1876
1959.6948701932974,1919
1961.6432322946594,1929
1963.5911180791632,1944
1965.5385278136787,1867
1967.4854617651545,1944
1969.4319202006182,1942
1971.377903387176,1932
1973.3234115920136,1983
1975.268445082395,1938
1977.2130041256642,1953
1979.1570889892423,1941
1981.1006999406304,1934
1983.04383724741,1943
1984.986501177238,1897
1986.928691997853,1888
1988.8704099770712,1948
1990.811655382789,2027
1992.7524284829801,1945
1994.692729545698,1963
1996.6325588390755,1955
1998.5719166313224,1976
2000.5108031907307,1909
2002.4492187856677,1920
2004.387163684583,2033
2006.3246381560011,1999
2008.2616424685298,1932
2010.1981768908527,1953
2012.1342416917332,1833
2014.069837140014,1892
2016.0049635046162,1943
2017.9396210545406,1927
2019.8738100588666,1902
2021.8075307867502,1908
2023.740783507431,1890
2025.6735684902228,1950
2027.6058860045214,1934
2029.5377363198004,1907
2031.4691197056118,1965
2033.4000364315875,1972
2035.3304867674374,1955
2037.260470982952,1959
2039.189989347998,1965
2041.1190421325232,1994
2043.047629606554,1954
2044.9757520401945,1929
2046.9034097036288,1967
2048.8306028671195,2027
2050.7573318010086,1945
2052.683596775716,1905
2054.609398061742,1905
2056.5347359296647,1823
2058.4596106501403,1926
2060.384022493906,1919
2062.3079717317764,1937
2064.231458634646,1929
2066.1544834734873,1916
2068.077046519352,1893
2069.99914804337,1927
2071.9207883167524,1879
2073.8419676107865,1908
2075.7626861968406,1883
2077.6829443463607,1936
2079.6027423308715,1978
2081.522080421977,1889
2083.440958891362,1860
2085.359378010786,1933
2087.2773380520907,1876
2089.194839287196,1886
2091.111881988101,1959
2093.0284664268825,1937
2094.9445928756973,1933
2096.86026160678,1929
2098.775472892446,1917
2100.690227005088,1903
2102.604524217178,1923
2104.5183648012676,1983
2106.431749029985,1917
2108.34467717604,1952
2110.2571495122206,1924
2112.169166311393,1969
2114.080727846503,1895
2115.9918343905747,2000
2117.902486216711,1980
2119.8126835980956,1913
2121.722426807987,1907
2123.6317161197285,1967
2125.5405518067364,1899
2127.448934142509,1925
2129.356863400624,1994
2131.264339854737,2000
2133.1713637785815,1947
2135.077935445972,1965
2136.9840551308002,1911
2138.889723107037,1980
2140.7949396487334,1983
2142.699705030018,2021
2144.6040195250994,1890
2146.507883408264,2003
2148.4112969538774,2004
2150.3142604363848,2054
2152.2167741303097,2070
2154.1188383102535,1982
2156.0204532508997,1976
2157.9216192270064,2042
2159.822336513414,2073
2161.7226053850413,2077
2163.622426116884,1958
2165.5217989840185,2009
2167.4207242616,1977
2169.319202224862,2038
2171.2172331491165,2077
2173.1148173097563,2087
2175.0119549822507,2062
2176.90864644215,2006
2178.8048919650823,2068
2180.7006918267534,2106
2182.596046302952,2081
2184.4909556695407,2152
2186.3854202024645,2133
2188.279440177746,2045
2190.173015871487,2106
2192.066147559868,2074
2193.958835519149,2101
2195.851080025667,2112
2197.7428813558417,2141
2199.6342397861667,2015
2201.5251555932186,2103
2203.415629053651,2131
2205.3056604441986,2111
2207.19525004167,2166
2209.084398122958,2137
2210.9731049650327,2162
2212.861370844941,2139
2214.749196039812,2141
2216.636580826851,2146
2218.523525483344,2180
2220.410030286655,2155
2222.296095514226,2132
2224.1817214435805,2178
2226.066908352319,2287
2227.951656518121,2253
2229.835966218746,2164
2231.71983773203,2122
2233.6032713358913,2209
2235.486267308324,2177
2237.3688259274036,2178
2239.2509474712824,2193
2241.132632218193,2186
2243.013880446447,2239
2244.8946924344323,2197
2246.7750684606203,2233
2248.6550088035574,2188
2250.534513741871,2208
2252.413583554265,2173
2254.292218519526,2179
2256.170418916517,2154
2258.0481850241786,2182
2259.925517121534,2116
2261.8024154876825,2130
2263.678880401803,2201
2265.5549121431536,2200
2267.430510991071,2277
2269.305677224971,2231
2271.180411124348,2126
2273.0547129687766,2118
2274.9285830379076,2214
2276.8020216114737,2136
2278.6750289692845,2142
2280.5476053912294,2086
2282.4197511572766,2152
2284.2914665474727,2200
2286.162751841943,2234
2288.0336073208937,2133
2289.904033264608,2293
2291.774029953448,2263
2293.6435976678554,2189
2295.5127366883517,2102
2297.381447295534,2086
2299.2497297700825,2040
2301.1175843927526,1971
2302.9850114443825,1862
2304.852011205885,1893
2306.7185839582553,1854
2308.5847299825664,1825
2310.4504495599676,1834
2312.3157429716925,1802
2314.1806104990483,1808
2316.0450524234247,1819
2317.9090690262888,1828
2319.772660589186,1748
2321.635827393742,1759
2323.498569721661,1814
2325.3608878547248,1751
2327.2227820747967,1782
2329.0842526638157,1767
2330.945299903803,1837
2332.805924076857,1700
2334.6661254651535,1734
2336.525904350951,1735
2338.3852610165827,1735
2340.244195744464,1773
2342.102708817088,1770
2343.9608005170253,1776
2345.8184711269287,1721
2347.675720929526,1759
2349.532550207628,1665
2351.38895924412,1799
2353.24494832197,1717
2355.100517724223,1703
2356.955667734004,1730
2358.810398634514,1761
2360.664710709037,1819
2362.5186042409337,1724
2364.3720795136437,1810
2366.225136810686,1802
2368.0777764156583,1756
2369.929998612237,1781
2371.7818036841777,1808
2373.633191915315,1769
2375.484163589562,1789
2377.3347189909114,1813
2379.184858403434,1718
2381.03458211128,1736
2382.8838903986775,1752
2384.732783549936,1781
2386.5812618494406,1736
2388.4293255816588,1807
2390.2769750311327,1774
2392.1242104824883,1824
2393.971032220427,1801
2395.8174405297295,1749
2397.6634356952563,1783
2399.509018001947,1760
2401.3541877348193,1780
2403.1989451789705,1771
2405.043290619576,1787
2406.8872243418905,1810
2408.730746631247,1778
2410.5738577730594,1810
2412.4165580528183,1746
2414.258847756095,1758
2416.100727168537,1776
2417.9421965758734,1711
2419.783256263912,1765
2421.623906518538,1754
2423.4641476257157,1748
2425.303979871491,1738
2427.143403541984,1851
2428.9824189233977,1727
2430.821026302012,1871
2432.6592259641866,1788
2434.497018196361,1826
2436.33440328505,1815
2438.171381516851,1768
2440.00795317844,1829
2441.844118556569,1770
2443.6798779380724,1762
2445.5152316098606,1863
2447.3501798589255,1791
2449.1847229723357,1774
2451.0188612372403,1770
2452.8525949408663,1771
2454.6859243705203,1778
2456.518849813587,1800
2458.3513715575314,1783
2460.183489889895,1752
2462.015205098301,1734
2463.8465174704493,1806
2465.67742729412,1776
2467.5079348571717,1806
2469.338040447542,1754
2471.1677443532476,1784
2472.9970468623833,1823
2474.825948263123,1809
2476.6544488437207,1782
2478.482548892508,1827
2480.310248697896,1787
2482.137548548374,1798
2483.9644487325118,1820
2485.790949538956,1752
2487.617051256433,1831
2489.44275417375,1751
2491.26805857979,1793
2493.0929647635157,1782
2494.917473013971,1803
2496.741583620276,1850
2498.5652968716304,1822
2500.3886130573137,1779
2502.2115324666834,1813
2504.0340553891765,1852
2505.856182114308,1771
2507.6779129316733,1755
2509.499248130945,1876
2511.3201880018764,1798
2513.140732834298,1818
2514.9608829181198,1844
2516.780638543331,1809
2518.6,1872
2520.418967578273,1791
2522.237541568376,1792
2524.0557222606144,1787
2525.8735099453706,1864
2527.6909049131086,1780
2529.507907454368,1756
2531.32451785977,1763
2533.140736420014,1836
2534.9565634258774,1825
2536.771999168218,1855
2538.5870439379714,1836
2540.4016980261526,1864
2542.2159617238544,1912
2544.02983532225,1817
2545.8433191125914,1941
2547.656413386209,1802
2549.4691184345115,1923
2551.2814345489874,1870
2553.093362021204,1871
2554.904901142808,1937
2556.716052205523,1991
2558.526815501153,1844
2560.3371913215824,1894
2562.147179958771,1913
2563.956781704761,1876
2565.7659968516705,1956
2567.5748256916986,1919
2569.3832685171224,1888
2571.1913256202984,1881
2572.9989972936614,1876
2574.806283829725,1939
2576.613185521084,1933
2578.4197026604074,2005
2580.2258355404483,1972
2582.031584454035,1937
2583.836949694077,1961
2585.6419315535613,1931
2587.4465303255533,1941
2589.2507463032002,1978
2591.0545797797245,1983
2592.8580310484303,1982
2594.6611004026995,2033
2596.463788135992,1977
2598.266094541849,2008
2600.0680199138874,2042
2601.869564545807,2012
2603.670728731383,2055
2605.4715127644704,2078
2607.2719169390048,2056
2609.071941548998,2024
2610.8715868885433,2036
2612.670853251811,2052
2614.469740933052,2002
2616.268250226594,2077
2618.0663814268455,1980
2619.864134828292,2067
2621.6615107255006,2066
2623.458509413115,2001
2625.2551311858597,2138
2627.0513763385347,2013
2628.8472451660223,2018
2630.6427379632833,2008
2632.4378550253564,2067
2634.232596647359,2011
2636.026963124488,2036
2637.8209547520187,2053
2639.6145718253065,1984
2641.407814639785,1942
2643.200683490966,1966
2644.9931786744414,1955
2646.7853004858807,1969
2648.577049221034,1957
2650.3684251757277,2025
2652.1594286458712,1991
2653.9500599274484,1933
2655.740319316525,1979
2657.5302071092437,1921
2659.3197236018286,1931
2661.10886909058,1983
2662.8976438718782,1984
2664.686048242183,1910
2666.4740824980327,1864
2668.2617469360443,1923
2670.0490418529134,1910
2671.8359675454153,1978
2673.622524310403,1834
2675.408712444811,1858
2677.1945322456495,1866
2678.979984010009,1856
2680.76506803506,1854
2682.5497846180497,1855
2684.334134056306,1881
2686.1181166472343,1943
2687.9017326883213,1960
2689.6849824771293,1832
2691.4678663113013,1875
2693.2503844885596,1871
2695.032537306705,1856
2696.8143250636167,1875
2698.5957480572542,1829
2700.3768065856534,1810
2702.1575009469316,1820
2703.937831439283,1789
2705.717798360982,1819
2707.4974020103837,1845
2709.276642685917,1831
2711.055520686095,1812
2712.834036309506,1849
2714.612189854819,1836
2716.389981620782,1858
2718.1674119062204,1845
2719.944481010041,1875
2721.721189231226,1791
2723.4975368688415,1776
2725.273524222027,1788
2727.0491515900053,1869
2728.824419272075,1845
2730.5993275676146,1834
2732.3738767760838,1838
2734.148067197016,1819
2735.921899130031,1857
2737.6953728748194,1781
2739.468488731156,1846
2741.2412469988926,1831
2743.0136479779617,1849
2744.785691968372,1786
2746.5573792702116,1773
2748.3287101836504,1808
2750.099685008934,1806
2751.870304046388,1801
2753.640567596418,1820
2755.4104759595057,1858
2757.1800294362156,1789
2758.949228327187,1818
2760.7180729331412,1811
2762.486563554877,1813
2764.254700493272,1819
2766.022484049284,1803
2767.789914523947,1762
2769.5569922183786,1792
2771.3237174337705,1857
2773.090090471394,1778
2774.8561116326036,1834
2776.6217812188274,1733
2778.3870995315756,1814
2780.1520668724356,1816
2781.9166835430747,1854
2783.6809498452394,1847
2785.444866080754,1834
2787.2084325515225,1788
2788.971649559527,1769
2790.73451740683,1794
2792.4970363955713,1810
2794.2592068279705,1823
2796.0210290063264,1802
2797.7825032330147,1728
2799.543629810493,1821
2801.304409041296,1774
2803.0648412280366,1810
2804.8249266734088,1815
2806.5846656801846,1855
2808.344058551212,1840
2810.1031055894246,1777
2811.8618070978273,1774
2813.6201633795085,1745
2815.378174737636,1822
2817.1358414754536,1813
2818.893163896285,1782
2820.6501423035334,1855
2822.4067770006814,1752
2824.1630682912883,1781
2825.9190164789957,1798
2827.6746218675207,1822
2829.429884760661,1832
2831.184805462294,1745
2832.9393842763743,1823
2834.693621506936,1810
2836.4475174580916,1842
2838.201072434034,1818
2839.954286739034,1789
2841.707160677441,1735
2843.459694553685,1840
2845.2118886722724,1771
2846.96374333779,1856
2848.7152588549034,1771
2850.4664355283567,1808
2852.217273662973,1850
2853.9677735636546,1869
2855.7179355353833,1798
2857.4677598832186,1887
2859.217246912299,1848
2860.9663969278427,1860
2862.715210235146,1782
2864.4636871395846,1807
2866.211827946614,1803
2867.9596329617652,1817
2869.7071024906536,1718
2871.4542368389684,1767
2873.20103631248,1816
2874.947501217038,1754
2876.6936318585695,1778
2878.4394285430812,1794
2880.1848915766604,1767
2881.9300212654707,1803
2883.6748179157553,1801
2885.4192818338374,1793
2887.1634133261173,1826
2888.907212699077,1903
2890.6506802592744,1882
2892.393816313348,1859
2894.1366211680142,1768
2895.8790951300693,1831
2897.621238506388,1801
2899.363051603925,1802
2901.1045347297118,1791
2902.8456881908596,1791
2904.58651229456,1796
2906.327007348081,1875
2908.067173658772,1838
2909.8070115340597,1752
2911.5465212814497,1727
2913.285703208527,1842
2915.0245576229563,1827
2916.7630848324807,1834
2918.5012851449196,1784
2920.2391588681758,1794
2921.976706310227,1815
2923.7139277791334,1826
2925.4508235830313,1826
2927.187394030137,1842
2928.923639428745,1845
2930.6595600872306,1732
2932.395156314046,1824
2934.1304284177218,1794
2935.8653767068713,1815
2937.6000014901815,1885
2939.3343030764227,1764
2941.068281774442,1841
2942.8019378931644,1799
2944.5352717415976,1778
2946.2682836288236,1835
2948.0009738640065,1859
2949.7333427563885,1834
2951.465390615289,1818
2953.1971177501086,1826
2954.9285244703265,1804
2956.6596110855,1833
2958.3903779052657,1776
2960.1208252393385,1802
2961.8509533975125,1768
2963.5807626896617,1892
2965.3102534257378,1823
2967.0394259157715,1817
2968.768280469873,1839
2970.496817398232,1845
2972.2250370111146,1786
2973.952939618869,1893
2975.6805255319196,1842
2977.4077950607707,1869
2979.134748516006,1873
2980.861386208289,1863
2982.587708448359,1836
2984.313715547037,1840
2986.039407815222,1858
2987.764785563891,1824
2989.489849104102,1775
2991.2145987469908,1795
2992.9390348037705,1878
2994.6631575857346,1847
2996.3869674042576,1864
2998.1104645707887,1786
2999.83364939686,1834
3001.5565221940783,1810
3003.2790832741334,1774
3005.0013329487924,1818
3006.7232715298996,1845
3008.4448993293804,1748
3010.166216659239,1767
3011.887223831558,1788
3013.607921158498,1749
3015.3283089522993,1790
3017.0483875252826,1833
3018.7681571898443,1831
3020.4876182584626,1877
3022.2067710436927,1824
3023.9256158581707,1864
3025.644153014609,1784
3027.362382825801,1798
3029.0803056046193,1809
3030.797921664012,1788
3032.5152313170106,1843
3034.2322348767225,1823
3035.9489326563353,1821
3037.665324969115,1810
3039.3814121284063,1840
3041.097194447633,1847
3042.812672240299,1782
3044.5278458199855,1851
3046.2427155003525,1835
3047.9572815951406,1820
3049.671544418167,1819
3051.38550428333,1814
3053.0991615046073,1840
3054.812516396051,1860
3056.5255692717974,1809
3058.2383204460575,1812
3059.9507702331257,1842
3061.662918947372,1809
3063.3747669032446,1822
3065.0863144152736,1817
3066.7975617980674,1756
3068.508509366309,1770
3070.219157434767,1813
3071.9295063182844,1850
3073.639556331785,1816
3075.3493077902704,1836
3077.058761008821,1829
3078.7679163025964,1795
3080.476773986837,1812
3082.1853343768594,1855
3083.89359778806,1830
3085.6015645359153,1845
3087.3092349359786,1821
3089.016609303884,1895
3090.7236879553434,1877
3092.4304712061476,1838
3094.136959372166,1856
3095.843152769349,1852
3097.5490517137237,1829
3099.2546565213966,1849
3100.959967508554,1836
3102.66498499146,1840
3104.3697092864577,1900
3106.0741407099695,1745
3107.778279578498,1767
3109.482126208622,1796
3111.1856809170004,1804
3112.8889440203716,1850
3114.5919158355528,1762
3116.294596679439,1789
3117.996986869006,1806
3119.6990867213062,1859
3121.4008965534726,1882
3123.102416682717,1843
3124.803647426329,1876
3126.5045891016784,1794
3128.205242026213,1877
3129.90560651746,1869
3131.605682893025,1819
3133.3054714705922,1820
3135.0049725679282,1872
3136.7041865028714,1896
3138.4031135933465,1815
3140.101754157353,1809
3141.800108512971,1831
3143.498176978357,1823
3145.1959598717494,1799
3146.8934575114636,1842
3148.5906702158954,1753
3150.2875983035183,1833
3151.9842420928853,1795
3153.680601902627,1818
3155.376678051456,1818
3157.07247085816,1852
3158.767980641609,1826
3160.463207720748,1823
3162.158152414606,1802
3163.8528150422862,1850
3165.5471959229726,1813
3167.2412953759303,1850
3168.9351137204976,1831
3170.628651276098,1845
3172.3219083622307,1810
3174.014885298474,1865
3175.707582404485,1881
3177.4000000000005,1893
3179.092138404835,1851
3180.7839979388846,1857
3182.47557892212,1832
3184.166881674594,1882
3185.8579065164386,1911
3187.5486537678626,1822
3189.2391237491547,1855
3190.9293167806827,1849
3192.6192331828934,1745
3194.3088732763117,1850
3195.998237381542,1821
3197.687325819268,1754
3199.376138910251,1772
3201.064676975334,1784
3202.7529403354347,1823
3204.4409293115523,1834
3206.1286442247647,1794
3207.816085396229,1775
3209.5032531471825,1771
3211.190147798936,1801
3212.8767696728846,1783
3214.5631190905015,1797
3216.2491963733373,1833
3217.9350018430214,1768
3219.6205358212637,1839
3221.305798629851,1743
3222.990790590651,1752
3224.6755120256103,1788
3226.359963256751,1801
3228.0441446061795,1778
3229.7280563960758,1710
3231.411698948703,1784
3233.0950725863995,1778
3234.778177631587,1866
3236.461014406761,1762
3238.1435832345005,1798
3239.8258844374595,1862
3241.507918338374,1831
3243.1896852600576,1767
3244.8711855254023,1845
3246.552419457381,1798
3248.233387379042,1827
3249.914089613516,1810
3251.59452648401,1765
3253.274698313813,1866
3254.95460542629,1811
3256.6342481448855,1792
3258.313626793125,1776
3259.9927416946084,1710
3261.6715931730196,1781
3263.3501815521176,1782
3265.0285071557437,1735
3266.706570307815,1797
3268.3843713323286,1758
3270.0619105533615,1787
3271.739188295068,1785
3273.4162048816834,1764
3275.0929606375184,1821
3276.769455886966,1825
3278.445690954498,1831
3280.1216661646613,1810
3281.797381842087,1843
3283.4728383114807,1795
3285.1480358976296,1877
3286.8229749253996,1840
3288.4976557197333,1817
3290.172078605655,1740
3291.846243908266,1793
3293.5201519527463,1741
3295.193803064357,1764
3296.8671975684374,1733
3298.5403357904024,1729
3300.21321805575,1836
3301.8858446900567,1804
3303.558216018975,1744
3305.23033236824,1819
3306.9021940636603,1778
3308.57380143113,1815
3310.2451547966184,1809
3311.916254486174,1839
3313.5871008259246,1882
3315.2576941420766,1835
3316.9280347609147,1802
3318.5981230088046,1783
3320.2679592121895,1762
3321.9375436975924,1799
3323.606876791612,1809
3325.27595882093,1819
3326.944790112305,1773
3328.6133709925753,1773
3330.2817017886573,1781
3331.949782827547,1787
3333.617614436319,1835
3335.2851969421245,1767
3336.952530672199,1779
3338.619615953853,1832
3340.286453114475,1823
3341.9530424815357,1785
3343.619384382583,1818
3345.2854791452437,1787
3346.951327097224,1793
3348.6169285663073,1838
3350.2822838803577,1853
3351.947393367319,1762
3353.61225735521,1850
3355.2768761721345,1876
3356.9412501462693,1881
3358.605379605873,1816
3360.2692648792827,1824
3361.9329062949146,1829
3363.596304181263,1802
