CollectionTime,7/9/2024 12:11:02 PM
ExposureUsed,3
CalibratedSpectrum
-962.7078968117929,536
-959.9714848408522,523
-957.2358232597828,575
-954.5009119013725,540
-951.7667505983302,538
-949.0333391832855,573
-946.3006774887896,598
-943.5687653473143,588
-940.837602591253,568
-938.1071890529199,590
-935.3775245645503,557
-932.6486089583007,579
-929.9204420662485,620
-927.1930237203925,597
-924.4663537526524,596
-921.7404319948689,579
-919.0152582788041,578
-916.2908324361409,599
-913.5671542984834,641
-910.8442236973568,608
-908.1220404642074,571
-905.4006044304027,613
-902.679915427231,608
-899.959973285902,595
-897.2407778375464,586
-894.5223289132158,604
-891.8046263438832,615
-889.0876699604426,590
-886.3714595937089,566
-883.6559950744183,554
-880.9412762332282,597
-878.2273029007168,591
-875.5140749073835,555
-872.8015920836489,594
-870.0898542598545,606
-867.3788612662631,578
-864.6686129330585,621
-861.9591090903457,596
-859.2503495681506,624
-856.5423341964203,594
-853.8350628050229,581
-851.1285352237478,610
-848.4227512823054,577
-845.7177108103272,593
-843.0134136373656,600
-840.3098595928943,601
-837.6070485063082,646
-834.9049802069229,588
-832.2036545239757,623
-829.5030712866244,598
-826.8032303239481,615
-824.1041314649472,612
-821.4057745385428,654
-818.7081593735775,610
-816.0112857988148,623
-813.3151536429393,623
-810.6197627345566,618
-807.9251129021936,634
-805.2312039742981,627
-802.5380357792392,626
-799.8456081453069,601
-797.1539209007124,576
-794.462973873588,650
-791.772766891987,618
-789.083299783884,659
-786.3945723771743,643
-783.7065844996748,624
-781.0193359791231,606
-778.3328266431781,613
-775.6470563194197,580
-772.9620248353489,653
-770.2777320183878,612
-767.5941776958798,649
-764.9113616950891,616
-762.2292838432011,650
-759.5479439673222,618
-756.8673418944801,614
-754.1874774516235,633
-751.5083504656222,614
-748.8299607632671,614
-746.15230817127,600
-743.475392516264,664
-740.7992136248035,706
-738.1237713233636,629
-735.4490654383407,627
-732.7750957960521,641
-730.1018622227365,662
-727.4293645445534,658
-724.7576025875837,656
-722.0865761778291,659
-719.4162851412126,625
-716.7467293035781,684
-714.0779084906909,645
-711.409822528237,663
-708.7424712418238,695
-706.0758544569796,651
-703.4099719991541,669
-700.7448236937178,667
-698.0804093659622,621
-695.4167288411002,642
-692.7537819442656,641
-690.0915685005134,673
-687.4300883348199,641
-684.7693412720819,680
-682.1093271371178,673
-679.4500457546669,684
-676.7914969493897,682
-674.1336805458676,659
-671.4765963686034,659
-668.8202442420206,686
-666.1646239904642,679
-663.5097354382001,708
-660.8555784094151,682
-658.2021527282176,686
-655.5494582186366,704
-652.8974947046223,698
-650.2462620100463,686
-647.5957599587009,668
-644.9459883742998,656
-642.2969470804776,705
-639.6486359007902,722
-637.0010546587141,733
-634.3542031776476,730
-631.7080812809096,700
-629.0626887917401,689
-626.4180255333008,706
-623.7740913286734,682
-621.1308860008619,736
-618.4884093727904,719
-615.8466612673046,751
-613.2056415071715,708
-610.5653499150785,721
-607.9257863136347,722
-605.28695052537,743
-602.6488423727357,747
-600.0114616781036,724
-597.3748082637674,720
-594.7388819519412,755
-592.1036825647604,765
-589.4692099242818,813
-586.8354638524829,758
-584.2024441712624,711
-581.5701507024403,709
-578.9385832677575,794
-576.3077416888759,768
-573.6776257873787,789
-571.0482353847704,733
-568.4195703024757,794
-565.7916303618415,775
-563.164415384135,738
-560.5379251905453,756
-557.9121596021815,764
-555.2871184400748,768
-552.6628015251767,796
-550.0392086783606,784
-547.4163397204204,798
-544.794194472071,780
-542.1727727539491,747
-539.5520743866118,795
-536.9320991905377,797
-534.3128469861261,839
-531.6943175936979,881
-529.0765108334947,890
-526.4594265256793,962
-523.8430644903358,1117
-521.2274245474689,1205
-518.612506517005,1264
-515.9983102187913,1266
-513.3848354725959,1249
-510.77208209810846,1219
-508.16004991493924,1205
-505.5487387426199,1391
-502.9381484006032,1533
-500.3282787082628,1747
-497.71912948489364,1865
-495.1107005497117,1804
-492.5029917218539,1775
-489.8960028203786,1557
-487.28973366426493,1412
-484.68418407241325,1303
-482.07935386364494,1204
-479.47524285670266,1169
-476.87185087025,1042
-474.2691777228715,1062
-471.66722323307334,1039
-469.0659872192821,1044
-466.4654694998459,989
-463.86566989303384,1090
-461.26658821703614,1078
-458.66822428996414,1019
-456.07057792985,1010
-453.4736489546475,1044
-450.877437182231,1006
-448.28194243039627,967
-445.68716451686,950
-443.09310325926003,1007
-440.49975847515555,1002
-437.9071299820263,1016
-435.31521759727354,976
-432.72402113821954,1007
-430.13354042210767,1022
-427.5437752661022,1000
-424.95472548728867,989
-422.36639090267386,1038
-419.7787713291855,1054
-417.1918665836721,1037
-414.60567648290385,1075
-412.0202008435715,1020
-409.4354394822874,1069
-406.8513922155845,1129
-404.26805885991723,1136
-401.685439231661,1060
-399.103533147112,1102
-396.522340422488,1097
-393.9418608739278,1077
-391.3620943174908,1083
-388.7830405691583,1071
-386.2046994448317,1010
-383.6270707603344,974
-381.05015433141045,917
-378.473949973725,884
-375.8984575028645,820
-373.32367673433623,760
-370.74960748356875,718
-368.1762495659117,674
-365.60360279663576,680
-363.03166699093265,597
-360.4604419639154,597
-357.8899275306178,566
-355.32012350599507,518
-352.7510297049233,511
-350.1826459421999,516
-347.61497203254316,515
-345.04800779059235,483
-342.4817530309082,520
-339.91620756797226,526
-337.35137121618743,518
-334.7872437898774,503
-332.22382510328725,523
-329.66111497058273,513
-327.09911320585127,507
-324.53781962310075,558
-321.9772340362607,591
-319.4173562591816,561
-316.8581861056348,510
-314.2997233893127,507
-311.7419679238294,503
-309.1849195227194,492
-306.62857799943856,514
-304.0729431673641,544
-301.51801483979375,584
-298.963792829947,579
-296.41027695096386,582
-293.85746701590574,614
-291.3053628377552,612
-288.7539642294155,615
-286.2032710037115,569
-283.65328297338897,582
-281.1039999511146,618
-278.5554217494762,656
-276.007548180983,607
-273.4603790580651,615
-270.9139141930734,638
-268.3681533982807,666
-265.8230964858798,623
-263.27874326798565,631
-260.7350935566336,620
-258.1921471637804,697
-255.6499039013039,683
-253.10836358100266,721
-250.56752601459698,596
-248.02739101372765,628
-245.48795838995704,705
-242.94922795476816,642
-240.41119951956557,667
-237.8738728956746,681
-235.33724789434166,801
-232.80132432673452,712
-230.2661020039418,712
-227.73158073697357,654
-225.19776033676033,754
-222.66464061415422,838
-220.1322213799284,776
-217.60050244477725,723
-215.06948361931552,712
-212.53916471408013,772
-210.00954553952818,786
-207.48062590603843,723
-204.9524056239104,747
-202.4248845033651,757
-199.8980623545441,779
-197.37193898751036,788
-194.84651421224817,854
-192.32178783866232,879
-189.79775967657952,841
-187.27442953574644,885
-184.7517972258321,914
-182.2298625564256,814
-179.7086253370378,806
-177.18808537710026,886
-174.66824248596583,884
-172.14909647290835,955
-169.6306471471229,938
-167.11289431772548,886
-164.59583779375328,911
-162.07947738416453,856
-159.5638128978386,896
-157.04884414357605,1114
-154.53457093009854,1298
-152.02099306604828,1370
-149.50811035998936,1079
-146.99592262040665,1001
-144.48442965570587,1015
-141.97363127421409,1122
-139.46352728417958,1261
-136.95411749377126,1468
-134.44540171107985,1419
-131.93737974411636,1094
-129.43005140081357,1017
-126.92341648902493,1486
-124.41747481652521,2000
-121.91222619101006,2545
-119.40767042009657,3127
-116.90380731132257,3798
-114.40063667214702,3935
-111.8981583099503,3262
-109.3963720320337,2382
-106.89527764561933,2131
-104.39487495785067,2302
-101.89516377579241,3385
-99.39614390642998,4827
-96.89781515667039,5724
-94.40017733334128,5917
-91.90323024319173,5337
-89.40697369289148,4569
-86.91140748903172,5019
-84.41653143812482,6054
-81.92234534660395,6149
-79.42884902082358,5247
-76.93604226705907,5515
-74.4439248915071,8124
-71.95249670028534,11944
-69.46175749943245,15077
-66.97170709490854,15702
-64.48234529259423,15001
-61.99367189829195,13142
-59.50568671772464,9700
-57.01838955653636,7974
-54.53178022029283,9706
-52.045858514480074,12517
-49.560624244506016,13423
-47.07607721569923,16425
-44.59221723330904,17912
-42.10904410250669,16664
-39.62655762838392,14946
-37.14475761595372,12461
-34.66364387015028,10924
-32.18321619582866,10479
-29.70347439776515,10457
-27.224418280657005,11000
-24.74604764912317,12073
-22.26836230770266,16228
-19.7913620608565,27263
-17.315046712966478,47626
-14.83941606833514,65038
-12.36446993118659,65038
-9.89020810566592,65038
-7.416630395839093,65038
-4.94373660569363,65038
-2.471526539137585,65038
-6.821210263296962E-13,65038
2.47084320796705,65038
4.941003281093458,65038
7.410480415786196,65038
9.879274808531363,65038
12.347386655893956,65038
14.814816154518212,65038
17.28156350112681,65038
19.74762889252179,65038
22.21301252558385,65038
24.67771459727237,22137
27.141735304626195,4782
29.605074844762612,3151
32.06773341487792,2445
34.52971121224755,2147
36.99100843422559,2651
39.45162527824516,2223
41.91156194181792,1977
44.370818622535126,1957
46.82939551806646,1739
49.287292826160524,1650
51.74451074464503,1655
54.201049471426245,1568
56.65690920448981,1610
59.112090141899785,1400
61.56659248179983,1306
64.02041642241159,1283
66.4735621620365,1186
68.92602989905402,1262
71.37781983192338,1209
73.82893215918205,1169
76.27936707944684,1279
78.72912479141326,1266
81.17820549385567,1316
83.62660938562783,1558
86.07433666566146,1394
88.5213875329681,1061
90.96776218663751,1106
93.41346082583925,1098
95.85848364982041,1229
98.30283085790859,1335
100.7465026495089,1341
103.18949922410604,1303
105.63182078126385,1259
108.07346752062438,1404
110.51443964190923,1167
112.95473734491827,1083
115.39436082953114,1076
117.83331029570547,1030
120.27158594347827,1059
122.7091879729652,1159
125.1461165843615,1113
127.58237197794062,1049
130.01795435405518,1010
132.4528639131364,1109
134.88710085569494,1170
137.32066538231982,1107
139.75355769367923,922
142.1857779905207,883
144.61732647366978,949
147.04820334403132,1052
149.47840880258934,1050
151.90794305040674,1077
154.33680628862487,1112
156.76499871846443,1354
159.19252054122433,1612
161.61937195828352,1667
164.04555317109896,1795
166.47106438120693,1906
168.89590579022217,2074
171.320077599839,2466
173.7435800118302,2381
176.16641322804742,2360
178.58857745042144,2564
181.01007288096173,2777
183.43089972175687,2814
185.85105817497413,2732
188.27054844285988,2723
190.6893707277394,2674
193.10752523201643,2765
195.5250121581745,2716
197.9418317087751,2838
200.3579840864594,2805
202.7734694939469,2798
205.18828813403627,2863
207.6024402096051,2889
210.01592592360964,3057
212.42874547908548,3085
214.84089907914665,3099
217.2523869269868,3052
219.66320922587727,2929
222.0733661791695,2992
224.48285799029293,3027
226.8916848627572,2955
229.29984700014882,3096
231.7073446061355,3076
234.11417788446204,2937
236.520347038953,2915
238.92585227351185,2959
241.33069379212054,2971
243.73487179884035,2917
246.1383864978112,2980
248.541238093252,3015
250.9434267894609,3043
253.34495279081432,2936
255.74581630176783,2964
258.1460175268563,2929
260.54555667069314,2925
262.9444339379703,2950
265.3426495334594,2835
267.7402036620107,2919
270.1370965285529,2872
272.53332833809407,2935
274.9288992957214,2925
277.32380960660055,2835
279.718059475976,2900
282.1116491091717,3037
284.5045787115897,2926
286.89684848871195,2886
289.2884586460981,2937
291.67940938938807,2990
294.0697009242996,2905
296.4593334566299,2916
298.84830719225477,2866
301.23662233712923,2957
303.6242790972866,2926
306.01127767884,2907
308.39761828798066,2811
310.78330113097934,2844
313.16832641418534,2850
315.5526943440269,2832
317.9364051270112,2747
320.3194589697242,2703
322.70185607883093,2703
325.0835966610754,2749
327.4646809232805,2653
329.8451090723478,2592
332.2248813152577,2658
334.6039978590701,2689
336.9824589109231,2585
339.36026467803447,2632
341.7374153677,2553
344.113911187295,2572
346.48975234427337,2669
348.8649390461686,2534
351.2394715005918,2496
353.61334991523415,2588
355.9865744978655,2493
358.35914545633375,2493
360.73106299856715,2579
363.10232733257146,2455
365.47293866643247,2486
367.84289720831396,2431
370.2122031664593,2463
372.5808567491905,2479
374.9488581649083,2483
377.31620762209275,2415
379.6829053293021,2390
382.0489514951745,2370
384.4143463284262,2404
386.7790900378528,2487
389.14318283232853,2451
391.50662492080653,2405
393.86941651231916,2420
396.23155781597745,2405
398.5930490409713,2480
400.9538903965696,2402
403.3140820921202,2447
405.6736243370498,2399
408.03251734086336,2377
410.3907613131465,2438
412.74835646356166,2359
415.10530300185144,2383
417.4616011378372,2361
419.81725108141893,2304
422.1722530425758,2407
424.5266072313656,2269
426.880313857925,2306
429.2333731324701,2321
431.58578526529516,2299
433.9375504667738,2288
436.2886689473588,2295
438.63914091758113,2304
440.9889665880513,2288
443.33814616945835,2316
445.68667987257015,2250
448.03456790823395,2276
450.3818104873759,2265
452.72840782100013,2269
455.07436012019105,2332
457.41966759611057,2274
459.7643304600007,2303
462.10834892318155,2292
464.4517231970525,2266
466.79445349309174,2277
469.1365400228566,2303
471.4779829979826,2274
473.81878263018564,2317
476.15893913125876,2389
478.4984527130747,2437
480.8373235875855,2518
483.17555196682144,2658
485.5131380628919,2589
487.8500820879857,2803
490.1863842543697,2981
492.52204477439034,3261
494.8570638604725,3656
497.1914417251204,3971
499.52517858091653,4013
501.85827464052306,4052
504.19073011668036,4024
506.5225452222086,3883
508.85372017000566,3646
511.18425517304956,3552
513.514150444396,3829
515.8434061971808,4732
518.1720226446176,5890
520.4999999999999,6184
522.8273384766991,5888
525.1540382881666,5378
527.480099647932,4662
529.8055227696037,3847
532.1303078668694,3182
534.454455153496,2802
536.777964843328,2598
539.1008371502907,2495
541.4230722883866,2488
543.744670471698,2423
546.0656319143858,2487
548.3859568306899,2468
550.7056454349294,2442
553.0246979415016,2369
555.3431145648834,2303
557.6608955196306,2389
559.978041020377,2250
562.2945512818363,2369
564.6104265188006,2458
566.9256669461412,2503
569.2402727788082,2512
571.5542442318302,2446
573.8675815203156,2458
576.1802848594508,2459
578.4923544645015,2433
580.8037905508126,2461
583.114593333807,2480
585.4247630289875,2510
587.7342998519354,2448
590.0432040183106,2544
592.3514757438526,2515
594.6591152443794,2463
596.9661227357875,2473
599.2724984340531,2479
601.578242555231,2464
603.8833553154542,2360
606.1878369309362,2452
608.4916876179676,2377
610.7949075929192,2385
613.0974970722403,2325
615.3994562724587,2369
617.7007854101818,2381
620.0014847020951,2422
622.3015543649641,2368
624.6009946156324,2388
626.8998056710224,2375
629.1979877481361,2369
631.4955410640538,2387
633.7924658359349,2419
636.0887622810175,2400
638.3844306166192,2231
640.6794710601358,2391
642.9738838290426,2375
645.2676691408932,2335
647.5608272133207,2418
649.853358264037,2309
652.1452625108324,2375
654.4365401715764,2470
656.7271914642178,2422
659.0172166067838,2452
661.3066158173809,2395
663.5953893141935,2385
665.8835373154867,2458
668.1710600396028,2404
670.4579577049639,2443
672.7442305300709,2382
675.0298787335033,2409
677.3149025339197,2342
679.599302150058,2397
681.8830778007342,2427
684.1662297048437,2358
686.4487580813608,2415
688.7306631493387,2385
691.0119451279091,2400
693.2926042362834,2394
695.5726406937516,2431
697.8520547196814,2435
700.1308465335215,2338
702.4090163547982,2350
704.6865644031171,2337
706.9634908981619,2356
709.2397960596965,2413
711.5154801075631,2409
713.7905432616823,2349
716.0649857420548,2374
718.3388077687592,2382
720.612009561953,2366
722.8845913418733,2406
725.1565533288352,2397
727.427895743234,2478
729.6986188055427,2307
731.9687227363137,2329
734.238207756178,2411
736.5070740858458,2331
738.7753219461066,2347
741.0429515578281,2386
743.3099631419569,2439
745.5763569195191,2337
747.8421331116193,2424
750.1072919394409,2402
752.3718336242467,2382
754.6357583873777,2435
756.8990664502545,2413
759.1617580343765,2438
761.423833361321,2415
763.6852926527457,2330
765.9461361303862,2413
768.206364016058,2434
770.4659765316536,2327
772.7249738991469,2405
774.9833563405886,2436
777.2411240781092,2381
779.4982773339183,2417
781.7548163303044,2463
784.010741289634,2553
786.2660524343538,2561
788.5207499869881,2502
790.7748341701416,2444
793.0283052064964,2475
795.2811633188143,2460
797.5334087299362,2437
799.7850416627813,2491
802.0360623403484,2501
804.2864709857143,2418
806.5362678220353,2415
808.7854530725468,2538
811.0340269605625,2529
813.2819897094754,2413
815.5293415427581,2516
817.77608268396,2461
820.0222133567116,2468
822.2677337847211,2457
824.5126441917765,2433
826.7569448017433,2502
829.0006358385675,2469
831.2437175262731,2471
833.4861900889629,2495
835.7280537508192,2452
837.9693087361026,2389
840.2099552691533,2459
842.4499935743896,2417
844.689423876309,2513
846.9282463994886,2442
849.1664613685833,2497
851.4040690083276,2440
853.6410695435349,2424
855.877463199097,2492
858.1132501999847,2408
860.3484307712487,2387
862.5830051380175,2424
864.8169735254988,2560
867.0503361589791,2585
869.2830932638243,2526
871.5152450654786,2471
873.7467917894654,2499
875.9777336613873,2465
878.2080709069252,2505
880.4378037518389,2511
882.666932421968,2570
884.8954571432301,2509
887.1233781416219,2539
889.3506956432192,2543
891.5774098741766,2612
893.803521060728,2541
896.0290294291852,2486
898.2539352059397,2574
900.4782386174619,2515
902.7019398903011,2557
904.925039251085,2514
907.147536926521,2461
909.3694331433943,2466
911.59072812857,2515
913.8114221089921,2384
916.0315153116827,2411
918.2510079637437,2471
920.4699002923547,2406
922.6881925247761,2472
924.905884888345,2457
927.1229776104793,2520
929.3394709186747,2374
931.555365040506,2437
933.7706602036275,2377
935.9853566357709,2386
938.1994545647489,2408
940.4129542184515,2414
942.6258558248488,2468
944.8381596119883,2469
947.0498658079974,2362
949.2609746410825,2394
951.4714863395287,2307
953.6814011316998,2359
955.8907192460387,2275
958.0994409110671,2279
960.3075663553858,2338
962.5150958076741,2265
964.7220294966913,2365
966.928367651274,2306
969.1341105003388,2393
971.3392582728806,2377
973.5438111979742,2251
975.747769504772,2245
977.9511334225061,2221
980.153903180487,2312
982.3560790081052,2288
984.5576611348289,2284
986.7586497902058,2289
988.9590452038618,2253
991.158847605503,2224
993.3580572249133,2243
995.5566742919558,2222
997.7546990365728,2162
999.952131688785,2119
1002.1489724786926,2073
1004.3452216364743,2097
1006.5408793923874,2095
1008.7359459767691,2076
1010.9304216200343,1974
1013.1243065526781,2001
1015.3176010052733,1977
1017.510305208472,1985
1019.7024193930064,1975
1021.8939437896848,1994
1024.0848786293977,1991
1026.2752241431122,2007
1028.4649805618747,2034
1030.6541481168115,1909
1032.842727039127,2011
1035.0307175601051,1933
1037.2181199111074,1821
1039.4049343235752,1950
1041.591161029029,1939
1043.7768002590683,1951
1045.9618522453698,1896
1048.1463172196918,1973
1050.3301954138697,1929
1052.513487059818,1951
1054.69619238953,1919
1056.8783116350783,1911
1059.0598450286152,1963
1061.2407928023704,1966
1063.4211551886528,1889
1065.6009324198508,1937
1067.780124728432,1906
1069.9587323469414,1932
1072.1367555080046,1905
1074.314194444325,1896
1076.4910493886855,1869
1078.667320573947,1850
1080.843008233051,1884
1083.0181125990161,1815
1085.1926339049414,1905
1087.3665723840027,1813
1089.5399282694575,1855
1091.7127017946405,1811
1093.8848931929647,1873
1096.0565026979243,1842
1098.2275305430899,1808
1100.3979769621128,1864
1102.567842188722,1833
1104.737126456726,1792
1106.9058300000124,1824
1109.0739530525475,1827
1111.2414958483764,1805
1113.4084586216231,1735
1115.5748416064907,1849
1117.7406450372605,1861
1119.9058691482942,1759
1122.0705141740304,1828
1124.2345803489884,1813
1126.3980679077658,1817
1128.5609770850388,1829
1130.7233081155623,1792
1132.8850612341707,1783
1135.0462366757774,1800
1137.2068346753745,1801
1139.3668554680326,1806
1141.526299288901,1745
1143.68516637321,1747
1145.8434569562655,1771
1148.001171273455,1857
1150.158309560244,1821
1152.3148720521767,1732
1154.470858984876,1810
1156.626270594044,1711
1158.7811071154629,1727
1160.9353687849912,1786
1163.089055838569,1772
1165.242168512213,1768
1167.3947070420209,1779
1169.5466716641677,1803
1171.6980626149075,1727
1173.8488801305748,1742
1175.9991244475814,1764
1178.1487958024186,1791
1180.2978944316555,1787
1182.4464205719428,1688
1184.5943744600072,1758
1186.7417563326567,1699
1188.8885664267755,1689
1191.0348049793297,1781
1193.1804722273619,1760
1195.325568407995,1715
1197.4700937584303,1779
1199.614048515948,1761
1201.7574329179074,1724
1203.900247201746,1795
1206.042491604982,1724
1208.1841663652099,1741
1210.3252717201053,1731
1212.465807907422,1814
1214.6057751649923,1790
1216.7451737307279,1737
1218.8840038426192,1693
1221.0222657387353,1802
1223.1599596572241,1821
1225.2970858363137,1798
1227.4336445143094,1822
1229.5696359295966,1774
1231.705060320639,1823
1233.8399179259786,1794
1235.9742089842384,1785
1238.107933734118,1833
1240.2410924143974,1869
1242.373685263935,1819
1244.5057125216676,1868
1246.6371744266116,1814
1248.7680712178621,1837
1250.898403134593,1901
1253.028170416058,1847
1255.1573733015875,1824
1257.2860120305932,1809
1259.4140868425648,1836
1261.54159797707,1784
1263.6685456737569,1855
1265.7949301723515,1867
1267.9207517126597,1793
1270.046010534565,1814
1272.1707068780306,1761
1274.2948409830983,1810
1276.4184130898889,1904
1278.541423438603,1861
1280.6638722695184,1871
1282.785759822993,1831
1284.9070863394636,1887
1287.0278520594447,1884
1289.1480572235314,1870
1291.2677020723963,1844
1293.3867868467923,1838
1295.5053117875495,1924
1297.623277135579,1924
1299.740683131868,1860
1301.8575300174857,1925
1303.973818033578,1981
1306.0895474213703,1950
1308.2047184221678,1961
1310.3193312773528,1986
1312.4333862283888,1982
1314.5468835168163,1933
1316.659823384255,1921
1318.7722060724045,1907
1320.8840318230418,1924
1322.9953008780249,2030
1325.1060134792888,1940
1327.2161698688478,1964
1329.3257702887959,1940
1331.4348149813054,1973
1333.5433041886276,1958
1335.6512381530933,1888
1337.7586171171101,1917
1339.8654413231675,1991
1341.9717110138317,1905
1344.0774264317488,1958
1346.1825878196432,1943
1348.2871954203192,1922
1350.3912494766587,1964
1352.4947502316231,1946
1354.5976979282532,1949
1356.7000928096686,1925
1358.8019351190665,1956
1360.9032250997243,1935
1363.0039629949988,1993
1365.1041490483235,1994
1367.2037835032133,1935
1369.3028666032606,1905
1371.401398592137,1884
1373.4993797135926,1924
1375.5968102114575,1902
1377.6936903296396,1891
1379.7900203121262,1845
1381.8858004029835,1912
1383.9810308463561,1931
1386.075711886469,1929
1388.1698437676241,1955
1390.2634267342032,1959
1392.356461030667,1994
1394.4489469015557,2033
1396.5408845914872,2030
1398.6322743451592,1977
1400.7231164073469,1934
1402.813411022907,1948
1404.903158436773,1928
1406.9923588939578,1989
1409.0810126395531,2013
1411.1691199187303,1984
1413.2566809767386,2028
1415.343696058907,2018
1417.4301654106425,1982
1419.5160892774315,1974
1421.6014679048399,1986
1423.6863015385125,2016
1425.7705904241707,2004
1427.8543348076178,1984
1429.9375349347342,1940
1432.0201910514802,2038
1434.102303403894,2046
1436.1838722380944,2031
1438.2648978002767,2028
1440.3453803367174,2020
1442.4253200937692,2043
1444.5047173178677,2012
1446.5835722555234,1999
1448.6618851533285,2073
1450.739656257952,2137
1452.8168858161434,2109
1454.8935740747306,2139
1456.96972128062,2098
1459.045327680797,2175
1461.120393522327,2102
1463.1949190523528,2128
1465.2689045180973,2082
1467.3423501668608,2104
1469.415256246024,2135
1471.4876230030463,2152
1473.559450685465,2219
1475.6307395408976,2238
1477.7014898170391,2258
1479.771701761665,2167
1481.8413756226287,2269
1483.9105116478618,2250
1485.9791100853772,2317
1488.0471711832643,2270
1490.1146951896926,2253
1492.1816823529098,2276
1494.2481329212433,2295
1496.3140471430984,2355
1498.3794252669609,2280
1500.4442675413939,2310
1502.5085742150404,2315
1504.572345536622,2488
1506.6355817549388,2347
1508.6982831188702,2407
1510.7604498773744,2438
1512.8220822794883,2479
1514.8831805743293,2436
1516.9437450110909,2514
1519.003775839048,2608
1521.0632733075522,2562
1523.1222376660367,2613
1525.1806691640113,2720
1527.2385680510652,2788
1529.2959345768668,2748
1531.3527689911643,2846
1533.4090715437833,2789
1535.4648424846291,2825
1537.5200820636855,3031
1539.5747905310159,2969
1541.6289681367616,3105
1543.6826151311434,2962
1545.7357317644614,3036
1547.7883182870937,3096
1549.8403749494987,3207
1551.8919020022113,3214
1553.9428996958477,3270
1555.9933682811015,3400
1558.0433080087469,3495
1560.0927191296346,3584
1562.1416018946961,3562
1564.1899565549415,3646
1566.2377833614592,3594
1568.2850825654164,3579
1570.3318544180606,3458
1572.3780991707158,3379
1574.423817074788,3378
1576.4690083817595,3139
1578.5136733431923,3011
1580.5578122107272,2957
1582.601425236085,2859
1584.6445126710646,2803
1586.6870747675434,2644
1588.7291117774776,2619
1590.7706239529034,2559
1592.8116115459347,2451
1594.8520748087658,2395
1596.8920139936686,2277
1598.9314293529933,2309
1600.9703211391711,2293
1603.008689604711,2278
1605.0465350022005,2203
1607.0838575843068,2115
1609.1206576037753,2066
1611.1569353134305,2140
1613.1926909661765,2055
1615.2279248149953,1986
1617.2626371129481,2053
1619.2968281131757,1961
1621.3304980688963,2018
1623.3636472334088,1960
1625.39627586009,2072
1627.428384202396,2032
1629.459972513861,1931
1631.4910410480993,2000
1633.5215900588028,1983
1635.551619799744,2001
1637.5811305247717,2008
1639.6101224878166,1990
1641.6385959428862,1925
1643.6665511440683,1962
1645.693988345528,1917
1647.7209078015112,1871
1649.7473097663405,1968
1651.7731944944203,1908
1653.7985622402307,1887
1655.823413258333,1859
1657.847747803366,1891
1659.8715661300494,1922
1661.8948684931793,1945
1663.9176551476316,1917
1665.9399263483624,1917
1667.9616823504057,1893
1669.982923408873,1890
1672.0036497789574,1872
1674.0238617159293,1834
1676.043559475138,1876
1678.0627433120121,1900
1680.081413482059,1862
1682.0995702408654,1862
1684.117213844096,1883
1686.134344547495,1885
1688.1509626068864,1857
1690.1670682781705,1955
1692.182661817329,1802
1694.1977434804217,1852
1696.2123135235875,1861
1698.226372203043,1927
1700.2399197750851,1936
1702.2529564960905,1890
1704.2654826225112,1864
1706.277498410882,1854
1708.2890041178139,1958
1710.2999999999988,1930
1712.3104863142066,1915
1714.3204633172854,1877
1716.329931266163,1898
1718.3388904178469,1891
1720.3473410294214,1902
1722.3552833580516,1864
1724.3627176609807,1883
1726.3696441955308,1868
1728.3760632191033,1892
1730.3819749891782,1791
1732.3873797633146,1875
1734.3922777991502,1878
1736.3966693544012,1924
1738.4005546868639,1870
1740.4039340544127,1837
1742.406807715001,1852
1744.4091759266616,1852
1746.4110389475054,1867
1748.4123970357223,1840
1750.413250449582,1841
1752.4135994474318,1844
1754.4134442876993,1920
1756.4127852288902,1863
1758.4116225295893,1775
1760.4099564484595,1847
1762.407787244244,1791
1764.405115175764,1915
1766.4019405019203,1786
1768.3982634816916,1818
1770.3940843741357,1837
1772.3894034383907,1877
1774.3842209336717,1839
1776.378537119274,1790
1778.372352254571,1841
1780.3656665990156,1869
1782.3584804121397,1851
1784.3507939535534,1888
1786.3426074829463,1790
1788.3339212600863,1847
1790.3247355448211,1810
1792.3150505970766,1860
1794.3048666768573,1811
1796.2941840442477,1800
1798.2830029594106,1839
1800.2713236825884,1851
1802.2591464741004,1795
1804.2464715943465,1858
1806.2332993038058,1761
1808.2196298630352,1807
1810.2054635326708,1846
1812.190800573428,1934
1814.175641246101,1878
1816.1599858115628,1900
1818.1438345307652,1894
1820.127187664738,1851
1822.1100454745924,1843
1824.092408221516,1854
1826.0742761667766,1869
1828.055649571721,1825
1830.0365286977735,1820
1832.0169138064398,1833
1833.9968051593014,1866
1835.9762030180214,1857
1837.9551076443408,1853
1839.9335193000788,1769
1841.9114382471344,1802
1843.888864747485,1837
1845.8657990631878,1853
1847.842241456378,1781
1849.8181921892697,1923
1851.7936515241558,1802
1853.7686197234098,1839
1855.7430970494815,1794
1857.7170837649014,1752
1859.6905801322787,1822
1861.6635864143004,1841
1863.6361028737338,1821
1865.608129773424,1852
1867.5796673762961,1873
1869.5507159453537,1789
1871.521275743678,1840
1873.4913470344313,1844
1875.4609300808534,1806
1877.4300251462632,1813
1879.3986324940588,1828
1881.366752387717,1794
1883.3343850907936,1828
1885.3015308669228,1806
1887.268189979819,1833
1889.2343626932739,1880
1891.2000492711595,1786
1893.1652499774254,1830
1895.1299650761011,1813
1897.0941948312952,1859
1899.0579395071945,1859
1901.0211993680641,1843
1902.98397467825,1822
1904.9462657021745,1787
1906.9080727043415,1819
1908.869395949332,1832
1910.8302357018065,1836
1912.790592226504,1855
1914.7504657882428,1814
1916.7098566519212,1801
1918.6687650825133,1809
1920.6271913450764,1865
1922.5851357047422,1772
1924.5425984267245,1796
1926.499579776314,1748
1928.4560800188833,1824
1930.4120994198802,1801
1932.367638244833,1874
1934.32269675935,1869
1936.2772752291175,1826
1938.231373919899,1826
1940.1849930975404,1776
1942.1381330279637,1840
1944.0907939771696,1825
1946.0429762112412,1821
1947.9946799963363,1836
1949.9459055986945,1791
1951.896653284633,1876
1953.8469233205478,1815
1955.7967159729142,1906
1957.7460315082863,1821
1959.6948701932974,1829
1961.6432322946594,1788
1963.5911180791632,1773
1965.5385278136787,1811
1967.4854617651545,1765
1969.4319202006182,1826
1971.377903387176,1754
1973.3234115920136,1844
1975.268445082395,1834
1977.2130041256642,1813
1979.1570889892423,1856
1981.1006999406304,1803
1983.04383724741,1800
1984.986501177238,1782
1986.928691997853,1788
1988.8704099770712,1854
1990.811655382789,1810
1992.7524284829801,1805
1994.692729545698,1828
1996.6325588390755,1788
1998.5719166313224,1776
2000.5108031907307,1787
2002.4492187856677,1750
2004.387163684583,1883
2006.3246381560011,1783
2008.2616424685298,1809
2010.1981768908527,1792
2012.1342416917332,1850
2014.069837140014,1781
2016.0049635046162,1760
2017.9396210545406,1776
2019.8738100588666,1842
2021.8075307867502,1815
2023.740783507431,1784
2025.6735684902228,1871
2027.6058860045214,1748
2029.5377363198004,1846
2031.4691197056118,1820
2033.4000364315875,1782
2035.3304867674374,1784
2037.260470982952,1773
2039.189989347998,1873
2041.1190421325232,1809
2043.047629606554,1797
2044.9757520401945,1816
2046.9034097036288,1770
2048.8306028671195,1844
2050.7573318010086,1831
2052.683596775716,1769
2054.609398061742,1822
2056.5347359296647,1764
2058.4596106501403,1739
2060.384022493906,1768
2062.3079717317764,1790
2064.231458634646,1787
2066.1544834734873,1757
2068.077046519352,1764
2069.99914804337,1758
2071.9207883167524,1848
2073.8419676107865,1761
2075.7626861968406,1748
2077.6829443463607,1737
2079.6027423308715,1817
2081.522080421977,1816
2083.440958891362,1745
2085.359378010786,1784
2087.2773380520907,1804
2089.194839287196,1766
2091.111881988101,1792
2093.0284664268825,1821
2094.9445928756973,1815
2096.86026160678,1802
2098.775472892446,1802
2100.690227005088,1772
2102.604524217178,1813
2104.5183648012676,1810
2106.431749029985,1763
2108.34467717604,1845
2110.2571495122206,1807
2112.169166311393,1788
2114.080727846503,1788
2115.9918343905747,1774
2117.902486216711,1788
2119.8126835980956,1877
2121.722426807987,1823
2123.6317161197285,1861
2125.5405518067364,1846
2127.448934142509,1883
2129.356863400624,1887
2131.264339854737,1798
2133.1713637785815,1803
2135.077935445972,1827
2136.9840551308002,1845
2138.889723107037,1860
2140.7949396487334,1857
2142.699705030018,1879
2144.6040195250994,1888
2146.507883408264,1794
2148.4112969538774,1909
2150.3142604363848,1836
2152.2167741303097,1911
2154.1188383102535,1939
2156.0204532508997,1854
2157.9216192270064,1877
2159.822336513414,1881
2161.7226053850413,1902
2163.622426116884,1907
2165.5217989840185,1850
2167.4207242616,1888
2169.319202224862,1893
2171.2172331491165,1881
2173.1148173097563,1958
2175.0119549822507,1938
2176.90864644215,1966
2178.8048919650823,1933
2180.7006918267534,1961
2182.596046302952,1985
2184.4909556695407,1907
2186.3854202024645,1914
2188.279440177746,1922
2190.173015871487,1875
2192.066147559868,1928
2193.958835519149,1981
2195.851080025667,1971
2197.7428813558417,1971
2199.6342397861667,1970
2201.5251555932186,2036
2203.415629053651,2013
2205.3056604441986,1997
2207.19525004167,1986
2209.084398122958,1971
2210.9731049650327,1998
2212.861370844941,2116
2214.749196039812,2043
2216.636580826851,2131
2218.523525483344,2048
2220.410030286655,2092
2222.296095514226,2101
2224.1817214435805,2098
2226.066908352319,2040
2227.951656518121,2074
2229.835966218746,2048
2231.71983773203,2027
2233.6032713358913,2130
2235.486267308324,2072
2237.3688259274036,2084
2239.2509474712824,2085
2241.132632218193,2039
2243.013880446447,2034
2244.8946924344323,2094
2246.7750684606203,2024
2248.6550088035574,2079
2250.534513741871,2080
2252.413583554265,2157
2254.292218519526,2053
2256.170418916517,2011
2258.0481850241786,2006
2259.925517121534,1978
2261.8024154876825,1995
2263.678880401803,2047
2265.5549121431536,1991
2267.430510991071,2091
2269.305677224971,2133
2271.180411124348,1993
2273.0547129687766,2023
2274.9285830379076,1977
2276.8020216114737,2025
2278.6750289692845,1964
2280.5476053912294,1973
2282.4197511572766,2087
2284.2914665474727,2125
2286.162751841943,2079
2288.0336073208937,2069
2289.904033264608,2037
2291.774029953448,2079
2293.6435976678554,2006
2295.5127366883517,1976
2297.381447295534,1879
2299.2497297700825,1902
2301.1175843927526,1861
2302.9850114443825,1818
2304.852011205885,1740
2306.7185839582553,1730
2308.5847299825664,1704
2310.4504495599676,1680
2312.3157429716925,1584
2314.1806104990483,1647
2316.0450524234247,1623
2317.9090690262888,1643
2319.772660589186,1601
2321.635827393742,1613
2323.498569721661,1659
2325.3608878547248,1665
2327.2227820747967,1647
2329.0842526638157,1570
2330.945299903803,1636
2332.805924076857,1669
2334.6661254651535,1650
2336.525904350951,1601
2338.3852610165827,1596
2340.244195744464,1602
2342.102708817088,1601
2343.9608005170253,1607
2345.8184711269287,1633
2347.675720929526,1700
2349.532550207628,1583
2351.38895924412,1601
2353.24494832197,1636
2355.100517724223,1587
2356.955667734004,1626
2358.810398634514,1674
2360.664710709037,1662
2362.5186042409337,1634
2364.3720795136437,1633
2366.225136810686,1633
2368.0777764156583,1701
2369.929998612237,1644
2371.7818036841777,1631
2373.633191915315,1648
2375.484163589562,1705
2377.3347189909114,1616
2379.184858403434,1699
2381.03458211128,1623
2382.8838903986775,1674
2384.732783549936,1733
2386.5812618494406,1619
2388.4293255816588,1651
2390.2769750311327,1639
2392.1242104824883,1716
2393.971032220427,1705
2395.8174405297295,1711
2397.6634356952563,1628
2399.509018001947,1656
2401.3541877348193,1670
2403.1989451789705,1675
2405.043290619576,1647
2406.8872243418905,1621
2408.730746631247,1677
2410.5738577730594,1642
2412.4165580528183,1709
2414.258847756095,1684
2416.100727168537,1641
2417.9421965758734,1700
2419.783256263912,1632
2421.623906518538,1655
2423.4641476257157,1633
2425.303979871491,1649
2427.143403541984,1665
2428.9824189233977,1725
2430.821026302012,1681
2432.6592259641866,1664
2434.497018196361,1652
2436.33440328505,1689
2438.171381516851,1674
2440.00795317844,1674
2441.844118556569,1673
2443.6798779380724,1730
2445.5152316098606,1626
2447.3501798589255,1585
2449.1847229723357,1612
2451.0188612372403,1680
2452.8525949408663,1650
2454.6859243705203,1623
2456.518849813587,1621
2458.3513715575314,1640
2460.183489889895,1646
2462.015205098301,1674
2463.8465174704493,1710
2465.67742729412,1755
2467.5079348571717,1680
2469.338040447542,1711
2471.1677443532476,1710
2472.9970468623833,1633
2474.825948263123,1674
2476.6544488437207,1669
2478.482548892508,1656
2480.310248697896,1668
2482.137548548374,1637
2483.9644487325118,1635
2485.790949538956,1639
2487.617051256433,1641
2489.44275417375,1626
2491.26805857979,1692
2493.0929647635157,1621
2494.917473013971,1645
2496.741583620276,1691
2498.5652968716304,1632
2500.3886130573137,1704
2502.2115324666834,1695
2504.0340553891765,1710
2505.856182114308,1716
2507.6779129316733,1759
2509.499248130945,1624
2511.3201880018764,1673
2513.140732834298,1654
2514.9608829181198,1754
2516.780638543331,1655
2518.6,1590
2520.418967578273,1664
2522.237541568376,1718
2524.0557222606144,1726
2525.8735099453706,1686
2527.6909049131086,1773
2529.507907454368,1694
2531.32451785977,1700
2533.140736420014,1689
2534.9565634258774,1737
2536.771999168218,1706
2538.5870439379714,1751
2540.4016980261526,1713
2542.2159617238544,1757
2544.02983532225,1718
2545.8433191125914,1816
2547.656413386209,1821
2549.4691184345115,1788
2551.2814345489874,1728
2553.093362021204,1754
2554.904901142808,1830
2556.716052205523,1788
2558.526815501153,1689
2560.3371913215824,1744
2562.147179958771,1857
2563.956781704761,1812
2565.7659968516705,1841
2567.5748256916986,1754
2569.3832685171224,1750
2571.1913256202984,1807
2572.9989972936614,1818
2574.806283829725,1829
2576.613185521084,1832
2578.4197026604074,1800
2580.2258355404483,1789
2582.031584454035,1845
2583.836949694077,1865
2585.6419315535613,1879
2587.4465303255533,1827
2589.2507463032002,1832
2591.0545797797245,1757
2592.8580310484303,1872
2594.6611004026995,1867
2596.463788135992,1860
2598.266094541849,1872
2600.0680199138874,1967
2601.869564545807,1921
2603.670728731383,1840
2605.4715127644704,1929
2607.2719169390048,1873
2609.071941548998,1890
2610.8715868885433,1899
2612.670853251811,1923
2614.469740933052,1921
2616.268250226594,1982
2618.0663814268455,1947
2619.864134828292,1874
2621.6615107255006,1925
2623.458509413115,1942
2625.2551311858597,1891
2627.0513763385347,1894
2628.8472451660223,1892
2630.6427379632833,1944
2632.4378550253564,1912
2634.232596647359,1887
2636.026963124488,1858
2637.8209547520187,1860
2639.6145718253065,1914
2641.407814639785,1884
2643.200683490966,1896
2644.9931786744414,1881
2646.7853004858807,1866
2648.577049221034,1821
2650.3684251757277,1919
2652.1594286458712,1852
2653.9500599274484,1790
2655.740319316525,1813
2657.5302071092437,1828
2659.3197236018286,1809
2661.10886909058,1821
2662.8976438718782,1781
2664.686048242183,1757
2666.4740824980327,1805
2668.2617469360443,1748
2670.0490418529134,1728
2671.8359675454153,1769
2673.622524310403,1787
2675.408712444811,1768
2677.1945322456495,1689
2678.979984010009,1755
2680.76506803506,1785
2682.5497846180497,1796
2684.334134056306,1718
2686.1181166472343,1759
2687.9017326883213,1658
2689.6849824771293,1689
2691.4678663113013,1728
2693.2503844885596,1708
2695.032537306705,1753
2696.8143250636167,1681
2698.5957480572542,1724
2700.3768065856534,1695
2702.1575009469316,1653
2703.937831439283,1705
2705.717798360982,1719
2707.4974020103837,1739
2709.276642685917,1751
2711.055520686095,1674
2712.834036309506,1650
2714.612189854819,1645
2716.389981620782,1700
2718.1674119062204,1685
2719.944481010041,1764
2721.721189231226,1735
2723.4975368688415,1794
2725.273524222027,1646
2727.0491515900053,1663
2728.824419272075,1685
2730.5993275676146,1705
2732.3738767760838,1648
2734.148067197016,1659
2735.921899130031,1720
2737.6953728748194,1750
2739.468488731156,1671
2741.2412469988926,1696
2743.0136479779617,1703
2744.785691968372,1714
2746.5573792702116,1715
2748.3287101836504,1661
2750.099685008934,1645
2751.870304046388,1667
2753.640567596418,1691
2755.4104759595057,1717
2757.1800294362156,1700
2758.949228327187,1715
2760.7180729331412,1748
2762.486563554877,1644
2764.254700493272,1755
2766.022484049284,1701
2767.789914523947,1701
2769.5569922183786,1649
2771.3237174337705,1622
2773.090090471394,1730
2774.8561116326036,1707
2776.6217812188274,1701
2778.3870995315756,1682
2780.1520668724356,1635
2781.9166835430747,1649
2783.6809498452394,1620
2785.444866080754,1688
2787.2084325515225,1630
2788.971649559527,1683
2790.73451740683,1717
2792.4970363955713,1674
2794.2592068279705,1678
2796.0210290063264,1692
2797.7825032330147,1675
2799.543629810493,1624
2801.304409041296,1708
2803.0648412280366,1690
2804.8249266734088,1685
2806.5846656801846,1627
2808.344058551212,1608
2810.1031055894246,1723
2811.8618070978273,1722
2813.6201633795085,1640
2815.378174737636,1680
2817.1358414754536,1760
2818.893163896285,1737
2820.6501423035334,1639
2822.4067770006814,1684
2824.1630682912883,1706
2825.9190164789957,1698
2827.6746218675207,1699
2829.429884760661,1669
2831.184805462294,1703
2832.9393842763743,1673
2834.693621506936,1668
2836.4475174580916,1698
2838.201072434034,1695
2839.954286739034,1675
2841.707160677441,1663
2843.459694553685,1687
2845.2118886722724,1686
2846.96374333779,1706
2848.7152588549034,1672
2850.4664355283567,1690
2852.217273662973,1704
2853.9677735636546,1695
2855.7179355353833,1756
2857.4677598832186,1725
2859.217246912299,1675
2860.9663969278427,1692
2862.715210235146,1697
2864.4636871395846,1700
2866.211827946614,1734
2867.9596329617652,1695
2869.7071024906536,1703
2871.4542368389684,1689
2873.20103631248,1711
2874.947501217038,1689
2876.6936318585695,1668
2878.4394285430812,1597
2880.1848915766604,1658
2881.9300212654707,1709
2883.6748179157553,1683
2885.4192818338374,1676
2887.1634133261173,1676
2888.907212699077,1750
2890.6506802592744,1675
2892.393816313348,1703
2894.1366211680142,1680
2895.8790951300693,1729
2897.621238506388,1713
2899.363051603925,1705
2901.1045347297118,1722
2902.8456881908596,1660
2904.58651229456,1674
2906.327007348081,1682
2908.067173658772,1581
2909.8070115340597,1669
2911.5465212814497,1715
2913.285703208527,1731
2915.0245576229563,1690
2916.7630848324807,1754
2918.5012851449196,1719
2920.2391588681758,1754
2921.976706310227,1695
2923.7139277791334,1702
2925.4508235830313,1722
2927.187394030137,1700
2928.923639428745,1668
2930.6595600872306,1708
2932.395156314046,1688
2934.1304284177218,1716
2935.8653767068713,1731
2937.6000014901815,1725
2939.3343030764227,1661
2941.068281774442,1682
2942.8019378931644,1698
2944.5352717415976,1681
2946.2682836288236,1706
2948.0009738640065,1718
2949.7333427563885,1681
2951.465390615289,1679
2953.1971177501086,1638
2954.9285244703265,1728
2956.6596110855,1774
2958.3903779052657,1685
2960.1208252393385,1689
2961.8509533975125,1761
2963.5807626896617,1736
2965.3102534257378,1747
2967.0394259157715,1648
2968.768280469873,1667
2970.496817398232,1737
2972.2250370111146,1708
2973.952939618869,1754
2975.6805255319196,1710
2977.4077950607707,1748
2979.134748516006,1751
2980.861386208289,1759
2982.587708448359,1761
2984.313715547037,1657
2986.039407815222,1686
2987.764785563891,1756
2989.489849104102,1726
2991.2145987469908,1650
2992.9390348037705,1614
2994.6631575857346,1663
2996.3869674042576,1690
2998.1104645707887,1663
2999.83364939686,1770
3001.5565221940783,1660
3003.2790832741334,1735
3005.0013329487924,1719
3006.7232715298996,1697
3008.4448993293804,1691
3010.166216659239,1712
3011.887223831558,1671
3013.607921158498,1730
3015.3283089522993,1718
3017.0483875252826,1712
3018.7681571898443,1720
3020.4876182584626,1683
3022.2067710436927,1678
3023.9256158581707,1700
3025.644153014609,1671
3027.362382825801,1778
3029.0803056046193,1716
3030.797921664012,1683
3032.5152313170106,1707
3034.2322348767225,1684
3035.9489326563353,1717
3037.665324969115,1711
3039.3814121284063,1628
3041.097194447633,1690
3042.812672240299,1595
3044.5278458199855,1632
3046.2427155003525,1679
3047.9572815951406,1690
3049.671544418167,1669
3051.38550428333,1700
3053.0991615046073,1639
3054.812516396051,1678
3056.5255692717974,1703
3058.2383204460575,1697
3059.9507702331257,1672
3061.662918947372,1703
3063.3747669032446,1619
3065.0863144152736,1676
3066.7975617980674,1657
3068.508509366309,1713
3070.219157434767,1751
3071.9295063182844,1677
3073.639556331785,1682
3075.3493077902704,1678
3077.058761008821,1661
3078.7679163025964,1749
3080.476773986837,1720
3082.1853343768594,1675
3083.89359778806,1737
3085.6015645359153,1704
3087.3092349359786,1723
3089.016609303884,1745
3090.7236879553434,1705
3092.4304712061476,1663
3094.136959372166,1742
3095.843152769349,1719
3097.5490517137237,1713
3099.2546565213966,1723
3100.959967508554,1640
3102.66498499146,1662
3104.3697092864577,1660
3106.0741407099695,1652
3107.778279578498,1745
3109.482126208622,1672
3111.1856809170004,1678
3112.8889440203716,1735
3114.5919158355528,1676
3116.294596679439,1713
3117.996986869006,1744
3119.6990867213062,1754
3121.4008965534726,1722
3123.102416682717,1699
3124.803647426329,1729
3126.5045891016784,1830
3128.205242026213,1758
3129.90560651746,1744
3131.605682893025,1665
3133.3054714705922,1756
3135.0049725679282,1749
3136.7041865028714,1721
3138.4031135933465,1656
3140.101754157353,1705
3141.800108512971,1628
3143.498176978357,1737
3145.1959598717494,1741
3146.8934575114636,1710
3148.5906702158954,1748
3150.2875983035183,1686
3151.9842420928853,1776
3153.680601902627,1792
3155.376678051456,1676
3157.07247085816,1705
3158.767980641609,1707
3160.463207720748,1742
3162.158152414606,1751
3163.8528150422862,1784
3165.5471959229726,1762
3167.2412953759303,1747
3168.9351137204976,1676
3170.628651276098,1676
3172.3219083622307,1729
3174.014885298474,1681
3175.707582404485,1667
3177.4000000000005,1680
3179.092138404835,1672
3180.7839979388846,1702
3182.47557892212,1743
3184.166881674594,1698
3185.8579065164386,1720
3187.5486537678626,1712
3189.2391237491547,1719
3190.9293167806827,1838
3192.6192331828934,1677
3194.3088732763117,1732
3195.998237381542,1690
3197.687325819268,1690
3199.376138910251,1692
3201.064676975334,1634
3202.7529403354347,1632
3204.4409293115523,1732
3206.1286442247647,1708
3207.816085396229,1668
3209.5032531471825,1607
3211.190147798936,1665
3212.8767696728846,1699
3214.5631190905015,1652
3216.2491963733373,1703
3217.9350018430214,1669
3219.6205358212637,1755
3221.305798629851,1632
3222.990790590651,1575
3224.6755120256103,1590
3226.359963256751,1657
3228.0441446061795,1678
3229.7280563960758,1655
3231.411698948703,1689
3233.0950725863995,1750
3234.778177631587,1742
3236.461014406761,1749
3238.1435832345005,1686
3239.8258844374595,1699
3241.507918338374,1721
3243.1896852600576,1713
3244.8711855254023,1697
3246.552419457381,1728
3248.233387379042,1737
3249.914089613516,1720
3251.59452648401,1729
3253.274698313813,1692
3254.95460542629,1587
3256.6342481448855,1688
3258.313626793125,1703
3259.9927416946084,1664
3261.6715931730196,1655
3263.3501815521176,1683
3265.0285071557437,1715
3266.706570307815,1668
3268.3843713323286,1682
3270.0619105533615,1667
3271.739188295068,1673
3273.4162048816834,1634
3275.0929606375184,1672
3276.769455886966,1691
3278.445690954498,1689
3280.1216661646613,1691
3281.797381842087,1636
3283.4728383114807,1687
3285.1480358976296,1720
3286.8229749253996,1712
3288.4976557197333,1669
3290.172078605655,1678
3291.846243908266,1699
3293.5201519527463,1646
3295.193803064357,1619
3296.8671975684374,1674
3298.5403357904024,1689
3300.21321805575,1641
3301.8858446900567,1686
3303.558216018975,1682
3305.23033236824,1695
3306.9021940636603,1718
3308.57380143113,1675
3310.2451547966184,1734
3311.916254486174,1692
3313.5871008259246,1728
3315.2576941420766,1681
3316.9280347609147,1636
3318.5981230088046,1667
3320.2679592121895,1668
3321.9375436975924,1664
3323.606876791612,1679
3325.27595882093,1739
3326.944790112305,1672
3328.6133709925753,1674
3330.2817017886573,1689
3331.949782827547,1645
3333.617614436319,1696
3335.2851969421245,1710
3336.952530672199,1674
3338.619615953853,1757
3340.286453114475,1706
3341.9530424815357,1702
3343.619384382583,1632
3345.2854791452437,1697
3346.951327097224,1643
3348.6169285663073,1709
3350.2822838803577,1702
3351.947393367319,1695
3353.61225735521,1687
3355.2768761721345,1623
3356.9412501462693,1676
3358.605379605873,1632
3360.2692648792827,1716
3361.9329062949146,1656
3363.596304181263,1717
