CollectionTime,7/11/2024 2:00:27 PM
ExposureUsed,3
CalibratedSpectrum
-962.7078968117929,456
-959.9714848408522,492
-957.2358232597828,510
-954.5009119013725,465
-951.7667505983302,478
-949.0333391832855,515
-946.3006774887896,503
-943.5687653473143,497
-940.837602591253,504
-938.1071890529199,501
-935.3775245645503,482
-932.6486089583007,514
-929.9204420662485,510
-927.1930237203925,516
-924.4663537526524,471
-921.7404319948689,500
-919.0152582788041,518
-916.2908324361409,515
-913.5671542984834,506
-910.8442236973568,485
-908.1220404642074,499
-905.4006044304027,487
-902.679915427231,504
-899.959973285902,483
-897.2407778375464,489
-894.5223289132158,477
-891.8046263438832,496
-889.0876699604426,513
-886.3714595937089,503
-883.6559950744183,510
-880.9412762332282,480
-878.2273029007168,500
-875.5140749073835,457
-872.8015920836489,495
-870.0898542598545,494
-867.3788612662631,469
-864.6686129330585,479
-861.9591090903457,478
-859.2503495681506,501
-856.5423341964203,494
-853.8350628050229,532
-851.1285352237478,467
-848.4227512823054,484
-845.7177108103272,502
-843.0134136373656,505
-840.3098595928943,504
-837.6070485063082,518
-834.9049802069229,495
-832.2036545239757,495
-829.5030712866244,511
-826.8032303239481,499
-824.1041314649472,500
-821.4057745385428,492
-818.7081593735775,504
-816.0112857988148,505
-813.3151536429393,513
-810.6197627345566,519
-807.9251129021936,492
-805.2312039742981,501
-802.5380357792392,500
-799.8456081453069,501
-797.1539209007124,479
-794.462973873588,541
-791.772766891987,536
-789.083299783884,525
-786.3945723771743,478
-783.7065844996748,494
-781.0193359791231,487
-778.3328266431781,504
-775.6470563194197,517
-772.9620248353489,487
-770.2777320183878,496
-767.5941776958798,507
-764.9113616950891,515
-762.2292838432011,504
-759.5479439673222,506
-756.8673418944801,503
-754.1874774516235,529
-751.5083504656222,506
-748.8299607632671,541
-746.15230817127,532
-743.475392516264,561
-740.7992136248035,558
-738.1237713233636,528
-735.4490654383407,530
-732.7750957960521,533
-730.1018622227365,512
-727.4293645445534,542
-724.7576025875837,527
-722.0865761778291,523
-719.4162851412126,537
-716.7467293035781,545
-714.0779084906909,555
-711.409822528237,547
-708.7424712418238,544
-706.0758544569796,510
-703.4099719991541,552
-700.7448236937178,581
-698.0804093659622,583
-695.4167288411002,556
-692.7537819442656,531
-690.0915685005134,541
-687.4300883348199,535
-684.7693412720819,573
-682.1093271371178,527
-679.4500457546669,566
-676.7914969493897,584
-674.1336805458676,532
-671.4765963686034,571
-668.8202442420206,605
-666.1646239904642,589
-663.5097354382001,557
-660.8555784094151,543
-658.2021527282176,551
-655.5494582186366,564
-652.8974947046223,580
-650.2462620100463,592
-647.5957599587009,583
-644.9459883742998,565
-642.2969470804776,573
-639.6486359007902,581
-637.0010546587141,605
-634.3542031776476,574
-631.7080812809096,576
-629.0626887917401,557
-626.4180255333008,583
-623.7740913286734,627
-621.1308860008619,606
-618.4884093727904,605
-615.8466612673046,566
-613.2056415071715,604
-610.5653499150785,578
-607.9257863136347,613
-605.28695052537,607
-602.6488423727357,563
-600.0114616781036,572
-597.3748082637674,607
-594.7388819519412,586
-592.1036825647604,611
-589.4692099242818,676
-586.8354638524829,608
-584.2024441712624,630
-581.5701507024403,627
-578.9385832677575,589
-576.3077416888759,608
-573.6776257873787,634
-571.0482353847704,608
-568.4195703024757,615
-565.7916303618415,649
-563.164415384135,584
-560.5379251905453,602
-557.9121596021815,617
-555.2871184400748,632
-552.6628015251767,623
-550.0392086783606,646
-547.4163397204204,663
-544.794194472071,659
-542.1727727539491,631
-539.5520743866118,648
-536.9320991905377,659
-534.3128469861261,733
-531.6943175936979,691
-529.0765108334947,724
-526.4594265256793,712
-523.8430644903358,807
-521.2274245474689,907
-518.612506517005,987
-515.9983102187913,928
-513.3848354725959,1033
-510.77208209810846,1074
-508.16004991493924,1262
-505.5487387426199,1290
-502.9381484006032,1465
-500.3282787082628,1364
-497.71912948489364,1374
-495.1107005497117,1131
-492.5029917218539,975
-489.8960028203786,918
-487.28973366426493,871
-484.68418407241325,802
-482.07935386364494,777
-479.47524285670266,792
-476.87185087025,756
-474.2691777228715,805
-471.66722323307334,789
-469.0659872192821,771
-466.4654694998459,729
-463.86566989303384,780
-461.26658821703614,782
-458.66822428996414,748
-456.07057792985,815
-453.4736489546475,795
-450.877437182231,771
-448.28194243039627,735
-445.68716451686,758
-443.09310325926003,770
-440.49975847515555,780
-437.9071299820263,791
-435.31521759727354,769
-432.72402113821954,768
-430.13354042210767,783
-427.5437752661022,792
-424.95472548728867,804
-422.36639090267386,843
-419.7787713291855,869
-417.1918665836721,841
-414.60567648290385,834
-412.0202008435715,823
-409.4354394822874,847
-406.8513922155845,821
-404.26805885991723,823
-401.685439231661,836
-399.103533147112,855
-396.522340422488,833
-393.9418608739278,806
-391.3620943174908,812
-388.7830405691583,831
-386.2046994448317,809
-383.6270707603344,739
-381.05015433141045,714
-378.473949973725,661
-375.8984575028645,694
-373.32367673433623,659
-370.74960748356875,630
-368.1762495659117,595
-365.60360279663576,565
-363.03166699093265,530
-360.4604419639154,516
-357.8899275306178,495
-355.32012350599507,496
-352.7510297049233,474
-350.1826459421999,445
-347.61497203254316,450
-345.04800779059235,445
-342.4817530309082,499
-339.91620756797226,476
-337.35137121618743,481
-334.7872437898774,491
-332.22382510328725,523
-329.66111497058273,468
-327.09911320585127,480
-324.53781962310075,518
-321.9772340362607,515
-319.4173562591816,491
-316.8581861056348,456
-314.2997233893127,455
-311.7419679238294,465
-309.1849195227194,492
-306.62857799943856,493
-304.0729431673641,478
-301.51801483979375,534
-298.963792829947,541
-296.41027695096386,537
-293.85746701590574,574
-291.3053628377552,520
-288.7539642294155,513
-286.2032710037115,532
-283.65328297338897,502
-281.1039999511146,536
-278.5554217494762,594
-276.007548180983,547
-273.4603790580651,510
-270.9139141930734,534
-268.3681533982807,547
-265.8230964858798,541
-263.27874326798565,547
-260.7350935566336,544
-258.1921471637804,582
-255.6499039013039,599
-253.10836358100266,609
-250.56752601459698,627
-248.02739101372765,608
-245.48795838995704,649
-242.94922795476816,592
-240.41119951956557,547
-237.8738728956746,616
-235.33724789434166,594
-232.80132432673452,579
-230.2661020039418,597
-227.73158073697357,611
-225.19776033676033,632
-222.66464061415422,653
-220.1322213799284,613
-217.60050244477725,605
-215.06948361931552,581
-212.53916471408013,636
-210.00954553952818,696
-207.48062590603843,640
-204.9524056239104,663
-202.4248845033651,682
-199.8980623545441,701
-197.37193898751036,680
-194.84651421224817,677
-192.32178783866232,663
-189.79775967657952,712
-187.27442953574644,746
-184.7517972258321,750
-182.2298625564256,756
-179.7086253370378,764
-177.18808537710026,723
-174.66824248596583,717
-172.14909647290835,760
-169.6306471471229,730
-167.11289431772548,810
-164.59583779375328,862
-162.07947738416453,754
-159.5638128978386,881
-157.04884414357605,914
-154.53457093009854,979
-152.02099306604828,938
-149.50811035998936,825
-146.99592262040665,818
-144.48442965570587,896
-141.97363127421409,939
-139.46352728417958,869
-136.95411749377126,866
-134.44540171107985,930
-131.93737974411636,861
-129.43005140081357,874
-126.92341648902493,1183
-124.41747481652521,1458
-121.91222619101006,1726
-119.40767042009657,1909
-116.90380731132257,2385
-114.40063667214702,2344
-111.8981583099503,2290
-109.3963720320337,1851
-106.89527764561933,1587
-104.39487495785067,1605
-101.89516377579241,2567
-99.39614390642998,3439
-96.89781515667039,4389
-94.40017733334128,3850
-91.90323024319173,2977
-89.40697369289148,2782
-86.91140748903172,4305
-84.41653143812482,5479
-81.92234534660395,4699
-79.42884902082358,3810
-76.93604226705907,5390
-74.4439248915071,10455
-71.95249670028534,15797
-69.46175749943245,20015
-66.97170709490854,19568
-64.48234529259423,15791
-61.99367189829195,12049
-59.50568671772464,10881
-57.01838955653636,8862
-54.53178022029283,6809
-52.045858514480074,6557
-49.560624244506016,6634
-47.07607721569923,7354
-44.59221723330904,7406
-42.10904410250669,7841
-39.62655762838392,8860
-37.14475761595372,9080
-34.66364387015028,10472
-32.18321619582866,12587
-29.70347439776515,14949
-27.224418280657005,17449
-24.74604764912317,19466
-22.26836230770266,20731
-19.7913620608565,26135
-17.315046712966478,41330
-14.83941606833514,55984
-12.36446993118659,65039
-9.89020810566592,65039
-7.416630395839093,65039
-4.94373660569363,65039
-2.471526539137585,65039
-6.821210263296962E-13,65039
2.47084320796705,65039
4.941003281093458,65039
7.410480415786196,65039
9.879274808531363,65039
12.347386655893956,65039
14.814816154518212,65039
17.28156350112681,65039
19.74762889252179,65039
22.21301252558385,65039
24.67771459727237,20673
27.141735304626195,3909
29.605074844762612,2776
32.06773341487792,2537
34.52971121224755,2053
36.99100843422559,2474
39.45162527824516,2507
41.91156194181792,1866
44.370818622535126,1536
46.82939551806646,1379
49.287292826160524,1426
51.74451074464503,1850
54.201049471426245,1944
56.65690920448981,1434
59.112090141899785,1399
61.56659248179983,1426
64.02041642241159,1326
66.4735621620365,1205
68.92602989905402,1209
71.37781983192338,1285
73.82893215918205,1467
76.27936707944684,1302
78.72912479141326,1317
81.17820549385567,1339
83.62660938562783,1417
86.07433666566146,1320
88.5213875329681,1057
90.96776218663751,1034
93.41346082583925,1075
95.85848364982041,1100
98.30283085790859,1282
100.7465026495089,1232
103.18949922410604,1092
105.63182078126385,1078
108.07346752062438,1142
110.51443964190923,1046
112.95473734491827,843
115.39436082953114,874
117.83331029570547,966
120.27158594347827,905
122.7091879729652,996
125.1461165843615,967
127.58237197794062,1001
130.01795435405518,886
132.4528639131364,916
134.88710085569494,975
137.32066538231982,968
139.75355769367923,818
142.1857779905207,828
144.61732647366978,822
147.04820334403132,855
149.47840880258934,906
151.90794305040674,901
154.33680628862487,998
156.76499871846443,1218
159.19252054122433,1230
161.61937195828352,1296
164.04555317109896,1413
166.47106438120693,1499
168.89590579022217,1595
171.320077599839,1745
173.7435800118302,1820
176.16641322804742,1822
178.58857745042144,1810
181.01007288096173,1805
183.43089972175687,2022
185.85105817497413,1955
188.27054844285988,1916
190.6893707277394,1851
193.10752523201643,1900
195.5250121581745,2107
197.9418317087751,2141
200.3579840864594,2103
202.7734694939469,2042
205.18828813403627,2088
207.6024402096051,2136
210.01592592360964,2308
212.42874547908548,2216
214.84089907914665,2216
217.2523869269868,2225
219.66320922587727,2179
222.0733661791695,2213
224.48285799029293,2176
226.8916848627572,2162
229.29984700014882,2136
231.7073446061355,2140
234.11417788446204,2205
236.520347038953,2319
238.92585227351185,2335
241.33069379212054,2351
243.73487179884035,2356
246.1383864978112,2296
248.541238093252,2269
250.9434267894609,2312
253.34495279081432,2434
255.74581630176783,2406
258.1460175268563,2331
260.54555667069314,2390
262.9444339379703,2340
265.3426495334594,2336
267.7402036620107,2394
270.1370965285529,2311
272.53332833809407,2276
274.9288992957214,2243
277.32380960660055,2180
279.718059475976,2134
282.1116491091717,2164
284.5045787115897,2169
286.89684848871195,2076
289.2884586460981,2055
291.67940938938807,2126
294.0697009242996,2182
296.4593334566299,2149
298.84830719225477,2146
301.23662233712923,2126
303.6242790972866,2073
306.01127767884,2061
308.39761828798066,1995
310.78330113097934,2038
313.16832641418534,2020
315.5526943440269,1899
317.9364051270112,1886
320.3194589697242,1997
322.70185607883093,1931
325.0835966610754,1928
327.4646809232805,1912
329.8451090723478,1851
332.2248813152577,1879
334.6039978590701,1959
336.9824589109231,1894
339.36026467803447,1854
341.7374153677,1849
344.113911187295,1818
346.48975234427337,1848
348.8649390461686,1785
351.2394715005918,1842
353.61334991523415,1749
355.9865744978655,1794
358.35914545633375,1810
360.73106299856715,1816
363.10232733257146,1773
365.47293866643247,1748
367.84289720831396,1715
370.2122031664593,1749
372.5808567491905,1749
374.9488581649083,1784
377.31620762209275,1650
379.6829053293021,1687
382.0489514951745,1729
384.4143463284262,1762
386.7790900378528,1694
389.14318283232853,1676
391.50662492080653,1686
393.86941651231916,1737
396.23155781597745,1713
398.5930490409713,1665
400.9538903965696,1698
403.3140820921202,1733
405.6736243370498,1659
408.03251734086336,1593
410.3907613131465,1670
412.74835646356166,1689
415.10530300185144,1575
417.4616011378372,1695
419.81725108141893,1650
422.1722530425758,1618
424.5266072313656,1612
426.880313857925,1648
429.2333731324701,1649
431.58578526529516,1643
433.9375504667738,1614
436.2886689473588,1663
438.63914091758113,1660
440.9889665880513,1624
443.33814616945835,1603
445.68667987257015,1598
448.03456790823395,1620
450.3818104873759,1630
452.72840782100013,1567
455.07436012019105,1572
457.41966759611057,1568
459.7643304600007,1609
462.10834892318155,1607
464.4517231970525,1555
466.79445349309174,1532
469.1365400228566,1642
471.4779829979826,1584
473.81878263018564,1622
476.15893913125876,1634
478.4984527130747,1607
480.8373235875855,1574
483.17555196682144,1679
485.5131380628919,1786
487.8500820879857,1769
490.1863842543697,1836
492.52204477439034,1866
494.8570638604725,1979
497.1914417251204,2223
499.52517858091653,2503
501.85827464052306,2800
504.19073011668036,2907
506.5225452222086,3171
508.85372017000566,3204
511.18425517304956,3102
513.514150444396,3144
515.8434061971808,3413
518.1720226446176,4040
520.4999999999999,4026
522.8273384766991,3847
525.1540382881666,3545
527.480099647932,3132
529.8055227696037,2617
532.1303078668694,2232
534.454455153496,1870
536.777964843328,1708
539.1008371502907,1700
541.4230722883866,1661
543.744670471698,1669
546.0656319143858,1672
548.3859568306899,1671
550.7056454349294,1643
553.0246979415016,1624
555.3431145648834,1598
557.6608955196306,1592
559.978041020377,1597
562.2945512818363,1556
564.6104265188006,1673
566.9256669461412,1630
569.2402727788082,1575
571.5542442318302,1597
573.8675815203156,1587
576.1802848594508,1624
578.4923544645015,1658
580.8037905508126,1623
583.114593333807,1650
585.4247630289875,1641
587.7342998519354,1633
590.0432040183106,1661
592.3514757438526,1666
594.6591152443794,1676
596.9661227357875,1676
599.2724984340531,1715
601.578242555231,1705
603.8833553154542,1642
606.1878369309362,1627
608.4916876179676,1631
610.7949075929192,1624
613.0974970722403,1644
615.3994562724587,1671
617.7007854101818,1660
620.0014847020951,1617
622.3015543649641,1638
624.6009946156324,1653
626.8998056710224,1629
629.1979877481361,1602
631.4955410640538,1653
633.7924658359349,1692
636.0887622810175,1596
638.3844306166192,1646
640.6794710601358,1643
642.9738838290426,1700
645.2676691408932,1709
647.5608272133207,1682
649.853358264037,1730
652.1452625108324,1680
654.4365401715764,1705
656.7271914642178,1710
659.0172166067838,1665
661.3066158173809,1625
663.5953893141935,1691
665.8835373154867,1725
668.1710600396028,1707
670.4579577049639,1680
672.7442305300709,1666
675.0298787335033,1657
677.3149025339197,1701
679.599302150058,1708
681.8830778007342,1774
684.1662297048437,1756
686.4487580813608,1707
688.7306631493387,1660
691.0119451279091,1689
693.2926042362834,1700
695.5726406937516,1742
697.8520547196814,1613
700.1308465335215,1661
702.4090163547982,1694
704.6865644031171,1680
706.9634908981619,1671
709.2397960596965,1657
711.5154801075631,1688
713.7905432616823,1653
716.0649857420548,1639
718.3388077687592,1612
720.612009561953,1651
722.8845913418733,1689
725.1565533288352,1619
727.427895743234,1674
729.6986188055427,1671
731.9687227363137,1633
734.238207756178,1695
736.5070740858458,1661
738.7753219461066,1602
741.0429515578281,1688
743.3099631419569,1677
745.5763569195191,1725
747.8421331116193,1706
750.1072919394409,1636
752.3718336242467,1651
754.6357583873777,1663
756.8990664502545,1691
759.1617580343765,1656
761.423833361321,1660
763.6852926527457,1689
765.9461361303862,1655
768.206364016058,1684
770.4659765316536,1664
772.7249738991469,1649
774.9833563405886,1657
777.2411240781092,1662
779.4982773339183,1655
781.7548163303044,1696
784.010741289634,1699
786.2660524343538,1775
788.5207499869881,1744
790.7748341701416,1712
793.0283052064964,1717
795.2811633188143,1756
797.5334087299362,1764
799.7850416627813,1670
802.0360623403484,1665
804.2864709857143,1762
806.5362678220353,1687
808.7854530725468,1710
811.0340269605625,1725
813.2819897094754,1684
815.5293415427581,1717
817.77608268396,1710
820.0222133567116,1815
822.2677337847211,1754
824.5126441917765,1688
826.7569448017433,1699
829.0006358385675,1702
831.2437175262731,1678
833.4861900889629,1689
835.7280537508192,1730
837.9693087361026,1677
840.2099552691533,1655
842.4499935743896,1717
844.689423876309,1707
846.9282463994886,1747
849.1664613685833,1807
851.4040690083276,1748
853.6410695435349,1743
855.877463199097,1712
858.1132501999847,1735
860.3484307712487,1736
862.5830051380175,1761
864.8169735254988,1702
867.0503361589791,1748
869.2830932638243,1739
871.5152450654786,1817
873.7467917894654,1698
875.9777336613873,1779
878.2080709069252,1792
880.4378037518389,1747
882.666932421968,1741
884.8954571432301,1777
887.1233781416219,1735
889.3506956432192,1744
891.5774098741766,1804
893.803521060728,1793
896.0290294291852,1732
898.2539352059397,1782
900.4782386174619,1743
902.7019398903011,1788
904.925039251085,1755
907.147536926521,1808
909.3694331433943,1730
911.59072812857,1787
913.8114221089921,1723
916.0315153116827,1685
918.2510079637437,1748
920.4699002923547,1719
922.6881925247761,1669
924.905884888345,1698
927.1229776104793,1693
929.3394709186747,1731
931.555365040506,1595
933.7706602036275,1606
935.9853566357709,1694
938.1994545647489,1656
940.4129542184515,1743
942.6258558248488,1670
944.8381596119883,1725
947.0498658079974,1668
949.2609746410825,1698
951.4714863395287,1639
953.6814011316998,1686
955.8907192460387,1708
958.0994409110671,1655
960.3075663553858,1690
962.5150958076741,1657
964.7220294966913,1677
966.928367651274,1587
969.1341105003388,1592
971.3392582728806,1634
973.5438111979742,1625
975.747769504772,1609
977.9511334225061,1597
980.153903180487,1552
982.3560790081052,1605
984.5576611348289,1573
986.7586497902058,1580
988.9590452038618,1549
991.158847605503,1582
993.3580572249133,1555
995.5566742919558,1521
997.7546990365728,1556
999.952131688785,1515
1002.1489724786926,1435
1004.3452216364743,1511
1006.5408793923874,1457
1008.7359459767691,1427
1010.9304216200343,1449
1013.1243065526781,1466
1015.3176010052733,1465
1017.510305208472,1415
1019.7024193930064,1442
1021.8939437896848,1409
1024.0848786293977,1426
1026.2752241431122,1424
1028.4649805618747,1381
1030.6541481168115,1367
1032.842727039127,1391
1035.0307175601051,1373
1037.2181199111074,1359
1039.4049343235752,1355
1041.591161029029,1382
1043.7768002590683,1392
1045.9618522453698,1371
1048.1463172196918,1353
1050.3301954138697,1386
1052.513487059818,1335
1054.69619238953,1380
1056.8783116350783,1355
1059.0598450286152,1409
1061.2407928023704,1391
1063.4211551886528,1343
1065.6009324198508,1370
1067.780124728432,1325
1069.9587323469414,1371
1072.1367555080046,1325
1074.314194444325,1327
1076.4910493886855,1399
1078.667320573947,1345
1080.843008233051,1331
1083.0181125990161,1324
1085.1926339049414,1295
1087.3665723840027,1343
1089.5399282694575,1276
1091.7127017946405,1309
1093.8848931929647,1302
1096.0565026979243,1283
1098.2275305430899,1278
1100.3979769621128,1256
1102.567842188722,1269
1104.737126456726,1269
1106.9058300000124,1279
1109.0739530525475,1274
1111.2414958483764,1306
1113.4084586216231,1250
1115.5748416064907,1283
1117.7406450372605,1248
1119.9058691482942,1279
1122.0705141740304,1331
1124.2345803489884,1320
1126.3980679077658,1251
1128.5609770850388,1290
1130.7233081155623,1298
1132.8850612341707,1298
1135.0462366757774,1236
1137.2068346753745,1217
1139.3668554680326,1284
1141.526299288901,1254
1143.68516637321,1324
1145.8434569562655,1274
1148.001171273455,1304
1150.158309560244,1274
1152.3148720521767,1257
1154.470858984876,1304
1156.626270594044,1240
1158.7811071154629,1163
1160.9353687849912,1264
1163.089055838569,1314
1165.242168512213,1238
1167.3947070420209,1307
1169.5466716641677,1236
1171.6980626149075,1232
1173.8488801305748,1235
1175.9991244475814,1231
1178.1487958024186,1236
1180.2978944316555,1212
1182.4464205719428,1271
1184.5943744600072,1225
1186.7417563326567,1217
1188.8885664267755,1200
1191.0348049793297,1236
1193.1804722273619,1257
1195.325568407995,1266
1197.4700937584303,1242
1199.614048515948,1264
1201.7574329179074,1247
1203.900247201746,1200
1206.042491604982,1256
1208.1841663652099,1278
1210.3252717201053,1246
1212.465807907422,1242
1214.6057751649923,1243
1216.7451737307279,1281
1218.8840038426192,1227
1221.0222657387353,1304
1223.1599596572241,1252
1225.2970858363137,1261
1227.4336445143094,1255
1229.5696359295966,1242
1231.705060320639,1248
1233.8399179259786,1277
1235.9742089842384,1339
1238.107933734118,1207
1240.2410924143974,1291
1242.373685263935,1232
1244.5057125216676,1280
1246.6371744266116,1251
1248.7680712178621,1266
1250.898403134593,1285
1253.028170416058,1320
1255.1573733015875,1266
1257.2860120305932,1285
1259.4140868425648,1273
1261.54159797707,1317
1263.6685456737569,1295
1265.7949301723515,1284
1267.9207517126597,1287
1270.046010534565,1312
1272.1707068780306,1321
1274.2948409830983,1272
1276.4184130898889,1332
1278.541423438603,1330
1280.6638722695184,1336
1282.785759822993,1295
1284.9070863394636,1294
1287.0278520594447,1375
1289.1480572235314,1424
1291.2677020723963,1282
1293.3867868467923,1351
1295.5053117875495,1377
1297.623277135579,1340
1299.740683131868,1352
1301.8575300174857,1363
1303.973818033578,1395
1306.0895474213703,1336
1308.2047184221678,1430
1310.3193312773528,1405
1312.4333862283888,1383
1314.5468835168163,1370
1316.659823384255,1363
1318.7722060724045,1378
1320.8840318230418,1386
1322.9953008780249,1361
1325.1060134792888,1380
1327.2161698688478,1354
1329.3257702887959,1406
1331.4348149813054,1420
1333.5433041886276,1356
1335.6512381530933,1363
1337.7586171171101,1389
1339.8654413231675,1330
1341.9717110138317,1376
1344.0774264317488,1402
1346.1825878196432,1400
1348.2871954203192,1373
1350.3912494766587,1369
1352.4947502316231,1395
1354.5976979282532,1339
1356.7000928096686,1362
1358.8019351190665,1366
1360.9032250997243,1387
1363.0039629949988,1320
1365.1041490483235,1328
1367.2037835032133,1299
1369.3028666032606,1310
1371.401398592137,1439
1373.4993797135926,1411
1375.5968102114575,1306
1377.6936903296396,1359
1379.7900203121262,1311
1381.8858004029835,1285
1383.9810308463561,1397
1386.075711886469,1351
1388.1698437676241,1345
1390.2634267342032,1367
1392.356461030667,1395
1394.4489469015557,1383
1396.5408845914872,1371
1398.6322743451592,1394
1400.7231164073469,1376
1402.813411022907,1414
1404.903158436773,1377
1406.9923588939578,1406
1409.0810126395531,1373
1411.1691199187303,1385
1413.2566809767386,1349
1415.343696058907,1401
1417.4301654106425,1353
1419.5160892774315,1377
1421.6014679048399,1434
1423.6863015385125,1400
1425.7705904241707,1391
1427.8543348076178,1413
1429.9375349347342,1416
1432.0201910514802,1438
1434.102303403894,1372
1436.1838722380944,1419
1438.2648978002767,1400
1440.3453803367174,1382
1442.4253200937692,1434
1444.5047173178677,1467
1446.5835722555234,1489
1448.6618851533285,1526
1450.739656257952,1477
1452.8168858161434,1498
1454.8935740747306,1573
1456.96972128062,1520
1459.045327680797,1543
1461.120393522327,1514
1463.1949190523528,1503
1465.2689045180973,1490
1467.3423501668608,1540
1469.415256246024,1589
1471.4876230030463,1628
1473.559450685465,1644
1475.6307395408976,1631
1477.7014898170391,1646
1479.771701761665,1629
1481.8413756226287,1694
1483.9105116478618,1662
1485.9791100853772,1626
1488.0471711832643,1682
1490.1146951896926,1639
1492.1816823529098,1657
1494.2481329212433,1687
1496.3140471430984,1752
1498.3794252669609,1726
1500.4442675413939,1657
1502.5085742150404,1735
1504.572345536622,1728
1506.6355817549388,1745
1508.6982831188702,1658
1510.7604498773744,1768
1512.8220822794883,1739
1514.8831805743293,1776
1516.9437450110909,1743
1519.003775839048,1713
1521.0632733075522,1717
1523.1222376660367,1764
1525.1806691640113,1752
1527.2385680510652,1712
1529.2959345768668,1760
1531.3527689911643,1745
1533.4090715437833,1752
1535.4648424846291,1851
1537.5200820636855,1792
1539.5747905310159,1795
1541.6289681367616,1795
1543.6826151311434,1777
1545.7357317644614,1844
1547.7883182870937,1905
1549.8403749494987,1898
1551.8919020022113,1915
1553.9428996958477,1917
1555.9933682811015,1902
1558.0433080087469,1972
1560.0927191296346,2015
1562.1416018946961,2024
1564.1899565549415,2071
1566.2377833614592,2056
1568.2850825654164,2049
1570.3318544180606,2023
1572.3780991707158,2075
1574.423817074788,2101
1576.4690083817595,1984
1578.5136733431923,1941
1580.5578122107272,1812
1582.601425236085,1773
1584.6445126710646,1795
1586.6870747675434,1782
1588.7291117774776,1658
1590.7706239529034,1620
1592.8116115459347,1651
1594.8520748087658,1607
1596.8920139936686,1592
1598.9314293529933,1561
1600.9703211391711,1481
1603.008689604711,1509
1605.0465350022005,1464
1607.0838575843068,1499
1609.1206576037753,1516
1611.1569353134305,1447
1613.1926909661765,1480
1615.2279248149953,1436
1617.2626371129481,1435
1619.2968281131757,1403
1621.3304980688963,1404
1623.3636472334088,1359
1625.39627586009,1427
1627.428384202396,1424
1629.459972513861,1346
1631.4910410480993,1399
1633.5215900588028,1395
1635.551619799744,1287
1637.5811305247717,1306
1639.6101224878166,1304
1641.6385959428862,1336
1643.6665511440683,1336
1645.693988345528,1349
1647.7209078015112,1309
1649.7473097663405,1279
1651.7731944944203,1260
1653.7985622402307,1265
1655.823413258333,1231
1657.847747803366,1217
1659.8715661300494,1284
1661.8948684931793,1260
1663.9176551476316,1281
1665.9399263483624,1277
1667.9616823504057,1289
1669.982923408873,1309
1672.0036497789574,1328
1674.0238617159293,1299
1676.043559475138,1234
1678.0627433120121,1295
1680.081413482059,1299
1682.0995702408654,1311
1684.117213844096,1269
1686.134344547495,1297
1688.1509626068864,1276
1690.1670682781705,1302
1692.182661817329,1263
1694.1977434804217,1308
1696.2123135235875,1247
1698.226372203043,1268
1700.2399197750851,1299
1702.2529564960905,1286
1704.2654826225112,1244
1706.277498410882,1253
1708.2890041178139,1315
1710.2999999999988,1260
1712.3104863142066,1246
1714.3204633172854,1235
1716.329931266163,1308
1718.3388904178469,1298
1720.3473410294214,1282
1722.3552833580516,1267
1724.3627176609807,1295
1726.3696441955308,1247
1728.3760632191033,1268
1730.3819749891782,1258
1732.3873797633146,1219
1734.3922777991502,1312
1736.3966693544012,1235
1738.4005546868639,1254
1740.4039340544127,1247
1742.406807715001,1220
1744.4091759266616,1271
1746.4110389475054,1254
1748.4123970357223,1216
1750.413250449582,1252
1752.4135994474318,1229
1754.4134442876993,1265
1756.4127852288902,1215
1758.4116225295893,1232
1760.4099564484595,1246
1762.407787244244,1218
1764.405115175764,1317
1766.4019405019203,1201
1768.3982634816916,1234
1770.3940843741357,1249
1772.3894034383907,1231
1774.3842209336717,1294
1776.378537119274,1246
1778.372352254571,1213
1780.3656665990156,1257
1782.3584804121397,1234
1784.3507939535534,1196
1786.3426074829463,1194
1788.3339212600863,1183
1790.3247355448211,1210
1792.3150505970766,1235
1794.3048666768573,1231
1796.2941840442477,1235
1798.2830029594106,1232
1800.2713236825884,1224
1802.2591464741004,1200
1804.2464715943465,1302
1806.2332993038058,1277
1808.2196298630352,1191
1810.2054635326708,1144
1812.190800573428,1205
1814.175641246101,1223
1816.1599858115628,1265
1818.1438345307652,1233
1820.127187664738,1175
1822.1100454745924,1220
1824.092408221516,1212
1826.0742761667766,1189
1828.055649571721,1208
1830.0365286977735,1254
1832.0169138064398,1225
1833.9968051593014,1238
1835.9762030180214,1212
1837.9551076443408,1204
1839.9335193000788,1308
1841.9114382471344,1207
1843.888864747485,1205
1845.8657990631878,1219
1847.842241456378,1184
1849.8181921892697,1256
1851.7936515241558,1190
1853.7686197234098,1242
1855.7430970494815,1195
1857.7170837649014,1160
1859.6905801322787,1211
1861.6635864143004,1227
1863.6361028737338,1276
1865.608129773424,1198
1867.5796673762961,1197
1869.5507159453537,1204
1871.521275743678,1222
1873.4913470344313,1244
1875.4609300808534,1219
1877.4300251462632,1170
1879.3986324940588,1211
1881.366752387717,1236
1883.3343850907936,1263
1885.3015308669228,1259
1887.268189979819,1264
1889.2343626932739,1272
1891.2000492711595,1286
1893.1652499774254,1235
1895.1299650761011,1238
1897.0941948312952,1191
1899.0579395071945,1199
1901.0211993680641,1270
1902.98397467825,1233
1904.9462657021745,1298
1906.9080727043415,1238
1908.869395949332,1243
1910.8302357018065,1238
1912.790592226504,1216
1914.7504657882428,1175
1916.7098566519212,1204
1918.6687650825133,1239
1920.6271913450764,1241
1922.5851357047422,1269
1924.5425984267245,1233
1926.499579776314,1240
1928.4560800188833,1295
1930.4120994198802,1207
1932.367638244833,1194
1934.32269675935,1198
1936.2772752291175,1236
1938.231373919899,1235
1940.1849930975404,1295
1942.1381330279637,1275
1944.0907939771696,1258
1946.0429762112412,1204
1947.9946799963363,1238
1949.9459055986945,1233
1951.896653284633,1234
1953.8469233205478,1258
1955.7967159729142,1213
1957.7460315082863,1193
1959.6948701932974,1210
1961.6432322946594,1225
1963.5911180791632,1189
1965.5385278136787,1248
1967.4854617651545,1219
1969.4319202006182,1225
1971.377903387176,1216
1973.3234115920136,1252
1975.268445082395,1188
1977.2130041256642,1264
1979.1570889892423,1248
1981.1006999406304,1266
1983.04383724741,1214
1984.986501177238,1177
1986.928691997853,1238
1988.8704099770712,1286
1990.811655382789,1200
1992.7524284829801,1186
1994.692729545698,1198
1996.6325588390755,1242
1998.5719166313224,1237
2000.5108031907307,1231
2002.4492187856677,1209
2004.387163684583,1208
2006.3246381560011,1256
2008.2616424685298,1187
2010.1981768908527,1292
2012.1342416917332,1259
2014.069837140014,1236
2016.0049635046162,1228
2017.9396210545406,1214
2019.8738100588666,1223
2021.8075307867502,1239
2023.740783507431,1232
2025.6735684902228,1191
2027.6058860045214,1288
2029.5377363198004,1233
2031.4691197056118,1185
2033.4000364315875,1176
2035.3304867674374,1169
2037.260470982952,1203
2039.189989347998,1192
2041.1190421325232,1239
2043.047629606554,1243
2044.9757520401945,1133
2046.9034097036288,1225
2048.8306028671195,1224
2050.7573318010086,1243
2052.683596775716,1204
2054.609398061742,1207
2056.5347359296647,1202
2058.4596106501403,1196
2060.384022493906,1175
2062.3079717317764,1178
2064.231458634646,1159
2066.1544834734873,1239
2068.077046519352,1205
2069.99914804337,1207
2071.9207883167524,1197
2073.8419676107865,1197
2075.7626861968406,1167
2077.6829443463607,1260
2079.6027423308715,1219
2081.522080421977,1221
2083.440958891362,1181
2085.359378010786,1185
2087.2773380520907,1242
2089.194839287196,1164
2091.111881988101,1197
2093.0284664268825,1229
2094.9445928756973,1207
2096.86026160678,1192
2098.775472892446,1238
2100.690227005088,1208
2102.604524217178,1200
2104.5183648012676,1170
2106.431749029985,1205
2108.34467717604,1197
2110.2571495122206,1248
2112.169166311393,1159
2114.080727846503,1247
2115.9918343905747,1204
2117.902486216711,1175
2119.8126835980956,1157
2121.722426807987,1184
2123.6317161197285,1222
2125.5405518067364,1184
2127.448934142509,1211
2129.356863400624,1199
2131.264339854737,1252
2133.1713637785815,1225
2135.077935445972,1175
2136.9840551308002,1225
2138.889723107037,1208
2140.7949396487334,1159
2142.699705030018,1211
2144.6040195250994,1263
2146.507883408264,1236
2148.4112969538774,1239
2150.3142604363848,1241
2152.2167741303097,1222
2154.1188383102535,1236
2156.0204532508997,1172
2157.9216192270064,1217
2159.822336513414,1235
2161.7226053850413,1238
2163.622426116884,1254
2165.5217989840185,1271
2167.4207242616,1308
2169.319202224862,1259
2171.2172331491165,1277
2173.1148173097563,1195
2175.0119549822507,1249
2176.90864644215,1244
2178.8048919650823,1277
2180.7006918267534,1235
2182.596046302952,1227
2184.4909556695407,1221
2186.3854202024645,1295
2188.279440177746,1245
2190.173015871487,1290
2192.066147559868,1251
2193.958835519149,1267
2195.851080025667,1223
2197.7428813558417,1272
2199.6342397861667,1273
2201.5251555932186,1295
2203.415629053651,1313
2205.3056604441986,1335
2207.19525004167,1258
2209.084398122958,1305
2210.9731049650327,1318
2212.861370844941,1343
2214.749196039812,1354
2216.636580826851,1271
2218.523525483344,1336
2220.410030286655,1277
2222.296095514226,1319
2224.1817214435805,1329
2226.066908352319,1288
2227.951656518121,1390
2229.835966218746,1333
2231.71983773203,1369
2233.6032713358913,1372
2235.486267308324,1358
2237.3688259274036,1322
2239.2509474712824,1334
2241.132632218193,1306
2243.013880446447,1327
2244.8946924344323,1323
2246.7750684606203,1334
2248.6550088035574,1347
2250.534513741871,1334
2252.413583554265,1286
2254.292218519526,1310
2256.170418916517,1290
2258.0481850241786,1275
2259.925517121534,1286
2261.8024154876825,1355
2263.678880401803,1345
2265.5549121431536,1284
2267.430510991071,1319
2269.305677224971,1283
2271.180411124348,1318
2273.0547129687766,1259
2274.9285830379076,1341
2276.8020216114737,1342
2278.6750289692845,1305
2280.5476053912294,1315
2282.4197511572766,1371
2284.2914665474727,1365
2286.162751841943,1376
2288.0336073208937,1384
2289.904033264608,1350
2291.774029953448,1335
2293.6435976678554,1302
2295.5127366883517,1286
2297.381447295534,1278
2299.2497297700825,1265
2301.1175843927526,1229
2302.9850114443825,1220
2304.852011205885,1177
2306.7185839582553,1151
2308.5847299825664,1159
2310.4504495599676,1171
2312.3157429716925,1150
2314.1806104990483,1152
2316.0450524234247,1049
2317.9090690262888,1133
2319.772660589186,1161
2321.635827393742,1110
2323.498569721661,1081
2325.3608878547248,1115
2327.2227820747967,1126
2329.0842526638157,1079
2330.945299903803,1099
2332.805924076857,1078
2334.6661254651535,1097
2336.525904350951,1101
2338.3852610165827,1081
2340.244195744464,1066
2342.102708817088,1075
2343.9608005170253,1037
2345.8184711269287,1127
2347.675720929526,1079
2349.532550207628,1105
2351.38895924412,1088
2353.24494832197,1123
2355.100517724223,1096
2356.955667734004,1110
2358.810398634514,1083
2360.664710709037,1086
2362.5186042409337,1118
2364.3720795136437,1082
2366.225136810686,1109
2368.0777764156583,1069
2369.929998612237,1115
2371.7818036841777,1144
2373.633191915315,1131
2375.484163589562,1107
2377.3347189909114,1106
2379.184858403434,1104
2381.03458211128,1071
2382.8838903986775,1080
2384.732783549936,1096
2386.5812618494406,1102
2388.4293255816588,1065
2390.2769750311327,1098
2392.1242104824883,1123
2393.971032220427,1096
2395.8174405297295,1104
2397.6634356952563,1147
2399.509018001947,1112
2401.3541877348193,1079
2403.1989451789705,1101
2405.043290619576,1097
2406.8872243418905,1127
2408.730746631247,1106
2410.5738577730594,1130
2412.4165580528183,1134
2414.258847756095,1121
2416.100727168537,1113
2417.9421965758734,1100
2419.783256263912,1129
2421.623906518538,1112
2423.4641476257157,1097
2425.303979871491,1135
2427.143403541984,1130
2428.9824189233977,1069
2430.821026302012,1070
2432.6592259641866,1094
2434.497018196361,1132
2436.33440328505,1122
2438.171381516851,1111
2440.00795317844,1113
2441.844118556569,1137
2443.6798779380724,1104
2445.5152316098606,1134
2447.3501798589255,1127
2449.1847229723357,1099
2451.0188612372403,1095
2452.8525949408663,1163
2454.6859243705203,1138
2456.518849813587,1119
2458.3513715575314,1128
2460.183489889895,1095
2462.015205098301,1120
2463.8465174704493,1084
2465.67742729412,1139
2467.5079348571717,1104
2469.338040447542,1134
2471.1677443532476,1096
2472.9970468623833,1120
2474.825948263123,1121
2476.6544488437207,1130
2478.482548892508,1145
2480.310248697896,1099
2482.137548548374,1179
2483.9644487325118,1159
2485.790949538956,1124
2487.617051256433,1172
2489.44275417375,1135
2491.26805857979,1143
2493.0929647635157,1170
2494.917473013971,1123
2496.741583620276,1167
2498.5652968716304,1145
2500.3886130573137,1082
2502.2115324666834,1141
2504.0340553891765,1160
2505.856182114308,1121
2507.6779129316733,1129
2509.499248130945,1116
2511.3201880018764,1191
2513.140732834298,1128
2514.9608829181198,1167
2516.780638543331,1111
2518.6,1151
2520.418967578273,1124
2522.237541568376,1111
2524.0557222606144,1151
2525.8735099453706,1167
2527.6909049131086,1186
2529.507907454368,1173
2531.32451785977,1154
2533.140736420014,1141
2534.9565634258774,1172
2536.771999168218,1195
2538.5870439379714,1204
2540.4016980261526,1194
2542.2159617238544,1130
2544.02983532225,1189
2545.8433191125914,1133
2547.656413386209,1213
2549.4691184345115,1194
2551.2814345489874,1203
2553.093362021204,1185
2554.904901142808,1289
2556.716052205523,1218
2558.526815501153,1273
2560.3371913215824,1219
2562.147179958771,1227
2563.956781704761,1232
2565.7659968516705,1244
2567.5748256916986,1244
2569.3832685171224,1221
2571.1913256202984,1302
2572.9989972936614,1239
2574.806283829725,1266
2576.613185521084,1270
2578.4197026604074,1239
2580.2258355404483,1296
2582.031584454035,1246
2583.836949694077,1275
2585.6419315535613,1321
2587.4465303255533,1289
2589.2507463032002,1300
2591.0545797797245,1264
2592.8580310484303,1266
2594.6611004026995,1306
2596.463788135992,1323
2598.266094541849,1258
2600.0680199138874,1273
2601.869564545807,1235
2603.670728731383,1303
2605.4715127644704,1230
2607.2719169390048,1286
2609.071941548998,1215
2610.8715868885433,1196
2612.670853251811,1173
2614.469740933052,1225
2616.268250226594,1267
2618.0663814268455,1150
2619.864134828292,1254
2621.6615107255006,1214
2623.458509413115,1285
2625.2551311858597,1249
2627.0513763385347,1191
2628.8472451660223,1220
2630.6427379632833,1178
2632.4378550253564,1182
2634.232596647359,1146
2636.026963124488,1194
2637.8209547520187,1257
2639.6145718253065,1255
2641.407814639785,1191
2643.200683490966,1160
2644.9931786744414,1152
2646.7853004858807,1252
2648.577049221034,1203
2650.3684251757277,1180
2652.1594286458712,1229
2653.9500599274484,1208
2655.740319316525,1163
2657.5302071092437,1192
2659.3197236018286,1188
2661.10886909058,1162
2662.8976438718782,1185
2664.686048242183,1164
2666.4740824980327,1182
2668.2617469360443,1174
2670.0490418529134,1175
2671.8359675454153,1142
2673.622524310403,1132
2675.408712444811,1141
2677.1945322456495,1153
2678.979984010009,1137
2680.76506803506,1180
2682.5497846180497,1145
2684.334134056306,1145
2686.1181166472343,1091
2687.9017326883213,1119
2689.6849824771293,1139
2691.4678663113013,1122
2693.2503844885596,1080
2695.032537306705,1067
2696.8143250636167,1091
2698.5957480572542,1121
2700.3768065856534,1161
2702.1575009469316,1146
2703.937831439283,1099
2705.717798360982,1108
2707.4974020103837,1099
2709.276642685917,1092
2711.055520686095,1106
2712.834036309506,1109
2714.612189854819,1102
2716.389981620782,1127
2718.1674119062204,1177
2719.944481010041,1197
2721.721189231226,1160
2723.4975368688415,1147
2725.273524222027,1157
2727.0491515900053,1129
2728.824419272075,1147
2730.5993275676146,1144
2732.3738767760838,1108
2734.148067197016,1066
2735.921899130031,1126
2737.6953728748194,1116
2739.468488731156,1098
2741.2412469988926,1082
2743.0136479779617,1100
2744.785691968372,1053
2746.5573792702116,1108
2748.3287101836504,1095
2750.099685008934,1051
2751.870304046388,1088
2753.640567596418,1140
2755.4104759595057,1094
2757.1800294362156,1070
2758.949228327187,1116
2760.7180729331412,1100
2762.486563554877,1132
2764.254700493272,1143
2766.022484049284,1062
2767.789914523947,1080
2769.5569922183786,1075
2771.3237174337705,1106
2773.090090471394,1060
2774.8561116326036,1095
2776.6217812188274,1063
2778.3870995315756,1021
2780.1520668724356,1106
2781.9166835430747,1112
2783.6809498452394,1081
2785.444866080754,1172
2787.2084325515225,1074
2788.971649559527,1096
2790.73451740683,1093
2792.4970363955713,1064
2794.2592068279705,1108
2796.0210290063264,1102
2797.7825032330147,1082
2799.543629810493,1117
2801.304409041296,1094
2803.0648412280366,1091
2804.8249266734088,1120
2806.5846656801846,1081
2808.344058551212,1097
2810.1031055894246,1095
2811.8618070978273,1143
2813.6201633795085,1141
2815.378174737636,1123
2817.1358414754536,1058
2818.893163896285,1137
2820.6501423035334,1102
2822.4067770006814,1115
2824.1630682912883,1070
2825.9190164789957,1056
2827.6746218675207,1077
2829.429884760661,1055
2831.184805462294,1077
2832.9393842763743,1105
2834.693621506936,1097
2836.4475174580916,1091
2838.201072434034,1080
2839.954286739034,1108
2841.707160677441,1097
2843.459694553685,1117
2845.2118886722724,1109
2846.96374333779,1087
2848.7152588549034,1112
2850.4664355283567,1138
2852.217273662973,1119
2853.9677735636546,1094
2855.7179355353833,1113
2857.4677598832186,1079
2859.217246912299,1107
2860.9663969278427,1057
2862.715210235146,1092
2864.4636871395846,1057
2866.211827946614,1105
2867.9596329617652,1075
2869.7071024906536,1102
2871.4542368389684,1089
2873.20103631248,1087
2874.947501217038,1161
2876.6936318585695,1136
2878.4394285430812,1160
2880.1848915766604,1025
2881.9300212654707,1084
2883.6748179157553,1080
2885.4192818338374,1080
2887.1634133261173,1108
2888.907212699077,1084
2890.6506802592744,1120
2892.393816313348,1037
2894.1366211680142,1130
2895.8790951300693,1111
2897.621238506388,1121
2899.363051603925,1136
2901.1045347297118,1072
2902.8456881908596,1071
2904.58651229456,1086
2906.327007348081,1066
2908.067173658772,1134
2909.8070115340597,1112
2911.5465212814497,1093
2913.285703208527,1170
2915.0245576229563,1112
2916.7630848324807,1065
2918.5012851449196,1097
2920.2391588681758,1096
2921.976706310227,1132
2923.7139277791334,1149
2925.4508235830313,1091
2927.187394030137,1103
2928.923639428745,1052
2930.6595600872306,1073
2932.395156314046,1116
2934.1304284177218,1126
2935.8653767068713,1147
2937.6000014901815,1091
2939.3343030764227,1084
2941.068281774442,1143
2942.8019378931644,1103
2944.5352717415976,1135
2946.2682836288236,1112
2948.0009738640065,1092
2949.7333427563885,1096
2951.465390615289,1076
2953.1971177501086,1119
2954.9285244703265,1128
2956.6596110855,1088
2958.3903779052657,1121
2960.1208252393385,1097
2961.8509533975125,1113
2963.5807626896617,1080
2965.3102534257378,1093
2967.0394259157715,1081
2968.768280469873,1095
2970.496817398232,1111
2972.2250370111146,1101
2973.952939618869,1119
2975.6805255319196,1114
2977.4077950607707,1109
2979.134748516006,1101
2980.861386208289,1170
2982.587708448359,1062
2984.313715547037,1112
2986.039407815222,1100
2987.764785563891,1113
2989.489849104102,1062
2991.2145987469908,1060
2992.9390348037705,1076
2994.6631575857346,1109
2996.3869674042576,1066
2998.1104645707887,1045
2999.83364939686,1080
3001.5565221940783,1092
3003.2790832741334,1039
3005.0013329487924,1099
3006.7232715298996,1065
3008.4448993293804,1091
3010.166216659239,1075
3011.887223831558,1061
3013.607921158498,1069
3015.3283089522993,1063
3017.0483875252826,1069
3018.7681571898443,1103
3020.4876182584626,1076
3022.2067710436927,1090
3023.9256158581707,1110
3025.644153014609,1060
3027.362382825801,1099
3029.0803056046193,1089
3030.797921664012,1143
3032.5152313170106,1113
3034.2322348767225,1097
3035.9489326563353,1054
3037.665324969115,1063
3039.3814121284063,1047
3041.097194447633,1088
3042.812672240299,1082
3044.5278458199855,1060
3046.2427155003525,1089
3047.9572815951406,1127
3049.671544418167,1083
3051.38550428333,1111
3053.0991615046073,1090
3054.812516396051,1087
3056.5255692717974,1081
3058.2383204460575,1023
3059.9507702331257,1084
3061.662918947372,1089
3063.3747669032446,1092
3065.0863144152736,1056
3066.7975617980674,1028
3068.508509366309,1055
3070.219157434767,1143
3071.9295063182844,1105
3073.639556331785,1107
3075.3493077902704,1061
3077.058761008821,1111
3078.7679163025964,1105
3080.476773986837,1100
3082.1853343768594,1049
3083.89359778806,1081
3085.6015645359153,1079
3087.3092349359786,1086
3089.016609303884,1088
3090.7236879553434,1072
3092.4304712061476,1079
3094.136959372166,1089
3095.843152769349,1102
3097.5490517137237,1080
3099.2546565213966,1104
3100.959967508554,1042
3102.66498499146,1094
3104.3697092864577,1051
3106.0741407099695,1070
3107.778279578498,1092
3109.482126208622,1087
3111.1856809170004,1071
3112.8889440203716,1075
3114.5919158355528,1108
3116.294596679439,1139
3117.996986869006,1159
3119.6990867213062,1155
3121.4008965534726,1088
3123.102416682717,1112
3124.803647426329,1090
3126.5045891016784,1107
3128.205242026213,1028
3129.90560651746,1091
3131.605682893025,1112
3133.3054714705922,1099
3135.0049725679282,1080
3136.7041865028714,1071
3138.4031135933465,1124
3140.101754157353,1133
3141.800108512971,1089
3143.498176978357,1077
3145.1959598717494,1129
3146.8934575114636,1069
3148.5906702158954,1103
3150.2875983035183,1026
3151.9842420928853,1060
3153.680601902627,1065
3155.376678051456,1058
3157.07247085816,1053
3158.767980641609,1066
3160.463207720748,1067
3162.158152414606,1065
3163.8528150422862,1083
3165.5471959229726,1081
3167.2412953759303,1029
3168.9351137204976,1108
3170.628651276098,1088
3172.3219083622307,1049
3174.014885298474,1062
3175.707582404485,1042
3177.4000000000005,1093
3179.092138404835,1065
3180.7839979388846,1125
3182.47557892212,1105
3184.166881674594,1105
3185.8579065164386,1133
3187.5486537678626,1143
3189.2391237491547,1111
3190.9293167806827,1030
3192.6192331828934,1053
3194.3088732763117,1065
3195.998237381542,1069
3197.687325819268,1104
3199.376138910251,1008
3201.064676975334,1074
3202.7529403354347,1090
3204.4409293115523,1090
3206.1286442247647,1083
3207.816085396229,1078
3209.5032531471825,1051
3211.190147798936,1074
3212.8767696728846,1051
3214.5631190905015,1054
3216.2491963733373,1064
3217.9350018430214,1080
3219.6205358212637,1056
3221.305798629851,1046
3222.990790590651,1072
3224.6755120256103,1044
3226.359963256751,1067
3228.0441446061795,1037
3229.7280563960758,1013
3231.411698948703,1056
3233.0950725863995,1095
3234.778177631587,1096
3236.461014406761,1070
3238.1435832345005,1084
3239.8258844374595,1056
3241.507918338374,1129
3243.1896852600576,1084
3244.8711855254023,1089
3246.552419457381,1075
3248.233387379042,1110
3249.914089613516,1077
3251.59452648401,1107
3253.274698313813,1158
3254.95460542629,1096
3256.6342481448855,1073
3258.313626793125,1081
3259.9927416946084,1069
3261.6715931730196,1115
3263.3501815521176,1058
3265.0285071557437,1037
3266.706570307815,1035
3268.3843713323286,1068
3270.0619105533615,1074
3271.739188295068,1091
3273.4162048816834,1031
3275.0929606375184,1067
3276.769455886966,1047
3278.445690954498,1118
3280.1216661646613,1094
3281.797381842087,1062
3283.4728383114807,1146
3285.1480358976296,1042
3286.8229749253996,1068
3288.4976557197333,1092
3290.172078605655,1028
3291.846243908266,1043
3293.5201519527463,1049
3295.193803064357,1044
3296.8671975684374,1084
3298.5403357904024,1069
3300.21321805575,1096
3301.8858446900567,1058
3303.558216018975,1104
3305.23033236824,1099
3306.9021940636603,1061
3308.57380143113,1111
3310.2451547966184,1087
3311.916254486174,1081
3313.5871008259246,1108
3315.2576941420766,1106
3316.9280347609147,1001
3318.5981230088046,1026
3320.2679592121895,1083
3321.9375436975924,1018
3323.606876791612,1063
3325.27595882093,1065
3326.944790112305,1075
3328.6133709925753,1018
3330.2817017886573,1054
3331.949782827547,1065
3333.617614436319,1046
3335.2851969421245,1047
3336.952530672199,1067
3338.619615953853,1049
3340.286453114475,1034
3341.9530424815357,1062
3343.619384382583,1088
3345.2854791452437,1055
3346.951327097224,1061
3348.6169285663073,1062
3350.2822838803577,1090
3351.947393367319,1126
3353.61225735521,1067
3355.2768761721345,1065
3356.9412501462693,1069
3358.605379605873,1048
3360.2692648792827,1105
3361.9329062949146,1069
3363.596304181263,1056
