CollectionTime,7/11/2024 2:03:22 PM
ExposureUsed,3
CalibratedSpectrum
-962.7078968117929,444
-959.9714848408522,465
-957.2358232597828,478
-954.5009119013725,456
-951.7667505983302,455
-949.0333391832855,475
-946.3006774887896,487
-943.5687653473143,495
-940.837602591253,494
-938.1071890529199,471
-935.3775245645503,500
-932.6486089583007,488
-929.9204420662485,499
-927.1930237203925,505
-924.4663537526524,470
-921.7404319948689,477
-919.0152582788041,490
-916.2908324361409,505
-913.5671542984834,494
-910.8442236973568,491
-908.1220404642074,506
-905.4006044304027,479
-902.679915427231,478
-899.959973285902,481
-897.2407778375464,492
-894.5223289132158,489
-891.8046263438832,480
-889.0876699604426,472
-886.3714595937089,463
-883.6559950744183,466
-880.9412762332282,462
-878.2273029007168,489
-875.5140749073835,495
-872.8015920836489,469
-870.0898542598545,462
-867.3788612662631,448
-864.6686129330585,500
-861.9591090903457,492
-859.2503495681506,500
-856.5423341964203,481
-853.8350628050229,459
-851.1285352237478,460
-848.4227512823054,476
-845.7177108103272,497
-843.0134136373656,493
-840.3098595928943,473
-837.6070485063082,502
-834.9049802069229,497
-832.2036545239757,505
-829.5030712866244,475
-826.8032303239481,470
-824.1041314649472,493
-821.4057745385428,485
-818.7081593735775,487
-816.0112857988148,460
-813.3151536429393,485
-810.6197627345566,498
-807.9251129021936,487
-805.2312039742981,508
-802.5380357792392,520
-799.8456081453069,494
-797.1539209007124,496
-794.462973873588,480
-791.772766891987,493
-789.083299783884,507
-786.3945723771743,494
-783.7065844996748,484
-781.0193359791231,501
-778.3328266431781,518
-775.6470563194197,513
-772.9620248353489,460
-770.2777320183878,495
-767.5941776958798,484
-764.9113616950891,483
-762.2292838432011,496
-759.5479439673222,502
-756.8673418944801,505
-754.1874774516235,503
-751.5083504656222,490
-748.8299607632671,509
-746.15230817127,506
-743.475392516264,487
-740.7992136248035,545
-738.1237713233636,529
-735.4490654383407,531
-732.7750957960521,511
-730.1018622227365,527
-727.4293645445534,528
-724.7576025875837,507
-722.0865761778291,493
-719.4162851412126,510
-716.7467293035781,541
-714.0779084906909,522
-711.409822528237,515
-708.7424712418238,527
-706.0758544569796,519
-703.4099719991541,573
-700.7448236937178,532
-698.0804093659622,527
-695.4167288411002,514
-692.7537819442656,534
-690.0915685005134,525
-687.4300883348199,543
-684.7693412720819,568
-682.1093271371178,537
-679.4500457546669,536
-676.7914969493897,514
-674.1336805458676,552
-671.4765963686034,551
-668.8202442420206,556
-666.1646239904642,569
-663.5097354382001,544
-660.8555784094151,573
-658.2021527282176,561
-655.5494582186366,576
-652.8974947046223,557
-650.2462620100463,542
-647.5957599587009,553
-644.9459883742998,565
-642.2969470804776,583
-639.6486359007902,565
-637.0010546587141,545
-634.3542031776476,558
-631.7080812809096,562
-629.0626887917401,541
-626.4180255333008,592
-623.7740913286734,561
-621.1308860008619,582
-618.4884093727904,594
-615.8466612673046,584
-613.2056415071715,566
-610.5653499150785,570
-607.9257863136347,610
-605.28695052537,620
-602.6488423727357,588
-600.0114616781036,589
-597.3748082637674,591
-594.7388819519412,594
-592.1036825647604,636
-589.4692099242818,619
-586.8354638524829,609
-584.2024441712624,579
-581.5701507024403,590
-578.9385832677575,608
-576.3077416888759,613
-573.6776257873787,578
-571.0482353847704,597
-568.4195703024757,573
-565.7916303618415,615
-563.164415384135,596
-560.5379251905453,599
-557.9121596021815,609
-555.2871184400748,605
-552.6628015251767,590
-550.0392086783606,570
-547.4163397204204,600
-544.794194472071,620
-542.1727727539491,586
-539.5520743866118,633
-536.9320991905377,644
-534.3128469861261,655
-531.6943175936979,645
-529.0765108334947,652
-526.4594265256793,703
-523.8430644903358,739
-521.2274245474689,883
-518.612506517005,886
-515.9983102187913,830
-513.3848354725959,894
-510.77208209810846,976
-508.16004991493924,1002
-505.5487387426199,1050
-502.9381484006032,1102
-500.3282787082628,1062
-497.71912948489364,1061
-495.1107005497117,980
-492.5029917218539,850
-489.8960028203786,760
-487.28973366426493,770
-484.68418407241325,743
-482.07935386364494,703
-479.47524285670266,720
-476.87185087025,716
-474.2691777228715,697
-471.66722323307334,741
-469.0659872192821,741
-466.4654694998459,759
-463.86566989303384,766
-461.26658821703614,762
-458.66822428996414,733
-456.07057792985,713
-453.4736489546475,721
-450.877437182231,721
-448.28194243039627,710
-445.68716451686,701
-443.09310325926003,696
-440.49975847515555,732
-437.9071299820263,691
-435.31521759727354,712
-432.72402113821954,712
-430.13354042210767,730
-427.5437752661022,705
-424.95472548728867,723
-422.36639090267386,763
-419.7787713291855,781
-417.1918665836721,763
-414.60567648290385,746
-412.0202008435715,806
-409.4354394822874,773
-406.8513922155845,785
-404.26805885991723,771
-401.685439231661,785
-399.103533147112,771
-396.522340422488,760
-393.9418608739278,752
-391.3620943174908,779
-388.7830405691583,695
-386.2046994448317,711
-383.6270707603344,688
-381.05015433141045,667
-378.473949973725,603
-375.8984575028645,606
-373.32367673433623,529
-370.74960748356875,559
-368.1762495659117,517
-365.60360279663576,483
-363.03166699093265,479
-360.4604419639154,477
-357.8899275306178,459
-355.32012350599507,440
-352.7510297049233,444
-350.1826459421999,423
-347.61497203254316,397
-345.04800779059235,410
-342.4817530309082,399
-339.91620756797226,397
-337.35137121618743,395
-334.7872437898774,410
-332.22382510328725,406
-329.66111497058273,407
-327.09911320585127,395
-324.53781962310075,416
-321.9772340362607,426
-319.4173562591816,451
-316.8581861056348,394
-314.2997233893127,407
-311.7419679238294,413
-309.1849195227194,404
-306.62857799943856,419
-304.0729431673641,464
-301.51801483979375,435
-298.963792829947,466
-296.41027695096386,446
-293.85746701590574,430
-291.3053628377552,447
-288.7539642294155,429
-286.2032710037115,442
-283.65328297338897,440
-281.1039999511146,435
-278.5554217494762,467
-276.007548180983,461
-273.4603790580651,483
-270.9139141930734,442
-268.3681533982807,455
-265.8230964858798,464
-263.27874326798565,442
-260.7350935566336,457
-258.1921471637804,478
-255.6499039013039,551
-253.10836358100266,514
-250.56752601459698,482
-248.02739101372765,503
-245.48795838995704,532
-242.94922795476816,492
-240.41119951956557,512
-237.8738728956746,497
-235.33724789434166,518
-232.80132432673452,500
-230.2661020039418,492
-227.73158073697357,475
-225.19776033676033,500
-222.66464061415422,488
-220.1322213799284,508
-217.60050244477725,505
-215.06948361931552,501
-212.53916471408013,555
-210.00954553952818,576
-207.48062590603843,523
-204.9524056239104,518
-202.4248845033651,537
-199.8980623545441,521
-197.37193898751036,555
-194.84651421224817,550
-192.32178783866232,561
-189.79775967657952,591
-187.27442953574644,603
-184.7517972258321,578
-182.2298625564256,577
-179.7086253370378,611
-177.18808537710026,567
-174.66824248596583,575
-172.14909647290835,579
-169.6306471471229,589
-167.11289431772548,641
-164.59583779375328,597
-162.07947738416453,544
-159.5638128978386,604
-157.04884414357605,592
-154.53457093009854,627
-152.02099306604828,634
-149.50811035998936,669
-146.99592262040665,611
-144.48442965570587,683
-141.97363127421409,719
-139.46352728417958,707
-136.95411749377126,736
-134.44540171107985,708
-131.93737974411636,718
-129.43005140081357,680
-126.92341648902493,812
-124.41747481652521,937
-121.91222619101006,1113
-119.40767042009657,1287
-116.90380731132257,1322
-114.40063667214702,1165
-111.8981583099503,1070
-109.3963720320337,921
-106.89527764561933,855
-104.39487495785067,1039
-101.89516377579241,1403
-99.39614390642998,1652
-96.89781515667039,1836
-94.40017733334128,1550
-91.90323024319173,1449
-89.40697369289148,1506
-86.91140748903172,2144
-84.41653143812482,2228
-81.92234534660395,1693
-79.42884902082358,1506
-76.93604226705907,2164
-74.4439248915071,4079
-71.95249670028534,5929
-69.46175749943245,7686
-66.97170709490854,8108
-64.48234529259423,7515
-61.99367189829195,6855
-59.50568671772464,6887
-57.01838955653636,6572
-54.53178022029283,6437
-52.045858514480074,6798
-49.560624244506016,8437
-47.07607721569923,8759
-44.59221723330904,8512
-42.10904410250669,7649
-39.62655762838392,7145
-37.14475761595372,7268
-34.66364387015028,8868
-32.18321619582866,10831
-29.70347439776515,11278
-27.224418280657005,11393
-24.74604764912317,11936
-22.26836230770266,12608
-19.7913620608565,17063
-17.315046712966478,26523
-14.83941606833514,33107
-12.36446993118659,42676
-9.89020810566592,65039
-7.416630395839093,65039
-4.94373660569363,65039
-2.471526539137585,65039
-6.821210263296962E-13,65039
2.47084320796705,65039
4.941003281093458,65039
7.410480415786196,65039
9.879274808531363,65039
12.347386655893956,65039
14.814816154518212,65039
17.28156350112681,65039
19.74762889252179,65039
22.21301252558385,65039
24.67771459727237,20187
27.141735304626195,3607
29.605074844762612,1896
32.06773341487792,1705
34.52971121224755,1705
36.99100843422559,1513
39.45162527824516,1562
41.91156194181792,1344
44.370818622535126,1276
46.82939551806646,1064
49.287292826160524,1107
51.74451074464503,1115
54.201049471426245,1187
56.65690920448981,1120
59.112090141899785,944
61.56659248179983,976
64.02041642241159,976
66.4735621620365,934
68.92602989905402,847
71.37781983192338,880
73.82893215918205,964
76.27936707944684,1051
78.72912479141326,914
81.17820549385567,791
83.62660938562783,905
86.07433666566146,999
88.5213875329681,843
90.96776218663751,749
93.41346082583925,741
95.85848364982041,753
98.30283085790859,768
100.7465026495089,785
103.18949922410604,714
105.63182078126385,791
108.07346752062438,788
110.51443964190923,837
112.95473734491827,734
115.39436082953114,657
117.83331029570547,654
120.27158594347827,682
122.7091879729652,693
125.1461165843615,689
127.58237197794062,689
130.01795435405518,719
132.4528639131364,775
134.88710085569494,852
137.32066538231982,749
139.75355769367923,681
142.1857779905207,714
144.61732647366978,657
147.04820334403132,583
149.47840880258934,618
151.90794305040674,691
154.33680628862487,793
156.76499871846443,828
159.19252054122433,1020
161.61937195828352,1123
164.04555317109896,1132
166.47106438120693,1223
168.89590579022217,1291
171.320077599839,1449
173.7435800118302,1450
176.16641322804742,1570
178.58857745042144,1628
181.01007288096173,1742
183.43089972175687,1711
185.85105817497413,1751
188.27054844285988,1766
190.6893707277394,1729
193.10752523201643,1786
195.5250121581745,1756
197.9418317087751,1862
200.3579840864594,1878
202.7734694939469,1840
205.18828813403627,1897
207.6024402096051,1929
210.01592592360964,1961
212.42874547908548,1988
214.84089907914665,1960
217.2523869269868,1797
219.66320922587727,1887
222.0733661791695,1945
224.48285799029293,2000
226.8916848627572,1918
229.29984700014882,1961
231.7073446061355,1909
234.11417788446204,1984
236.520347038953,2003
238.92585227351185,2067
241.33069379212054,1972
243.73487179884035,2098
246.1383864978112,2114
248.541238093252,2085
250.9434267894609,2070
253.34495279081432,2164
255.74581630176783,2203
258.1460175268563,2226
260.54555667069314,2185
262.9444339379703,2124
265.3426495334594,2115
267.7402036620107,2070
270.1370965285529,2066
272.53332833809407,1967
274.9288992957214,1983
277.32380960660055,1946
279.718059475976,1881
282.1116491091717,1882
284.5045787115897,1860
286.89684848871195,1886
289.2884586460981,1871
291.67940938938807,1894
294.0697009242996,1897
296.4593334566299,1911
298.84830719225477,1895
301.23662233712923,1841
303.6242790972866,1861
306.01127767884,1815
308.39761828798066,1800
310.78330113097934,1792
313.16832641418534,1750
315.5526943440269,1792
317.9364051270112,1751
320.3194589697242,1711
322.70185607883093,1729
325.0835966610754,1692
327.4646809232805,1722
329.8451090723478,1711
332.2248813152577,1712
334.6039978590701,1648
336.9824589109231,1678
339.36026467803447,1703
341.7374153677,1685
344.113911187295,1579
346.48975234427337,1589
348.8649390461686,1635
351.2394715005918,1659
353.61334991523415,1660
355.9865744978655,1642
358.35914545633375,1629
360.73106299856715,1647
363.10232733257146,1594
365.47293866643247,1569
367.84289720831396,1584
370.2122031664593,1553
372.5808567491905,1611
374.9488581649083,1624
377.31620762209275,1544
379.6829053293021,1514
382.0489514951745,1552
384.4143463284262,1550
386.7790900378528,1572
389.14318283232853,1565
391.50662492080653,1543
393.86941651231916,1543
396.23155781597745,1593
398.5930490409713,1498
400.9538903965696,1556
403.3140820921202,1512
405.6736243370498,1578
408.03251734086336,1547
410.3907613131465,1469
412.74835646356166,1555
415.10530300185144,1453
417.4616011378372,1519
419.81725108141893,1502
422.1722530425758,1484
424.5266072313656,1451
426.880313857925,1426
429.2333731324701,1410
431.58578526529516,1496
433.9375504667738,1464
436.2886689473588,1483
438.63914091758113,1490
440.9889665880513,1448
443.33814616945835,1472
445.68667987257015,1445
448.03456790823395,1408
450.3818104873759,1426
452.72840782100013,1437
455.07436012019105,1429
457.41966759611057,1476
459.7643304600007,1458
462.10834892318155,1487
464.4517231970525,1472
466.79445349309174,1424
469.1365400228566,1470
471.4779829979826,1462
473.81878263018564,1440
476.15893913125876,1480
478.4984527130747,1518
480.8373235875855,1449
483.17555196682144,1547
485.5131380628919,1521
487.8500820879857,1478
490.1863842543697,1499
492.52204477439034,1662
494.8570638604725,1691
497.1914417251204,1856
499.52517858091653,1953
501.85827464052306,2188
504.19073011668036,2353
506.5225452222086,2419
508.85372017000566,2468
511.18425517304956,2348
513.514150444396,2562
515.8434061971808,2898
518.1720226446176,3347
520.4999999999999,3583
522.8273384766991,3351
525.1540382881666,3100
527.480099647932,2761
529.8055227696037,2300
532.1303078668694,1945
534.454455153496,1714
536.777964843328,1589
539.1008371502907,1576
541.4230722883866,1516
543.744670471698,1487
546.0656319143858,1470
548.3859568306899,1452
550.7056454349294,1449
553.0246979415016,1474
555.3431145648834,1437
557.6608955196306,1428
559.978041020377,1445
562.2945512818363,1458
564.6104265188006,1429
566.9256669461412,1425
569.2402727788082,1487
571.5542442318302,1410
573.8675815203156,1526
576.1802848594508,1502
578.4923544645015,1468
580.8037905508126,1523
583.114593333807,1510
585.4247630289875,1504
587.7342998519354,1420
590.0432040183106,1454
592.3514757438526,1445
594.6591152443794,1453
596.9661227357875,1469
599.2724984340531,1442
601.578242555231,1453
603.8833553154542,1438
606.1878369309362,1446
608.4916876179676,1485
610.7949075929192,1504
613.0974970722403,1488
615.3994562724587,1469
617.7007854101818,1435
620.0014847020951,1428
622.3015543649641,1483
624.6009946156324,1450
626.8998056710224,1449
629.1979877481361,1487
631.4955410640538,1503
633.7924658359349,1492
636.0887622810175,1461
638.3844306166192,1483
640.6794710601358,1494
642.9738838290426,1503
645.2676691408932,1476
647.5608272133207,1447
649.853358264037,1545
652.1452625108324,1517
654.4365401715764,1504
656.7271914642178,1442
659.0172166067838,1523
661.3066158173809,1523
663.5953893141935,1619
665.8835373154867,1524
668.1710600396028,1452
670.4579577049639,1487
672.7442305300709,1528
675.0298787335033,1503
677.3149025339197,1506
679.599302150058,1541
681.8830778007342,1504
684.1662297048437,1575
686.4487580813608,1534
688.7306631493387,1525
691.0119451279091,1590
693.2926042362834,1532
695.5726406937516,1493
697.8520547196814,1592
700.1308465335215,1526
702.4090163547982,1460
704.6865644031171,1551
706.9634908981619,1484
709.2397960596965,1519
711.5154801075631,1504
713.7905432616823,1518
716.0649857420548,1451
718.3388077687592,1509
720.612009561953,1485
722.8845913418733,1551
725.1565533288352,1521
727.427895743234,1522
729.6986188055427,1518
731.9687227363137,1507
734.238207756178,1557
736.5070740858458,1513
738.7753219461066,1522
741.0429515578281,1493
743.3099631419569,1532
745.5763569195191,1531
747.8421331116193,1474
750.1072919394409,1519
752.3718336242467,1488
754.6357583873777,1534
756.8990664502545,1494
759.1617580343765,1492
761.423833361321,1491
763.6852926527457,1531
765.9461361303862,1535
768.206364016058,1506
770.4659765316536,1461
772.7249738991469,1573
774.9833563405886,1560
777.2411240781092,1537
779.4982773339183,1476
781.7548163303044,1485
784.010741289634,1539
786.2660524343538,1615
788.5207499869881,1586
790.7748341701416,1561
793.0283052064964,1567
795.2811633188143,1571
797.5334087299362,1508
799.7850416627813,1502
802.0360623403484,1521
804.2864709857143,1496
806.5362678220353,1539
808.7854530725468,1478
811.0340269605625,1566
813.2819897094754,1530
815.5293415427581,1543
817.77608268396,1526
820.0222133567116,1587
822.2677337847211,1532
824.5126441917765,1551
826.7569448017433,1524
829.0006358385675,1611
831.2437175262731,1571
833.4861900889629,1495
835.7280537508192,1581
837.9693087361026,1571
840.2099552691533,1479
842.4499935743896,1441
844.689423876309,1537
846.9282463994886,1489
849.1664613685833,1474
851.4040690083276,1521
853.6410695435349,1491
855.877463199097,1557
858.1132501999847,1547
860.3484307712487,1583
862.5830051380175,1559
864.8169735254988,1535
867.0503361589791,1566
869.2830932638243,1558
871.5152450654786,1569
873.7467917894654,1557
875.9777336613873,1578
878.2080709069252,1571
880.4378037518389,1516
882.666932421968,1543
884.8954571432301,1551
887.1233781416219,1571
889.3506956432192,1528
891.5774098741766,1528
893.803521060728,1540
896.0290294291852,1561
898.2539352059397,1533
900.4782386174619,1487
902.7019398903011,1515
904.925039251085,1585
907.147536926521,1610
909.3694331433943,1564
911.59072812857,1564
913.8114221089921,1527
916.0315153116827,1598
918.2510079637437,1538
920.4699002923547,1490
922.6881925247761,1479
924.905884888345,1501
927.1229776104793,1575
929.3394709186747,1565
931.555365040506,1548
933.7706602036275,1491
935.9853566357709,1533
938.1994545647489,1506
940.4129542184515,1473
942.6258558248488,1531
944.8381596119883,1497
947.0498658079974,1491
949.2609746410825,1503
951.4714863395287,1470
953.6814011316998,1444
955.8907192460387,1496
958.0994409110671,1516
960.3075663553858,1517
962.5150958076741,1512
964.7220294966913,1568
966.928367651274,1444
969.1341105003388,1497
971.3392582728806,1462
973.5438111979742,1455
975.747769504772,1508
977.9511334225061,1513
980.153903180487,1480
982.3560790081052,1426
984.5576611348289,1396
986.7586497902058,1410
988.9590452038618,1438
991.158847605503,1463
993.3580572249133,1412
995.5566742919558,1401
997.7546990365728,1396
999.952131688785,1372
1002.1489724786926,1370
1004.3452216364743,1376
1006.5408793923874,1346
1008.7359459767691,1295
1010.9304216200343,1314
1013.1243065526781,1247
1015.3176010052733,1291
1017.510305208472,1286
1019.7024193930064,1315
1021.8939437896848,1299
1024.0848786293977,1346
1026.2752241431122,1282
1028.4649805618747,1313
1030.6541481168115,1335
1032.842727039127,1335
1035.0307175601051,1305
1037.2181199111074,1317
1039.4049343235752,1259
1041.591161029029,1276
1043.7768002590683,1220
1045.9618522453698,1280
1048.1463172196918,1266
1050.3301954138697,1294
1052.513487059818,1275
1054.69619238953,1223
1056.8783116350783,1204
1059.0598450286152,1221
1061.2407928023704,1256
1063.4211551886528,1244
1065.6009324198508,1250
1067.780124728432,1314
1069.9587323469414,1268
1072.1367555080046,1222
1074.314194444325,1284
1076.4910493886855,1228
1078.667320573947,1182
1080.843008233051,1223
1083.0181125990161,1222
1085.1926339049414,1193
1087.3665723840027,1185
1089.5399282694575,1172
1091.7127017946405,1159
1093.8848931929647,1224
1096.0565026979243,1212
1098.2275305430899,1185
1100.3979769621128,1174
1102.567842188722,1241
1104.737126456726,1293
1106.9058300000124,1180
1109.0739530525475,1212
1111.2414958483764,1208
1113.4084586216231,1182
1115.5748416064907,1180
1117.7406450372605,1179
1119.9058691482942,1218
1122.0705141740304,1158
1124.2345803489884,1163
1126.3980679077658,1201
1128.5609770850388,1177
1130.7233081155623,1191
1132.8850612341707,1179
1135.0462366757774,1170
1137.2068346753745,1251
1139.3668554680326,1168
1141.526299288901,1247
1143.68516637321,1235
1145.8434569562655,1176
1148.001171273455,1207
1150.158309560244,1195
1152.3148720521767,1156
1154.470858984876,1211
1156.626270594044,1170
1158.7811071154629,1135
1160.9353687849912,1191
1163.089055838569,1128
1165.242168512213,1151
1167.3947070420209,1142
1169.5466716641677,1143
1171.6980626149075,1229
1173.8488801305748,1153
1175.9991244475814,1183
1178.1487958024186,1113
1180.2978944316555,1124
1182.4464205719428,1073
1184.5943744600072,1138
1186.7417563326567,1158
1188.8885664267755,1140
1191.0348049793297,1166
1193.1804722273619,1186
1195.325568407995,1147
1197.4700937584303,1145
1199.614048515948,1185
1201.7574329179074,1186
1203.900247201746,1120
1206.042491604982,1162
1208.1841663652099,1169
1210.3252717201053,1174
1212.465807907422,1183
1214.6057751649923,1120
1216.7451737307279,1100
1218.8840038426192,1178
1221.0222657387353,1154
1223.1599596572241,1137
1225.2970858363137,1169
1227.4336445143094,1128
1229.5696359295966,1165
1231.705060320639,1163
1233.8399179259786,1207
1235.9742089842384,1188
1238.107933734118,1128
1240.2410924143974,1182
1242.373685263935,1148
1244.5057125216676,1215
1246.6371744266116,1191
1248.7680712178621,1164
1250.898403134593,1211
1253.028170416058,1189
1255.1573733015875,1213
1257.2860120305932,1204
1259.4140868425648,1243
1261.54159797707,1158
1263.6685456737569,1210
1265.7949301723515,1232
1267.9207517126597,1175
1270.046010534565,1261
1272.1707068780306,1218
1274.2948409830983,1242
1276.4184130898889,1226
1278.541423438603,1195
1280.6638722695184,1242
1282.785759822993,1217
1284.9070863394636,1242
1287.0278520594447,1238
1289.1480572235314,1250
1291.2677020723963,1157
1293.3867868467923,1235
1295.5053117875495,1321
1297.623277135579,1267
1299.740683131868,1229
1301.8575300174857,1258
1303.973818033578,1323
1306.0895474213703,1344
1308.2047184221678,1336
1310.3193312773528,1395
1312.4333862283888,1338
1314.5468835168163,1328
1316.659823384255,1369
1318.7722060724045,1388
1320.8840318230418,1335
1322.9953008780249,1284
1325.1060134792888,1339
1327.2161698688478,1330
1329.3257702887959,1383
1331.4348149813054,1361
1333.5433041886276,1366
1335.6512381530933,1320
1337.7586171171101,1332
1339.8654413231675,1329
1341.9717110138317,1300
1344.0774264317488,1347
1346.1825878196432,1377
1348.2871954203192,1367
1350.3912494766587,1323
1352.4947502316231,1288
1354.5976979282532,1274
1356.7000928096686,1360
1358.8019351190665,1303
1360.9032250997243,1270
1363.0039629949988,1243
1365.1041490483235,1287
1367.2037835032133,1243
1369.3028666032606,1288
1371.401398592137,1226
1373.4993797135926,1269
1375.5968102114575,1312
1377.6936903296396,1303
1379.7900203121262,1264
1381.8858004029835,1313
1383.9810308463561,1251
1386.075711886469,1288
1388.1698437676241,1274
1390.2634267342032,1307
1392.356461030667,1282
1394.4489469015557,1286
1396.5408845914872,1274
1398.6322743451592,1345
1400.7231164073469,1265
1402.813411022907,1290
1404.903158436773,1316
1406.9923588939578,1275
1409.0810126395531,1273
1411.1691199187303,1345
1413.2566809767386,1247
1415.343696058907,1363
1417.4301654106425,1379
1419.5160892774315,1335
1421.6014679048399,1234
1423.6863015385125,1279
1425.7705904241707,1294
1427.8543348076178,1352
1429.9375349347342,1314
1432.0201910514802,1372
1434.102303403894,1356
1436.1838722380944,1398
1438.2648978002767,1363
1440.3453803367174,1353
1442.4253200937692,1336
1444.5047173178677,1407
1446.5835722555234,1422
1448.6618851533285,1442
1450.739656257952,1443
1452.8168858161434,1393
1454.8935740747306,1408
1456.96972128062,1426
1459.045327680797,1442
1461.120393522327,1486
1463.1949190523528,1499
1465.2689045180973,1536
1467.3423501668608,1530
1469.415256246024,1563
1471.4876230030463,1548
1473.559450685465,1602
1475.6307395408976,1584
1477.7014898170391,1580
1479.771701761665,1508
1481.8413756226287,1532
1483.9105116478618,1607
1485.9791100853772,1568
1488.0471711832643,1619
1490.1146951896926,1668
1492.1816823529098,1627
1494.2481329212433,1705
1496.3140471430984,1675
1498.3794252669609,1737
1500.4442675413939,1736
1502.5085742150404,1755
1504.572345536622,1709
1506.6355817549388,1750
1508.6982831188702,1692
1510.7604498773744,1794
1512.8220822794883,1765
1514.8831805743293,1785
1516.9437450110909,1786
1519.003775839048,1829
1521.0632733075522,1840
1523.1222376660367,1814
1525.1806691640113,1836
1527.2385680510652,1874
1529.2959345768668,1800
1531.3527689911643,1850
1533.4090715437833,1812
1535.4648424846291,1885
1537.5200820636855,1921
1539.5747905310159,1933
1541.6289681367616,1946
1543.6826151311434,2030
1545.7357317644614,2040
1547.7883182870937,2058
1549.8403749494987,2004
1551.8919020022113,2061
1553.9428996958477,2103
1555.9933682811015,2145
1558.0433080087469,2197
1560.0927191296346,2198
1562.1416018946961,2230
1564.1899565549415,2209
1566.2377833614592,2215
1568.2850825654164,2138
1570.3318544180606,2213
1572.3780991707158,2112
1574.423817074788,2120
1576.4690083817595,2050
1578.5136733431923,2071
1580.5578122107272,1965
1582.601425236085,1960
1584.6445126710646,1827
1586.6870747675434,1798
1588.7291117774776,1789
1590.7706239529034,1748
1592.8116115459347,1719
1594.8520748087658,1694
1596.8920139936686,1628
1598.9314293529933,1586
1600.9703211391711,1599
1603.008689604711,1455
1605.0465350022005,1487
1607.0838575843068,1481
1609.1206576037753,1478
1611.1569353134305,1428
1613.1926909661765,1439
1615.2279248149953,1366
1617.2626371129481,1373
1619.2968281131757,1363
1621.3304980688963,1315
1623.3636472334088,1355
1625.39627586009,1337
1627.428384202396,1346
1629.459972513861,1355
1631.4910410480993,1229
1633.5215900588028,1268
1635.551619799744,1260
1637.5811305247717,1261
1639.6101224878166,1223
1641.6385959428862,1258
1643.6665511440683,1220
1645.693988345528,1279
1647.7209078015112,1234
1649.7473097663405,1204
1651.7731944944203,1218
1653.7985622402307,1223
1655.823413258333,1232
1657.847747803366,1191
1659.8715661300494,1182
1661.8948684931793,1264
1663.9176551476316,1183
1665.9399263483624,1191
1667.9616823504057,1162
1669.982923408873,1231
1672.0036497789574,1163
1674.0238617159293,1177
1676.043559475138,1195
1678.0627433120121,1156
1680.081413482059,1178
1682.0995702408654,1153
1684.117213844096,1159
1686.134344547495,1191
1688.1509626068864,1172
1690.1670682781705,1184
1692.182661817329,1184
1694.1977434804217,1180
1696.2123135235875,1203
1698.226372203043,1200
1700.2399197750851,1177
1702.2529564960905,1178
1704.2654826225112,1195
1706.277498410882,1224
1708.2890041178139,1148
1710.2999999999988,1121
1712.3104863142066,1199
1714.3204633172854,1166
1716.329931266163,1161
1718.3388904178469,1186
1720.3473410294214,1246
1722.3552833580516,1199
1724.3627176609807,1171
1726.3696441955308,1190
1728.3760632191033,1208
1730.3819749891782,1196
1732.3873797633146,1177
1734.3922777991502,1165
1736.3966693544012,1207
1738.4005546868639,1166
1740.4039340544127,1178
1742.406807715001,1175
1744.4091759266616,1131
1746.4110389475054,1142
1748.4123970357223,1119
1750.413250449582,1161
1752.4135994474318,1156
1754.4134442876993,1210
1756.4127852288902,1158
1758.4116225295893,1162
1760.4099564484595,1143
1762.407787244244,1139
1764.405115175764,1148
1766.4019405019203,1197
1768.3982634816916,1141
1770.3940843741357,1126
1772.3894034383907,1165
1774.3842209336717,1139
1776.378537119274,1136
1778.372352254571,1110
1780.3656665990156,1127
1782.3584804121397,1124
1784.3507939535534,1112
1786.3426074829463,1139
1788.3339212600863,1143
1790.3247355448211,1105
1792.3150505970766,1126
1794.3048666768573,1106
1796.2941840442477,1124
1798.2830029594106,1104
1800.2713236825884,1137
1802.2591464741004,1149
1804.2464715943465,1137
1806.2332993038058,1087
1808.2196298630352,1123
1810.2054635326708,1173
1812.190800573428,1154
1814.175641246101,1137
1816.1599858115628,1138
1818.1438345307652,1114
1820.127187664738,1119
1822.1100454745924,1136
1824.092408221516,1077
1826.0742761667766,1155
1828.055649571721,1091
1830.0365286977735,1158
1832.0169138064398,1136
1833.9968051593014,1126
1835.9762030180214,1135
1837.9551076443408,1136
1839.9335193000788,1123
1841.9114382471344,1175
1843.888864747485,1133
1845.8657990631878,1136
1847.842241456378,1169
1849.8181921892697,1119
1851.7936515241558,1079
1853.7686197234098,1108
1855.7430970494815,1130
1857.7170837649014,1116
1859.6905801322787,1102
1861.6635864143004,1104
1863.6361028737338,1123
1865.608129773424,1131
1867.5796673762961,1092
1869.5507159453537,1131
1871.521275743678,1151
1873.4913470344313,1121
1875.4609300808534,1166
1877.4300251462632,1083
1879.3986324940588,1120
1881.366752387717,1133
1883.3343850907936,1163
1885.3015308669228,1168
1887.268189979819,1140
1889.2343626932739,1132
1891.2000492711595,1138
1893.1652499774254,1162
1895.1299650761011,1190
1897.0941948312952,1161
1899.0579395071945,1140
1901.0211993680641,1185
1902.98397467825,1178
1904.9462657021745,1179
1906.9080727043415,1175
1908.869395949332,1162
1910.8302357018065,1141
1912.790592226504,1145
1914.7504657882428,1140
1916.7098566519212,1157
1918.6687650825133,1105
1920.6271913450764,1128
1922.5851357047422,1152
1924.5425984267245,1154
1926.499579776314,1154
1928.4560800188833,1140
1930.4120994198802,1102
1932.367638244833,1162
1934.32269675935,1144
1936.2772752291175,1095
1938.231373919899,1166
1940.1849930975404,1161
1942.1381330279637,1132
1944.0907939771696,1151
1946.0429762112412,1157
1947.9946799963363,1161
1949.9459055986945,1167
1951.896653284633,1143
1953.8469233205478,1147
1955.7967159729142,1140
1957.7460315082863,1130
1959.6948701932974,1131
1961.6432322946594,1164
1963.5911180791632,1098
1965.5385278136787,1148
1967.4854617651545,1152
1969.4319202006182,1101
1971.377903387176,1078
1973.3234115920136,1144
1975.268445082395,1150
1977.2130041256642,1145
1979.1570889892423,1178
1981.1006999406304,1167
1983.04383724741,1125
1984.986501177238,1113
1986.928691997853,1124
1988.8704099770712,1144
1990.811655382789,1104
1992.7524284829801,1114
1994.692729545698,1113
1996.6325588390755,1130
1998.5719166313224,1115
2000.5108031907307,1157
2002.4492187856677,1111
2004.387163684583,1118
2006.3246381560011,1141
2008.2616424685298,1078
2010.1981768908527,1143
2012.1342416917332,1104
2014.069837140014,1115
2016.0049635046162,1111
2017.9396210545406,1088
2019.8738100588666,1041
2021.8075307867502,1143
2023.740783507431,1094
2025.6735684902228,1123
2027.6058860045214,1084
2029.5377363198004,1128
2031.4691197056118,1094
2033.4000364315875,1105
2035.3304867674374,1130
2037.260470982952,1111
2039.189989347998,1106
2041.1190421325232,1123
2043.047629606554,1085
2044.9757520401945,1099
2046.9034097036288,1109
2048.8306028671195,1160
2050.7573318010086,1135
2052.683596775716,1132
2054.609398061742,1160
2056.5347359296647,1137
2058.4596106501403,1092
2060.384022493906,1065
2062.3079717317764,1120
2064.231458634646,1131
2066.1544834734873,1108
2068.077046519352,1117
2069.99914804337,1057
2071.9207883167524,1122
2073.8419676107865,1074
2075.7626861968406,1080
2077.6829443463607,1086
2079.6027423308715,1155
2081.522080421977,1077
2083.440958891362,1047
2085.359378010786,1111
2087.2773380520907,1097
2089.194839287196,1088
2091.111881988101,1136
2093.0284664268825,1098
2094.9445928756973,1073
2096.86026160678,1105
2098.775472892446,1092
2100.690227005088,1091
2102.604524217178,1127
2104.5183648012676,1060
2106.431749029985,1100
2108.34467717604,1145
2110.2571495122206,1119
2112.169166311393,1063
2114.080727846503,1079
2115.9918343905747,1115
2117.902486216711,1077
2119.8126835980956,1073
2121.722426807987,1147
2123.6317161197285,1126
2125.5405518067364,1109
2127.448934142509,1108
2129.356863400624,1090
2131.264339854737,1174
2133.1713637785815,1128
2135.077935445972,1143
2136.9840551308002,1144
2138.889723107037,1101
2140.7949396487334,1120
2142.699705030018,1112
2144.6040195250994,1091
2146.507883408264,1112
2148.4112969538774,1130
2150.3142604363848,1083
2152.2167741303097,1092
2154.1188383102535,1135
2156.0204532508997,1145
2157.9216192270064,1193
2159.822336513414,1120
2161.7226053850413,1205
2163.622426116884,1070
2165.5217989840185,1088
2167.4207242616,1176
2169.319202224862,1126
2171.2172331491165,1169
2173.1148173097563,1115
2175.0119549822507,1121
2176.90864644215,1117
2178.8048919650823,1126
2180.7006918267534,1153
2182.596046302952,1167
2184.4909556695407,1146
2186.3854202024645,1144
2188.279440177746,1169
2190.173015871487,1103
2192.066147559868,1121
2193.958835519149,1102
2195.851080025667,1181
2197.7428813558417,1106
2199.6342397861667,1143
2201.5251555932186,1149
2203.415629053651,1141
2205.3056604441986,1125
2207.19525004167,1144
2209.084398122958,1149
2210.9731049650327,1157
2212.861370844941,1146
2214.749196039812,1187
2216.636580826851,1145
2218.523525483344,1164
2220.410030286655,1158
2222.296095514226,1124
2224.1817214435805,1163
2226.066908352319,1173
2227.951656518121,1186
2229.835966218746,1143
2231.71983773203,1148
2233.6032713358913,1165
2235.486267308324,1157
2237.3688259274036,1206
2239.2509474712824,1170
2241.132632218193,1206
2243.013880446447,1169
2244.8946924344323,1197
2246.7750684606203,1172
2248.6550088035574,1152
2250.534513741871,1152
2252.413583554265,1208
2254.292218519526,1119
2256.170418916517,1176
2258.0481850241786,1183
2259.925517121534,1123
2261.8024154876825,1181
2263.678880401803,1169
2265.5549121431536,1206
2267.430510991071,1200
2269.305677224971,1142
2271.180411124348,1151
2273.0547129687766,1189
2274.9285830379076,1161
2276.8020216114737,1159
2278.6750289692845,1152
2280.5476053912294,1154
2282.4197511572766,1185
2284.2914665474727,1140
2286.162751841943,1173
2288.0336073208937,1188
2289.904033264608,1230
2291.774029953448,1185
2293.6435976678554,1189
2295.5127366883517,1163
2297.381447295534,1136
2299.2497297700825,1159
2301.1175843927526,1097
2302.9850114443825,1086
2304.852011205885,1111
2306.7185839582553,1091
2308.5847299825664,1020
2310.4504495599676,1028
2312.3157429716925,1040
2314.1806104990483,1099
2316.0450524234247,1038
2317.9090690262888,1017
2319.772660589186,1031
2321.635827393742,1086
2323.498569721661,1069
2325.3608878547248,1047
2327.2227820747967,1038
2329.0842526638157,1056
2330.945299903803,1056
2332.805924076857,1057
2334.6661254651535,1011
2336.525904350951,1069
2338.3852610165827,1060
2340.244195744464,1036
2342.102708817088,1031
2343.9608005170253,1021
2345.8184711269287,1079
2347.675720929526,1038
2349.532550207628,1020
2351.38895924412,1037
2353.24494832197,1035
2355.100517724223,1050
2356.955667734004,1049
2358.810398634514,1073
2360.664710709037,1029
2362.5186042409337,1072
2364.3720795136437,1095
2366.225136810686,1076
2368.0777764156583,1074
2369.929998612237,1068
2371.7818036841777,1083
2373.633191915315,1025
2375.484163589562,1035
2377.3347189909114,1039
2379.184858403434,1065
2381.03458211128,1084
2382.8838903986775,1023
2384.732783549936,1066
2386.5812618494406,1036
2388.4293255816588,1043
2390.2769750311327,1059
2392.1242104824883,1086
2393.971032220427,1071
2395.8174405297295,1076
2397.6634356952563,1050
2399.509018001947,1067
2401.3541877348193,1073
2403.1989451789705,1064
2405.043290619576,1025
2406.8872243418905,1047
2408.730746631247,1050
2410.5738577730594,1028
2412.4165580528183,1039
2414.258847756095,1080
2416.100727168537,1015
2417.9421965758734,1052
2419.783256263912,1104
2421.623906518538,1102
2423.4641476257157,1107
2425.303979871491,1100
2427.143403541984,1082
2428.9824189233977,1032
2430.821026302012,1075
2432.6592259641866,1108
2434.497018196361,1084
2436.33440328505,1044
2438.171381516851,1048
2440.00795317844,1089
2441.844118556569,1067
2443.6798779380724,1076
2445.5152316098606,1092
2447.3501798589255,1080
2449.1847229723357,1053
2451.0188612372403,1071
2452.8525949408663,1052
2454.6859243705203,1085
2456.518849813587,1024
2458.3513715575314,1075
2460.183489889895,1075
2462.015205098301,1056
2463.8465174704493,1065
2465.67742729412,1068
2467.5079348571717,1014
2469.338040447542,1072
2471.1677443532476,1050
2472.9970468623833,1068
2474.825948263123,1081
2476.6544488437207,1080
2478.482548892508,1064
2480.310248697896,1073
2482.137548548374,1041
2483.9644487325118,1058
2485.790949538956,1075
2487.617051256433,1063
2489.44275417375,1090
2491.26805857979,1085
2493.0929647635157,1094
2494.917473013971,1124
2496.741583620276,1091
2498.5652968716304,1055
2500.3886130573137,1124
2502.2115324666834,1089
2504.0340553891765,1119
2505.856182114308,1074
2507.6779129316733,1113
2509.499248130945,1092
2511.3201880018764,1103
2513.140732834298,1110
2514.9608829181198,1144
2516.780638543331,1144
2518.6,1136
2520.418967578273,1133
2522.237541568376,1158
2524.0557222606144,1159
2525.8735099453706,1108
2527.6909049131086,1130
2529.507907454368,1147
2531.32451785977,1122
2533.140736420014,1097
2534.9565634258774,1153
2536.771999168218,1165
2538.5870439379714,1128
2540.4016980261526,1145
2542.2159617238544,1184
2544.02983532225,1179
2545.8433191125914,1217
2547.656413386209,1176
2549.4691184345115,1190
2551.2814345489874,1230
2553.093362021204,1216
2554.904901142808,1170
2556.716052205523,1216
2558.526815501153,1243
2560.3371913215824,1254
2562.147179958771,1230
2563.956781704761,1221
2565.7659968516705,1236
2567.5748256916986,1312
2569.3832685171224,1242
2571.1913256202984,1250
2572.9989972936614,1277
2574.806283829725,1247
2576.613185521084,1283
2578.4197026604074,1254
2580.2258355404483,1250
2582.031584454035,1268
2583.836949694077,1289
2585.6419315535613,1268
2587.4465303255533,1242
2589.2507463032002,1273
2591.0545797797245,1311
2592.8580310484303,1269
2594.6611004026995,1294
2596.463788135992,1284
2598.266094541849,1268
2600.0680199138874,1266
2601.869564545807,1214
2603.670728731383,1302
2605.4715127644704,1236
2607.2719169390048,1275
2609.071941548998,1240
2610.8715868885433,1290
2612.670853251811,1251
2614.469740933052,1243
2616.268250226594,1264
2618.0663814268455,1233
2619.864134828292,1229
2621.6615107255006,1222
2623.458509413115,1247
2625.2551311858597,1203
2627.0513763385347,1279
2628.8472451660223,1246
2630.6427379632833,1171
2632.4378550253564,1224
2634.232596647359,1239
2636.026963124488,1220
2637.8209547520187,1219
2639.6145718253065,1195
2641.407814639785,1212
2643.200683490966,1259
2644.9931786744414,1206
2646.7853004858807,1180
2648.577049221034,1192
2650.3684251757277,1176
2652.1594286458712,1203
2653.9500599274484,1239
2655.740319316525,1197
2657.5302071092437,1126
2659.3197236018286,1143
2661.10886909058,1158
2662.8976438718782,1150
2664.686048242183,1114
2666.4740824980327,1111
2668.2617469360443,1118
2670.0490418529134,1128
2671.8359675454153,1155
2673.622524310403,1195
2675.408712444811,1115
2677.1945322456495,1102
2678.979984010009,1132
2680.76506803506,1108
2682.5497846180497,1081
2684.334134056306,1108
2686.1181166472343,1162
2687.9017326883213,1086
2689.6849824771293,1096
2691.4678663113013,1104
2693.2503844885596,1128
2695.032537306705,1097
2696.8143250636167,1155
2698.5957480572542,1054
2700.3768065856534,1130
2702.1575009469316,1044
2703.937831439283,1072
2705.717798360982,1101
2707.4974020103837,1070
2709.276642685917,1040
2711.055520686095,1089
2712.834036309506,1083
2714.612189854819,1028
2716.389981620782,1081
2718.1674119062204,1101
2719.944481010041,1042
2721.721189231226,1086
2723.4975368688415,1116
2725.273524222027,1049
2727.0491515900053,1071
2728.824419272075,993
2730.5993275676146,1020
2732.3738767760838,1033
2734.148067197016,1035
2735.921899130031,1047
2737.6953728748194,1024
2739.468488731156,1031
2741.2412469988926,1002
2743.0136479779617,1051
2744.785691968372,1054
2746.5573792702116,1068
2748.3287101836504,1081
2750.099685008934,1073
2751.870304046388,1026
2753.640567596418,1076
2755.4104759595057,1046
2757.1800294362156,1035
2758.949228327187,1036
2760.7180729331412,1048
2762.486563554877,1031
2764.254700493272,1048
2766.022484049284,1072
2767.789914523947,1016
2769.5569922183786,995
2771.3237174337705,1015
2773.090090471394,1053
2774.8561116326036,1072
2776.6217812188274,1033
2778.3870995315756,1003
2780.1520668724356,985
2781.9166835430747,1021
2783.6809498452394,1083
2785.444866080754,1064
2787.2084325515225,1057
2788.971649559527,1072
2790.73451740683,1043
2792.4970363955713,1070
2794.2592068279705,994
2796.0210290063264,1050
2797.7825032330147,1048
2799.543629810493,1043
2801.304409041296,1023
2803.0648412280366,1015
2804.8249266734088,1019
2806.5846656801846,1051
2808.344058551212,1004
2810.1031055894246,993
2811.8618070978273,1033
2813.6201633795085,1023
2815.378174737636,1110
2817.1358414754536,1035
2818.893163896285,1059
2820.6501423035334,1066
2822.4067770006814,1016
2824.1630682912883,1086
2825.9190164789957,1029
2827.6746218675207,1057
2829.429884760661,1000
2831.184805462294,1060
2832.9393842763743,1047
2834.693621506936,1050
2836.4475174580916,1076
2838.201072434034,1052
2839.954286739034,1005
2841.707160677441,1034
2843.459694553685,1010
2845.2118886722724,1027
2846.96374333779,1115
2848.7152588549034,1036
2850.4664355283567,1014
2852.217273662973,1000
2853.9677735636546,1006
2855.7179355353833,1041
2857.4677598832186,1039
2859.217246912299,1045
2860.9663969278427,1034
2862.715210235146,1018
2864.4636871395846,1029
2866.211827946614,1026
2867.9596329617652,1039
2869.7071024906536,1048
2871.4542368389684,1043
2873.20103631248,1013
2874.947501217038,1075
2876.6936318585695,1016
2878.4394285430812,1024
2880.1848915766604,1031
2881.9300212654707,997
2883.6748179157553,1022
2885.4192818338374,1041
2887.1634133261173,1038
2888.907212699077,1048
2890.6506802592744,1089
2892.393816313348,1074
2894.1366211680142,1077
2895.8790951300693,1064
2897.621238506388,1012
2899.363051603925,1015
2901.1045347297118,1095
2902.8456881908596,1029
2904.58651229456,971
2906.327007348081,1083
2908.067173658772,1074
2909.8070115340597,1040
2911.5465212814497,984
2913.285703208527,1079
2915.0245576229563,1025
2916.7630848324807,1056
2918.5012851449196,1009
2920.2391588681758,1037
2921.976706310227,1011
2923.7139277791334,975
2925.4508235830313,1076
2927.187394030137,1025
2928.923639428745,1013
2930.6595600872306,1000
2932.395156314046,1064
2934.1304284177218,1049
2935.8653767068713,1019
2937.6000014901815,1080
2939.3343030764227,1016
2941.068281774442,1036
2942.8019378931644,1061
2944.5352717415976,1055
2946.2682836288236,1049
2948.0009738640065,1004
2949.7333427563885,1071
2951.465390615289,1088
2953.1971177501086,1046
2954.9285244703265,1053
2956.6596110855,1067
2958.3903779052657,1060
2960.1208252393385,993
2961.8509533975125,1045
2963.5807626896617,1064
2965.3102534257378,1030
2967.0394259157715,1016
2968.768280469873,996
2970.496817398232,1002
2972.2250370111146,1024
2973.952939618869,1053
2975.6805255319196,1031
2977.4077950607707,1029
2979.134748516006,1039
2980.861386208289,1003
2982.587708448359,1019
2984.313715547037,1062
2986.039407815222,1046
2987.764785563891,988
2989.489849104102,1043
2991.2145987469908,1050
2992.9390348037705,1003
2994.6631575857346,1058
2996.3869674042576,1038
2998.1104645707887,1056
2999.83364939686,1028
3001.5565221940783,1034
3003.2790832741334,976
3005.0013329487924,1006
3006.7232715298996,1067
3008.4448993293804,1000
3010.166216659239,1048
3011.887223831558,1020
3013.607921158498,1039
3015.3283089522993,1048
3017.0483875252826,1014
3018.7681571898443,1026
3020.4876182584626,1024
3022.2067710436927,1007
3023.9256158581707,1011
3025.644153014609,1053
3027.362382825801,993
3029.0803056046193,1006
3030.797921664012,1008
3032.5152313170106,978
3034.2322348767225,988
3035.9489326563353,1048
3037.665324969115,1029
3039.3814121284063,1018
3041.097194447633,1078
3042.812672240299,1043
3044.5278458199855,1045
3046.2427155003525,958
3047.9572815951406,981
3049.671544418167,1016
3051.38550428333,1032
3053.0991615046073,1013
3054.812516396051,982
3056.5255692717974,1023
3058.2383204460575,1029
3059.9507702331257,977
3061.662918947372,1024
3063.3747669032446,1030
3065.0863144152736,998
3066.7975617980674,1037
3068.508509366309,1036
3070.219157434767,1026
3071.9295063182844,1007
3073.639556331785,1065
3075.3493077902704,1059
3077.058761008821,1045
3078.7679163025964,1052
3080.476773986837,999
3082.1853343768594,1008
3083.89359778806,1003
3085.6015645359153,988
3087.3092349359786,1003
3089.016609303884,990
3090.7236879553434,1006
3092.4304712061476,1055
3094.136959372166,1000
3095.843152769349,1069
3097.5490517137237,1016
3099.2546565213966,1042
3100.959967508554,1023
3102.66498499146,1004
3104.3697092864577,1100
3106.0741407099695,1032
3107.778279578498,999
3109.482126208622,1050
3111.1856809170004,1026
3112.8889440203716,1051
3114.5919158355528,1039
3116.294596679439,1048
3117.996986869006,1039
3119.6990867213062,1033
3121.4008965534726,1049
3123.102416682717,1062
3124.803647426329,1014
3126.5045891016784,1031
3128.205242026213,1025
3129.90560651746,1035
3131.605682893025,1093
3133.3054714705922,1024
3135.0049725679282,1025
3136.7041865028714,1047
3138.4031135933465,1017
3140.101754157353,1060
3141.800108512971,1036
3143.498176978357,1040
3145.1959598717494,1028
3146.8934575114636,1082
3148.5906702158954,1010
3150.2875983035183,994
3151.9842420928853,1086
3153.680601902627,983
3155.376678051456,1016
3157.07247085816,977
3158.767980641609,1059
3160.463207720748,1044
3162.158152414606,1025
3163.8528150422862,1021
3165.5471959229726,998
3167.2412953759303,1043
3168.9351137204976,1037
3170.628651276098,1064
3172.3219083622307,1020
3174.014885298474,1028
3175.707582404485,1033
3177.4000000000005,1060
3179.092138404835,1033
3180.7839979388846,1042
3182.47557892212,1019
3184.166881674594,975
3185.8579065164386,997
3187.5486537678626,1013
3189.2391237491547,993
3190.9293167806827,1006
3192.6192331828934,1047
3194.3088732763117,1004
3195.998237381542,1028
3197.687325819268,983
3199.376138910251,1004
3201.064676975334,1036
3202.7529403354347,1020
3204.4409293115523,1003
3206.1286442247647,1044
3207.816085396229,1006
3209.5032531471825,983
3211.190147798936,974
3212.8767696728846,1019
3214.5631190905015,1016
3216.2491963733373,992
3217.9350018430214,991
3219.6205358212637,984
3221.305798629851,988
3222.990790590651,1029
3224.6755120256103,983
3226.359963256751,1003
3228.0441446061795,988
3229.7280563960758,1002
3231.411698948703,1000
3233.0950725863995,1020
3234.778177631587,980
3236.461014406761,983
3238.1435832345005,1000
3239.8258844374595,1031
3241.507918338374,1012
3243.1896852600576,1016
3244.8711855254023,1051
3246.552419457381,1019
3248.233387379042,955
3249.914089613516,1041
3251.59452648401,1005
3253.274698313813,1045
3254.95460542629,1005
3256.6342481448855,1032
3258.313626793125,1012
3259.9927416946084,980
3261.6715931730196,1021
3263.3501815521176,999
3265.0285071557437,1018
3266.706570307815,1040
3268.3843713323286,976
3270.0619105533615,986
3271.739188295068,967
3273.4162048816834,1033
3275.0929606375184,1007
3276.769455886966,948
3278.445690954498,1007
3280.1216661646613,1028
3281.797381842087,995
3283.4728383114807,998
3285.1480358976296,998
3286.8229749253996,1008
3288.4976557197333,1042
3290.172078605655,1024
3291.846243908266,987
3293.5201519527463,1008
3295.193803064357,997
3296.8671975684374,998
3298.5403357904024,1004
3300.21321805575,977
3301.8858446900567,1010
3303.558216018975,985
3305.23033236824,1060
3306.9021940636603,957
3308.57380143113,1005
3310.2451547966184,1013
3311.916254486174,1020
3313.5871008259246,984
3315.2576941420766,1003
3316.9280347609147,1021
3318.5981230088046,992
3320.2679592121895,1024
3321.9375436975924,983
3323.606876791612,993
3325.27595882093,971
3326.944790112305,946
3328.6133709925753,972
3330.2817017886573,975
3331.949782827547,963
3333.617614436319,976
3335.2851969421245,1035
3336.952530672199,984
3338.619615953853,1018
3340.286453114475,992
3341.9530424815357,991
3343.619384382583,1018
3345.2854791452437,946
3346.951327097224,1011
3348.6169285663073,997
3350.2822838803577,1043
3351.947393367319,1040
3353.61225735521,985
3355.2768761721345,997
3356.9412501462693,1037
3358.605379605873,1028
3360.2692648792827,981
3361.9329062949146,1040
3363.596304181263,991
