CollectionTime,7/11/2024 1:59:51 PM
ExposureUsed,3
CalibratedSpectrum
-962.7078968117929,445
-959.9714848408522,461
-957.2358232597828,506
-954.5009119013725,493
-951.7667505983302,488
-949.0333391832855,488
-946.3006774887896,486
-943.5687653473143,484
-940.837602591253,475
-938.1071890529199,491
-935.3775245645503,480
-932.6486089583007,475
-929.9204420662485,486
-927.1930237203925,481
-924.4663537526524,500
-921.7404319948689,501
-919.0152582788041,491
-916.2908324361409,540
-913.5671542984834,477
-910.8442236973568,478
-908.1220404642074,477
-905.4006044304027,490
-902.679915427231,495
-899.959973285902,484
-897.2407778375464,459
-894.5223289132158,474
-891.8046263438832,464
-889.0876699604426,487
-886.3714595937089,490
-883.6559950744183,489
-880.9412762332282,453
-878.2273029007168,461
-875.5140749073835,468
-872.8015920836489,463
-870.0898542598545,467
-867.3788612662631,481
-864.6686129330585,456
-861.9591090903457,488
-859.2503495681506,463
-856.5423341964203,468
-853.8350628050229,486
-851.1285352237478,466
-848.4227512823054,479
-845.7177108103272,474
-843.0134136373656,489
-840.3098595928943,499
-837.6070485063082,503
-834.9049802069229,497
-832.2036545239757,505
-829.5030712866244,478
-826.8032303239481,469
-824.1041314649472,458
-821.4057745385428,500
-818.7081593735775,464
-816.0112857988148,479
-813.3151536429393,502
-810.6197627345566,477
-807.9251129021936,503
-805.2312039742981,456
-802.5380357792392,459
-799.8456081453069,489
-797.1539209007124,483
-794.462973873588,502
-791.772766891987,487
-789.083299783884,478
-786.3945723771743,493
-783.7065844996748,484
-781.0193359791231,482
-778.3328266431781,493
-775.6470563194197,491
-772.9620248353489,475
-770.2777320183878,490
-767.5941776958798,482
-764.9113616950891,506
-762.2292838432011,528
-759.5479439673222,493
-756.8673418944801,502
-754.1874774516235,528
-751.5083504656222,515
-748.8299607632671,513
-746.15230817127,491
-743.475392516264,541
-740.7992136248035,500
-738.1237713233636,509
-735.4490654383407,518
-732.7750957960521,534
-730.1018622227365,531
-727.4293645445534,526
-724.7576025875837,485
-722.0865761778291,498
-719.4162851412126,530
-716.7467293035781,514
-714.0779084906909,491
-711.409822528237,514
-708.7424712418238,508
-706.0758544569796,535
-703.4099719991541,506
-700.7448236937178,557
-698.0804093659622,539
-695.4167288411002,533
-692.7537819442656,518
-690.0915685005134,525
-687.4300883348199,507
-684.7693412720819,519
-682.1093271371178,519
-679.4500457546669,561
-676.7914969493897,567
-674.1336805458676,525
-671.4765963686034,570
-668.8202442420206,549
-666.1646239904642,554
-663.5097354382001,521
-660.8555784094151,527
-658.2021527282176,527
-655.5494582186366,547
-652.8974947046223,541
-650.2462620100463,540
-647.5957599587009,539
-644.9459883742998,568
-642.2969470804776,554
-639.6486359007902,572
-637.0010546587141,587
-634.3542031776476,596
-631.7080812809096,587
-629.0626887917401,588
-626.4180255333008,573
-623.7740913286734,592
-621.1308860008619,606
-618.4884093727904,559
-615.8466612673046,597
-613.2056415071715,571
-610.5653499150785,583
-607.9257863136347,562
-605.28695052537,597
-602.6488423727357,585
-600.0114616781036,569
-597.3748082637674,565
-594.7388819519412,581
-592.1036825647604,626
-589.4692099242818,639
-586.8354638524829,624
-584.2024441712624,622
-581.5701507024403,613
-578.9385832677575,562
-576.3077416888759,597
-573.6776257873787,615
-571.0482353847704,581
-568.4195703024757,605
-565.7916303618415,595
-563.164415384135,602
-560.5379251905453,602
-557.9121596021815,592
-555.2871184400748,624
-552.6628015251767,604
-550.0392086783606,636
-547.4163397204204,650
-544.794194472071,643
-542.1727727539491,645
-539.5520743866118,646
-536.9320991905377,671
-534.3128469861261,681
-531.6943175936979,698
-529.0765108334947,737
-526.4594265256793,735
-523.8430644903358,805
-521.2274245474689,900
-518.612506517005,1025
-515.9983102187913,992
-513.3848354725959,1111
-510.77208209810846,1220
-508.16004991493924,1362
-505.5487387426199,1499
-502.9381484006032,1642
-500.3282787082628,1525
-497.71912948489364,1484
-495.1107005497117,1202
-492.5029917218539,1077
-489.8960028203786,974
-487.28973366426493,890
-484.68418407241325,803
-482.07935386364494,763
-479.47524285670266,760
-476.87185087025,774
-474.2691777228715,762
-471.66722323307334,764
-469.0659872192821,746
-466.4654694998459,732
-463.86566989303384,757
-461.26658821703614,720
-458.66822428996414,751
-456.07057792985,768
-453.4736489546475,807
-450.877437182231,709
-448.28194243039627,688
-445.68716451686,743
-443.09310325926003,747
-440.49975847515555,752
-437.9071299820263,782
-435.31521759727354,760
-432.72402113821954,718
-430.13354042210767,801
-427.5437752661022,760
-424.95472548728867,765
-422.36639090267386,856
-419.7787713291855,809
-417.1918665836721,856
-414.60567648290385,837
-412.0202008435715,822
-409.4354394822874,820
-406.8513922155845,824
-404.26805885991723,857
-401.685439231661,810
-399.103533147112,876
-396.522340422488,824
-393.9418608739278,771
-391.3620943174908,819
-388.7830405691583,820
-386.2046994448317,747
-383.6270707603344,694
-381.05015433141045,717
-378.473949973725,679
-375.8984575028645,726
-373.32367673433623,607
-370.74960748356875,649
-368.1762495659117,646
-365.60360279663576,570
-363.03166699093265,532
-360.4604419639154,534
-357.8899275306178,536
-355.32012350599507,538
-352.7510297049233,548
-350.1826459421999,476
-347.61497203254316,488
-345.04800779059235,479
-342.4817530309082,503
-339.91620756797226,517
-337.35137121618743,538
-334.7872437898774,578
-332.22382510328725,569
-329.66111497058273,514
-327.09911320585127,515
-324.53781962310075,538
-321.9772340362607,548
-319.4173562591816,507
-316.8581861056348,517
-314.2997233893127,508
-311.7419679238294,479
-309.1849195227194,502
-306.62857799943856,506
-304.0729431673641,543
-301.51801483979375,555
-298.963792829947,558
-296.41027695096386,593
-293.85746701590574,594
-291.3053628377552,561
-288.7539642294155,602
-286.2032710037115,625
-283.65328297338897,558
-281.1039999511146,568
-278.5554217494762,606
-276.007548180983,569
-273.4603790580651,591
-270.9139141930734,578
-268.3681533982807,538
-265.8230964858798,563
-263.27874326798565,617
-260.7350935566336,677
-258.1921471637804,629
-255.6499039013039,671
-253.10836358100266,674
-250.56752601459698,676
-248.02739101372765,677
-245.48795838995704,672
-242.94922795476816,629
-240.41119951956557,617
-237.8738728956746,660
-235.33724789434166,629
-232.80132432673452,585
-230.2661020039418,592
-227.73158073697357,666
-225.19776033676033,683
-222.66464061415422,716
-220.1322213799284,661
-217.60050244477725,632
-215.06948361931552,639
-212.53916471408013,719
-210.00954553952818,775
-207.48062590603843,698
-204.9524056239104,700
-202.4248845033651,693
-199.8980623545441,732
-197.37193898751036,755
-194.84651421224817,734
-192.32178783866232,755
-189.79775967657952,837
-187.27442953574644,842
-184.7517972258321,872
-182.2298625564256,900
-179.7086253370378,884
-177.18808537710026,761
-174.66824248596583,731
-172.14909647290835,804
-169.6306471471229,853
-167.11289431772548,937
-164.59583779375328,933
-162.07947738416453,898
-159.5638128978386,1066
-157.04884414357605,1100
-154.53457093009854,1118
-152.02099306604828,1059
-149.50811035998936,827
-146.99592262040665,855
-144.48442965570587,1019
-141.97363127421409,1025
-139.46352728417958,1019
-136.95411749377126,1003
-134.44540171107985,1056
-131.93737974411636,934
-129.43005140081357,1039
-126.92341648902493,1367
-124.41747481652521,1844
-121.91222619101006,2060
-119.40767042009657,2326
-116.90380731132257,2855
-114.40063667214702,2838
-111.8981583099503,2629
-109.3963720320337,2027
-106.89527764561933,1800
-104.39487495785067,1827
-101.89516377579241,3256
-99.39614390642998,4483
-96.89781515667039,5376
-94.40017733334128,4595
-91.90323024319173,3485
-89.40697369289148,3685
-86.91140748903172,6007
-84.41653143812482,7299
-81.92234534660395,6078
-79.42884902082358,4858
-76.93604226705907,7641
-74.4439248915071,14984
-71.95249670028534,22448
-69.46175749943245,27792
-66.97170709490854,27023
-64.48234529259423,20776
-61.99367189829195,15129
-59.50568671772464,13383
-57.01838955653636,10773
-54.53178022029283,8560
-52.045858514480074,8162
-49.560624244506016,7775
-47.07607721569923,8013
-44.59221723330904,7431
-42.10904410250669,7633
-39.62655762838392,8257
-37.14475761595372,8166
-34.66364387015028,10226
-32.18321619582866,13266
-29.70347439776515,16188
-27.224418280657005,19699
-24.74604764912317,22251
-22.26836230770266,23637
-19.7913620608565,29301
-17.315046712966478,47931
-14.83941606833514,65038
-12.36446993118659,65038
-9.89020810566592,65038
-7.416630395839093,65038
-4.94373660569363,65038
-2.471526539137585,65038
-6.821210263296962E-13,65038
2.47084320796705,65038
4.941003281093458,65038
7.410480415786196,65038
9.879274808531363,65038
12.347386655893956,65038
14.814816154518212,65038
17.28156350112681,65038
19.74762889252179,65038
22.21301252558385,65038
24.67771459727237,21383
27.141735304626195,4181
29.605074844762612,3151
32.06773341487792,2932
34.52971121224755,2565
36.99100843422559,3085
39.45162527824516,2897
41.91156194181792,2079
44.370818622535126,1759
46.82939551806646,1596
49.287292826160524,1777
51.74451074464503,2349
54.201049471426245,2363
56.65690920448981,1723
59.112090141899785,1693
61.56659248179983,1660
64.02041642241159,1468
66.4735621620365,1404
68.92602989905402,1417
71.37781983192338,1581
73.82893215918205,1670
76.27936707944684,1531
78.72912479141326,1570
81.17820549385567,1593
83.62660938562783,1818
86.07433666566146,1617
88.5213875329681,1193
90.96776218663751,1145
93.41346082583925,1232
95.85848364982041,1237
98.30283085790859,1414
100.7465026495089,1362
103.18949922410604,1294
105.63182078126385,1151
108.07346752062438,1249
110.51443964190923,1146
112.95473734491827,950
115.39436082953114,1020
117.83331029570547,1102
120.27158594347827,979
122.7091879729652,1053
125.1461165843615,1136
127.58237197794062,1181
130.01795435405518,959
132.4528639131364,1028
134.88710085569494,1134
137.32066538231982,1040
139.75355769367923,949
142.1857779905207,954
144.61732647366978,969
147.04820334403132,933
149.47840880258934,994
151.90794305040674,938
154.33680628862487,1050
156.76499871846443,1358
159.19252054122433,1335
161.61937195828352,1329
164.04555317109896,1439
166.47106438120693,1479
168.89590579022217,1661
171.320077599839,1746
173.7435800118302,1893
176.16641322804742,1803
178.58857745042144,1888
181.01007288096173,2001
183.43089972175687,2035
185.85105817497413,1992
188.27054844285988,1899
190.6893707277394,1998
193.10752523201643,2025
195.5250121581745,2064
197.9418317087751,2201
200.3579840864594,2123
202.7734694939469,2071
205.18828813403627,2046
207.6024402096051,2247
210.01592592360964,2307
212.42874547908548,2296
214.84089907914665,2250
217.2523869269868,2138
219.66320922587727,2212
222.0733661791695,2152
224.48285799029293,2101
226.8916848627572,2049
229.29984700014882,2096
231.7073446061355,2136
234.11417788446204,2181
236.520347038953,2143
238.92585227351185,2168
241.33069379212054,2199
243.73487179884035,2236
246.1383864978112,2304
248.541238093252,2071
250.9434267894609,2174
253.34495279081432,2282
255.74581630176783,2190
258.1460175268563,2119
260.54555667069314,2143
262.9444339379703,2184
265.3426495334594,2133
267.7402036620107,2234
270.1370965285529,2343
272.53332833809407,2306
274.9288992957214,2151
277.32380960660055,2149
279.718059475976,2093
282.1116491091717,2244
284.5045787115897,2197
286.89684848871195,2191
289.2884586460981,2129
291.67940938938807,2160
294.0697009242996,2223
296.4593334566299,2262
298.84830719225477,2184
301.23662233712923,2146
303.6242790972866,2104
306.01127767884,2130
308.39761828798066,2082
310.78330113097934,2034
313.16832641418534,2038
315.5526943440269,2049
317.9364051270112,1996
320.3194589697242,2025
322.70185607883093,2045
325.0835966610754,2057
327.4646809232805,1971
329.8451090723478,1893
332.2248813152577,1917
334.6039978590701,1927
336.9824589109231,1958
339.36026467803447,1961
341.7374153677,1816
344.113911187295,1801
346.48975234427337,1897
348.8649390461686,1891
351.2394715005918,1882
353.61334991523415,1906
355.9865744978655,1879
358.35914545633375,1844
360.73106299856715,1978
363.10232733257146,1895
365.47293866643247,1830
367.84289720831396,1777
370.2122031664593,1763
372.5808567491905,1749
374.9488581649083,1796
377.31620762209275,1796
379.6829053293021,1759
382.0489514951745,1819
384.4143463284262,1685
386.7790900378528,1708
389.14318283232853,1748
391.50662492080653,1703
393.86941651231916,1799
396.23155781597745,1764
398.5930490409713,1694
400.9538903965696,1822
403.3140820921202,1790
405.6736243370498,1760
408.03251734086336,1786
410.3907613131465,1689
412.74835646356166,1706
415.10530300185144,1674
417.4616011378372,1687
419.81725108141893,1715
422.1722530425758,1679
424.5266072313656,1732
426.880313857925,1670
429.2333731324701,1679
431.58578526529516,1706
433.9375504667738,1632
436.2886689473588,1635
438.63914091758113,1694
440.9889665880513,1624
443.33814616945835,1660
445.68667987257015,1618
448.03456790823395,1583
450.3818104873759,1610
452.72840782100013,1633
455.07436012019105,1651
457.41966759611057,1630
459.7643304600007,1693
462.10834892318155,1661
464.4517231970525,1612
466.79445349309174,1666
469.1365400228566,1608
471.4779829979826,1653
473.81878263018564,1602
476.15893913125876,1624
478.4984527130747,1646
480.8373235875855,1729
483.17555196682144,1702
485.5131380628919,1730
487.8500820879857,1847
490.1863842543697,1937
492.52204477439034,2045
494.8570638604725,2144
497.1914417251204,2354
499.52517858091653,2698
501.85827464052306,3142
504.19073011668036,3503
506.5225452222086,3700
508.85372017000566,3617
511.18425517304956,3592
513.514150444396,3494
515.8434061971808,3683
518.1720226446176,4271
520.4999999999999,4331
522.8273384766991,4079
525.1540382881666,3744
527.480099647932,3284
529.8055227696037,2747
532.1303078668694,2282
534.454455153496,2003
536.777964843328,1858
539.1008371502907,1768
541.4230722883866,1745
543.744670471698,1728
546.0656319143858,1781
548.3859568306899,1712
550.7056454349294,1724
553.0246979415016,1656
555.3431145648834,1745
557.6608955196306,1712
559.978041020377,1606
562.2945512818363,1643
564.6104265188006,1615
566.9256669461412,1635
569.2402727788082,1648
571.5542442318302,1671
573.8675815203156,1690
576.1802848594508,1770
578.4923544645015,1705
580.8037905508126,1700
583.114593333807,1676
585.4247630289875,1678
587.7342998519354,1744
590.0432040183106,1746
592.3514757438526,1681
594.6591152443794,1786
596.9661227357875,1700
599.2724984340531,1706
601.578242555231,1744
603.8833553154542,1729
606.1878369309362,1768
608.4916876179676,1636
610.7949075929192,1704
613.0974970722403,1694
615.3994562724587,1631
617.7007854101818,1678
620.0014847020951,1647
622.3015543649641,1682
624.6009946156324,1707
626.8998056710224,1664
629.1979877481361,1604
631.4955410640538,1587
633.7924658359349,1714
636.0887622810175,1689
638.3844306166192,1721
640.6794710601358,1731
642.9738838290426,1669
645.2676691408932,1706
647.5608272133207,1694
649.853358264037,1783
652.1452625108324,1749
654.4365401715764,1845
656.7271914642178,1678
659.0172166067838,1750
661.3066158173809,1763
663.5953893141935,1677
665.8835373154867,1775
668.1710600396028,1752
670.4579577049639,1785
672.7442305300709,1715
675.0298787335033,1705
677.3149025339197,1705
679.599302150058,1770
681.8830778007342,1702
684.1662297048437,1731
686.4487580813608,1795
688.7306631493387,1744
691.0119451279091,1716
693.2926042362834,1747
695.5726406937516,1758
697.8520547196814,1750
700.1308465335215,1738
702.4090163547982,1699
704.6865644031171,1723
706.9634908981619,1722
709.2397960596965,1663
711.5154801075631,1780
713.7905432616823,1734
716.0649857420548,1740
718.3388077687592,1693
720.612009561953,1724
722.8845913418733,1679
725.1565533288352,1765
727.427895743234,1685
729.6986188055427,1708
731.9687227363137,1750
734.238207756178,1701
736.5070740858458,1727
738.7753219461066,1695
741.0429515578281,1780
743.3099631419569,1726
745.5763569195191,1735
747.8421331116193,1703
750.1072919394409,1726
752.3718336242467,1736
754.6357583873777,1702
756.8990664502545,1732
759.1617580343765,1686
761.423833361321,1716
763.6852926527457,1709
765.9461361303862,1733
768.206364016058,1759
770.4659765316536,1778
772.7249738991469,1725
774.9833563405886,1744
777.2411240781092,1742
779.4982773339183,1817
781.7548163303044,1812
784.010741289634,1743
786.2660524343538,1759
788.5207499869881,1716
790.7748341701416,1779
793.0283052064964,1788
795.2811633188143,1784
797.5334087299362,1752
799.7850416627813,1793
802.0360623403484,1702
804.2864709857143,1735
806.5362678220353,1814
808.7854530725468,1738
811.0340269605625,1778
813.2819897094754,1729
815.5293415427581,1829
817.77608268396,1854
820.0222133567116,1812
822.2677337847211,1757
824.5126441917765,1802
826.7569448017433,1766
829.0006358385675,1765
831.2437175262731,1846
833.4861900889629,1751
835.7280537508192,1781
837.9693087361026,1714
840.2099552691533,1805
842.4499935743896,1745
844.689423876309,1785
846.9282463994886,1794
849.1664613685833,1814
851.4040690083276,1788
853.6410695435349,1819
855.877463199097,1718
858.1132501999847,1797
860.3484307712487,1867
862.5830051380175,1782
864.8169735254988,1740
867.0503361589791,1769
869.2830932638243,1820
871.5152450654786,1751
873.7467917894654,1757
875.9777336613873,1780
878.2080709069252,1854
880.4378037518389,1809
882.666932421968,1894
884.8954571432301,1794
887.1233781416219,1830
889.3506956432192,1802
891.5774098741766,1749
893.803521060728,1803
896.0290294291852,1793
898.2539352059397,1884
900.4782386174619,1797
902.7019398903011,1840
904.925039251085,1878
907.147536926521,1794
909.3694331433943,1823
911.59072812857,1816
913.8114221089921,1721
916.0315153116827,1732
918.2510079637437,1787
920.4699002923547,1738
922.6881925247761,1801
924.905884888345,1825
927.1229776104793,1702
929.3394709186747,1766
931.555365040506,1715
933.7706602036275,1735
935.9853566357709,1714
938.1994545647489,1767
940.4129542184515,1749
942.6258558248488,1778
944.8381596119883,1734
947.0498658079974,1732
949.2609746410825,1670
951.4714863395287,1708
953.6814011316998,1700
955.8907192460387,1767
958.0994409110671,1764
960.3075663553858,1735
962.5150958076741,1717
964.7220294966913,1715
966.928367651274,1714
969.1341105003388,1643
971.3392582728806,1684
973.5438111979742,1662
975.747769504772,1642
977.9511334225061,1656
980.153903180487,1615
982.3560790081052,1660
984.5576611348289,1661
986.7586497902058,1614
988.9590452038618,1539
991.158847605503,1571
993.3580572249133,1612
995.5566742919558,1537
997.7546990365728,1624
999.952131688785,1581
1002.1489724786926,1474
1004.3452216364743,1518
1006.5408793923874,1419
1008.7359459767691,1484
1010.9304216200343,1454
1013.1243065526781,1467
1015.3176010052733,1462
1017.510305208472,1422
1019.7024193930064,1455
1021.8939437896848,1497
1024.0848786293977,1487
1026.2752241431122,1424
1028.4649805618747,1455
1030.6541481168115,1403
1032.842727039127,1463
1035.0307175601051,1453
1037.2181199111074,1398
1039.4049343235752,1417
1041.591161029029,1423
1043.7768002590683,1390
1045.9618522453698,1348
1048.1463172196918,1372
1050.3301954138697,1349
1052.513487059818,1378
1054.69619238953,1403
1056.8783116350783,1370
1059.0598450286152,1388
1061.2407928023704,1347
1063.4211551886528,1324
1065.6009324198508,1321
1067.780124728432,1409
1069.9587323469414,1353
1072.1367555080046,1411
1074.314194444325,1388
1076.4910493886855,1300
1078.667320573947,1318
1080.843008233051,1350
1083.0181125990161,1370
1085.1926339049414,1316
1087.3665723840027,1302
1089.5399282694575,1317
1091.7127017946405,1363
1093.8848931929647,1318
1096.0565026979243,1344
1098.2275305430899,1330
1100.3979769621128,1343
1102.567842188722,1299
1104.737126456726,1300
1106.9058300000124,1292
1109.0739530525475,1302
1111.2414958483764,1356
1113.4084586216231,1290
1115.5748416064907,1308
1117.7406450372605,1295
1119.9058691482942,1299
1122.0705141740304,1296
1124.2345803489884,1297
1126.3980679077658,1321
1128.5609770850388,1253
1130.7233081155623,1280
1132.8850612341707,1284
1135.0462366757774,1251
1137.2068346753745,1275
1139.3668554680326,1371
1141.526299288901,1283
1143.68516637321,1263
1145.8434569562655,1327
1148.001171273455,1242
1150.158309560244,1275
1152.3148720521767,1258
1154.470858984876,1250
1156.626270594044,1310
1158.7811071154629,1341
1160.9353687849912,1285
1163.089055838569,1290
1165.242168512213,1240
1167.3947070420209,1294
1169.5466716641677,1294
1171.6980626149075,1240
1173.8488801305748,1270
1175.9991244475814,1274
1178.1487958024186,1247
1180.2978944316555,1313
1182.4464205719428,1277
1184.5943744600072,1258
1186.7417563326567,1236
1188.8885664267755,1191
1191.0348049793297,1255
1193.1804722273619,1242
1195.325568407995,1295
1197.4700937584303,1265
1199.614048515948,1271
1201.7574329179074,1236
1203.900247201746,1206
1206.042491604982,1265
1208.1841663652099,1274
1210.3252717201053,1251
1212.465807907422,1245
1214.6057751649923,1222
1216.7451737307279,1209
1218.8840038426192,1305
1221.0222657387353,1281
1223.1599596572241,1244
1225.2970858363137,1326
1227.4336445143094,1241
1229.5696359295966,1230
1231.705060320639,1281
1233.8399179259786,1226
1235.9742089842384,1246
1238.107933734118,1284
1240.2410924143974,1304
1242.373685263935,1321
1244.5057125216676,1248
1246.6371744266116,1272
1248.7680712178621,1258
1250.898403134593,1238
1253.028170416058,1282
1255.1573733015875,1318
1257.2860120305932,1245
1259.4140868425648,1306
1261.54159797707,1302
1263.6685456737569,1334
1265.7949301723515,1309
1267.9207517126597,1366
1270.046010534565,1264
1272.1707068780306,1312
1274.2948409830983,1284
1276.4184130898889,1308
1278.541423438603,1256
1280.6638722695184,1302
1282.785759822993,1317
1284.9070863394636,1276
1287.0278520594447,1274
1289.1480572235314,1292
1291.2677020723963,1319
1293.3867868467923,1304
1295.5053117875495,1241
1297.623277135579,1295
1299.740683131868,1315
1301.8575300174857,1338
1303.973818033578,1320
1306.0895474213703,1347
1308.2047184221678,1348
1310.3193312773528,1311
1312.4333862283888,1304
1314.5468835168163,1364
1316.659823384255,1302
1318.7722060724045,1314
1320.8840318230418,1317
1322.9953008780249,1308
1325.1060134792888,1345
1327.2161698688478,1358
1329.3257702887959,1338
1331.4348149813054,1233
1333.5433041886276,1337
1335.6512381530933,1383
1337.7586171171101,1288
1339.8654413231675,1303
1341.9717110138317,1354
1344.0774264317488,1375
1346.1825878196432,1320
1348.2871954203192,1339
1350.3912494766587,1331
1352.4947502316231,1309
1354.5976979282532,1338
1356.7000928096686,1311
1358.8019351190665,1291
1360.9032250997243,1341
1363.0039629949988,1394
1365.1041490483235,1317
1367.2037835032133,1322
1369.3028666032606,1296
1371.401398592137,1276
1373.4993797135926,1380
1375.5968102114575,1338
1377.6936903296396,1349
1379.7900203121262,1309
1381.8858004029835,1334
1383.9810308463561,1278
1386.075711886469,1330
1388.1698437676241,1312
1390.2634267342032,1347
1392.356461030667,1319
1394.4489469015557,1372
1396.5408845914872,1329
1398.6322743451592,1326
1400.7231164073469,1288
1402.813411022907,1332
1404.903158436773,1325
1406.9923588939578,1334
1409.0810126395531,1369
1411.1691199187303,1321
1413.2566809767386,1340
1415.343696058907,1281
1417.4301654106425,1318
1419.5160892774315,1325
1421.6014679048399,1341
1423.6863015385125,1317
1425.7705904241707,1295
1427.8543348076178,1287
1429.9375349347342,1354
1432.0201910514802,1317
1434.102303403894,1326
1436.1838722380944,1329
1438.2648978002767,1358
1440.3453803367174,1385
1442.4253200937692,1382
1444.5047173178677,1326
1446.5835722555234,1350
1448.6618851533285,1325
1450.739656257952,1348
1452.8168858161434,1309
1454.8935740747306,1389
1456.96972128062,1373
1459.045327680797,1367
1461.120393522327,1335
1463.1949190523528,1393
1465.2689045180973,1390
1467.3423501668608,1405
1469.415256246024,1352
1471.4876230030463,1337
1473.559450685465,1416
1475.6307395408976,1406
1477.7014898170391,1446
1479.771701761665,1425
1481.8413756226287,1446
1483.9105116478618,1420
1485.9791100853772,1379
1488.0471711832643,1447
1490.1146951896926,1403
1492.1816823529098,1384
1494.2481329212433,1462
1496.3140471430984,1433
1498.3794252669609,1442
1500.4442675413939,1421
1502.5085742150404,1435
1504.572345536622,1508
1506.6355817549388,1476
1508.6982831188702,1422
1510.7604498773744,1430
1512.8220822794883,1402
1514.8831805743293,1464
1516.9437450110909,1446
1519.003775839048,1416
1521.0632733075522,1399
1523.1222376660367,1461
1525.1806691640113,1441
1527.2385680510652,1491
1529.2959345768668,1490
1531.3527689911643,1467
1533.4090715437833,1392
1535.4648424846291,1507
1537.5200820636855,1415
1539.5747905310159,1480
1541.6289681367616,1397
1543.6826151311434,1491
1545.7357317644614,1534
1547.7883182870937,1436
1549.8403749494987,1478
1551.8919020022113,1489
1553.9428996958477,1520
1555.9933682811015,1521
1558.0433080087469,1431
1560.0927191296346,1524
1562.1416018946961,1527
1564.1899565549415,1551
1566.2377833614592,1641
1568.2850825654164,1551
1570.3318544180606,1626
1572.3780991707158,1631
1574.423817074788,1519
1576.4690083817595,1554
1578.5136733431923,1538
1580.5578122107272,1585
1582.601425236085,1530
1584.6445126710646,1461
1586.6870747675434,1485
1588.7291117774776,1459
1590.7706239529034,1435
1592.8116115459347,1441
1594.8520748087658,1440
1596.8920139936686,1400
1598.9314293529933,1401
1600.9703211391711,1413
1603.008689604711,1357
1605.0465350022005,1351
1607.0838575843068,1358
1609.1206576037753,1316
1611.1569353134305,1412
1613.1926909661765,1379
1615.2279248149953,1384
1617.2626371129481,1350
1619.2968281131757,1405
1621.3304980688963,1384
1623.3636472334088,1321
1625.39627586009,1316
1627.428384202396,1381
1629.459972513861,1392
1631.4910410480993,1341
1633.5215900588028,1342
1635.551619799744,1355
1637.5811305247717,1344
1639.6101224878166,1302
1641.6385959428862,1292
1643.6665511440683,1289
1645.693988345528,1278
1647.7209078015112,1302
1649.7473097663405,1289
1651.7731944944203,1253
1653.7985622402307,1282
1655.823413258333,1252
1657.847747803366,1244
1659.8715661300494,1297
1661.8948684931793,1274
1663.9176551476316,1345
1665.9399263483624,1272
1667.9616823504057,1292
1669.982923408873,1265
1672.0036497789574,1257
1674.0238617159293,1249
1676.043559475138,1220
1678.0627433120121,1262
1680.081413482059,1207
1682.0995702408654,1316
1684.117213844096,1333
1686.134344547495,1336
1688.1509626068864,1290
1690.1670682781705,1301
1692.182661817329,1290
1694.1977434804217,1281
1696.2123135235875,1268
1698.226372203043,1274
1700.2399197750851,1302
1702.2529564960905,1339
1704.2654826225112,1299
1706.277498410882,1348
1708.2890041178139,1314
1710.2999999999988,1274
1712.3104863142066,1269
1714.3204633172854,1265
1716.329931266163,1300
1718.3388904178469,1309
1720.3473410294214,1268
1722.3552833580516,1303
1724.3627176609807,1308
1726.3696441955308,1268
1728.3760632191033,1278
1730.3819749891782,1265
1732.3873797633146,1261
1734.3922777991502,1278
1736.3966693544012,1306
1738.4005546868639,1266
1740.4039340544127,1276
1742.406807715001,1262
1744.4091759266616,1239
1746.4110389475054,1290
1748.4123970357223,1271
1750.413250449582,1246
1752.4135994474318,1297
1754.4134442876993,1317
1756.4127852288902,1326
1758.4116225295893,1267
1760.4099564484595,1268
1762.407787244244,1272
1764.405115175764,1340
1766.4019405019203,1297
1768.3982634816916,1259
1770.3940843741357,1316
1772.3894034383907,1266
1774.3842209336717,1221
1776.378537119274,1299
1778.372352254571,1226
1780.3656665990156,1199
1782.3584804121397,1340
1784.3507939535534,1306
1786.3426074829463,1256
1788.3339212600863,1283
1790.3247355448211,1247
1792.3150505970766,1286
1794.3048666768573,1238
1796.2941840442477,1249
1798.2830029594106,1248
1800.2713236825884,1293
1802.2591464741004,1314
1804.2464715943465,1289
1806.2332993038058,1307
1808.2196298630352,1227
1810.2054635326708,1301
1812.190800573428,1298
1814.175641246101,1294
1816.1599858115628,1286
1818.1438345307652,1283
1820.127187664738,1287
1822.1100454745924,1211
1824.092408221516,1249
1826.0742761667766,1293
1828.055649571721,1264
1830.0365286977735,1271
1832.0169138064398,1284
1833.9968051593014,1257
1835.9762030180214,1301
1837.9551076443408,1286
1839.9335193000788,1308
1841.9114382471344,1245
1843.888864747485,1240
1845.8657990631878,1237
1847.842241456378,1330
1849.8181921892697,1229
1851.7936515241558,1258
1853.7686197234098,1223
1855.7430970494815,1270
1857.7170837649014,1304
1859.6905801322787,1263
1861.6635864143004,1257
1863.6361028737338,1224
1865.608129773424,1274
1867.5796673762961,1270
1869.5507159453537,1281
1871.521275743678,1255
1873.4913470344313,1254
1875.4609300808534,1265
1877.4300251462632,1254
1879.3986324940588,1294
1881.366752387717,1315
1883.3343850907936,1296
1885.3015308669228,1255
1887.268189979819,1250
1889.2343626932739,1292
1891.2000492711595,1267
1893.1652499774254,1245
1895.1299650761011,1267
1897.0941948312952,1316
1899.0579395071945,1268
1901.0211993680641,1299
1902.98397467825,1266
1904.9462657021745,1299
1906.9080727043415,1326
1908.869395949332,1327
1910.8302357018065,1352
1912.790592226504,1299
1914.7504657882428,1361
1916.7098566519212,1292
1918.6687650825133,1284
1920.6271913450764,1268
1922.5851357047422,1244
1924.5425984267245,1251
1926.499579776314,1235
1928.4560800188833,1324
1930.4120994198802,1282
1932.367638244833,1277
1934.32269675935,1315
1936.2772752291175,1297
1938.231373919899,1292
1940.1849930975404,1279
1942.1381330279637,1257
1944.0907939771696,1309
1946.0429762112412,1287
1947.9946799963363,1245
1949.9459055986945,1270
1951.896653284633,1288
1953.8469233205478,1310
1955.7967159729142,1296
1957.7460315082863,1300
1959.6948701932974,1222
1961.6432322946594,1258
1963.5911180791632,1291
1965.5385278136787,1270
1967.4854617651545,1276
1969.4319202006182,1285
1971.377903387176,1279
1973.3234115920136,1238
1975.268445082395,1275
1977.2130041256642,1266
1979.1570889892423,1316
1981.1006999406304,1304
1983.04383724741,1302
1984.986501177238,1307
1986.928691997853,1283
1988.8704099770712,1290
1990.811655382789,1318
1992.7524284829801,1315
1994.692729545698,1298
1996.6325588390755,1254
1998.5719166313224,1232
2000.5108031907307,1277
2002.4492187856677,1283
2004.387163684583,1298
2006.3246381560011,1311
2008.2616424685298,1294
2010.1981768908527,1275
2012.1342416917332,1337
2014.069837140014,1308
2016.0049635046162,1281
2017.9396210545406,1266
2019.8738100588666,1285
2021.8075307867502,1302
2023.740783507431,1300
2025.6735684902228,1283
2027.6058860045214,1302
2029.5377363198004,1304
2031.4691197056118,1302
2033.4000364315875,1277
2035.3304867674374,1310
2037.260470982952,1294
2039.189989347998,1264
2041.1190421325232,1320
2043.047629606554,1282
2044.9757520401945,1302
2046.9034097036288,1268
2048.8306028671195,1292
2050.7573318010086,1331
2052.683596775716,1231
2054.609398061742,1299
2056.5347359296647,1276
2058.4596106501403,1314
2060.384022493906,1240
2062.3079717317764,1271
2064.231458634646,1310
2066.1544834734873,1226
2068.077046519352,1202
2069.99914804337,1263
2071.9207883167524,1287
2073.8419676107865,1248
2075.7626861968406,1246
2077.6829443463607,1251
2079.6027423308715,1331
2081.522080421977,1252
2083.440958891362,1250
2085.359378010786,1284
2087.2773380520907,1232
2089.194839287196,1236
2091.111881988101,1292
2093.0284664268825,1295
2094.9445928756973,1290
2096.86026160678,1226
2098.775472892446,1270
2100.690227005088,1243
2102.604524217178,1250
2104.5183648012676,1286
2106.431749029985,1235
2108.34467717604,1279
2110.2571495122206,1202
2112.169166311393,1292
2114.080727846503,1256
2115.9918343905747,1234
2117.902486216711,1255
2119.8126835980956,1269
2121.722426807987,1330
2123.6317161197285,1308
2125.5405518067364,1284
2127.448934142509,1295
2129.356863400624,1302
2131.264339854737,1288
2133.1713637785815,1294
2135.077935445972,1294
2136.9840551308002,1241
2138.889723107037,1254
2140.7949396487334,1261
2142.699705030018,1310
2144.6040195250994,1289
2146.507883408264,1312
2148.4112969538774,1302
2150.3142604363848,1283
2152.2167741303097,1283
2154.1188383102535,1280
2156.0204532508997,1321
2157.9216192270064,1287
2159.822336513414,1354
2161.7226053850413,1327
2163.622426116884,1318
2165.5217989840185,1250
2167.4207242616,1274
2169.319202224862,1318
2171.2172331491165,1295
2173.1148173097563,1328
2175.0119549822507,1306
2176.90864644215,1297
2178.8048919650823,1382
2180.7006918267534,1365
2182.596046302952,1329
2184.4909556695407,1337
2186.3854202024645,1356
2188.279440177746,1341
2190.173015871487,1304
2192.066147559868,1286
2193.958835519149,1314
2195.851080025667,1311
2197.7428813558417,1307
2199.6342397861667,1326
2201.5251555932186,1401
2203.415629053651,1314
2205.3056604441986,1382
2207.19525004167,1379
2209.084398122958,1357
2210.9731049650327,1449
2212.861370844941,1363
2214.749196039812,1409
2216.636580826851,1419
2218.523525483344,1466
2220.410030286655,1485
2222.296095514226,1461
2224.1817214435805,1390
2226.066908352319,1411
2227.951656518121,1423
2229.835966218746,1390
2231.71983773203,1419
2233.6032713358913,1437
2235.486267308324,1438
2237.3688259274036,1402
2239.2509474712824,1348
2241.132632218193,1406
2243.013880446447,1426
2244.8946924344323,1433
2246.7750684606203,1381
2248.6550088035574,1391
2250.534513741871,1382
2252.413583554265,1422
2254.292218519526,1366
2256.170418916517,1467
2258.0481850241786,1375
2259.925517121534,1451
2261.8024154876825,1365
2263.678880401803,1366
2265.5549121431536,1453
2267.430510991071,1390
2269.305677224971,1345
2271.180411124348,1397
2273.0547129687766,1374
2274.9285830379076,1303
2276.8020216114737,1281
2278.6750289692845,1375
2280.5476053912294,1378
2282.4197511572766,1381
2284.2914665474727,1424
2286.162751841943,1467
2288.0336073208937,1451
2289.904033264608,1423
2291.774029953448,1460
2293.6435976678554,1476
2295.5127366883517,1392
2297.381447295534,1321
2299.2497297700825,1267
2301.1175843927526,1297
2302.9850114443825,1204
2304.852011205885,1224
2306.7185839582553,1181
2308.5847299825664,1162
2310.4504495599676,1162
2312.3157429716925,1146
2314.1806104990483,1186
2316.0450524234247,1132
2317.9090690262888,1117
2319.772660589186,1097
2321.635827393742,1134
2323.498569721661,1111
2325.3608878547248,1127
2327.2227820747967,1150
2329.0842526638157,1058
2330.945299903803,1117
2332.805924076857,1086
2334.6661254651535,1131
2336.525904350951,1196
2338.3852610165827,1078
2340.244195744464,1113
2342.102708817088,1134
2343.9608005170253,1118
2345.8184711269287,1122
2347.675720929526,1158
2349.532550207628,1106
2351.38895924412,1140
2353.24494832197,1165
2355.100517724223,1163
2356.955667734004,1153
2358.810398634514,1149
2360.664710709037,1125
2362.5186042409337,1136
2364.3720795136437,1113
2366.225136810686,1118
2368.0777764156583,1135
2369.929998612237,1146
2371.7818036841777,1164
2373.633191915315,1120
2375.484163589562,1102
2377.3347189909114,1162
2379.184858403434,1150
2381.03458211128,1131
2382.8838903986775,1108
2384.732783549936,1153
2386.5812618494406,1160
2388.4293255816588,1126
2390.2769750311327,1138
2392.1242104824883,1151
2393.971032220427,1151
2395.8174405297295,1098
2397.6634356952563,1131
2399.509018001947,1151
2401.3541877348193,1139
2403.1989451789705,1135
2405.043290619576,1112
2406.8872243418905,1162
2408.730746631247,1080
2410.5738577730594,1071
2412.4165580528183,1158
2414.258847756095,1167
2416.100727168537,1157
2417.9421965758734,1048
2419.783256263912,1142
2421.623906518538,1118
2423.4641476257157,1129
2425.303979871491,1164
2427.143403541984,1136
2428.9824189233977,1163
2430.821026302012,1118
2432.6592259641866,1100
2434.497018196361,1138
2436.33440328505,1098
2438.171381516851,1071
2440.00795317844,1135
2441.844118556569,1130
2443.6798779380724,1128
2445.5152316098606,1123
2447.3501798589255,1129
2449.1847229723357,1146
2451.0188612372403,1138
2452.8525949408663,1124
2454.6859243705203,1121
2456.518849813587,1135
2458.3513715575314,1136
2460.183489889895,1161
2462.015205098301,1114
2463.8465174704493,1136
2465.67742729412,1121
2467.5079348571717,1150
2469.338040447542,1174
2471.1677443532476,1083
2472.9970468623833,1116
2474.825948263123,1119
2476.6544488437207,1126
2478.482548892508,1131
2480.310248697896,1146
2482.137548548374,1105
2483.9644487325118,1116
2485.790949538956,1121
2487.617051256433,1118
2489.44275417375,1084
2491.26805857979,1110
2493.0929647635157,1119
2494.917473013971,1177
2496.741583620276,1176
2498.5652968716304,1156
2500.3886130573137,1155
2502.2115324666834,1125
2504.0340553891765,1215
2505.856182114308,1214
2507.6779129316733,1150
2509.499248130945,1162
2511.3201880018764,1142
2513.140732834298,1165
2514.9608829181198,1146
2516.780638543331,1191
2518.6,1134
2520.418967578273,1164
2522.237541568376,1147
2524.0557222606144,1118
2525.8735099453706,1129
2527.6909049131086,1186
2529.507907454368,1155
2531.32451785977,1148
2533.140736420014,1121
2534.9565634258774,1179
2536.771999168218,1183
2538.5870439379714,1175
2540.4016980261526,1179
2542.2159617238544,1177
2544.02983532225,1178
2545.8433191125914,1131
2547.656413386209,1190
2549.4691184345115,1202
2551.2814345489874,1142
2553.093362021204,1186
2554.904901142808,1185
2556.716052205523,1179
2558.526815501153,1226
2560.3371913215824,1147
2562.147179958771,1235
2563.956781704761,1227
2565.7659968516705,1203
2567.5748256916986,1199
2569.3832685171224,1224
2571.1913256202984,1207
2572.9989972936614,1191
2574.806283829725,1209
2576.613185521084,1207
2578.4197026604074,1163
2580.2258355404483,1198
2582.031584454035,1198
2583.836949694077,1218
2585.6419315535613,1216
2587.4465303255533,1202
2589.2507463032002,1247
2591.0545797797245,1232
2592.8580310484303,1217
2594.6611004026995,1225
2596.463788135992,1243
2598.266094541849,1219
2600.0680199138874,1238
2601.869564545807,1201
2603.670728731383,1176
2605.4715127644704,1222
2607.2719169390048,1220
2609.071941548998,1235
2610.8715868885433,1163
2612.670853251811,1082
2614.469740933052,1177
2616.268250226594,1141
2618.0663814268455,1169
2619.864134828292,1199
2621.6615107255006,1246
2623.458509413115,1127
2625.2551311858597,1172
2627.0513763385347,1139
2628.8472451660223,1159
2630.6427379632833,1242
2632.4378550253564,1157
2634.232596647359,1196
2636.026963124488,1141
2637.8209547520187,1137
2639.6145718253065,1208
2641.407814639785,1177
2643.200683490966,1201
2644.9931786744414,1198
2646.7853004858807,1199
2648.577049221034,1217
2650.3684251757277,1188
2652.1594286458712,1140
2653.9500599274484,1152
2655.740319316525,1143
2657.5302071092437,1188
2659.3197236018286,1086
2661.10886909058,1115
2662.8976438718782,1169
2664.686048242183,1189
2666.4740824980327,1165
2668.2617469360443,1155
2670.0490418529134,1126
2671.8359675454153,1174
2673.622524310403,1202
2675.408712444811,1115
2677.1945322456495,1172
2678.979984010009,1146
2680.76506803506,1152
2682.5497846180497,1123
2684.334134056306,1159
2686.1181166472343,1128
2687.9017326883213,1158
2689.6849824771293,1125
2691.4678663113013,1108
2693.2503844885596,1127
2695.032537306705,1191
2696.8143250636167,1167
2698.5957480572542,1178
2700.3768065856534,1166
2702.1575009469316,1198
2703.937831439283,1147
2705.717798360982,1167
2707.4974020103837,1148
2709.276642685917,1142
2711.055520686095,1163
2712.834036309506,1121
2714.612189854819,1153
2716.389981620782,1110
2718.1674119062204,1168
2719.944481010041,1106
2721.721189231226,1092
2723.4975368688415,1149
2725.273524222027,1166
2727.0491515900053,1104
2728.824419272075,1167
2730.5993275676146,1115
2732.3738767760838,1100
2734.148067197016,1142
2735.921899130031,1143
2737.6953728748194,1135
2739.468488731156,1135
2741.2412469988926,1081
2743.0136479779617,1155
2744.785691968372,1126
2746.5573792702116,1123
2748.3287101836504,1101
2750.099685008934,1110
2751.870304046388,1099
2753.640567596418,1086
2755.4104759595057,1097
2757.1800294362156,1155
2758.949228327187,1164
2760.7180729331412,1190
2762.486563554877,1134
2764.254700493272,1130
2766.022484049284,1082
2767.789914523947,1139
2769.5569922183786,1161
2771.3237174337705,1120
2773.090090471394,1157
2774.8561116326036,1148
2776.6217812188274,1103
2778.3870995315756,1122
2780.1520668724356,1103
2781.9166835430747,1129
2783.6809498452394,1159
2785.444866080754,1152
2787.2084325515225,1115
2788.971649559527,1120
2790.73451740683,1128
2792.4970363955713,1190
2794.2592068279705,1124
2796.0210290063264,1110
2797.7825032330147,1051
2799.543629810493,1104
2801.304409041296,1094
2803.0648412280366,1150
2804.8249266734088,1122
2806.5846656801846,1136
2808.344058551212,1117
2810.1031055894246,1102
2811.8618070978273,1174
2813.6201633795085,1155
2815.378174737636,1181
2817.1358414754536,1126
2818.893163896285,1152
2820.6501423035334,1144
2822.4067770006814,1151
2824.1630682912883,1122
2825.9190164789957,1119
2827.6746218675207,1141
2829.429884760661,1130
2831.184805462294,1124
2832.9393842763743,1163
2834.693621506936,1168
2836.4475174580916,1168
2838.201072434034,1135
2839.954286739034,1078
2841.707160677441,1102
2843.459694553685,1098
2845.2118886722724,1117
2846.96374333779,1155
2848.7152588549034,1134
2850.4664355283567,1186
2852.217273662973,1140
2853.9677735636546,1152
2855.7179355353833,1128
2857.4677598832186,1133
2859.217246912299,1113
2860.9663969278427,1132
2862.715210235146,1139
2864.4636871395846,1122
2866.211827946614,1129
2867.9596329617652,1131
2869.7071024906536,1159
2871.4542368389684,1136
2873.20103631248,1149
2874.947501217038,1160
2876.6936318585695,1101
2878.4394285430812,1134
2880.1848915766604,1157
2881.9300212654707,1190
2883.6748179157553,1156
2885.4192818338374,1107
2887.1634133261173,1129
2888.907212699077,1122
2890.6506802592744,1170
2892.393816313348,1144
2894.1366211680142,1156
2895.8790951300693,1138
2897.621238506388,1192
2899.363051603925,1119
2901.1045347297118,1128
2902.8456881908596,1129
2904.58651229456,1126
2906.327007348081,1159
2908.067173658772,1145
2909.8070115340597,1167
2911.5465212814497,1125
2913.285703208527,1123
2915.0245576229563,1128
2916.7630848324807,1146
2918.5012851449196,1165
2920.2391588681758,1131
2921.976706310227,1103
2923.7139277791334,1168
2925.4508235830313,1120
2927.187394030137,1145
2928.923639428745,1174
2930.6595600872306,1179
2932.395156314046,1105
2934.1304284177218,1151
2935.8653767068713,1159
2937.6000014901815,1145
2939.3343030764227,1122
2941.068281774442,1166
2942.8019378931644,1146
2944.5352717415976,1157
2946.2682836288236,1198
2948.0009738640065,1130
2949.7333427563885,1148
2951.465390615289,1141
2953.1971177501086,1142
2954.9285244703265,1131
2956.6596110855,1152
2958.3903779052657,1163
2960.1208252393385,1153
2961.8509533975125,1137
2963.5807626896617,1153
2965.3102534257378,1140
2967.0394259157715,1135
2968.768280469873,1196
2970.496817398232,1174
2972.2250370111146,1136
2973.952939618869,1205
2975.6805255319196,1155
2977.4077950607707,1090
2979.134748516006,1174
2980.861386208289,1138
2982.587708448359,1160
2984.313715547037,1139
2986.039407815222,1207
2987.764785563891,1147
2989.489849104102,1123
2991.2145987469908,1135
2992.9390348037705,1137
2994.6631575857346,1133
2996.3869674042576,1149
2998.1104645707887,1134
2999.83364939686,1142
3001.5565221940783,1106
3003.2790832741334,1158
3005.0013329487924,1158
3006.7232715298996,1113
3008.4448993293804,1118
3010.166216659239,1106
3011.887223831558,1136
3013.607921158498,1071
3015.3283089522993,1157
3017.0483875252826,1094
3018.7681571898443,1158
3020.4876182584626,1142
3022.2067710436927,1166
3023.9256158581707,1130
3025.644153014609,1083
3027.362382825801,1133
3029.0803056046193,1103
3030.797921664012,1137
3032.5152313170106,1126
3034.2322348767225,1100
3035.9489326563353,1165
3037.665324969115,1138
3039.3814121284063,1123
3041.097194447633,1154
3042.812672240299,1051
3044.5278458199855,1130
3046.2427155003525,1137
3047.9572815951406,1122
3049.671544418167,1132
3051.38550428333,1160
3053.0991615046073,1140
3054.812516396051,1111
3056.5255692717974,1126
3058.2383204460575,1144
3059.9507702331257,1130
3061.662918947372,1079
3063.3747669032446,1105
3065.0863144152736,1097
3066.7975617980674,1129
3068.508509366309,1085
3070.219157434767,1140
3071.9295063182844,1133
3073.639556331785,1101
3075.3493077902704,1086
3077.058761008821,1115
3078.7679163025964,1140
3080.476773986837,1074
3082.1853343768594,1127
3083.89359778806,1066
3085.6015645359153,1102
3087.3092349359786,1137
3089.016609303884,1061
3090.7236879553434,1078
3092.4304712061476,1159
3094.136959372166,1147
3095.843152769349,1079
3097.5490517137237,1105
3099.2546565213966,1118
3100.959967508554,1105
3102.66498499146,1138
3104.3697092864577,1121
3106.0741407099695,1177
3107.778279578498,1138
3109.482126208622,1100
3111.1856809170004,1151
3112.8889440203716,1166
3114.5919158355528,1157
3116.294596679439,1158
3117.996986869006,1181
3119.6990867213062,1184
3121.4008965534726,1165
3123.102416682717,1160
3124.803647426329,1171
3126.5045891016784,1133
3128.205242026213,1154
3129.90560651746,1108
3131.605682893025,1141
3133.3054714705922,1155
3135.0049725679282,1154
3136.7041865028714,1148
3138.4031135933465,1098
3140.101754157353,1113
3141.800108512971,1078
3143.498176978357,1132
3145.1959598717494,1106
3146.8934575114636,1138
3148.5906702158954,1079
3150.2875983035183,1081
3151.9842420928853,1108
3153.680601902627,1074
3155.376678051456,1091
3157.07247085816,1108
3158.767980641609,1134
3160.463207720748,1118
3162.158152414606,1120
3163.8528150422862,1107
3165.5471959229726,1178
3167.2412953759303,1123
3168.9351137204976,1135
3170.628651276098,1134
3172.3219083622307,1143
3174.014885298474,1168
3175.707582404485,1141
3177.4000000000005,1146
3179.092138404835,1154
3180.7839979388846,1107
3182.47557892212,1159
3184.166881674594,1140
3185.8579065164386,1109
3187.5486537678626,1130
3189.2391237491547,1142
3190.9293167806827,1164
3192.6192331828934,1156
3194.3088732763117,1145
3195.998237381542,1143
3197.687325819268,1110
3199.376138910251,1161
3201.064676975334,1117
3202.7529403354347,1075
3204.4409293115523,1079
3206.1286442247647,1128
3207.816085396229,1135
3209.5032531471825,1130
3211.190147798936,1126
3212.8767696728846,1093
3214.5631190905015,1108
3216.2491963733373,1137
3217.9350018430214,1098
3219.6205358212637,1146
3221.305798629851,1128
3222.990790590651,1121
3224.6755120256103,1058
3226.359963256751,1126
3228.0441446061795,1065
3229.7280563960758,1122
3231.411698948703,1154
3233.0950725863995,1133
3234.778177631587,1147
3236.461014406761,1118
3238.1435832345005,1124
3239.8258844374595,1111
3241.507918338374,1175
3243.1896852600576,1073
3244.8711855254023,1137
3246.552419457381,1127
3248.233387379042,1139
3249.914089613516,1178
3251.59452648401,1110
3253.274698313813,1166
3254.95460542629,1160
3256.6342481448855,1111
3258.313626793125,1098
3259.9927416946084,1127
3261.6715931730196,1113
3263.3501815521176,1076
3265.0285071557437,1109
3266.706570307815,1091
3268.3843713323286,1123
3270.0619105533615,1143
3271.739188295068,1156
3273.4162048816834,1074
3275.0929606375184,1090
3276.769455886966,1152
3278.445690954498,1095
3280.1216661646613,1129
3281.797381842087,1135
3283.4728383114807,1084
3285.1480358976296,1110
3286.8229749253996,1176
3288.4976557197333,1129
3290.172078605655,1162
3291.846243908266,1099
3293.5201519527463,1117
3295.193803064357,1092
3296.8671975684374,1058
3298.5403357904024,1121
3300.21321805575,1100
3301.8858446900567,1124
3303.558216018975,1103
3305.23033236824,1144
3306.9021940636603,1112
3308.57380143113,1075
3310.2451547966184,1132
3311.916254486174,1153
3313.5871008259246,1139
3315.2576941420766,1143
3316.9280347609147,1131
3318.5981230088046,1092
3320.2679592121895,1088
3321.9375436975924,1104
3323.606876791612,1171
3325.27595882093,1108
3326.944790112305,1097
3328.6133709925753,1100
3330.2817017886573,1117
3331.949782827547,1134
3333.617614436319,1102
3335.2851969421245,1078
3336.952530672199,1155
3338.619615953853,1126
3340.286453114475,1127
3341.9530424815357,1146
3343.619384382583,1157
3345.2854791452437,1119
3346.951327097224,1071
3348.6169285663073,1151
3350.2822838803577,1121
3351.947393367319,1106
3353.61225735521,1154
3355.2768761721345,1119
3356.9412501462693,1110
3358.605379605873,1085
3360.2692648792827,1123
3361.9329062949146,1057
3363.596304181263,1074
