CollectionTime,7/11/2024 2:01:30 PM
ExposureUsed,3
CalibratedSpectrum
-962.7078968117929,416
-959.9714848408522,457
-957.2358232597828,473
-954.5009119013725,464
-951.7667505983302,473
-949.0333391832855,461
-946.3006774887896,459
-943.5687653473143,468
-940.837602591253,462
-938.1071890529199,473
-935.3775245645503,449
-932.6486089583007,473
-929.9204420662485,499
-927.1930237203925,485
-924.4663537526524,481
-921.7404319948689,469
-919.0152582788041,481
-916.2908324361409,475
-913.5671542984834,483
-910.8442236973568,458
-908.1220404642074,477
-905.4006044304027,475
-902.679915427231,455
-899.959973285902,479
-897.2407778375464,469
-894.5223289132158,460
-891.8046263438832,460
-889.0876699604426,453
-886.3714595937089,480
-883.6559950744183,467
-880.9412762332282,482
-878.2273029007168,474
-875.5140749073835,454
-872.8015920836489,467
-870.0898542598545,480
-867.3788612662631,472
-864.6686129330585,470
-861.9591090903457,495
-859.2503495681506,463
-856.5423341964203,480
-853.8350628050229,454
-851.1285352237478,478
-848.4227512823054,479
-845.7177108103272,478
-843.0134136373656,488
-840.3098595928943,483
-837.6070485063082,459
-834.9049802069229,462
-832.2036545239757,483
-829.5030712866244,484
-826.8032303239481,489
-824.1041314649472,469
-821.4057745385428,473
-818.7081593735775,484
-816.0112857988148,480
-813.3151536429393,481
-810.6197627345566,477
-807.9251129021936,469
-805.2312039742981,488
-802.5380357792392,492
-799.8456081453069,483
-797.1539209007124,490
-794.462973873588,497
-791.772766891987,511
-789.083299783884,494
-786.3945723771743,481
-783.7065844996748,478
-781.0193359791231,464
-778.3328266431781,503
-775.6470563194197,486
-772.9620248353489,479
-770.2777320183878,487
-767.5941776958798,510
-764.9113616950891,487
-762.2292838432011,494
-759.5479439673222,479
-756.8673418944801,475
-754.1874774516235,529
-751.5083504656222,524
-748.8299607632671,502
-746.15230817127,473
-743.475392516264,504
-740.7992136248035,517
-738.1237713233636,510
-735.4490654383407,489
-732.7750957960521,502
-730.1018622227365,510
-727.4293645445534,524
-724.7576025875837,506
-722.0865761778291,509
-719.4162851412126,525
-716.7467293035781,516
-714.0779084906909,532
-711.409822528237,563
-708.7424712418238,510
-706.0758544569796,521
-703.4099719991541,523
-700.7448236937178,537
-698.0804093659622,523
-695.4167288411002,542
-692.7537819442656,522
-690.0915685005134,519
-687.4300883348199,515
-684.7693412720819,527
-682.1093271371178,546
-679.4500457546669,534
-676.7914969493897,541
-674.1336805458676,518
-671.4765963686034,541
-668.8202442420206,572
-666.1646239904642,520
-663.5097354382001,569
-660.8555784094151,548
-658.2021527282176,545
-655.5494582186366,522
-652.8974947046223,560
-650.2462620100463,542
-647.5957599587009,571
-644.9459883742998,560
-642.2969470804776,570
-639.6486359007902,544
-637.0010546587141,542
-634.3542031776476,548
-631.7080812809096,544
-629.0626887917401,530
-626.4180255333008,550
-623.7740913286734,557
-621.1308860008619,569
-618.4884093727904,585
-615.8466612673046,604
-613.2056415071715,562
-610.5653499150785,560
-607.9257863136347,579
-605.28695052537,553
-602.6488423727357,557
-600.0114616781036,571
-597.3748082637674,578
-594.7388819519412,555
-592.1036825647604,590
-589.4692099242818,591
-586.8354638524829,621
-584.2024441712624,594
-581.5701507024403,569
-578.9385832677575,552
-576.3077416888759,609
-573.6776257873787,625
-571.0482353847704,588
-568.4195703024757,601
-565.7916303618415,560
-563.164415384135,561
-560.5379251905453,568
-557.9121596021815,537
-555.2871184400748,573
-552.6628015251767,584
-550.0392086783606,588
-547.4163397204204,608
-544.794194472071,596
-542.1727727539491,608
-539.5520743866118,640
-536.9320991905377,642
-534.3128469861261,631
-531.6943175936979,628
-529.0765108334947,647
-526.4594265256793,687
-523.8430644903358,767
-521.2274245474689,884
-518.612506517005,888
-515.9983102187913,842
-513.3848354725959,929
-510.77208209810846,986
-508.16004991493924,1094
-505.5487387426199,1169
-502.9381484006032,1183
-500.3282787082628,1161
-497.71912948489364,1093
-495.1107005497117,987
-492.5029917218539,865
-489.8960028203786,825
-487.28973366426493,808
-484.68418407241325,708
-482.07935386364494,696
-479.47524285670266,718
-476.87185087025,713
-474.2691777228715,716
-471.66722323307334,739
-469.0659872192821,723
-466.4654694998459,707
-463.86566989303384,724
-461.26658821703614,706
-458.66822428996414,739
-456.07057792985,728
-453.4736489546475,702
-450.877437182231,698
-448.28194243039627,682
-445.68716451686,691
-443.09310325926003,745
-440.49975847515555,742
-437.9071299820263,717
-435.31521759727354,691
-432.72402113821954,716
-430.13354042210767,751
-427.5437752661022,725
-424.95472548728867,743
-422.36639090267386,731
-419.7787713291855,747
-417.1918665836721,778
-414.60567648290385,820
-412.0202008435715,779
-409.4354394822874,774
-406.8513922155845,714
-404.26805885991723,733
-401.685439231661,788
-399.103533147112,764
-396.522340422488,754
-393.9418608739278,763
-391.3620943174908,743
-388.7830405691583,730
-386.2046994448317,756
-383.6270707603344,702
-381.05015433141045,683
-378.473949973725,644
-375.8984575028645,656
-373.32367673433623,622
-370.74960748356875,563
-368.1762495659117,552
-365.60360279663576,494
-363.03166699093265,501
-360.4604419639154,475
-357.8899275306178,435
-355.32012350599507,453
-352.7510297049233,451
-350.1826459421999,435
-347.61497203254316,429
-345.04800779059235,442
-342.4817530309082,450
-339.91620756797226,436
-337.35137121618743,449
-334.7872437898774,437
-332.22382510328725,451
-329.66111497058273,459
-327.09911320585127,446
-324.53781962310075,456
-321.9772340362607,451
-319.4173562591816,439
-316.8581861056348,439
-314.2997233893127,440
-311.7419679238294,444
-309.1849195227194,462
-306.62857799943856,465
-304.0729431673641,448
-301.51801483979375,459
-298.963792829947,491
-296.41027695096386,512
-293.85746701590574,518
-291.3053628377552,477
-288.7539642294155,521
-286.2032710037115,471
-283.65328297338897,450
-281.1039999511146,533
-278.5554217494762,535
-276.007548180983,519
-273.4603790580651,564
-270.9139141930734,629
-268.3681533982807,601
-265.8230964858798,538
-263.27874326798565,539
-260.7350935566336,567
-258.1921471637804,580
-255.6499039013039,550
-253.10836358100266,580
-250.56752601459698,554
-248.02739101372765,531
-245.48795838995704,556
-242.94922795476816,590
-240.41119951956557,574
-237.8738728956746,536
-235.33724789434166,525
-232.80132432673452,527
-230.2661020039418,590
-227.73158073697357,583
-225.19776033676033,601
-222.66464061415422,615
-220.1322213799284,591
-217.60050244477725,542
-215.06948361931552,557
-212.53916471408013,596
-210.00954553952818,671
-207.48062590603843,592
-204.9524056239104,578
-202.4248845033651,634
-199.8980623545441,673
-197.37193898751036,653
-194.84651421224817,660
-192.32178783866232,635
-189.79775967657952,678
-187.27442953574644,728
-184.7517972258321,663
-182.2298625564256,665
-179.7086253370378,673
-177.18808537710026,650
-174.66824248596583,672
-172.14909647290835,699
-169.6306471471229,704
-167.11289431772548,790
-164.59583779375328,790
-162.07947738416453,790
-159.5638128978386,878
-157.04884414357605,876
-154.53457093009854,895
-152.02099306604828,1009
-149.50811035998936,958
-146.99592262040665,856
-144.48442965570587,925
-141.97363127421409,1021
-139.46352728417958,892
-136.95411749377126,888
-134.44540171107985,871
-131.93737974411636,793
-129.43005140081357,806
-126.92341648902493,972
-124.41747481652521,1147
-121.91222619101006,1353
-119.40767042009657,1544
-116.90380731132257,1720
-114.40063667214702,1788
-111.8981583099503,1732
-109.3963720320337,1423
-106.89527764561933,1202
-104.39487495785067,1156
-101.89516377579241,1743
-99.39614390642998,2141
-96.89781515667039,2509
-94.40017733334128,2186
-91.90323024319173,1959
-89.40697369289148,2060
-86.91140748903172,3167
-84.41653143812482,3695
-81.92234534660395,3065
-79.42884902082358,2340
-76.93604226705907,3379
-74.4439248915071,6449
-71.95249670028534,9827
-69.46175749943245,12744
-66.97170709490854,12624
-64.48234529259423,10539
-61.99367189829195,8330
-59.50568671772464,8106
-57.01838955653636,6946
-54.53178022029283,6259
-52.045858514480074,6428
-49.560624244506016,8182
-47.07607721569923,9905
-44.59221723330904,10089
-42.10904410250669,10060
-39.62655762838392,10683
-37.14475761595372,10278
-34.66364387015028,11344
-32.18321619582866,12208
-29.70347439776515,12708
-27.224418280657005,14612
-24.74604764912317,15463
-22.26836230770266,16248
-19.7913620608565,21323
-17.315046712966478,33790
-14.83941606833514,45822
-12.36446993118659,60776
-9.89020810566592,65039
-7.416630395839093,65039
-4.94373660569363,65039
-2.471526539137585,65039
-6.821210263296962E-13,65039
2.47084320796705,65039
4.941003281093458,65039
7.410480415786196,65039
9.879274808531363,65039
12.347386655893956,65039
14.814816154518212,65039
17.28156350112681,65039
19.74762889252179,65039
22.21301252558385,65039
24.67771459727237,20296
27.141735304626195,3755
29.605074844762612,2715
32.06773341487792,2062
34.52971121224755,2065
36.99100843422559,2533
39.45162527824516,2145
41.91156194181792,1669
44.370818622535126,1368
46.82939551806646,1279
49.287292826160524,1393
51.74451074464503,1576
54.201049471426245,1390
56.65690920448981,1289
59.112090141899785,1266
61.56659248179983,1170
64.02041642241159,1188
66.4735621620365,1103
68.92602989905402,1075
71.37781983192338,1118
73.82893215918205,1207
76.27936707944684,1179
78.72912479141326,1198
81.17820549385567,1368
83.62660938562783,1350
86.07433666566146,1098
88.5213875329681,940
90.96776218663751,905
93.41346082583925,914
95.85848364982041,956
98.30283085790859,1155
100.7465026495089,1101
103.18949922410604,1029
105.63182078126385,1073
108.07346752062438,1079
110.51443964190923,971
112.95473734491827,805
115.39436082953114,887
117.83331029570547,935
120.27158594347827,938
122.7091879729652,998
125.1461165843615,962
127.58237197794062,922
130.01795435405518,920
132.4528639131364,896
134.88710085569494,1011
137.32066538231982,967
139.75355769367923,822
142.1857779905207,815
144.61732647366978,875
147.04820334403132,912
149.47840880258934,883
151.90794305040674,916
154.33680628862487,994
156.76499871846443,1108
159.19252054122433,1135
161.61937195828352,1174
164.04555317109896,1249
166.47106438120693,1332
168.89590579022217,1454
171.320077599839,1677
173.7435800118302,1614
176.16641322804742,1738
178.58857745042144,1693
181.01007288096173,1717
183.43089972175687,1851
185.85105817497413,1746
188.27054844285988,1777
190.6893707277394,1823
193.10752523201643,1842
195.5250121581745,1861
197.9418317087751,1911
200.3579840864594,1869
202.7734694939469,1936
205.18828813403627,1916
207.6024402096051,1953
210.01592592360964,2060
212.42874547908548,2072
214.84089907914665,2078
217.2523869269868,2002
219.66320922587727,1996
222.0733661791695,2060
224.48285799029293,2025
226.8916848627572,2012
229.29984700014882,2052
231.7073446061355,2022
234.11417788446204,1977
236.520347038953,2089
238.92585227351185,2211
241.33069379212054,2148
243.73487179884035,2191
246.1383864978112,2191
248.541238093252,2196
250.9434267894609,2279
253.34495279081432,2253
255.74581630176783,2265
258.1460175268563,2314
260.54555667069314,2331
262.9444339379703,2234
265.3426495334594,2163
267.7402036620107,2258
270.1370965285529,2140
272.53332833809407,2131
274.9288992957214,2027
277.32380960660055,1985
279.718059475976,1959
282.1116491091717,1981
284.5045787115897,1977
286.89684848871195,1943
289.2884586460981,1982
291.67940938938807,2027
294.0697009242996,1947
296.4593334566299,2026
298.84830719225477,1906
301.23662233712923,1929
303.6242790972866,1897
306.01127767884,1885
308.39761828798066,1907
310.78330113097934,1885
313.16832641418534,1846
315.5526943440269,1822
317.9364051270112,1775
320.3194589697242,1873
322.70185607883093,1779
325.0835966610754,1752
327.4646809232805,1781
329.8451090723478,1660
332.2248813152577,1725
334.6039978590701,1714
336.9824589109231,1691
339.36026467803447,1703
341.7374153677,1639
344.113911187295,1698
346.48975234427337,1676
348.8649390461686,1734
351.2394715005918,1653
353.61334991523415,1612
355.9865744978655,1624
358.35914545633375,1636
360.73106299856715,1665
363.10232733257146,1613
365.47293866643247,1636
367.84289720831396,1640
370.2122031664593,1613
372.5808567491905,1589
374.9488581649083,1627
377.31620762209275,1528
379.6829053293021,1585
382.0489514951745,1544
384.4143463284262,1511
386.7790900378528,1525
389.14318283232853,1583
391.50662492080653,1537
393.86941651231916,1576
396.23155781597745,1547
398.5930490409713,1541
400.9538903965696,1590
403.3140820921202,1616
405.6736243370498,1571
408.03251734086336,1551
410.3907613131465,1509
412.74835646356166,1588
415.10530300185144,1467
417.4616011378372,1549
419.81725108141893,1516
422.1722530425758,1536
424.5266072313656,1487
426.880313857925,1466
429.2333731324701,1515
431.58578526529516,1536
433.9375504667738,1525
436.2886689473588,1531
438.63914091758113,1520
440.9889665880513,1522
443.33814616945835,1508
445.68667987257015,1465
448.03456790823395,1501
450.3818104873759,1470
452.72840782100013,1485
455.07436012019105,1460
457.41966759611057,1445
459.7643304600007,1479
462.10834892318155,1488
464.4517231970525,1407
466.79445349309174,1511
469.1365400228566,1470
471.4779829979826,1476
473.81878263018564,1474
476.15893913125876,1523
478.4984527130747,1502
480.8373235875855,1531
483.17555196682144,1533
485.5131380628919,1558
487.8500820879857,1524
490.1863842543697,1606
492.52204477439034,1659
494.8570638604725,1782
497.1914417251204,1973
499.52517858091653,2143
501.85827464052306,2439
504.19073011668036,2653
506.5225452222086,2804
508.85372017000566,2687
511.18425517304956,2722
513.514150444396,2790
515.8434061971808,3059
518.1720226446176,3647
520.4999999999999,3653
522.8273384766991,3568
525.1540382881666,3145
527.480099647932,2845
529.8055227696037,2411
532.1303078668694,2015
534.454455153496,1716
536.777964843328,1632
539.1008371502907,1610
541.4230722883866,1602
543.744670471698,1607
546.0656319143858,1605
548.3859568306899,1551
550.7056454349294,1604
553.0246979415016,1548
555.3431145648834,1518
557.6608955196306,1498
559.978041020377,1421
562.2945512818363,1473
564.6104265188006,1480
566.9256669461412,1505
569.2402727788082,1533
571.5542442318302,1526
573.8675815203156,1549
576.1802848594508,1506
578.4923544645015,1463
580.8037905508126,1552
583.114593333807,1595
585.4247630289875,1549
587.7342998519354,1510
590.0432040183106,1514
592.3514757438526,1478
594.6591152443794,1505
596.9661227357875,1552
599.2724984340531,1558
601.578242555231,1505
603.8833553154542,1510
606.1878369309362,1474
608.4916876179676,1514
610.7949075929192,1516
613.0974970722403,1466
615.3994562724587,1482
617.7007854101818,1506
620.0014847020951,1460
622.3015543649641,1488
624.6009946156324,1472
626.8998056710224,1528
629.1979877481361,1508
631.4955410640538,1485
633.7924658359349,1461
636.0887622810175,1462
638.3844306166192,1511
640.6794710601358,1481
642.9738838290426,1520
645.2676691408932,1552
647.5608272133207,1538
649.853358264037,1544
652.1452625108324,1585
654.4365401715764,1501
656.7271914642178,1607
659.0172166067838,1549
661.3066158173809,1517
663.5953893141935,1517
665.8835373154867,1509
668.1710600396028,1523
670.4579577049639,1507
672.7442305300709,1593
675.0298787335033,1576
677.3149025339197,1539
679.599302150058,1564
681.8830778007342,1566
684.1662297048437,1588
686.4487580813608,1594
688.7306631493387,1513
691.0119451279091,1557
693.2926042362834,1519
695.5726406937516,1528
697.8520547196814,1548
700.1308465335215,1569
702.4090163547982,1519
704.6865644031171,1501
706.9634908981619,1473
709.2397960596965,1469
711.5154801075631,1530
713.7905432616823,1518
716.0649857420548,1526
718.3388077687592,1501
720.612009561953,1506
722.8845913418733,1477
725.1565533288352,1538
727.427895743234,1491
729.6986188055427,1514
731.9687227363137,1547
734.238207756178,1569
736.5070740858458,1511
738.7753219461066,1516
741.0429515578281,1507
743.3099631419569,1540
745.5763569195191,1572
747.8421331116193,1484
750.1072919394409,1454
752.3718336242467,1549
754.6357583873777,1512
756.8990664502545,1498
759.1617580343765,1494
761.423833361321,1556
763.6852926527457,1511
765.9461361303862,1443
768.206364016058,1563
770.4659765316536,1521
772.7249738991469,1551
774.9833563405886,1484
777.2411240781092,1495
779.4982773339183,1558
781.7548163303044,1535
784.010741289634,1542
786.2660524343538,1609
788.5207499869881,1575
790.7748341701416,1548
793.0283052064964,1524
795.2811633188143,1581
797.5334087299362,1579
799.7850416627813,1593
802.0360623403484,1558
804.2864709857143,1679
806.5362678220353,1632
808.7854530725468,1519
811.0340269605625,1593
813.2819897094754,1533
815.5293415427581,1588
817.77608268396,1600
820.0222133567116,1642
822.2677337847211,1542
824.5126441917765,1563
826.7569448017433,1567
829.0006358385675,1561
831.2437175262731,1632
833.4861900889629,1557
835.7280537508192,1551
837.9693087361026,1571
840.2099552691533,1585
842.4499935743896,1515
844.689423876309,1536
846.9282463994886,1610
849.1664613685833,1481
851.4040690083276,1562
853.6410695435349,1565
855.877463199097,1526
858.1132501999847,1512
860.3484307712487,1576
862.5830051380175,1555
864.8169735254988,1563
867.0503361589791,1624
869.2830932638243,1511
871.5152450654786,1556
873.7467917894654,1547
875.9777336613873,1588
878.2080709069252,1649
880.4378037518389,1586
882.666932421968,1620
884.8954571432301,1581
887.1233781416219,1606
889.3506956432192,1578
891.5774098741766,1562
893.803521060728,1574
896.0290294291852,1628
898.2539352059397,1643
900.4782386174619,1627
902.7019398903011,1611
904.925039251085,1526
907.147536926521,1601
909.3694331433943,1601
911.59072812857,1598
913.8114221089921,1539
916.0315153116827,1539
918.2510079637437,1536
920.4699002923547,1604
922.6881925247761,1540
924.905884888345,1554
927.1229776104793,1570
929.3394709186747,1591
931.555365040506,1529
933.7706602036275,1519
935.9853566357709,1517
938.1994545647489,1559
940.4129542184515,1585
942.6258558248488,1462
944.8381596119883,1540
947.0498658079974,1544
949.2609746410825,1520
951.4714863395287,1517
953.6814011316998,1520
955.8907192460387,1599
958.0994409110671,1512
960.3075663553858,1546
962.5150958076741,1549
964.7220294966913,1451
966.928367651274,1505
969.1341105003388,1425
971.3392582728806,1534
973.5438111979742,1529
975.747769504772,1514
977.9511334225061,1499
980.153903180487,1498
982.3560790081052,1457
984.5576611348289,1444
986.7586497902058,1488
988.9590452038618,1477
991.158847605503,1447
993.3580572249133,1456
995.5566742919558,1397
997.7546990365728,1428
999.952131688785,1426
1002.1489724786926,1397
1004.3452216364743,1361
1006.5408793923874,1379
1008.7359459767691,1352
1010.9304216200343,1373
1013.1243065526781,1313
1015.3176010052733,1295
1017.510305208472,1334
1019.7024193930064,1332
1021.8939437896848,1307
1024.0848786293977,1295
1026.2752241431122,1321
1028.4649805618747,1318
1030.6541481168115,1295
1032.842727039127,1277
1035.0307175601051,1316
1037.2181199111074,1308
1039.4049343235752,1303
1041.591161029029,1318
1043.7768002590683,1253
1045.9618522453698,1249
1048.1463172196918,1269
1050.3301954138697,1256
1052.513487059818,1297
1054.69619238953,1287
1056.8783116350783,1237
1059.0598450286152,1251
1061.2407928023704,1248
1063.4211551886528,1238
1065.6009324198508,1266
1067.780124728432,1264
1069.9587323469414,1291
1072.1367555080046,1323
1074.314194444325,1210
1076.4910493886855,1258
1078.667320573947,1240
1080.843008233051,1257
1083.0181125990161,1183
1085.1926339049414,1197
1087.3665723840027,1251
1089.5399282694575,1236
1091.7127017946405,1174
1093.8848931929647,1243
1096.0565026979243,1222
1098.2275305430899,1222
1100.3979769621128,1195
1102.567842188722,1205
1104.737126456726,1201
1106.9058300000124,1171
1109.0739530525475,1229
1111.2414958483764,1184
1113.4084586216231,1203
1115.5748416064907,1187
1117.7406450372605,1154
1119.9058691482942,1197
1122.0705141740304,1269
1124.2345803489884,1151
1126.3980679077658,1213
1128.5609770850388,1155
1130.7233081155623,1200
1132.8850612341707,1199
1135.0462366757774,1217
1137.2068346753745,1215
1139.3668554680326,1172
1141.526299288901,1199
1143.68516637321,1211
1145.8434569562655,1164
1148.001171273455,1220
1150.158309560244,1160
1152.3148720521767,1187
1154.470858984876,1146
1156.626270594044,1160
1158.7811071154629,1203
1160.9353687849912,1180
1163.089055838569,1145
1165.242168512213,1183
1167.3947070420209,1165
1169.5466716641677,1129
1171.6980626149075,1147
1173.8488801305748,1132
1175.9991244475814,1159
1178.1487958024186,1165
1180.2978944316555,1160
1182.4464205719428,1187
1184.5943744600072,1127
1186.7417563326567,1150
1188.8885664267755,1137
1191.0348049793297,1184
1193.1804722273619,1139
1195.325568407995,1167
1197.4700937584303,1203
1199.614048515948,1226
1201.7574329179074,1198
1203.900247201746,1239
1206.042491604982,1152
1208.1841663652099,1126
1210.3252717201053,1155
1212.465807907422,1195
1214.6057751649923,1196
1216.7451737307279,1204
1218.8840038426192,1221
1221.0222657387353,1158
1223.1599596572241,1178
1225.2970858363137,1166
1227.4336445143094,1173
1229.5696359295966,1228
1231.705060320639,1196
1233.8399179259786,1186
1235.9742089842384,1220
1238.107933734118,1198
1240.2410924143974,1197
1242.373685263935,1182
1244.5057125216676,1254
1246.6371744266116,1232
1248.7680712178621,1192
1250.898403134593,1135
1253.028170416058,1176
1255.1573733015875,1204
1257.2860120305932,1169
1259.4140868425648,1203
1261.54159797707,1210
1263.6685456737569,1188
1265.7949301723515,1186
1267.9207517126597,1265
1270.046010534565,1224
1272.1707068780306,1245
1274.2948409830983,1219
1276.4184130898889,1231
1278.541423438603,1288
1280.6638722695184,1324
1282.785759822993,1260
1284.9070863394636,1243
1287.0278520594447,1239
1289.1480572235314,1279
1291.2677020723963,1346
1293.3867868467923,1236
1295.5053117875495,1323
1297.623277135579,1337
1299.740683131868,1285
1301.8575300174857,1298
1303.973818033578,1258
1306.0895474213703,1313
1308.2047184221678,1317
1310.3193312773528,1290
1312.4333862283888,1359
1314.5468835168163,1326
1316.659823384255,1352
1318.7722060724045,1382
1320.8840318230418,1358
1322.9953008780249,1337
1325.1060134792888,1304
1327.2161698688478,1291
1329.3257702887959,1283
1331.4348149813054,1329
1333.5433041886276,1386
1335.6512381530933,1369
1337.7586171171101,1401
1339.8654413231675,1378
1341.9717110138317,1318
1344.0774264317488,1370
1346.1825878196432,1357
1348.2871954203192,1333
1350.3912494766587,1280
1352.4947502316231,1295
1354.5976979282532,1323
1356.7000928096686,1288
1358.8019351190665,1412
1360.9032250997243,1312
1363.0039629949988,1271
1365.1041490483235,1323
1367.2037835032133,1351
1369.3028666032606,1283
1371.401398592137,1282
1373.4993797135926,1330
1375.5968102114575,1300
1377.6936903296396,1321
1379.7900203121262,1275
1381.8858004029835,1368
1383.9810308463561,1297
1386.075711886469,1255
1388.1698437676241,1230
1390.2634267342032,1301
1392.356461030667,1326
1394.4489469015557,1269
1396.5408845914872,1290
1398.6322743451592,1359
1400.7231164073469,1305
1402.813411022907,1282
1404.903158436773,1310
1406.9923588939578,1332
1409.0810126395531,1278
1411.1691199187303,1311
1413.2566809767386,1347
1415.343696058907,1279
1417.4301654106425,1396
1419.5160892774315,1375
1421.6014679048399,1360
1423.6863015385125,1333
1425.7705904241707,1305
1427.8543348076178,1331
1429.9375349347342,1331
1432.0201910514802,1334
1434.102303403894,1379
1436.1838722380944,1308
1438.2648978002767,1368
1440.3453803367174,1362
1442.4253200937692,1350
1444.5047173178677,1409
1446.5835722555234,1410
1448.6618851533285,1384
1450.739656257952,1455
1452.8168858161434,1453
1454.8935740747306,1436
1456.96972128062,1462
1459.045327680797,1488
1461.120393522327,1470
1463.1949190523528,1559
1465.2689045180973,1493
1467.3423501668608,1548
1469.415256246024,1505
1471.4876230030463,1508
1473.559450685465,1515
1475.6307395408976,1596
1477.7014898170391,1632
1479.771701761665,1641
1481.8413756226287,1595
1483.9105116478618,1628
1485.9791100853772,1612
1488.0471711832643,1613
1490.1146951896926,1590
1492.1816823529098,1636
1494.2481329212433,1691
1496.3140471430984,1729
1498.3794252669609,1680
1500.4442675413939,1751
1502.5085742150404,1771
1504.572345536622,1706
1506.6355817549388,1741
1508.6982831188702,1761
1510.7604498773744,1697
1512.8220822794883,1700
1514.8831805743293,1762
1516.9437450110909,1732
1519.003775839048,1771
1521.0632733075522,1717
1523.1222376660367,1835
1525.1806691640113,1795
1527.2385680510652,1773
1529.2959345768668,1796
1531.3527689911643,1750
1533.4090715437833,1877
1535.4648424846291,1772
1537.5200820636855,1825
1539.5747905310159,1814
1541.6289681367616,1847
1543.6826151311434,1873
1545.7357317644614,1868
1547.7883182870937,1937
1549.8403749494987,1899
1551.8919020022113,1987
1553.9428996958477,2008
1555.9933682811015,2009
1558.0433080087469,2044
1560.0927191296346,2125
1562.1416018946961,2195
1564.1899565549415,2212
1566.2377833614592,2127
1568.2850825654164,2142
1570.3318544180606,2129
1572.3780991707158,2073
1574.423817074788,2061
1576.4690083817595,2070
1578.5136733431923,2011
1580.5578122107272,1883
1582.601425236085,1930
1584.6445126710646,1873
1586.6870747675434,1834
1588.7291117774776,1751
1590.7706239529034,1774
1592.8116115459347,1666
1594.8520748087658,1661
1596.8920139936686,1657
1598.9314293529933,1618
1600.9703211391711,1532
1603.008689604711,1564
1605.0465350022005,1475
1607.0838575843068,1490
1609.1206576037753,1506
1611.1569353134305,1455
1613.1926909661765,1404
1615.2279248149953,1406
1617.2626371129481,1365
1619.2968281131757,1384
1621.3304980688963,1337
1623.3636472334088,1366
1625.39627586009,1336
1627.428384202396,1309
1629.459972513861,1268
1631.4910410480993,1295
1633.5215900588028,1262
1635.551619799744,1281
1637.5811305247717,1268
1639.6101224878166,1276
1641.6385959428862,1225
1643.6665511440683,1189
1645.693988345528,1260
1647.7209078015112,1205
1649.7473097663405,1186
1651.7731944944203,1250
1653.7985622402307,1233
1655.823413258333,1226
1657.847747803366,1225
1659.8715661300494,1173
1661.8948684931793,1181
1663.9176551476316,1233
1665.9399263483624,1245
1667.9616823504057,1223
1669.982923408873,1260
1672.0036497789574,1219
1674.0238617159293,1233
1676.043559475138,1199
1678.0627433120121,1213
1680.081413482059,1210
1682.0995702408654,1226
1684.117213844096,1207
1686.134344547495,1179
1688.1509626068864,1203
1690.1670682781705,1248
1692.182661817329,1185
1694.1977434804217,1212
1696.2123135235875,1230
1698.226372203043,1264
1700.2399197750851,1209
1702.2529564960905,1172
1704.2654826225112,1222
1706.277498410882,1236
1708.2890041178139,1212
1710.2999999999988,1195
1712.3104863142066,1190
1714.3204633172854,1217
1716.329931266163,1152
1718.3388904178469,1171
1720.3473410294214,1186
1722.3552833580516,1174
1724.3627176609807,1225
1726.3696441955308,1172
1728.3760632191033,1170
1730.3819749891782,1147
1732.3873797633146,1212
1734.3922777991502,1157
1736.3966693544012,1210
1738.4005546868639,1206
1740.4039340544127,1187
1742.406807715001,1169
1744.4091759266616,1167
1746.4110389475054,1176
1748.4123970357223,1152
1750.413250449582,1233
1752.4135994474318,1192
1754.4134442876993,1122
1756.4127852288902,1143
1758.4116225295893,1133
1760.4099564484595,1128
1762.407787244244,1167
1764.405115175764,1160
1766.4019405019203,1177
1768.3982634816916,1179
1770.3940843741357,1153
1772.3894034383907,1174
1774.3842209336717,1124
1776.378537119274,1166
1778.372352254571,1164
1780.3656665990156,1162
1782.3584804121397,1127
1784.3507939535534,1100
1786.3426074829463,1136
1788.3339212600863,1215
1790.3247355448211,1184
1792.3150505970766,1186
1794.3048666768573,1170
1796.2941840442477,1137
1798.2830029594106,1093
1800.2713236825884,1168
1802.2591464741004,1154
1804.2464715943465,1152
1806.2332993038058,1175
1808.2196298630352,1143
1810.2054635326708,1121
1812.190800573428,1105
1814.175641246101,1131
1816.1599858115628,1128
1818.1438345307652,1136
1820.127187664738,1142
1822.1100454745924,1180
1824.092408221516,1154
1826.0742761667766,1146
1828.055649571721,1142
1830.0365286977735,1128
1832.0169138064398,1174
1833.9968051593014,1159
1835.9762030180214,1201
1837.9551076443408,1180
1839.9335193000788,1125
1841.9114382471344,1162
1843.888864747485,1194
1845.8657990631878,1119
1847.842241456378,1165
1849.8181921892697,1127
1851.7936515241558,1107
1853.7686197234098,1148
1855.7430970494815,1156
1857.7170837649014,1127
1859.6905801322787,1163
1861.6635864143004,1151
1863.6361028737338,1196
1865.608129773424,1185
1867.5796673762961,1169
1869.5507159453537,1142
1871.521275743678,1121
1873.4913470344313,1200
1875.4609300808534,1122
1877.4300251462632,1197
1879.3986324940588,1180
1881.366752387717,1112
1883.3343850907936,1118
1885.3015308669228,1168
1887.268189979819,1155
1889.2343626932739,1175
1891.2000492711595,1193
1893.1652499774254,1138
1895.1299650761011,1172
1897.0941948312952,1189
1899.0579395071945,1153
1901.0211993680641,1145
1902.98397467825,1172
1904.9462657021745,1099
1906.9080727043415,1190
1908.869395949332,1192
1910.8302357018065,1199
1912.790592226504,1153
1914.7504657882428,1130
1916.7098566519212,1157
1918.6687650825133,1105
1920.6271913450764,1193
1922.5851357047422,1205
1924.5425984267245,1128
1926.499579776314,1165
1928.4560800188833,1149
1930.4120994198802,1175
1932.367638244833,1189
1934.32269675935,1171
1936.2772752291175,1140
1938.231373919899,1153
1940.1849930975404,1153
1942.1381330279637,1206
1944.0907939771696,1151
1946.0429762112412,1145
1947.9946799963363,1113
1949.9459055986945,1153
1951.896653284633,1175
1953.8469233205478,1168
1955.7967159729142,1122
1957.7460315082863,1127
1959.6948701932974,1124
1961.6432322946594,1155
1963.5911180791632,1167
1965.5385278136787,1148
1967.4854617651545,1167
1969.4319202006182,1106
1971.377903387176,1109
1973.3234115920136,1146
1975.268445082395,1160
1977.2130041256642,1134
1979.1570889892423,1144
1981.1006999406304,1128
1983.04383724741,1203
1984.986501177238,1134
1986.928691997853,1154
1988.8704099770712,1169
1990.811655382789,1088
1992.7524284829801,1166
1994.692729545698,1217
1996.6325588390755,1154
1998.5719166313224,1158
2000.5108031907307,1124
2002.4492187856677,1131
2004.387163684583,1120
2006.3246381560011,1098
2008.2616424685298,1107
2010.1981768908527,1134
2012.1342416917332,1072
2014.069837140014,1147
2016.0049635046162,1131
2017.9396210545406,1115
2019.8738100588666,1132
2021.8075307867502,1066
2023.740783507431,1165
2025.6735684902228,1130
2027.6058860045214,1158
2029.5377363198004,1107
2031.4691197056118,1129
2033.4000364315875,1143
2035.3304867674374,1137
2037.260470982952,1125
2039.189989347998,1171
2041.1190421325232,1117
2043.047629606554,1078
2044.9757520401945,1151
2046.9034097036288,1069
2048.8306028671195,1152
2050.7573318010086,1080
2052.683596775716,1123
2054.609398061742,1096
2056.5347359296647,1159
2058.4596106501403,1090
2060.384022493906,1131
2062.3079717317764,1167
2064.231458634646,1084
2066.1544834734873,1062
2068.077046519352,1075
2069.99914804337,1161
2071.9207883167524,1145
2073.8419676107865,1114
2075.7626861968406,1096
2077.6829443463607,1138
2079.6027423308715,1102
2081.522080421977,1093
2083.440958891362,1089
2085.359378010786,1082
2087.2773380520907,1090
2089.194839287196,1126
2091.111881988101,1099
2093.0284664268825,1123
2094.9445928756973,1105
2096.86026160678,1123
2098.775472892446,1138
2100.690227005088,1097
2102.604524217178,1127
2104.5183648012676,1122
2106.431749029985,1160
2108.34467717604,1109
2110.2571495122206,1080
2112.169166311393,1069
2114.080727846503,1055
2115.9918343905747,1116
2117.902486216711,1104
2119.8126835980956,1092
2121.722426807987,1108
2123.6317161197285,1090
2125.5405518067364,1103
2127.448934142509,1092
2129.356863400624,1156
2131.264339854737,1174
2133.1713637785815,1155
2135.077935445972,1115
2136.9840551308002,1113
2138.889723107037,1143
2140.7949396487334,1100
2142.699705030018,1071
2144.6040195250994,1096
2146.507883408264,1131
2148.4112969538774,1159
2150.3142604363848,1113
2152.2167741303097,1129
2154.1188383102535,1123
2156.0204532508997,1116
2157.9216192270064,1125
2159.822336513414,1151
2161.7226053850413,1136
2163.622426116884,1133
2165.5217989840185,1123
2167.4207242616,1168
2169.319202224862,1102
2171.2172331491165,1186
2173.1148173097563,1164
2175.0119549822507,1111
2176.90864644215,1137
2178.8048919650823,1184
2180.7006918267534,1197
2182.596046302952,1162
2184.4909556695407,1210
2186.3854202024645,1152
2188.279440177746,1156
2190.173015871487,1142
2192.066147559868,1135
2193.958835519149,1149
2195.851080025667,1196
2197.7428813558417,1181
2199.6342397861667,1203
2201.5251555932186,1131
2203.415629053651,1169
2205.3056604441986,1224
2207.19525004167,1180
2209.084398122958,1184
2210.9731049650327,1236
2212.861370844941,1198
2214.749196039812,1190
2216.636580826851,1204
2218.523525483344,1194
2220.410030286655,1240
2222.296095514226,1175
2224.1817214435805,1259
2226.066908352319,1207
2227.951656518121,1260
2229.835966218746,1234
2231.71983773203,1190
2233.6032713358913,1192
2235.486267308324,1206
2237.3688259274036,1140
2239.2509474712824,1158
2241.132632218193,1171
2243.013880446447,1273
2244.8946924344323,1189
2246.7750684606203,1204
2248.6550088035574,1174
2250.534513741871,1227
2252.413583554265,1223
2254.292218519526,1182
2256.170418916517,1172
2258.0481850241786,1204
2259.925517121534,1145
2261.8024154876825,1209
2263.678880401803,1199
2265.5549121431536,1237
2267.430510991071,1194
2269.305677224971,1217
2271.180411124348,1213
2273.0547129687766,1175
2274.9285830379076,1152
2276.8020216114737,1251
2278.6750289692845,1201
2280.5476053912294,1249
2282.4197511572766,1247
2284.2914665474727,1222
2286.162751841943,1230
2288.0336073208937,1221
2289.904033264608,1238
2291.774029953448,1219
2293.6435976678554,1210
2295.5127366883517,1225
2297.381447295534,1191
2299.2497297700825,1162
2301.1175843927526,1094
2302.9850114443825,1065
2304.852011205885,1132
2306.7185839582553,1067
2308.5847299825664,1087
2310.4504495599676,1011
2312.3157429716925,1043
2314.1806104990483,1044
2316.0450524234247,1064
2317.9090690262888,1063
2319.772660589186,1024
2321.635827393742,1039
2323.498569721661,1070
2325.3608878547248,1057
2327.2227820747967,1056
2329.0842526638157,1010
2330.945299903803,1041
2332.805924076857,1058
2334.6661254651535,1036
2336.525904350951,1032
2338.3852610165827,994
2340.244195744464,1062
2342.102708817088,1022
2343.9608005170253,1047
2345.8184711269287,1044
2347.675720929526,1017
2349.532550207628,1062
2351.38895924412,1022
2353.24494832197,1058
2355.100517724223,1051
2356.955667734004,1031
2358.810398634514,1063
2360.664710709037,993
2362.5186042409337,1068
2364.3720795136437,1058
2366.225136810686,1035
2368.0777764156583,1052
2369.929998612237,1073
2371.7818036841777,1096
2373.633191915315,1071
2375.484163589562,1075
2377.3347189909114,1051
2379.184858403434,1058
2381.03458211128,1088
2382.8838903986775,1039
2384.732783549936,1060
2386.5812618494406,1071
2388.4293255816588,1071
2390.2769750311327,1042
2392.1242104824883,1063
2393.971032220427,1095
2395.8174405297295,1010
2397.6634356952563,1029
2399.509018001947,1035
2401.3541877348193,1041
2403.1989451789705,1067
2405.043290619576,1046
2406.8872243418905,1094
2408.730746631247,1022
2410.5738577730594,1003
2412.4165580528183,1034
2414.258847756095,1027
2416.100727168537,1063
2417.9421965758734,1018
2419.783256263912,1067
2421.623906518538,1057
2423.4641476257157,1037
2425.303979871491,1042
2427.143403541984,1071
2428.9824189233977,1081
2430.821026302012,1095
2432.6592259641866,1079
2434.497018196361,1052
2436.33440328505,1025
2438.171381516851,1046
2440.00795317844,1035
2441.844118556569,1064
2443.6798779380724,1041
2445.5152316098606,1107
2447.3501798589255,1063
2449.1847229723357,1072
2451.0188612372403,1060
2452.8525949408663,1079
2454.6859243705203,1114
2456.518849813587,1045
2458.3513715575314,1058
2460.183489889895,1092
2462.015205098301,1099
2463.8465174704493,1081
2465.67742729412,1094
2467.5079348571717,1006
2469.338040447542,1090
2471.1677443532476,1111
2472.9970468623833,1089
2474.825948263123,1071
2476.6544488437207,1035
2478.482548892508,1046
2480.310248697896,1096
2482.137548548374,1051
2483.9644487325118,1101
2485.790949538956,1079
2487.617051256433,1025
2489.44275417375,1095
2491.26805857979,1028
2493.0929647635157,1058
2494.917473013971,1046
2496.741583620276,1101
2498.5652968716304,1094
2500.3886130573137,1114
2502.2115324666834,1120
2504.0340553891765,1139
2505.856182114308,1108
2507.6779129316733,1068
2509.499248130945,1104
2511.3201880018764,1093
2513.140732834298,1068
2514.9608829181198,1104
2516.780638543331,1075
2518.6,1100
2520.418967578273,1085
2522.237541568376,1082
2524.0557222606144,1093
2525.8735099453706,1048
2527.6909049131086,1109
2529.507907454368,1121
2531.32451785977,1099
2533.140736420014,1112
2534.9565634258774,1103
2536.771999168218,1178
2538.5870439379714,1100
2540.4016980261526,1140
2542.2159617238544,1125
2544.02983532225,1123
2545.8433191125914,1148
2547.656413386209,1151
2549.4691184345115,1193
2551.2814345489874,1179
2553.093362021204,1157
2554.904901142808,1253
2556.716052205523,1154
2558.526815501153,1237
2560.3371913215824,1235
2562.147179958771,1191
2563.956781704761,1203
2565.7659968516705,1219
2567.5748256916986,1178
2569.3832685171224,1237
2571.1913256202984,1227
2572.9989972936614,1170
2574.806283829725,1213
2576.613185521084,1275
2578.4197026604074,1228
2580.2258355404483,1257
2582.031584454035,1266
2583.836949694077,1232
2585.6419315535613,1265
2587.4465303255533,1208
2589.2507463032002,1263
2591.0545797797245,1202
2592.8580310484303,1247
2594.6611004026995,1270
2596.463788135992,1234
2598.266094541849,1239
2600.0680199138874,1259
2601.869564545807,1271
2603.670728731383,1259
2605.4715127644704,1214
2607.2719169390048,1178
2609.071941548998,1244
2610.8715868885433,1224
2612.670853251811,1210
2614.469740933052,1236
2616.268250226594,1221
2618.0663814268455,1252
2619.864134828292,1228
2621.6615107255006,1187
2623.458509413115,1177
2625.2551311858597,1213
2627.0513763385347,1203
2628.8472451660223,1192
2630.6427379632833,1205
2632.4378550253564,1204
2634.232596647359,1209
2636.026963124488,1195
2637.8209547520187,1175
2639.6145718253065,1142
2641.407814639785,1195
2643.200683490966,1179
2644.9931786744414,1181
2646.7853004858807,1177
2648.577049221034,1180
2650.3684251757277,1149
2652.1594286458712,1179
2653.9500599274484,1122
2655.740319316525,1134
2657.5302071092437,1109
2659.3197236018286,1115
2661.10886909058,1157
2662.8976438718782,1141
2664.686048242183,1132
2666.4740824980327,1138
2668.2617469360443,1067
2670.0490418529134,1086
2671.8359675454153,1107
2673.622524310403,1115
2675.408712444811,1130
2677.1945322456495,1071
2678.979984010009,1045
2680.76506803506,1115
2682.5497846180497,1081
2684.334134056306,1064
2686.1181166472343,1102
2687.9017326883213,1088
2689.6849824771293,1079
2691.4678663113013,1117
2693.2503844885596,1084
2695.032537306705,1083
2696.8143250636167,1094
2698.5957480572542,1101
2700.3768065856534,1042
2702.1575009469316,1101
2703.937831439283,1056
2705.717798360982,1071
2707.4974020103837,1059
2709.276642685917,1060
2711.055520686095,1076
2712.834036309506,1108
2714.612189854819,1091
2716.389981620782,1069
2718.1674119062204,1041
2719.944481010041,1045
2721.721189231226,1039
2723.4975368688415,1035
2725.273524222027,1032
2727.0491515900053,1081
2728.824419272075,1060
2730.5993275676146,996
2732.3738767760838,1044
2734.148067197016,1024
2735.921899130031,1049
2737.6953728748194,1039
2739.468488731156,990
2741.2412469988926,1040
2743.0136479779617,1063
2744.785691968372,1050
2746.5573792702116,1065
2748.3287101836504,1038
2750.099685008934,971
2751.870304046388,1042
2753.640567596418,1047
2755.4104759595057,1040
2757.1800294362156,1044
2758.949228327187,1057
2760.7180729331412,1060
2762.486563554877,1010
2764.254700493272,1104
2766.022484049284,1025
2767.789914523947,1085
2769.5569922183786,1068
2771.3237174337705,1003
2773.090090471394,1035
2774.8561116326036,990
2776.6217812188274,1031
2778.3870995315756,985
2780.1520668724356,993
2781.9166835430747,1035
2783.6809498452394,1056
2785.444866080754,1057
2787.2084325515225,966
2788.971649559527,1047
2790.73451740683,1035
2792.4970363955713,1074
2794.2592068279705,1046
2796.0210290063264,1030
2797.7825032330147,1019
2799.543629810493,1045
2801.304409041296,1023
2803.0648412280366,1032
2804.8249266734088,1014
2806.5846656801846,1085
2808.344058551212,1037
2810.1031055894246,1044
2811.8618070978273,1089
2813.6201633795085,1003
2815.378174737636,1074
2817.1358414754536,1043
2818.893163896285,1056
2820.6501423035334,1057
2822.4067770006814,986
2824.1630682912883,1022
2825.9190164789957,1061
2827.6746218675207,1055
2829.429884760661,1003
2831.184805462294,980
2832.9393842763743,1027
2834.693621506936,1015
2836.4475174580916,1056
2838.201072434034,1003
2839.954286739034,1047
2841.707160677441,1051
2843.459694553685,1032
2845.2118886722724,1058
2846.96374333779,1034
2848.7152588549034,1043
2850.4664355283567,1046
2852.217273662973,1017
2853.9677735636546,1018
2855.7179355353833,1009
2857.4677598832186,1022
2859.217246912299,1021
2860.9663969278427,1017
2862.715210235146,1009
2864.4636871395846,1046
2866.211827946614,1015
2867.9596329617652,990
2869.7071024906536,1035
2871.4542368389684,994
2873.20103631248,1028
2874.947501217038,1012
2876.6936318585695,961
2878.4394285430812,1034
2880.1848915766604,1013
2881.9300212654707,1070
2883.6748179157553,1064
2885.4192818338374,1067
2887.1634133261173,1041
2888.907212699077,1019
2890.6506802592744,1084
2892.393816313348,1054
2894.1366211680142,1022
2895.8790951300693,1054
2897.621238506388,1031
2899.363051603925,1071
2901.1045347297118,1042
2902.8456881908596,1019
2904.58651229456,1005
2906.327007348081,1047
2908.067173658772,1045
2909.8070115340597,1020
2911.5465212814497,1010
2913.285703208527,1075
2915.0245576229563,1043
2916.7630848324807,984
2918.5012851449196,1027
2920.2391588681758,1073
2921.976706310227,1024
2923.7139277791334,1061
2925.4508235830313,1008
2927.187394030137,1013
2928.923639428745,1007
2930.6595600872306,1009
2932.395156314046,1026
2934.1304284177218,1051
2935.8653767068713,1031
2937.6000014901815,1040
2939.3343030764227,1046
2941.068281774442,1049
2942.8019378931644,1016
2944.5352717415976,1037
2946.2682836288236,1033
2948.0009738640065,1075
2949.7333427563885,1028
2951.465390615289,1048
2953.1971177501086,1058
2954.9285244703265,1035
2956.6596110855,1013
2958.3903779052657,1008
2960.1208252393385,1033
2961.8509533975125,1029
2963.5807626896617,1031
2965.3102534257378,990
2967.0394259157715,958
2968.768280469873,1062
2970.496817398232,1059
2972.2250370111146,1012
2973.952939618869,1034
2975.6805255319196,996
2977.4077950607707,1025
2979.134748516006,1052
2980.861386208289,1057
2982.587708448359,1035
2984.313715547037,1001
2986.039407815222,1037
2987.764785563891,1059
2989.489849104102,1053
2991.2145987469908,1085
2992.9390348037705,1006
2994.6631575857346,986
2996.3869674042576,985
2998.1104645707887,1021
2999.83364939686,1041
3001.5565221940783,995
3003.2790832741334,973
3005.0013329487924,1028
3006.7232715298996,1016
3008.4448993293804,1025
3010.166216659239,1027
3011.887223831558,1006
3013.607921158498,1005
3015.3283089522993,954
3017.0483875252826,1001
3018.7681571898443,1065
3020.4876182584626,1056
3022.2067710436927,1059
3023.9256158581707,1032
3025.644153014609,1030
3027.362382825801,1034
3029.0803056046193,1039
3030.797921664012,1027
3032.5152313170106,985
3034.2322348767225,1062
3035.9489326563353,1041
3037.665324969115,1006
3039.3814121284063,1011
3041.097194447633,1007
3042.812672240299,993
3044.5278458199855,1000
3046.2427155003525,1011
3047.9572815951406,1028
3049.671544418167,1017
3051.38550428333,1061
3053.0991615046073,979
3054.812516396051,952
3056.5255692717974,1030
3058.2383204460575,1026
3059.9507702331257,1004
3061.662918947372,1047
3063.3747669032446,1037
3065.0863144152736,1000
3066.7975617980674,1040
3068.508509366309,1077
3070.219157434767,1004
3071.9295063182844,1023
3073.639556331785,979
3075.3493077902704,982
3077.058761008821,996
3078.7679163025964,997
3080.476773986837,981
3082.1853343768594,1014
3083.89359778806,984
3085.6015645359153,1033
3087.3092349359786,1010
3089.016609303884,958
3090.7236879553434,1063
3092.4304712061476,1027
3094.136959372166,1009
3095.843152769349,1041
3097.5490517137237,1022
3099.2546565213966,952
3100.959967508554,1031
3102.66498499146,1005
3104.3697092864577,965
3106.0741407099695,1004
3107.778279578498,1015
3109.482126208622,1003
3111.1856809170004,1038
3112.8889440203716,1040
3114.5919158355528,1052
3116.294596679439,1055
3117.996986869006,1014
3119.6990867213062,1024
3121.4008965534726,990
3123.102416682717,1023
3124.803647426329,1035
3126.5045891016784,1033
3128.205242026213,1016
3129.90560651746,994
3131.605682893025,1025
3133.3054714705922,1011
3135.0049725679282,1060
3136.7041865028714,1013
3138.4031135933465,1027
3140.101754157353,1031
3141.800108512971,1004
3143.498176978357,1040
3145.1959598717494,1042
3146.8934575114636,980
3148.5906702158954,1004
3150.2875983035183,1061
3151.9842420928853,993
3153.680601902627,1044
3155.376678051456,967
3157.07247085816,1026
3158.767980641609,1007
3160.463207720748,1030
3162.158152414606,1019
3163.8528150422862,993
3165.5471959229726,1003
3167.2412953759303,972
3168.9351137204976,1054
3170.628651276098,1051
3172.3219083622307,1010
3174.014885298474,1000
3175.707582404485,1037
3177.4000000000005,979
3179.092138404835,1017
3180.7839979388846,1023
3182.47557892212,1084
3184.166881674594,986
3185.8579065164386,996
3187.5486537678626,1054
3189.2391237491547,981
3190.9293167806827,1013
3192.6192331828934,1005
3194.3088732763117,1004
3195.998237381542,1011
3197.687325819268,997
3199.376138910251,1009
3201.064676975334,1033
3202.7529403354347,1050
3204.4409293115523,992
3206.1286442247647,997
3207.816085396229,1025
3209.5032531471825,997
3211.190147798936,998
3212.8767696728846,1036
3214.5631190905015,1045
3216.2491963733373,1051
3217.9350018430214,997
3219.6205358212637,981
3221.305798629851,986
3222.990790590651,1024
3224.6755120256103,1000
3226.359963256751,1013
3228.0441446061795,985
3229.7280563960758,1030
3231.411698948703,986
3233.0950725863995,1038
3234.778177631587,1046
3236.461014406761,1004
3238.1435832345005,1004
3239.8258844374595,1052
3241.507918338374,976
3243.1896852600576,954
3244.8711855254023,1032
3246.552419457381,1001
3248.233387379042,1021
3249.914089613516,999
3251.59452648401,1030
3253.274698313813,1021
3254.95460542629,1006
3256.6342481448855,997
3258.313626793125,999
3259.9927416946084,971
3261.6715931730196,982
3263.3501815521176,1005
3265.0285071557437,959
3266.706570307815,1005
3268.3843713323286,1017
3270.0619105533615,1035
3271.739188295068,994
3273.4162048816834,1045
3275.0929606375184,1030
3276.769455886966,989
3278.445690954498,1029
3280.1216661646613,1019
3281.797381842087,1021
3283.4728383114807,1023
3285.1480358976296,986
3286.8229749253996,993
3288.4976557197333,1005
3290.172078605655,964
3291.846243908266,1000
3293.5201519527463,943
3295.193803064357,999
3296.8671975684374,954
3298.5403357904024,978
3300.21321805575,1012
3301.8858446900567,999
3303.558216018975,966
3305.23033236824,985
3306.9021940636603,983
3308.57380143113,979
3310.2451547966184,1028
3311.916254486174,1001
3313.5871008259246,1044
3315.2576941420766,1071
3316.9280347609147,984
3318.5981230088046,1010
3320.2679592121895,964
3321.9375436975924,972
3323.606876791612,968
3325.27595882093,984
3326.944790112305,998
3328.6133709925753,1037
3330.2817017886573,968
3331.949782827547,1024
3333.617614436319,956
3335.2851969421245,1010
3336.952530672199,1001
3338.619615953853,963
3340.286453114475,997
3341.9530424815357,991
3343.619384382583,1016
3345.2854791452437,1022
3346.951327097224,1038
3348.6169285663073,1043
3350.2822838803577,1013
3351.947393367319,1028
3353.61225735521,989
3355.2768761721345,1006
3356.9412501462693,999
3358.605379605873,989
3360.2692648792827,980
3361.9329062949146,1007
3363.596304181263,946
