CollectionTime,7/11/2024 2:01:56 PM
ExposureUsed,3
CalibratedSpectrum
-962.7078968117929,434
-959.9714848408522,470
-957.2358232597828,459
-954.5009119013725,459
-951.7667505983302,479
-949.0333391832855,481
-946.3006774887896,478
-943.5687653473143,480
-940.837602591253,460
-938.1071890529199,483
-935.3775245645503,462
-932.6486089583007,503
-929.9204420662485,484
-927.1930237203925,473
-924.4663537526524,470
-921.7404319948689,473
-919.0152582788041,484
-916.2908324361409,519
-913.5671542984834,466
-910.8442236973568,461
-908.1220404642074,483
-905.4006044304027,490
-902.679915427231,455
-899.959973285902,466
-897.2407778375464,468
-894.5223289132158,449
-891.8046263438832,462
-889.0876699604426,478
-886.3714595937089,465
-883.6559950744183,464
-880.9412762332282,485
-878.2273029007168,473
-875.5140749073835,450
-872.8015920836489,434
-870.0898542598545,457
-867.3788612662631,428
-864.6686129330585,474
-861.9591090903457,478
-859.2503495681506,459
-856.5423341964203,457
-853.8350628050229,465
-851.1285352237478,452
-848.4227512823054,465
-845.7177108103272,430
-843.0134136373656,478
-840.3098595928943,473
-837.6070485063082,490
-834.9049802069229,491
-832.2036545239757,489
-829.5030712866244,486
-826.8032303239481,467
-824.1041314649472,480
-821.4057745385428,474
-818.7081593735775,485
-816.0112857988148,489
-813.3151536429393,478
-810.6197627345566,466
-807.9251129021936,485
-805.2312039742981,500
-802.5380357792392,498
-799.8456081453069,504
-797.1539209007124,497
-794.462973873588,505
-791.772766891987,506
-789.083299783884,504
-786.3945723771743,483
-783.7065844996748,492
-781.0193359791231,468
-778.3328266431781,480
-775.6470563194197,496
-772.9620248353489,490
-770.2777320183878,478
-767.5941776958798,474
-764.9113616950891,476
-762.2292838432011,502
-759.5479439673222,468
-756.8673418944801,471
-754.1874774516235,499
-751.5083504656222,490
-748.8299607632671,512
-746.15230817127,508
-743.475392516264,498
-740.7992136248035,507
-738.1237713233636,500
-735.4490654383407,525
-732.7750957960521,508
-730.1018622227365,516
-727.4293645445534,509
-724.7576025875837,513
-722.0865761778291,527
-719.4162851412126,526
-716.7467293035781,538
-714.0779084906909,520
-711.409822528237,509
-708.7424712418238,502
-706.0758544569796,530
-703.4099719991541,527
-700.7448236937178,531
-698.0804093659622,497
-695.4167288411002,542
-692.7537819442656,507
-690.0915685005134,539
-687.4300883348199,534
-684.7693412720819,521
-682.1093271371178,542
-679.4500457546669,557
-676.7914969493897,527
-674.1336805458676,551
-671.4765963686034,530
-668.8202442420206,534
-666.1646239904642,550
-663.5097354382001,537
-660.8555784094151,528
-658.2021527282176,534
-655.5494582186366,558
-652.8974947046223,532
-650.2462620100463,545
-647.5957599587009,561
-644.9459883742998,556
-642.2969470804776,569
-639.6486359007902,568
-637.0010546587141,567
-634.3542031776476,570
-631.7080812809096,547
-629.0626887917401,521
-626.4180255333008,553
-623.7740913286734,536
-621.1308860008619,567
-618.4884093727904,553
-615.8466612673046,558
-613.2056415071715,533
-610.5653499150785,578
-607.9257863136347,584
-605.28695052537,589
-602.6488423727357,574
-600.0114616781036,557
-597.3748082637674,551
-594.7388819519412,565
-592.1036825647604,594
-589.4692099242818,602
-586.8354638524829,578
-584.2024441712624,569
-581.5701507024403,558
-578.9385832677575,580
-576.3077416888759,583
-573.6776257873787,619
-571.0482353847704,565
-568.4195703024757,579
-565.7916303618415,553
-563.164415384135,598
-560.5379251905453,569
-557.9121596021815,592
-555.2871184400748,580
-552.6628015251767,618
-550.0392086783606,567
-547.4163397204204,578
-544.794194472071,604
-542.1727727539491,606
-539.5520743866118,620
-536.9320991905377,617
-534.3128469861261,636
-531.6943175936979,653
-529.0765108334947,658
-526.4594265256793,660
-523.8430644903358,752
-521.2274245474689,823
-518.612506517005,906
-515.9983102187913,901
-513.3848354725959,892
-510.77208209810846,995
-508.16004991493924,1016
-505.5487387426199,1127
-502.9381484006032,1236
-500.3282787082628,1188
-497.71912948489364,1069
-495.1107005497117,1040
-492.5029917218539,888
-489.8960028203786,777
-487.28973366426493,774
-484.68418407241325,734
-482.07935386364494,707
-479.47524285670266,682
-476.87185087025,721
-474.2691777228715,731
-471.66722323307334,708
-469.0659872192821,711
-466.4654694998459,687
-463.86566989303384,706
-461.26658821703614,739
-458.66822428996414,699
-456.07057792985,713
-453.4736489546475,711
-450.877437182231,707
-448.28194243039627,663
-445.68716451686,683
-443.09310325926003,691
-440.49975847515555,703
-437.9071299820263,710
-435.31521759727354,727
-432.72402113821954,727
-430.13354042210767,725
-427.5437752661022,718
-424.95472548728867,721
-422.36639090267386,732
-419.7787713291855,780
-417.1918665836721,790
-414.60567648290385,801
-412.0202008435715,756
-409.4354394822874,784
-406.8513922155845,809
-404.26805885991723,796
-401.685439231661,809
-399.103533147112,759
-396.522340422488,753
-393.9418608739278,765
-391.3620943174908,730
-388.7830405691583,724
-386.2046994448317,699
-383.6270707603344,699
-381.05015433141045,665
-378.473949973725,642
-375.8984575028645,625
-373.32367673433623,545
-370.74960748356875,563
-368.1762495659117,567
-365.60360279663576,525
-363.03166699093265,496
-360.4604419639154,438
-357.8899275306178,439
-355.32012350599507,435
-352.7510297049233,443
-350.1826459421999,433
-347.61497203254316,404
-345.04800779059235,435
-342.4817530309082,394
-339.91620756797226,405
-337.35137121618743,413
-334.7872437898774,427
-332.22382510328725,442
-329.66111497058273,435
-327.09911320585127,409
-324.53781962310075,436
-321.9772340362607,445
-319.4173562591816,430
-316.8581861056348,423
-314.2997233893127,423
-311.7419679238294,434
-309.1849195227194,429
-306.62857799943856,414
-304.0729431673641,472
-301.51801483979375,481
-298.963792829947,513
-296.41027695096386,505
-293.85746701590574,471
-291.3053628377552,471
-288.7539642294155,469
-286.2032710037115,476
-283.65328297338897,452
-281.1039999511146,438
-278.5554217494762,480
-276.007548180983,486
-273.4603790580651,509
-270.9139141930734,470
-268.3681533982807,490
-265.8230964858798,480
-263.27874326798565,488
-260.7350935566336,535
-258.1921471637804,539
-255.6499039013039,545
-253.10836358100266,532
-250.56752601459698,499
-248.02739101372765,509
-245.48795838995704,491
-242.94922795476816,507
-240.41119951956557,508
-237.8738728956746,533
-235.33724789434166,536
-232.80132432673452,488
-230.2661020039418,473
-227.73158073697357,540
-225.19776033676033,528
-222.66464061415422,536
-220.1322213799284,530
-217.60050244477725,535
-215.06948361931552,507
-212.53916471408013,549
-210.00954553952818,618
-207.48062590603843,563
-204.9524056239104,536
-202.4248845033651,570
-199.8980623545441,563
-197.37193898751036,599
-194.84651421224817,567
-192.32178783866232,614
-189.79775967657952,639
-187.27442953574644,672
-184.7517972258321,622
-182.2298625564256,607
-179.7086253370378,609
-177.18808537710026,609
-174.66824248596583,631
-172.14909647290835,628
-169.6306471471229,684
-167.11289431772548,722
-164.59583779375328,649
-162.07947738416453,594
-159.5638128978386,686
-157.04884414357605,702
-154.53457093009854,696
-152.02099306604828,708
-149.50811035998936,702
-146.99592262040665,703
-144.48442965570587,791
-141.97363127421409,752
-139.46352728417958,774
-136.95411749377126,785
-134.44540171107985,756
-131.93737974411636,695
-129.43005140081357,725
-126.92341648902493,870
-124.41747481652521,1034
-121.91222619101006,1279
-119.40767042009657,1473
-116.90380731132257,1570
-114.40063667214702,1480
-111.8981583099503,1388
-109.3963720320337,1160
-106.89527764561933,1056
-104.39487495785067,1119
-101.89516377579241,1566
-99.39614390642998,1954
-96.89781515667039,2212
-94.40017733334128,1924
-91.90323024319173,1686
-89.40697369289148,1751
-86.91140748903172,2659
-84.41653143812482,3172
-81.92234534660395,2486
-79.42884902082358,1993
-76.93604226705907,2782
-74.4439248915071,5320
-71.95249670028534,8110
-69.46175749943245,10387
-66.97170709490854,10645
-64.48234529259423,8867
-61.99367189829195,7594
-59.50568671772464,7139
-57.01838955653636,6784
-54.53178022029283,6452
-52.045858514480074,6931
-49.560624244506016,7840
-47.07607721569923,7835
-44.59221723330904,7388
-42.10904410250669,6713
-39.62655762838392,6583
-37.14475761595372,6685
-34.66364387015028,8464
-32.18321619582866,10543
-29.70347439776515,11436
-27.224418280657005,11930
-24.74604764912317,11464
-22.26836230770266,12204
-19.7913620608565,16127
-17.315046712966478,24812
-14.83941606833514,32217
-12.36446993118659,40983
-9.89020810566592,65039
-7.416630395839093,65039
-4.94373660569363,65039
-2.471526539137585,65039
-6.821210263296962E-13,65039
2.47084320796705,65039
4.941003281093458,65039
7.410480415786196,65039
9.879274808531363,65039
12.347386655893956,65039
14.814816154518212,65039
17.28156350112681,65039
19.74762889252179,65039
22.21301252558385,65039
24.67771459727237,19468
27.141735304626195,3828
29.605074844762612,2115
32.06773341487792,1755
34.52971121224755,1814
36.99100843422559,1801
39.45162527824516,1727
41.91156194181792,1579
44.370818622535126,1390
46.82939551806646,1057
49.287292826160524,1076
51.74451074464503,1239
54.201049471426245,1374
56.65690920448981,1340
59.112090141899785,1046
61.56659248179983,1025
64.02041642241159,1019
66.4735621620365,909
68.92602989905402,984
71.37781983192338,1073
73.82893215918205,1182
76.27936707944684,1176
78.72912479141326,971
81.17820549385567,898
83.62660938562783,999
86.07433666566146,1054
88.5213875329681,882
90.96776218663751,837
93.41346082583925,790
95.85848364982041,778
98.30283085790859,816
100.7465026495089,831
103.18949922410604,872
105.63182078126385,816
108.07346752062438,874
110.51443964190923,805
112.95473734491827,783
115.39436082953114,756
117.83331029570547,774
120.27158594347827,788
122.7091879729652,730
125.1461165843615,885
127.58237197794062,865
130.01795435405518,816
132.4528639131364,829
134.88710085569494,900
137.32066538231982,817
139.75355769367923,787
142.1857779905207,768
144.61732647366978,707
147.04820334403132,673
149.47840880258934,704
151.90794305040674,769
154.33680628862487,883
156.76499871846443,896
159.19252054122433,1059
161.61937195828352,1133
164.04555317109896,1193
166.47106438120693,1239
168.89590579022217,1376
171.320077599839,1467
173.7435800118302,1523
176.16641322804742,1654
178.58857745042144,1616
181.01007288096173,1734
183.43089972175687,1754
185.85105817497413,1751
188.27054844285988,1784
190.6893707277394,1788
193.10752523201643,1773
195.5250121581745,1776
197.9418317087751,1899
200.3579840864594,1948
202.7734694939469,1929
205.18828813403627,1908
207.6024402096051,2055
210.01592592360964,2044
212.42874547908548,2071
214.84089907914665,1991
217.2523869269868,1953
219.66320922587727,1930
222.0733661791695,1945
224.48285799029293,1911
226.8916848627572,2020
229.29984700014882,2047
231.7073446061355,1978
234.11417788446204,2028
236.520347038953,2039
238.92585227351185,2082
241.33069379212054,2086
243.73487179884035,2077
246.1383864978112,2207
248.541238093252,2071
250.9434267894609,2149
253.34495279081432,2188
255.74581630176783,2179
258.1460175268563,2231
260.54555667069314,2248
262.9444339379703,2281
265.3426495334594,2216
267.7402036620107,2120
270.1370965285529,2075
272.53332833809407,2014
274.9288992957214,2009
277.32380960660055,1908
279.718059475976,1907
282.1116491091717,1896
284.5045787115897,1927
286.89684848871195,1948
289.2884586460981,1904
291.67940938938807,1963
294.0697009242996,1929
296.4593334566299,1923
298.84830719225477,1895
301.23662233712923,1877
303.6242790972866,1883
306.01127767884,1925
308.39761828798066,1878
310.78330113097934,1875
313.16832641418534,1862
315.5526943440269,1740
317.9364051270112,1760
320.3194589697242,1807
322.70185607883093,1804
325.0835966610754,1713
327.4646809232805,1716
329.8451090723478,1672
332.2248813152577,1717
334.6039978590701,1740
336.9824589109231,1703
339.36026467803447,1705
341.7374153677,1651
344.113911187295,1629
346.48975234427337,1643
348.8649390461686,1610
351.2394715005918,1635
353.61334991523415,1680
355.9865744978655,1685
358.35914545633375,1699
360.73106299856715,1623
363.10232733257146,1610
365.47293866643247,1623
367.84289720831396,1586
370.2122031664593,1594
372.5808567491905,1576
374.9488581649083,1564
377.31620762209275,1536
379.6829053293021,1576
382.0489514951745,1579
384.4143463284262,1510
386.7790900378528,1556
389.14318283232853,1572
391.50662492080653,1518
393.86941651231916,1482
396.23155781597745,1558
398.5930490409713,1585
400.9538903965696,1576
403.3140820921202,1514
405.6736243370498,1466
408.03251734086336,1546
410.3907613131465,1562
412.74835646356166,1564
415.10530300185144,1566
417.4616011378372,1559
419.81725108141893,1473
422.1722530425758,1521
424.5266072313656,1486
426.880313857925,1550
429.2333731324701,1492
431.58578526529516,1472
433.9375504667738,1454
436.2886689473588,1451
438.63914091758113,1440
440.9889665880513,1454
443.33814616945835,1443
445.68667987257015,1393
448.03456790823395,1495
450.3818104873759,1413
452.72840782100013,1442
455.07436012019105,1465
457.41966759611057,1462
459.7643304600007,1458
462.10834892318155,1439
464.4517231970525,1498
466.79445349309174,1429
469.1365400228566,1473
471.4779829979826,1424
473.81878263018564,1479
476.15893913125876,1499
478.4984527130747,1472
480.8373235875855,1517
483.17555196682144,1556
485.5131380628919,1535
487.8500820879857,1524
490.1863842543697,1597
492.52204477439034,1715
494.8570638604725,1759
497.1914417251204,1903
499.52517858091653,2194
501.85827464052306,2379
504.19073011668036,2571
506.5225452222086,2599
508.85372017000566,2628
511.18425517304956,2583
513.514150444396,2608
515.8434061971808,3014
518.1720226446176,3574
520.4999999999999,3681
522.8273384766991,3431
525.1540382881666,3261
527.480099647932,2908
529.8055227696037,2355
532.1303078668694,1990
534.454455153496,1699
536.777964843328,1605
539.1008371502907,1507
541.4230722883866,1521
543.744670471698,1487
546.0656319143858,1534
548.3859568306899,1530
550.7056454349294,1520
553.0246979415016,1442
555.3431145648834,1434
557.6608955196306,1481
559.978041020377,1509
562.2945512818363,1435
564.6104265188006,1484
566.9256669461412,1525
569.2402727788082,1496
571.5542442318302,1476
573.8675815203156,1493
576.1802848594508,1463
578.4923544645015,1502
580.8037905508126,1552
583.114593333807,1541
585.4247630289875,1459
587.7342998519354,1554
590.0432040183106,1547
592.3514757438526,1534
594.6591152443794,1518
596.9661227357875,1494
599.2724984340531,1597
601.578242555231,1571
603.8833553154542,1567
606.1878369309362,1554
608.4916876179676,1541
610.7949075929192,1512
613.0974970722403,1531
615.3994562724587,1589
617.7007854101818,1519
620.0014847020951,1606
622.3015543649641,1478
624.6009946156324,1490
626.8998056710224,1466
629.1979877481361,1569
631.4955410640538,1552
633.7924658359349,1470
636.0887622810175,1538
638.3844306166192,1531
640.6794710601358,1525
642.9738838290426,1513
645.2676691408932,1551
647.5608272133207,1510
649.853358264037,1577
652.1452625108324,1602
654.4365401715764,1544
656.7271914642178,1562
659.0172166067838,1584
661.3066158173809,1527
663.5953893141935,1519
665.8835373154867,1504
668.1710600396028,1511
670.4579577049639,1572
672.7442305300709,1608
675.0298787335033,1541
677.3149025339197,1524
679.599302150058,1554
681.8830778007342,1530
684.1662297048437,1507
686.4487580813608,1572
688.7306631493387,1482
691.0119451279091,1592
693.2926042362834,1570
695.5726406937516,1582
697.8520547196814,1552
700.1308465335215,1502
702.4090163547982,1512
704.6865644031171,1517
706.9634908981619,1532
709.2397960596965,1514
711.5154801075631,1537
713.7905432616823,1539
716.0649857420548,1505
718.3388077687592,1529
720.612009561953,1612
722.8845913418733,1512
725.1565533288352,1578
727.427895743234,1526
729.6986188055427,1556
731.9687227363137,1459
734.238207756178,1474
736.5070740858458,1601
738.7753219461066,1508
741.0429515578281,1547
743.3099631419569,1488
745.5763569195191,1522
747.8421331116193,1513
750.1072919394409,1533
752.3718336242467,1511
754.6357583873777,1527
756.8990664502545,1547
759.1617580343765,1473
761.423833361321,1531
763.6852926527457,1537
765.9461361303862,1551
768.206364016058,1612
770.4659765316536,1555
772.7249738991469,1573
774.9833563405886,1565
777.2411240781092,1590
779.4982773339183,1514
781.7548163303044,1537
784.010741289634,1553
786.2660524343538,1565
788.5207499869881,1573
790.7748341701416,1606
793.0283052064964,1585
795.2811633188143,1639
797.5334087299362,1577
799.7850416627813,1539
802.0360623403484,1525
804.2864709857143,1552
806.5362678220353,1596
808.7854530725468,1569
811.0340269605625,1571
813.2819897094754,1535
815.5293415427581,1574
817.77608268396,1597
820.0222133567116,1648
822.2677337847211,1608
824.5126441917765,1539
826.7569448017433,1604
829.0006358385675,1622
831.2437175262731,1575
833.4861900889629,1577
835.7280537508192,1621
837.9693087361026,1546
840.2099552691533,1601
842.4499935743896,1532
844.689423876309,1552
846.9282463994886,1508
849.1664613685833,1598
851.4040690083276,1510
853.6410695435349,1596
855.877463199097,1552
858.1132501999847,1559
860.3484307712487,1544
862.5830051380175,1568
864.8169735254988,1581
867.0503361589791,1574
869.2830932638243,1570
871.5152450654786,1527
873.7467917894654,1555
875.9777336613873,1634
878.2080709069252,1628
880.4378037518389,1592
882.666932421968,1564
884.8954571432301,1592
887.1233781416219,1548
889.3506956432192,1602
891.5774098741766,1615
893.803521060728,1515
896.0290294291852,1531
898.2539352059397,1553
900.4782386174619,1601
902.7019398903011,1603
904.925039251085,1547
907.147536926521,1589
909.3694331433943,1552
911.59072812857,1616
913.8114221089921,1542
916.0315153116827,1588
918.2510079637437,1531
920.4699002923547,1514
922.6881925247761,1485
924.905884888345,1550
927.1229776104793,1564
929.3394709186747,1537
931.555365040506,1538
933.7706602036275,1583
935.9853566357709,1518
938.1994545647489,1573
940.4129542184515,1566
942.6258558248488,1564
944.8381596119883,1498
947.0498658079974,1570
949.2609746410825,1488
951.4714863395287,1535
953.6814011316998,1593
955.8907192460387,1540
958.0994409110671,1545
960.3075663553858,1563
962.5150958076741,1516
964.7220294966913,1481
966.928367651274,1501
969.1341105003388,1493
971.3392582728806,1485
973.5438111979742,1511
975.747769504772,1475
977.9511334225061,1498
980.153903180487,1481
982.3560790081052,1437
984.5576611348289,1481
986.7586497902058,1436
988.9590452038618,1474
991.158847605503,1414
993.3580572249133,1466
995.5566742919558,1404
997.7546990365728,1349
999.952131688785,1418
1002.1489724786926,1306
1004.3452216364743,1365
1006.5408793923874,1335
1008.7359459767691,1325
1010.9304216200343,1320
1013.1243065526781,1323
1015.3176010052733,1380
1017.510305208472,1341
1019.7024193930064,1295
1021.8939437896848,1290
1024.0848786293977,1358
1026.2752241431122,1311
1028.4649805618747,1298
1030.6541481168115,1329
1032.842727039127,1302
1035.0307175601051,1302
1037.2181199111074,1264
1039.4049343235752,1301
1041.591161029029,1256
1043.7768002590683,1235
1045.9618522453698,1267
1048.1463172196918,1223
1050.3301954138697,1281
1052.513487059818,1258
1054.69619238953,1286
1056.8783116350783,1219
1059.0598450286152,1235
1061.2407928023704,1245
1063.4211551886528,1258
1065.6009324198508,1187
1067.780124728432,1259
1069.9587323469414,1230
1072.1367555080046,1256
1074.314194444325,1232
1076.4910493886855,1175
1078.667320573947,1232
1080.843008233051,1214
1083.0181125990161,1173
1085.1926339049414,1247
1087.3665723840027,1189
1089.5399282694575,1240
1091.7127017946405,1173
1093.8848931929647,1213
1096.0565026979243,1230
1098.2275305430899,1224
1100.3979769621128,1218
1102.567842188722,1207
1104.737126456726,1197
1106.9058300000124,1183
1109.0739530525475,1187
1111.2414958483764,1197
1113.4084586216231,1183
1115.5748416064907,1165
1117.7406450372605,1169
1119.9058691482942,1194
1122.0705141740304,1204
1124.2345803489884,1162
1126.3980679077658,1145
1128.5609770850388,1160
1130.7233081155623,1158
1132.8850612341707,1193
1135.0462366757774,1170
1137.2068346753745,1238
1139.3668554680326,1215
1141.526299288901,1199
1143.68516637321,1123
1145.8434569562655,1191
1148.001171273455,1123
1150.158309560244,1175
1152.3148720521767,1129
1154.470858984876,1180
1156.626270594044,1136
1158.7811071154629,1127
1160.9353687849912,1173
1163.089055838569,1191
1165.242168512213,1107
1167.3947070420209,1156
1169.5466716641677,1164
1171.6980626149075,1160
1173.8488801305748,1133
1175.9991244475814,1155
1178.1487958024186,1134
1180.2978944316555,1135
1182.4464205719428,1187
1184.5943744600072,1157
1186.7417563326567,1144
1188.8885664267755,1169
1191.0348049793297,1122
1193.1804722273619,1140
1195.325568407995,1153
1197.4700937584303,1179
1199.614048515948,1115
1201.7574329179074,1130
1203.900247201746,1145
1206.042491604982,1171
1208.1841663652099,1147
1210.3252717201053,1162
1212.465807907422,1138
1214.6057751649923,1175
1216.7451737307279,1194
1218.8840038426192,1137
1221.0222657387353,1161
1223.1599596572241,1208
1225.2970858363137,1173
1227.4336445143094,1238
1229.5696359295966,1152
1231.705060320639,1189
1233.8399179259786,1208
1235.9742089842384,1166
1238.107933734118,1154
1240.2410924143974,1218
1242.373685263935,1153
1244.5057125216676,1193
1246.6371744266116,1134
1248.7680712178621,1219
1250.898403134593,1170
1253.028170416058,1219
1255.1573733015875,1181
1257.2860120305932,1176
1259.4140868425648,1187
1261.54159797707,1208
1263.6685456737569,1226
1265.7949301723515,1177
1267.9207517126597,1152
1270.046010534565,1237
1272.1707068780306,1240
1274.2948409830983,1235
1276.4184130898889,1223
1278.541423438603,1247
1280.6638722695184,1224
1282.785759822993,1228
1284.9070863394636,1252
1287.0278520594447,1224
1289.1480572235314,1281
1291.2677020723963,1250
1293.3867868467923,1228
1295.5053117875495,1263
1297.623277135579,1263
1299.740683131868,1262
1301.8575300174857,1304
1303.973818033578,1289
1306.0895474213703,1286
1308.2047184221678,1339
1310.3193312773528,1276
1312.4333862283888,1311
1314.5468835168163,1354
1316.659823384255,1286
1318.7722060724045,1355
1320.8840318230418,1285
1322.9953008780249,1351
1325.1060134792888,1348
1327.2161698688478,1332
1329.3257702887959,1324
1331.4348149813054,1371
1333.5433041886276,1313
1335.6512381530933,1303
1337.7586171171101,1392
1339.8654413231675,1275
1341.9717110138317,1296
1344.0774264317488,1319
1346.1825878196432,1285
1348.2871954203192,1327
1350.3912494766587,1325
1352.4947502316231,1344
1354.5976979282532,1257
1356.7000928096686,1279
1358.8019351190665,1269
1360.9032250997243,1274
1363.0039629949988,1265
1365.1041490483235,1248
1367.2037835032133,1247
1369.3028666032606,1277
1371.401398592137,1311
1373.4993797135926,1279
1375.5968102114575,1309
1377.6936903296396,1285
1379.7900203121262,1235
1381.8858004029835,1272
1383.9810308463561,1256
1386.075711886469,1290
1388.1698437676241,1283
1390.2634267342032,1236
1392.356461030667,1258
1394.4489469015557,1296
1396.5408845914872,1275
1398.6322743451592,1317
1400.7231164073469,1290
1402.813411022907,1323
1404.903158436773,1317
1406.9923588939578,1330
1409.0810126395531,1261
1411.1691199187303,1330
1413.2566809767386,1299
1415.343696058907,1328
1417.4301654106425,1373
1419.5160892774315,1304
1421.6014679048399,1383
1423.6863015385125,1326
1425.7705904241707,1367
1427.8543348076178,1280
1429.9375349347342,1343
1432.0201910514802,1387
1434.102303403894,1328
1436.1838722380944,1386
1438.2648978002767,1346
1440.3453803367174,1389
1442.4253200937692,1354
1444.5047173178677,1452
1446.5835722555234,1415
1448.6618851533285,1399
1450.739656257952,1399
1452.8168858161434,1390
1454.8935740747306,1459
1456.96972128062,1423
1459.045327680797,1444
1461.120393522327,1503
1463.1949190523528,1503
1465.2689045180973,1497
1467.3423501668608,1522
1469.415256246024,1479
1471.4876230030463,1541
1473.559450685465,1572
1475.6307395408976,1563
1477.7014898170391,1588
1479.771701761665,1554
1481.8413756226287,1627
1483.9105116478618,1566
1485.9791100853772,1660
1488.0471711832643,1615
1490.1146951896926,1579
1492.1816823529098,1665
1494.2481329212433,1657
1496.3140471430984,1661
1498.3794252669609,1676
1500.4442675413939,1729
1502.5085742150404,1713
1504.572345536622,1664
1506.6355817549388,1648
1508.6982831188702,1715
1510.7604498773744,1776
1512.8220822794883,1738
1514.8831805743293,1734
1516.9437450110909,1672
1519.003775839048,1728
1521.0632733075522,1771
1523.1222376660367,1820
1525.1806691640113,1744
1527.2385680510652,1788
1529.2959345768668,1797
1531.3527689911643,1811
1533.4090715437833,1755
1535.4648424846291,1834
1537.5200820636855,1843
1539.5747905310159,1840
1541.6289681367616,1888
1543.6826151311434,1836
1545.7357317644614,1912
1547.7883182870937,1973
1549.8403749494987,1964
1551.8919020022113,2000
1553.9428996958477,2006
1555.9933682811015,2020
1558.0433080087469,1990
1560.0927191296346,2070
1562.1416018946961,2077
1564.1899565549415,2170
1566.2377833614592,2160
1568.2850825654164,2192
1570.3318544180606,2187
1572.3780991707158,2071
1574.423817074788,2095
1576.4690083817595,1987
1578.5136733431923,2030
1580.5578122107272,1927
1582.601425236085,1853
1584.6445126710646,1829
1586.6870747675434,1790
1588.7291117774776,1737
1590.7706239529034,1689
1592.8116115459347,1648
1594.8520748087658,1601
1596.8920139936686,1617
1598.9314293529933,1553
1600.9703211391711,1509
1603.008689604711,1521
1605.0465350022005,1533
1607.0838575843068,1495
1609.1206576037753,1395
1611.1569353134305,1417
1613.1926909661765,1387
1615.2279248149953,1352
1617.2626371129481,1373
1619.2968281131757,1317
1621.3304980688963,1299
1623.3636472334088,1291
1625.39627586009,1321
1627.428384202396,1344
1629.459972513861,1248
1631.4910410480993,1241
1633.5215900588028,1261
1635.551619799744,1263
1637.5811305247717,1299
1639.6101224878166,1271
1641.6385959428862,1174
1643.6665511440683,1198
1645.693988345528,1254
1647.7209078015112,1203
1649.7473097663405,1202
1651.7731944944203,1235
1653.7985622402307,1238
1655.823413258333,1187
1657.847747803366,1232
1659.8715661300494,1263
1661.8948684931793,1205
1663.9176551476316,1191
1665.9399263483624,1226
1667.9616823504057,1191
1669.982923408873,1201
1672.0036497789574,1214
1674.0238617159293,1170
1676.043559475138,1177
1678.0627433120121,1208
1680.081413482059,1240
1682.0995702408654,1214
1684.117213844096,1236
1686.134344547495,1244
1688.1509626068864,1203
1690.1670682781705,1210
1692.182661817329,1161
1694.1977434804217,1136
1696.2123135235875,1202
1698.226372203043,1219
1700.2399197750851,1166
1702.2529564960905,1186
1704.2654826225112,1191
1706.277498410882,1159
1708.2890041178139,1182
1710.2999999999988,1176
1712.3104863142066,1144
1714.3204633172854,1126
1716.329931266163,1231
1718.3388904178469,1173
1720.3473410294214,1208
1722.3552833580516,1169
1724.3627176609807,1187
1726.3696441955308,1170
1728.3760632191033,1136
1730.3819749891782,1142
1732.3873797633146,1196
1734.3922777991502,1210
1736.3966693544012,1115
1738.4005546868639,1145
1740.4039340544127,1145
1742.406807715001,1117
1744.4091759266616,1173
1746.4110389475054,1155
1748.4123970357223,1156
1750.413250449582,1139
1752.4135994474318,1186
1754.4134442876993,1156
1756.4127852288902,1130
1758.4116225295893,1107
1760.4099564484595,1131
1762.407787244244,1158
1764.405115175764,1108
1766.4019405019203,1191
1768.3982634816916,1134
1770.3940843741357,1158
1772.3894034383907,1110
1774.3842209336717,1051
1776.378537119274,1117
1778.372352254571,1109
1780.3656665990156,1096
1782.3584804121397,1126
1784.3507939535534,1119
1786.3426074829463,1076
1788.3339212600863,1213
1790.3247355448211,1115
1792.3150505970766,1126
1794.3048666768573,1125
1796.2941840442477,1184
1798.2830029594106,1122
1800.2713236825884,1129
1802.2591464741004,1033
1804.2464715943465,1154
1806.2332993038058,1097
1808.2196298630352,1099
1810.2054635326708,1083
1812.190800573428,1134
1814.175641246101,1176
1816.1599858115628,1164
1818.1438345307652,1127
1820.127187664738,1145
1822.1100454745924,1109
1824.092408221516,1101
1826.0742761667766,1122
1828.055649571721,1113
1830.0365286977735,1124
1832.0169138064398,1131
1833.9968051593014,1153
1835.9762030180214,1095
1837.9551076443408,1165
1839.9335193000788,1142
1841.9114382471344,1124
1843.888864747485,1107
1845.8657990631878,1141
1847.842241456378,1133
1849.8181921892697,1075
1851.7936515241558,1091
1853.7686197234098,1104
1855.7430970494815,1124
1857.7170837649014,1116
1859.6905801322787,1171
1861.6635864143004,1131
1863.6361028737338,1119
1865.608129773424,1167
1867.5796673762961,1123
1869.5507159453537,1107
1871.521275743678,1200
1873.4913470344313,1141
1875.4609300808534,1154
1877.4300251462632,1147
1879.3986324940588,1142
1881.366752387717,1112
1883.3343850907936,1187
1885.3015308669228,1150
1887.268189979819,1175
1889.2343626932739,1152
1891.2000492711595,1143
1893.1652499774254,1192
1895.1299650761011,1155
1897.0941948312952,1191
1899.0579395071945,1116
1901.0211993680641,1127
1902.98397467825,1170
1904.9462657021745,1185
1906.9080727043415,1158
1908.869395949332,1218
1910.8302357018065,1193
1912.790592226504,1208
1914.7504657882428,1164
1916.7098566519212,1180
1918.6687650825133,1197
1920.6271913450764,1164
1922.5851357047422,1129
1924.5425984267245,1171
1926.499579776314,1225
1928.4560800188833,1135
1930.4120994198802,1139
1932.367638244833,1187
1934.32269675935,1170
1936.2772752291175,1133
1938.231373919899,1182
1940.1849930975404,1157
1942.1381330279637,1136
1944.0907939771696,1157
1946.0429762112412,1174
1947.9946799963363,1167
1949.9459055986945,1163
1951.896653284633,1172
1953.8469233205478,1135
1955.7967159729142,1143
1957.7460315082863,1164
1959.6948701932974,1133
1961.6432322946594,1171
1963.5911180791632,1121
1965.5385278136787,1160
1967.4854617651545,1135
1969.4319202006182,1155
1971.377903387176,1198
1973.3234115920136,1154
1975.268445082395,1131
1977.2130041256642,1126
1979.1570889892423,1127
1981.1006999406304,1175
1983.04383724741,1100
1984.986501177238,1162
1986.928691997853,1074
1988.8704099770712,1160
1990.811655382789,1103
1992.7524284829801,1120
1994.692729545698,1120
1996.6325588390755,1155
1998.5719166313224,1091
2000.5108031907307,1139
2002.4492187856677,1077
2004.387163684583,1115
2006.3246381560011,1095
2008.2616424685298,1204
2010.1981768908527,1144
2012.1342416917332,1135
2014.069837140014,1127
2016.0049635046162,1166
2017.9396210545406,1108
2019.8738100588666,1103
2021.8075307867502,1064
2023.740783507431,1117
2025.6735684902228,1103
2027.6058860045214,1107
2029.5377363198004,1120
2031.4691197056118,1094
2033.4000364315875,1109
2035.3304867674374,1081
2037.260470982952,1108
2039.189989347998,1146
2041.1190421325232,1100
2043.047629606554,1067
2044.9757520401945,1143
2046.9034097036288,1129
2048.8306028671195,1115
2050.7573318010086,1067
2052.683596775716,1103
2054.609398061742,1090
2056.5347359296647,1139
2058.4596106501403,1097
2060.384022493906,1095
2062.3079717317764,1110
2064.231458634646,1071
2066.1544834734873,1061
2068.077046519352,1100
2069.99914804337,1173
2071.9207883167524,1150
2073.8419676107865,1081
2075.7626861968406,1109
2077.6829443463607,1102
2079.6027423308715,1111
2081.522080421977,1107
2083.440958891362,1100
2085.359378010786,1041
2087.2773380520907,1082
2089.194839287196,1119
2091.111881988101,1110
2093.0284664268825,1050
2094.9445928756973,1093
2096.86026160678,1086
2098.775472892446,1156
2100.690227005088,1126
2102.604524217178,1143
2104.5183648012676,1090
2106.431749029985,1105
2108.34467717604,1087
2110.2571495122206,1095
2112.169166311393,1113
2114.080727846503,1075
2115.9918343905747,1104
2117.902486216711,1095
2119.8126835980956,1109
2121.722426807987,1076
2123.6317161197285,1111
2125.5405518067364,1105
2127.448934142509,1126
2129.356863400624,1132
2131.264339854737,1124
2133.1713637785815,1162
2135.077935445972,1149
2136.9840551308002,1142
2138.889723107037,1108
2140.7949396487334,1086
2142.699705030018,1161
2144.6040195250994,1145
2146.507883408264,1131
2148.4112969538774,1113
2150.3142604363848,1143
2152.2167741303097,1150
2154.1188383102535,1109
2156.0204532508997,1205
2157.9216192270064,1120
2159.822336513414,1164
2161.7226053850413,1151
2163.622426116884,1094
2165.5217989840185,1132
2167.4207242616,1112
2169.319202224862,1087
2171.2172331491165,1155
2173.1148173097563,1142
2175.0119549822507,1096
2176.90864644215,1144
2178.8048919650823,1109
2180.7006918267534,1121
2182.596046302952,1114
2184.4909556695407,1129
2186.3854202024645,1139
2188.279440177746,1165
2190.173015871487,1158
2192.066147559868,1152
2193.958835519149,1198
2195.851080025667,1162
2197.7428813558417,1214
2199.6342397861667,1157
2201.5251555932186,1189
2203.415629053651,1174
2205.3056604441986,1170
2207.19525004167,1192
2209.084398122958,1162
2210.9731049650327,1175
2212.861370844941,1201
2214.749196039812,1181
2216.636580826851,1191
2218.523525483344,1179
2220.410030286655,1193
2222.296095514226,1153
2224.1817214435805,1178
2226.066908352319,1170
2227.951656518121,1198
2229.835966218746,1147
2231.71983773203,1198
2233.6032713358913,1159
2235.486267308324,1185
2237.3688259274036,1154
2239.2509474712824,1173
2241.132632218193,1191
2243.013880446447,1163
2244.8946924344323,1162
2246.7750684606203,1189
2248.6550088035574,1165
2250.534513741871,1176
2252.413583554265,1166
2254.292218519526,1204
2256.170418916517,1219
2258.0481850241786,1150
2259.925517121534,1180
2261.8024154876825,1169
2263.678880401803,1188
2265.5549121431536,1178
2267.430510991071,1152
2269.305677224971,1171
2271.180411124348,1176
2273.0547129687766,1174
2274.9285830379076,1173
2276.8020216114737,1178
2278.6750289692845,1164
2280.5476053912294,1210
2282.4197511572766,1187
2284.2914665474727,1198
2286.162751841943,1243
2288.0336073208937,1241
2289.904033264608,1221
2291.774029953448,1153
2293.6435976678554,1212
2295.5127366883517,1183
2297.381447295534,1154
2299.2497297700825,1162
2301.1175843927526,1097
2302.9850114443825,1115
2304.852011205885,1071
2306.7185839582553,1062
2308.5847299825664,1048
2310.4504495599676,1048
2312.3157429716925,1013
2314.1806104990483,1083
2316.0450524234247,1009
2317.9090690262888,1046
2319.772660589186,1080
2321.635827393742,1037
2323.498569721661,1019
2325.3608878547248,1059
2327.2227820747967,1041
2329.0842526638157,1002
2330.945299903803,1021
2332.805924076857,1071
2334.6661254651535,1039
2336.525904350951,1057
2338.3852610165827,1064
2340.244195744464,1012
2342.102708817088,1014
2343.9608005170253,1041
2345.8184711269287,1053
2347.675720929526,984
2349.532550207628,998
2351.38895924412,1064
2353.24494832197,1049
2355.100517724223,1017
2356.955667734004,1067
2358.810398634514,1029
2360.664710709037,1084
2362.5186042409337,1027
2364.3720795136437,1054
2366.225136810686,1088
2368.0777764156583,1077
2369.929998612237,1034
2371.7818036841777,1045
2373.633191915315,1121
2375.484163589562,1070
2377.3347189909114,999
2379.184858403434,1043
2381.03458211128,1041
2382.8838903986775,1043
2384.732783549936,1058
2386.5812618494406,1041
2388.4293255816588,1081
2390.2769750311327,1031
2392.1242104824883,1061
2393.971032220427,1042
2395.8174405297295,1098
2397.6634356952563,1085
2399.509018001947,1054
2401.3541877348193,1080
2403.1989451789705,1065
2405.043290619576,1095
2406.8872243418905,1036
2408.730746631247,1104
2410.5738577730594,1044
2412.4165580528183,1021
2414.258847756095,1091
2416.100727168537,1033
2417.9421965758734,1048
2419.783256263912,1046
2421.623906518538,1049
2423.4641476257157,1012
2425.303979871491,1036
2427.143403541984,1037
2428.9824189233977,1061
2430.821026302012,971
2432.6592259641866,1059
2434.497018196361,1068
2436.33440328505,1040
2438.171381516851,1038
2440.00795317844,1085
2441.844118556569,1079
2443.6798779380724,1059
2445.5152316098606,1040
2447.3501798589255,1020
2449.1847229723357,1107
2451.0188612372403,1093
2452.8525949408663,1080
2454.6859243705203,1080
2456.518849813587,1049
2458.3513715575314,1040
2460.183489889895,1037
2462.015205098301,1060
2463.8465174704493,1077
2465.67742729412,1053
2467.5079348571717,1080
2469.338040447542,1050
2471.1677443532476,1081
2472.9970468623833,1082
2474.825948263123,1056
2476.6544488437207,1097
2478.482548892508,1071
2480.310248697896,1069
2482.137548548374,1108
2483.9644487325118,1120
2485.790949538956,1051
2487.617051256433,1038
2489.44275417375,1103
2491.26805857979,1067
2493.0929647635157,1079
2494.917473013971,1040
2496.741583620276,1041
2498.5652968716304,1068
2500.3886130573137,1087
2502.2115324666834,1072
2504.0340553891765,1083
2505.856182114308,1131
2507.6779129316733,1138
2509.499248130945,1087
2511.3201880018764,1096
2513.140732834298,1062
2514.9608829181198,1111
2516.780638543331,1104
2518.6,1086
2520.418967578273,1103
2522.237541568376,1133
2524.0557222606144,1142
2525.8735099453706,1022
2527.6909049131086,1120
2529.507907454368,1108
2531.32451785977,1175
2533.140736420014,1106
2534.9565634258774,1153
2536.771999168218,1106
2538.5870439379714,1130
2540.4016980261526,1131
2542.2159617238544,1173
2544.02983532225,1139
2545.8433191125914,1151
2547.656413386209,1126
2549.4691184345115,1111
2551.2814345489874,1175
2553.093362021204,1195
2554.904901142808,1238
2556.716052205523,1188
2558.526815501153,1200
2560.3371913215824,1243
2562.147179958771,1162
2563.956781704761,1213
2565.7659968516705,1186
2567.5748256916986,1205
2569.3832685171224,1230
2571.1913256202984,1252
2572.9989972936614,1215
2574.806283829725,1231
2576.613185521084,1221
2578.4197026604074,1207
2580.2258355404483,1253
2582.031584454035,1283
2583.836949694077,1241
2585.6419315535613,1240
2587.4465303255533,1244
2589.2507463032002,1243
2591.0545797797245,1236
2592.8580310484303,1238
2594.6611004026995,1271
2596.463788135992,1268
2598.266094541849,1221
2600.0680199138874,1201
2601.869564545807,1208
2603.670728731383,1257
2605.4715127644704,1219
2607.2719169390048,1267
2609.071941548998,1187
2610.8715868885433,1228
2612.670853251811,1235
2614.469740933052,1274
2616.268250226594,1299
2618.0663814268455,1195
2619.864134828292,1216
2621.6615107255006,1224
2623.458509413115,1253
2625.2551311858597,1216
2627.0513763385347,1171
2628.8472451660223,1208
2630.6427379632833,1192
2632.4378550253564,1172
2634.232596647359,1204
2636.026963124488,1178
2637.8209547520187,1243
2639.6145718253065,1196
2641.407814639785,1215
2643.200683490966,1204
2644.9931786744414,1189
2646.7853004858807,1169
2648.577049221034,1127
2650.3684251757277,1187
2652.1594286458712,1180
2653.9500599274484,1131
2655.740319316525,1102
2657.5302071092437,1090
2659.3197236018286,1169
2661.10886909058,1143
2662.8976438718782,1109
2664.686048242183,1128
2666.4740824980327,1164
2668.2617469360443,1123
2670.0490418529134,1141
2671.8359675454153,1124
2673.622524310403,1124
2675.408712444811,1131
2677.1945322456495,1097
2678.979984010009,1091
2680.76506803506,1053
2682.5497846180497,1114
2684.334134056306,1083
2686.1181166472343,1099
2687.9017326883213,1090
2689.6849824771293,1112
2691.4678663113013,1119
2693.2503844885596,1138
2695.032537306705,1087
2696.8143250636167,1054
2698.5957480572542,1005
2700.3768065856534,1051
2702.1575009469316,1088
2703.937831439283,1039
2705.717798360982,1065
2707.4974020103837,1060
2709.276642685917,1046
2711.055520686095,1025
2712.834036309506,1047
2714.612189854819,1055
2716.389981620782,1018
2718.1674119062204,1091
2719.944481010041,1077
2721.721189231226,1043
2723.4975368688415,1066
2725.273524222027,1097
2727.0491515900053,1060
2728.824419272075,1036
2730.5993275676146,1011
2732.3738767760838,1035
2734.148067197016,1059
2735.921899130031,1054
2737.6953728748194,1070
2739.468488731156,989
2741.2412469988926,1036
2743.0136479779617,1028
2744.785691968372,1038
2746.5573792702116,1065
2748.3287101836504,1026
2750.099685008934,1028
2751.870304046388,1039
2753.640567596418,1051
2755.4104759595057,1063
2757.1800294362156,1051
2758.949228327187,1021
2760.7180729331412,1074
2762.486563554877,1050
2764.254700493272,1035
2766.022484049284,1057
2767.789914523947,1074
2769.5569922183786,1029
2771.3237174337705,1000
2773.090090471394,1021
2774.8561116326036,1023
2776.6217812188274,1041
2778.3870995315756,1013
2780.1520668724356,1031
2781.9166835430747,1011
2783.6809498452394,1015
2785.444866080754,1022
2787.2084325515225,1007
2788.971649559527,972
2790.73451740683,1019
2792.4970363955713,1008
2794.2592068279705,1018
2796.0210290063264,975
2797.7825032330147,1027
2799.543629810493,1034
2801.304409041296,1022
2803.0648412280366,1019
2804.8249266734088,1066
2806.5846656801846,1003
2808.344058551212,1039
2810.1031055894246,1059
2811.8618070978273,1060
2813.6201633795085,1049
2815.378174737636,985
2817.1358414754536,994
2818.893163896285,1036
2820.6501423035334,1038
2822.4067770006814,1019
2824.1630682912883,1008
2825.9190164789957,1015
2827.6746218675207,979
2829.429884760661,1073
2831.184805462294,1077
2832.9393842763743,1066
2834.693621506936,1041
2836.4475174580916,1071
2838.201072434034,1035
2839.954286739034,1018
2841.707160677441,1014
2843.459694553685,986
2845.2118886722724,1046
2846.96374333779,1080
2848.7152588549034,1014
2850.4664355283567,1034
2852.217273662973,1039
2853.9677735636546,1079
2855.7179355353833,1084
2857.4677598832186,1037
2859.217246912299,1019
2860.9663969278427,1004
2862.715210235146,1018
2864.4636871395846,1037
2866.211827946614,1001
2867.9596329617652,1060
2869.7071024906536,1065
2871.4542368389684,1034
2873.20103631248,1014
2874.947501217038,1049
2876.6936318585695,1038
2878.4394285430812,988
2880.1848915766604,1022
2881.9300212654707,1036
2883.6748179157553,1007
2885.4192818338374,1023
2887.1634133261173,1046
2888.907212699077,1021
2890.6506802592744,1000
2892.393816313348,986
2894.1366211680142,1039
2895.8790951300693,1058
2897.621238506388,1030
2899.363051603925,1050
2901.1045347297118,1032
2902.8456881908596,999
2904.58651229456,983
2906.327007348081,1018
2908.067173658772,1052
2909.8070115340597,1077
2911.5465212814497,1026
2913.285703208527,1040
2915.0245576229563,1087
2916.7630848324807,1024
2918.5012851449196,984
2920.2391588681758,1016
2921.976706310227,1012
2923.7139277791334,1047
2925.4508235830313,982
2927.187394030137,1040
2928.923639428745,1060
2930.6595600872306,992
2932.395156314046,1017
2934.1304284177218,1013
2935.8653767068713,1049
2937.6000014901815,1041
2939.3343030764227,1018
2941.068281774442,1099
2942.8019378931644,1034
2944.5352717415976,1019
2946.2682836288236,1027
2948.0009738640065,1071
2949.7333427563885,1016
2951.465390615289,990
2953.1971177501086,1067
2954.9285244703265,1032
2956.6596110855,1019
2958.3903779052657,1042
2960.1208252393385,1057
2961.8509533975125,1017
2963.5807626896617,953
2965.3102534257378,1047
2967.0394259157715,1013
2968.768280469873,1029
2970.496817398232,1015
2972.2250370111146,982
2973.952939618869,1041
2975.6805255319196,1021
2977.4077950607707,1034
2979.134748516006,1015
2980.861386208289,1013
2982.587708448359,1051
2984.313715547037,1062
2986.039407815222,987
2987.764785563891,1013
2989.489849104102,1064
2991.2145987469908,1024
2992.9390348037705,1063
2994.6631575857346,1041
2996.3869674042576,995
2998.1104645707887,976
2999.83364939686,1054
3001.5565221940783,1070
3003.2790832741334,1052
3005.0013329487924,1059
3006.7232715298996,1005
3008.4448993293804,1038
3010.166216659239,1018
3011.887223831558,1015
3013.607921158498,972
3015.3283089522993,935
3017.0483875252826,1033
3018.7681571898443,1020
3020.4876182584626,1048
3022.2067710436927,1039
3023.9256158581707,1019
3025.644153014609,1046
3027.362382825801,1011
3029.0803056046193,971
3030.797921664012,1007
3032.5152313170106,1016
3034.2322348767225,1031
3035.9489326563353,1056
3037.665324969115,1057
3039.3814121284063,987
3041.097194447633,1014
3042.812672240299,983
3044.5278458199855,1017
3046.2427155003525,1019
3047.9572815951406,1000
3049.671544418167,1034
3051.38550428333,1001
3053.0991615046073,1042
3054.812516396051,1012
3056.5255692717974,1017
3058.2383204460575,1006
3059.9507702331257,1017
3061.662918947372,1064
3063.3747669032446,1081
3065.0863144152736,1038
3066.7975617980674,1028
3068.508509366309,1049
3070.219157434767,1053
3071.9295063182844,989
3073.639556331785,996
3075.3493077902704,1043
3077.058761008821,1030
3078.7679163025964,1005
3080.476773986837,1054
3082.1853343768594,1042
3083.89359778806,999
3085.6015645359153,1006
3087.3092349359786,1034
3089.016609303884,1051
3090.7236879553434,1011
3092.4304712061476,1049
3094.136959372166,1005
3095.843152769349,1030
3097.5490517137237,1009
3099.2546565213966,1082
3100.959967508554,999
3102.66498499146,1004
3104.3697092864577,1003
3106.0741407099695,1030
3107.778279578498,1011
3109.482126208622,976
3111.1856809170004,984
3112.8889440203716,1038
3114.5919158355528,1013
3116.294596679439,1034
3117.996986869006,1004
3119.6990867213062,1006
3121.4008965534726,1017
3123.102416682717,1017
3124.803647426329,1089
3126.5045891016784,1040
3128.205242026213,1000
3129.90560651746,1042
3131.605682893025,1032
3133.3054714705922,1002
3135.0049725679282,1001
3136.7041865028714,1051
3138.4031135933465,974
3140.101754157353,1014
3141.800108512971,1051
3143.498176978357,1037
3145.1959598717494,989
3146.8934575114636,1037
3148.5906702158954,1025
3150.2875983035183,997
3151.9842420928853,981
3153.680601902627,1012
3155.376678051456,995
3157.07247085816,1060
3158.767980641609,974
3160.463207720748,975
3162.158152414606,1058
3163.8528150422862,1014
3165.5471959229726,1031
3167.2412953759303,1000
3168.9351137204976,1009
3170.628651276098,1007
3172.3219083622307,946
3174.014885298474,1016
3175.707582404485,1044
3177.4000000000005,1045
3179.092138404835,993
3180.7839979388846,1044
3182.47557892212,1004
3184.166881674594,998
3185.8579065164386,1031
3187.5486537678626,1000
3189.2391237491547,1015
3190.9293167806827,1008
3192.6192331828934,1066
3194.3088732763117,1021
3195.998237381542,986
3197.687325819268,947
3199.376138910251,999
3201.064676975334,996
3202.7529403354347,990
3204.4409293115523,986
3206.1286442247647,1016
3207.816085396229,1059
3209.5032531471825,1003
3211.190147798936,984
3212.8767696728846,1011
3214.5631190905015,1011
3216.2491963733373,990
3217.9350018430214,951
3219.6205358212637,1008
3221.305798629851,967
3222.990790590651,945
3224.6755120256103,985
3226.359963256751,966
3228.0441446061795,959
3229.7280563960758,987
3231.411698948703,959
3233.0950725863995,981
3234.778177631587,998
3236.461014406761,1034
3238.1435832345005,939
3239.8258844374595,956
3241.507918338374,980
3243.1896852600576,994
3244.8711855254023,960
3246.552419457381,1001
3248.233387379042,1014
3249.914089613516,1060
3251.59452648401,1053
3253.274698313813,993
3254.95460542629,954
3256.6342481448855,973
3258.313626793125,1007
3259.9927416946084,964
3261.6715931730196,1024
3263.3501815521176,997
3265.0285071557437,998
3266.706570307815,965
3268.3843713323286,1014
3270.0619105533615,993
3271.739188295068,986
3273.4162048816834,972
3275.0929606375184,970
3276.769455886966,1004
3278.445690954498,1011
3280.1216661646613,999
3281.797381842087,1001
3283.4728383114807,1009
3285.1480358976296,974
3286.8229749253996,992
3288.4976557197333,996
3290.172078605655,1015
3291.846243908266,986
3293.5201519527463,991
3295.193803064357,982
3296.8671975684374,988
3298.5403357904024,979
3300.21321805575,993
3301.8858446900567,965
3303.558216018975,1010
3305.23033236824,981
3306.9021940636603,929
3308.57380143113,1009
3310.2451547966184,1010
3311.916254486174,1033
3313.5871008259246,1024
3315.2576941420766,970
3316.9280347609147,1012
3318.5981230088046,965
3320.2679592121895,983
3321.9375436975924,977
3323.606876791612,962
3325.27595882093,977
3326.944790112305,976
3328.6133709925753,977
3330.2817017886573,985
3331.949782827547,988
3333.617614436319,989
3335.2851969421245,982
3336.952530672199,953
3338.619615953853,978
3340.286453114475,1010
3341.9530424815357,994
3343.619384382583,979
3345.2854791452437,991
3346.951327097224,942
3348.6169285663073,967
3350.2822838803577,946
3351.947393367319,976
3353.61225735521,1009
3355.2768761721345,1005
3356.9412501462693,992
3358.605379605873,977
3360.2692648792827,999
3361.9329062949146,997
3363.596304181263,950
