CollectionTime,7/11/2024 2:04:21 PM
ExposureUsed,3
CalibratedSpectrum
-962.7078968117929,432
-959.9714848408522,453
-957.2358232597828,454
-954.5009119013725,469
-951.7667505983302,449
-949.0333391832855,484
-946.3006774887896,457
-943.5687653473143,456
-940.837602591253,462
-938.1071890529199,452
-935.3775245645503,476
-932.6486089583007,467
-929.9204420662485,461
-927.1930237203925,475
-924.4663537526524,471
-921.7404319948689,442
-919.0152582788041,460
-916.2908324361409,501
-913.5671542984834,497
-910.8442236973568,473
-908.1220404642074,466
-905.4006044304027,470
-902.679915427231,464
-899.959973285902,472
-897.2407778375464,471
-894.5223289132158,487
-891.8046263438832,443
-889.0876699604426,460
-886.3714595937089,471
-883.6559950744183,465
-880.9412762332282,453
-878.2273029007168,452
-875.5140749073835,448
-872.8015920836489,454
-870.0898542598545,467
-867.3788612662631,470
-864.6686129330585,485
-861.9591090903457,482
-859.2503495681506,482
-856.5423341964203,463
-853.8350628050229,443
-851.1285352237478,485
-848.4227512823054,488
-845.7177108103272,472
-843.0134136373656,465
-840.3098595928943,474
-837.6070485063082,480
-834.9049802069229,477
-832.2036545239757,482
-829.5030712866244,482
-826.8032303239481,477
-824.1041314649472,474
-821.4057745385428,481
-818.7081593735775,481
-816.0112857988148,477
-813.3151536429393,488
-810.6197627345566,489
-807.9251129021936,472
-805.2312039742981,462
-802.5380357792392,471
-799.8456081453069,475
-797.1539209007124,477
-794.462973873588,484
-791.772766891987,479
-789.083299783884,487
-786.3945723771743,452
-783.7065844996748,482
-781.0193359791231,503
-778.3328266431781,471
-775.6470563194197,483
-772.9620248353489,477
-770.2777320183878,472
-767.5941776958798,487
-764.9113616950891,486
-762.2292838432011,467
-759.5479439673222,462
-756.8673418944801,472
-754.1874774516235,480
-751.5083504656222,493
-748.8299607632671,487
-746.15230817127,493
-743.475392516264,480
-740.7992136248035,510
-738.1237713233636,505
-735.4490654383407,498
-732.7750957960521,480
-730.1018622227365,491
-727.4293645445534,497
-724.7576025875837,515
-722.0865761778291,498
-719.4162851412126,484
-716.7467293035781,522
-714.0779084906909,504
-711.409822528237,490
-708.7424712418238,515
-706.0758544569796,506
-703.4099719991541,507
-700.7448236937178,517
-698.0804093659622,543
-695.4167288411002,506
-692.7537819442656,497
-690.0915685005134,516
-687.4300883348199,524
-684.7693412720819,504
-682.1093271371178,533
-679.4500457546669,507
-676.7914969493897,523
-674.1336805458676,512
-671.4765963686034,534
-668.8202442420206,527
-666.1646239904642,530
-663.5097354382001,535
-660.8555784094151,540
-658.2021527282176,531
-655.5494582186366,548
-652.8974947046223,543
-650.2462620100463,535
-647.5957599587009,528
-644.9459883742998,557
-642.2969470804776,548
-639.6486359007902,515
-637.0010546587141,522
-634.3542031776476,542
-631.7080812809096,578
-629.0626887917401,541
-626.4180255333008,539
-623.7740913286734,526
-621.1308860008619,540
-618.4884093727904,563
-615.8466612673046,541
-613.2056415071715,538
-610.5653499150785,546
-607.9257863136347,548
-605.28695052537,579
-602.6488423727357,584
-600.0114616781036,536
-597.3748082637674,545
-594.7388819519412,566
-592.1036825647604,554
-589.4692099242818,569
-586.8354638524829,565
-584.2024441712624,567
-581.5701507024403,547
-578.9385832677575,552
-576.3077416888759,572
-573.6776257873787,604
-571.0482353847704,572
-568.4195703024757,563
-565.7916303618415,563
-563.164415384135,573
-560.5379251905453,574
-557.9121596021815,604
-555.2871184400748,566
-552.6628015251767,574
-550.0392086783606,591
-547.4163397204204,591
-544.794194472071,601
-542.1727727539491,561
-539.5520743866118,626
-536.9320991905377,604
-534.3128469861261,629
-531.6943175936979,644
-529.0765108334947,651
-526.4594265256793,633
-523.8430644903358,735
-521.2274245474689,849
-518.612506517005,844
-515.9983102187913,792
-513.3848354725959,861
-510.77208209810846,852
-508.16004991493924,924
-505.5487387426199,998
-502.9381484006032,1007
-500.3282787082628,1048
-497.71912948489364,955
-495.1107005497117,856
-492.5029917218539,820
-489.8960028203786,716
-487.28973366426493,687
-484.68418407241325,700
-482.07935386364494,688
-479.47524285670266,667
-476.87185087025,697
-474.2691777228715,702
-471.66722323307334,715
-469.0659872192821,685
-466.4654694998459,712
-463.86566989303384,689
-461.26658821703614,659
-458.66822428996414,709
-456.07057792985,710
-453.4736489546475,696
-450.877437182231,705
-448.28194243039627,724
-445.68716451686,709
-443.09310325926003,679
-440.49975847515555,685
-437.9071299820263,676
-435.31521759727354,682
-432.72402113821954,702
-430.13354042210767,717
-427.5437752661022,713
-424.95472548728867,675
-422.36639090267386,699
-419.7787713291855,725
-417.1918665836721,712
-414.60567648290385,752
-412.0202008435715,739
-409.4354394822874,755
-406.8513922155845,715
-404.26805885991723,748
-401.685439231661,713
-399.103533147112,729
-396.522340422488,724
-393.9418608739278,721
-391.3620943174908,715
-388.7830405691583,699
-386.2046994448317,683
-383.6270707603344,642
-381.05015433141045,596
-378.473949973725,625
-375.8984575028645,584
-373.32367673433623,540
-370.74960748356875,493
-368.1762495659117,501
-365.60360279663576,493
-363.03166699093265,452
-360.4604419639154,469
-357.8899275306178,432
-355.32012350599507,420
-352.7510297049233,411
-350.1826459421999,426
-347.61497203254316,397
-345.04800779059235,385
-342.4817530309082,402
-339.91620756797226,418
-337.35137121618743,404
-334.7872437898774,423
-332.22382510328725,408
-329.66111497058273,422
-327.09911320585127,427
-324.53781962310075,431
-321.9772340362607,420
-319.4173562591816,413
-316.8581861056348,418
-314.2997233893127,418
-311.7419679238294,428
-309.1849195227194,413
-306.62857799943856,410
-304.0729431673641,438
-301.51801483979375,420
-298.963792829947,437
-296.41027695096386,433
-293.85746701590574,469
-291.3053628377552,437
-288.7539642294155,484
-286.2032710037115,461
-283.65328297338897,442
-281.1039999511146,437
-278.5554217494762,432
-276.007548180983,445
-273.4603790580651,487
-270.9139141930734,493
-268.3681533982807,451
-265.8230964858798,467
-263.27874326798565,456
-260.7350935566336,485
-258.1921471637804,497
-255.6499039013039,506
-253.10836358100266,471
-250.56752601459698,469
-248.02739101372765,498
-245.48795838995704,524
-242.94922795476816,481
-240.41119951956557,497
-237.8738728956746,466
-235.33724789434166,512
-232.80132432673452,493
-230.2661020039418,493
-227.73158073697357,543
-225.19776033676033,519
-222.66464061415422,521
-220.1322213799284,541
-217.60050244477725,495
-215.06948361931552,514
-212.53916471408013,556
-210.00954553952818,582
-207.48062590603843,538
-204.9524056239104,516
-202.4248845033651,527
-199.8980623545441,535
-197.37193898751036,565
-194.84651421224817,570
-192.32178783866232,536
-189.79775967657952,580
-187.27442953574644,561
-184.7517972258321,570
-182.2298625564256,564
-179.7086253370378,564
-177.18808537710026,563
-174.66824248596583,616
-172.14909647290835,618
-169.6306471471229,627
-167.11289431772548,645
-164.59583779375328,626
-162.07947738416453,648
-159.5638128978386,617
-157.04884414357605,678
-154.53457093009854,758
-152.02099306604828,730
-149.50811035998936,614
-146.99592262040665,648
-144.48442965570587,756
-141.97363127421409,824
-139.46352728417958,792
-136.95411749377126,741
-134.44540171107985,797
-131.93737974411636,697
-129.43005140081357,698
-126.92341648902493,793
-124.41747481652521,925
-121.91222619101006,1060
-119.40767042009657,1149
-116.90380731132257,1272
-114.40063667214702,1134
-111.8981583099503,1084
-109.3963720320337,968
-106.89527764561933,975
-104.39487495785067,1224
-101.89516377579241,1502
-99.39614390642998,1669
-96.89781515667039,1849
-94.40017733334128,1721
-91.90323024319173,1641
-89.40697369289148,1561
-86.91140748903172,1861
-84.41653143812482,1805
-81.92234534660395,1389
-79.42884902082358,1231
-76.93604226705907,1824
-74.4439248915071,3332
-71.95249670028534,4963
-69.46175749943245,6376
-66.97170709490854,6855
-64.48234529259423,6140
-61.99367189829195,6040
-59.50568671772464,6475
-57.01838955653636,6127
-54.53178022029283,5297
-52.045858514480074,5000
-49.560624244506016,5189
-47.07607721569923,5753
-44.59221723330904,5574
-42.10904410250669,6010
-39.62655762838392,6844
-37.14475761595372,7037
-34.66364387015028,8527
-32.18321619582866,10517
-29.70347439776515,11539
-27.224418280657005,13027
-24.74604764912317,14627
-22.26836230770266,15040
-19.7913620608565,17969
-17.315046712966478,26240
-14.83941606833514,31997
-12.36446993118659,42401
-9.89020810566592,65040
-7.416630395839093,65040
-4.94373660569363,65040
-2.471526539137585,65040
-6.821210263296962E-13,65040
2.47084320796705,65040
4.941003281093458,65040
7.410480415786196,65040
9.879274808531363,65040
12.347386655893956,65040
14.814816154518212,65040
17.28156350112681,65040
19.74762889252179,65040
22.21301252558385,65040
24.67771459727237,18011
27.141735304626195,2929
29.605074844762612,1579
32.06773341487792,1331
34.52971121224755,1254
36.99100843422559,1392
39.45162527824516,1348
41.91156194181792,1122
44.370818622535126,968
46.82939551806646,1123
49.287292826160524,1137
51.74451074464503,1073
54.201049471426245,974
56.65690920448981,1005
59.112090141899785,988
61.56659248179983,912
64.02041642241159,871
66.4735621620365,820
68.92602989905402,871
71.37781983192338,851
73.82893215918205,861
76.27936707944684,893
78.72912479141326,1104
81.17820549385567,1081
83.62660938562783,1037
86.07433666566146,938
88.5213875329681,769
90.96776218663751,749
93.41346082583925,748
95.85848364982041,723
98.30283085790859,801
100.7465026495089,714
103.18949922410604,689
105.63182078126385,730
108.07346752062438,782
110.51443964190923,732
112.95473734491827,637
115.39436082953114,657
117.83331029570547,637
120.27158594347827,658
122.7091879729652,690
125.1461165843615,760
127.58237197794062,803
130.01795435405518,691
132.4528639131364,684
134.88710085569494,709
137.32066538231982,648
139.75355769367923,602
142.1857779905207,677
144.61732647366978,692
147.04820334403132,757
149.47840880258934,728
151.90794305040674,691
154.33680628862487,764
156.76499871846443,974
159.19252054122433,1042
161.61937195828352,1103
164.04555317109896,1153
166.47106438120693,1254
168.89590579022217,1311
171.320077599839,1346
173.7435800118302,1435
176.16641322804742,1511
178.58857745042144,1494
181.01007288096173,1593
183.43089972175687,1627
185.85105817497413,1615
188.27054844285988,1573
190.6893707277394,1627
193.10752523201643,1583
195.5250121581745,1689
197.9418317087751,1701
200.3579840864594,1741
202.7734694939469,1763
205.18828813403627,1768
207.6024402096051,1868
210.01592592360964,1904
212.42874547908548,1801
214.84089907914665,1783
217.2523869269868,1829
219.66320922587727,1808
222.0733661791695,1808
224.48285799029293,1863
226.8916848627572,1884
229.29984700014882,1854
231.7073446061355,1930
234.11417788446204,1941
236.520347038953,1934
238.92585227351185,1897
241.33069379212054,1918
243.73487179884035,1961
246.1383864978112,1975
248.541238093252,2027
250.9434267894609,2056
253.34495279081432,2068
255.74581630176783,2136
258.1460175268563,2113
260.54555667069314,2140
262.9444339379703,2089
265.3426495334594,2062
267.7402036620107,2080
270.1370965285529,2048
272.53332833809407,1975
274.9288992957214,1913
277.32380960660055,1823
279.718059475976,1811
282.1116491091717,1810
284.5045787115897,1811
286.89684848871195,1829
289.2884586460981,1781
291.67940938938807,1786
294.0697009242996,1811
296.4593334566299,1884
298.84830719225477,1860
301.23662233712923,1812
303.6242790972866,1806
306.01127767884,1810
308.39761828798066,1729
310.78330113097934,1752
313.16832641418534,1721
315.5526943440269,1648
317.9364051270112,1675
320.3194589697242,1695
322.70185607883093,1696
325.0835966610754,1772
327.4646809232805,1637
329.8451090723478,1594
332.2248813152577,1614
334.6039978590701,1592
336.9824589109231,1565
339.36026467803447,1583
341.7374153677,1510
344.113911187295,1525
346.48975234427337,1561
348.8649390461686,1551
351.2394715005918,1529
353.61334991523415,1586
355.9865744978655,1554
358.35914545633375,1532
360.73106299856715,1570
363.10232733257146,1583
365.47293866643247,1468
367.84289720831396,1528
370.2122031664593,1546
372.5808567491905,1468
374.9488581649083,1492
377.31620762209275,1488
379.6829053293021,1480
382.0489514951745,1511
384.4143463284262,1453
386.7790900378528,1503
389.14318283232853,1475
391.50662492080653,1489
393.86941651231916,1466
396.23155781597745,1533
398.5930490409713,1501
400.9538903965696,1422
403.3140820921202,1468
405.6736243370498,1470
408.03251734086336,1376
410.3907613131465,1424
412.74835646356166,1429
415.10530300185144,1443
417.4616011378372,1408
419.81725108141893,1450
422.1722530425758,1446
424.5266072313656,1475
426.880313857925,1476
429.2333731324701,1411
431.58578526529516,1387
433.9375504667738,1371
436.2886689473588,1424
438.63914091758113,1355
440.9889665880513,1369
443.33814616945835,1398
445.68667987257015,1433
448.03456790823395,1420
450.3818104873759,1388
452.72840782100013,1396
455.07436012019105,1434
457.41966759611057,1400
459.7643304600007,1405
462.10834892318155,1377
464.4517231970525,1354
466.79445349309174,1374
469.1365400228566,1372
471.4779829979826,1404
473.81878263018564,1396
476.15893913125876,1373
478.4984527130747,1385
480.8373235875855,1352
483.17555196682144,1455
485.5131380628919,1464
487.8500820879857,1449
490.1863842543697,1430
492.52204477439034,1530
494.8570638604725,1606
497.1914417251204,1773
499.52517858091653,1885
501.85827464052306,2026
504.19073011668036,2176
506.5225452222086,2268
508.85372017000566,2331
511.18425517304956,2302
513.514150444396,2405
515.8434061971808,2723
518.1720226446176,3203
520.4999999999999,3387
522.8273384766991,3117
525.1540382881666,2944
527.480099647932,2691
529.8055227696037,2208
532.1303078668694,1774
534.454455153496,1609
536.777964843328,1523
539.1008371502907,1442
541.4230722883866,1489
543.744670471698,1428
546.0656319143858,1476
548.3859568306899,1455
550.7056454349294,1438
553.0246979415016,1396
555.3431145648834,1445
557.6608955196306,1379
559.978041020377,1424
562.2945512818363,1369
564.6104265188006,1420
566.9256669461412,1423
569.2402727788082,1391
571.5542442318302,1396
573.8675815203156,1421
576.1802848594508,1444
578.4923544645015,1411
580.8037905508126,1481
583.114593333807,1491
585.4247630289875,1474
587.7342998519354,1487
590.0432040183106,1499
592.3514757438526,1443
594.6591152443794,1468
596.9661227357875,1466
599.2724984340531,1383
601.578242555231,1400
603.8833553154542,1448
606.1878369309362,1416
608.4916876179676,1420
610.7949075929192,1426
613.0974970722403,1414
615.3994562724587,1403
617.7007854101818,1390
620.0014847020951,1428
622.3015543649641,1395
624.6009946156324,1373
626.8998056710224,1410
629.1979877481361,1433
631.4955410640538,1408
633.7924658359349,1410
636.0887622810175,1429
638.3844306166192,1457
640.6794710601358,1448
642.9738838290426,1460
645.2676691408932,1439
647.5608272133207,1503
649.853358264037,1483
652.1452625108324,1460
654.4365401715764,1460
656.7271914642178,1492
659.0172166067838,1484
661.3066158173809,1477
663.5953893141935,1489
665.8835373154867,1484
668.1710600396028,1434
670.4579577049639,1473
672.7442305300709,1481
675.0298787335033,1467
677.3149025339197,1461
679.599302150058,1527
681.8830778007342,1448
684.1662297048437,1476
686.4487580813608,1478
688.7306631493387,1492
691.0119451279091,1476
693.2926042362834,1496
695.5726406937516,1437
697.8520547196814,1395
700.1308465335215,1424
702.4090163547982,1454
704.6865644031171,1421
706.9634908981619,1446
709.2397960596965,1441
711.5154801075631,1434
713.7905432616823,1435
716.0649857420548,1433
718.3388077687592,1421
720.612009561953,1432
722.8845913418733,1463
725.1565533288352,1458
727.427895743234,1435
729.6986188055427,1456
731.9687227363137,1463
734.238207756178,1415
736.5070740858458,1408
738.7753219461066,1416
741.0429515578281,1416
743.3099631419569,1412
745.5763569195191,1481
747.8421331116193,1451
750.1072919394409,1388
752.3718336242467,1483
754.6357583873777,1454
756.8990664502545,1448
759.1617580343765,1466
761.423833361321,1461
763.6852926527457,1500
765.9461361303862,1456
768.206364016058,1449
770.4659765316536,1467
772.7249738991469,1463
774.9833563405886,1432
777.2411240781092,1470
779.4982773339183,1468
781.7548163303044,1449
784.010741289634,1436
786.2660524343538,1553
788.5207499869881,1515
790.7748341701416,1439
793.0283052064964,1453
795.2811633188143,1506
797.5334087299362,1471
799.7850416627813,1451
802.0360623403484,1522
804.2864709857143,1483
806.5362678220353,1521
808.7854530725468,1458
811.0340269605625,1446
813.2819897094754,1490
815.5293415427581,1522
817.77608268396,1518
820.0222133567116,1479
822.2677337847211,1504
824.5126441917765,1460
826.7569448017433,1472
829.0006358385675,1484
831.2437175262731,1490
833.4861900889629,1489
835.7280537508192,1474
837.9693087361026,1467
840.2099552691533,1526
842.4499935743896,1518
844.689423876309,1469
846.9282463994886,1505
849.1664613685833,1467
851.4040690083276,1522
853.6410695435349,1411
855.877463199097,1478
858.1132501999847,1529
860.3484307712487,1490
862.5830051380175,1513
864.8169735254988,1518
867.0503361589791,1497
869.2830932638243,1465
871.5152450654786,1535
873.7467917894654,1465
875.9777336613873,1568
878.2080709069252,1527
880.4378037518389,1541
882.666932421968,1498
884.8954571432301,1534
887.1233781416219,1493
889.3506956432192,1556
891.5774098741766,1577
893.803521060728,1547
896.0290294291852,1446
898.2539352059397,1510
900.4782386174619,1559
902.7019398903011,1459
904.925039251085,1514
907.147536926521,1522
909.3694331433943,1528
911.59072812857,1517
913.8114221089921,1468
916.0315153116827,1498
918.2510079637437,1462
920.4699002923547,1463
922.6881925247761,1461
924.905884888345,1470
927.1229776104793,1470
929.3394709186747,1456
931.555365040506,1443
933.7706602036275,1474
935.9853566357709,1451
938.1994545647489,1522
940.4129542184515,1464
942.6258558248488,1465
944.8381596119883,1454
947.0498658079974,1435
949.2609746410825,1421
951.4714863395287,1465
953.6814011316998,1520
955.8907192460387,1472
958.0994409110671,1453
960.3075663553858,1413
962.5150958076741,1456
964.7220294966913,1390
966.928367651274,1441
969.1341105003388,1438
971.3392582728806,1372
973.5438111979742,1445
975.747769504772,1421
977.9511334225061,1437
980.153903180487,1398
982.3560790081052,1405
984.5576611348289,1443
986.7586497902058,1439
988.9590452038618,1377
991.158847605503,1360
993.3580572249133,1401
995.5566742919558,1361
997.7546990365728,1369
999.952131688785,1344
1002.1489724786926,1306
1004.3452216364743,1296
1006.5408793923874,1286
1008.7359459767691,1326
1010.9304216200343,1273
1013.1243065526781,1225
1015.3176010052733,1285
1017.510305208472,1273
1019.7024193930064,1294
1021.8939437896848,1269
1024.0848786293977,1217
1026.2752241431122,1244
1028.4649805618747,1276
1030.6541481168115,1289
1032.842727039127,1188
1035.0307175601051,1248
1037.2181199111074,1202
1039.4049343235752,1208
1041.591161029029,1242
1043.7768002590683,1226
1045.9618522453698,1248
1048.1463172196918,1225
1050.3301954138697,1270
1052.513487059818,1204
1054.69619238953,1196
1056.8783116350783,1246
1059.0598450286152,1251
1061.2407928023704,1179
1063.4211551886528,1183
1065.6009324198508,1188
1067.780124728432,1179
1069.9587323469414,1202
1072.1367555080046,1208
1074.314194444325,1212
1076.4910493886855,1176
1078.667320573947,1201
1080.843008233051,1238
1083.0181125990161,1230
1085.1926339049414,1164
1087.3665723840027,1153
1089.5399282694575,1180
1091.7127017946405,1166
1093.8848931929647,1215
1096.0565026979243,1111
1098.2275305430899,1164
1100.3979769621128,1125
1102.567842188722,1161
1104.737126456726,1207
1106.9058300000124,1160
1109.0739530525475,1113
1111.2414958483764,1150
1113.4084586216231,1155
1115.5748416064907,1121
1117.7406450372605,1173
1119.9058691482942,1168
1122.0705141740304,1134
1124.2345803489884,1148
1126.3980679077658,1140
1128.5609770850388,1139
1130.7233081155623,1194
1132.8850612341707,1169
1135.0462366757774,1170
1137.2068346753745,1137
1139.3668554680326,1135
1141.526299288901,1098
1143.68516637321,1208
1145.8434569562655,1160
1148.001171273455,1156
1150.158309560244,1139
1152.3148720521767,1116
1154.470858984876,1138
1156.626270594044,1100
1158.7811071154629,1147
1160.9353687849912,1168
1163.089055838569,1121
1165.242168512213,1134
1167.3947070420209,1161
1169.5466716641677,1078
1171.6980626149075,1133
1173.8488801305748,1113
1175.9991244475814,1106
1178.1487958024186,1100
1180.2978944316555,1083
1182.4464205719428,1093
1184.5943744600072,1098
1186.7417563326567,1110
1188.8885664267755,1120
1191.0348049793297,1109
1193.1804722273619,1059
1195.325568407995,1113
1197.4700937584303,1113
1199.614048515948,1119
1201.7574329179074,1072
1203.900247201746,1082
1206.042491604982,1108
1208.1841663652099,1069
1210.3252717201053,1140
1212.465807907422,1077
1214.6057751649923,1134
1216.7451737307279,1111
1218.8840038426192,1112
1221.0222657387353,1156
1223.1599596572241,1149
1225.2970858363137,1164
1227.4336445143094,1204
1229.5696359295966,1147
1231.705060320639,1191
1233.8399179259786,1186
1235.9742089842384,1181
1238.107933734118,1160
1240.2410924143974,1182
1242.373685263935,1173
1244.5057125216676,1182
1246.6371744266116,1155
1248.7680712178621,1159
1250.898403134593,1171
1253.028170416058,1182
1255.1573733015875,1178
1257.2860120305932,1196
1259.4140868425648,1176
1261.54159797707,1179
1263.6685456737569,1138
1265.7949301723515,1161
1267.9207517126597,1220
1270.046010534565,1203
1272.1707068780306,1219
1274.2948409830983,1243
1276.4184130898889,1189
1278.541423438603,1188
1280.6638722695184,1195
1282.785759822993,1177
1284.9070863394636,1203
1287.0278520594447,1253
1289.1480572235314,1279
1291.2677020723963,1246
1293.3867868467923,1259
1295.5053117875495,1268
1297.623277135579,1243
1299.740683131868,1253
1301.8575300174857,1221
1303.973818033578,1281
1306.0895474213703,1319
1308.2047184221678,1305
1310.3193312773528,1322
1312.4333862283888,1317
1314.5468835168163,1259
1316.659823384255,1324
1318.7722060724045,1354
1320.8840318230418,1325
1322.9953008780249,1335
1325.1060134792888,1310
1327.2161698688478,1271
1329.3257702887959,1334
1331.4348149813054,1376
1333.5433041886276,1328
1335.6512381530933,1349
1337.7586171171101,1347
1339.8654413231675,1291
1341.9717110138317,1323
1344.0774264317488,1292
1346.1825878196432,1296
1348.2871954203192,1294
1350.3912494766587,1277
1352.4947502316231,1274
1354.5976979282532,1292
1356.7000928096686,1291
1358.8019351190665,1304
1360.9032250997243,1267
1363.0039629949988,1314
1365.1041490483235,1261
1367.2037835032133,1332
1369.3028666032606,1268
1371.401398592137,1281
1373.4993797135926,1249
1375.5968102114575,1210
1377.6936903296396,1283
1379.7900203121262,1231
1381.8858004029835,1277
1383.9810308463561,1280
1386.075711886469,1236
1388.1698437676241,1224
1390.2634267342032,1264
1392.356461030667,1272
1394.4489469015557,1293
1396.5408845914872,1252
1398.6322743451592,1256
1400.7231164073469,1240
1402.813411022907,1253
1404.903158436773,1216
1406.9923588939578,1221
1409.0810126395531,1292
1411.1691199187303,1289
1413.2566809767386,1251
1415.343696058907,1248
1417.4301654106425,1272
1419.5160892774315,1332
1421.6014679048399,1306
1423.6863015385125,1285
1425.7705904241707,1311
1427.8543348076178,1353
1429.9375349347342,1301
1432.0201910514802,1329
1434.102303403894,1330
1436.1838722380944,1343
1438.2648978002767,1354
1440.3453803367174,1299
1442.4253200937692,1337
1444.5047173178677,1382
1446.5835722555234,1383
1448.6618851533285,1403
1450.739656257952,1419
1452.8168858161434,1430
1454.8935740747306,1436
1456.96972128062,1479
1459.045327680797,1431
1461.120393522327,1466
1463.1949190523528,1477
1465.2689045180973,1527
1467.3423501668608,1420
1469.415256246024,1494
1471.4876230030463,1503
1473.559450685465,1490
1475.6307395408976,1588
1477.7014898170391,1586
1479.771701761665,1654
1481.8413756226287,1608
1483.9105116478618,1594
1485.9791100853772,1556
1488.0471711832643,1561
1490.1146951896926,1660
1492.1816823529098,1680
1494.2481329212433,1668
1496.3140471430984,1635
1498.3794252669609,1669
1500.4442675413939,1710
1502.5085742150404,1703
1504.572345536622,1680
1506.6355817549388,1736
1508.6982831188702,1793
1510.7604498773744,1705
1512.8220822794883,1762
1514.8831805743293,1817
1516.9437450110909,1757
1519.003775839048,1835
1521.0632733075522,1801
1523.1222376660367,1793
1525.1806691640113,1853
1527.2385680510652,1820
1529.2959345768668,1815
1531.3527689911643,1732
1533.4090715437833,1813
1535.4648424846291,1810
1537.5200820636855,1905
1539.5747905310159,1899
1541.6289681367616,1818
1543.6826151311434,1924
1545.7357317644614,1997
1547.7883182870937,2027
1549.8403749494987,1948
1551.8919020022113,2097
1553.9428996958477,2141
1555.9933682811015,2131
1558.0433080087469,2132
1560.0927191296346,2166
1562.1416018946961,2198
1564.1899565549415,2250
1566.2377833614592,2226
1568.2850825654164,2225
1570.3318544180606,2201
1572.3780991707158,2205
1574.423817074788,2113
1576.4690083817595,2128
1578.5136733431923,2015
1580.5578122107272,1989
1582.601425236085,1884
1584.6445126710646,1912
1586.6870747675434,1811
1588.7291117774776,1836
1590.7706239529034,1726
1592.8116115459347,1587
1594.8520748087658,1597
1596.8920139936686,1557
1598.9314293529933,1493
1600.9703211391711,1506
1603.008689604711,1537
1605.0465350022005,1481
1607.0838575843068,1448
1609.1206576037753,1408
1611.1569353134305,1396
1613.1926909661765,1362
1615.2279248149953,1337
1617.2626371129481,1343
1619.2968281131757,1386
1621.3304980688963,1320
1623.3636472334088,1347
1625.39627586009,1301
1627.428384202396,1297
1629.459972513861,1247
1631.4910410480993,1246
1633.5215900588028,1174
1635.551619799744,1218
1637.5811305247717,1248
1639.6101224878166,1202
1641.6385959428862,1249
1643.6665511440683,1221
1645.693988345528,1224
1647.7209078015112,1227
1649.7473097663405,1194
1651.7731944944203,1174
1653.7985622402307,1208
1655.823413258333,1155
1657.847747803366,1199
1659.8715661300494,1170
1661.8948684931793,1181
1663.9176551476316,1204
1665.9399263483624,1170
1667.9616823504057,1211
1669.982923408873,1188
1672.0036497789574,1185
1674.0238617159293,1170
1676.043559475138,1179
1678.0627433120121,1173
1680.081413482059,1163
1682.0995702408654,1129
1684.117213844096,1193
1686.134344547495,1162
1688.1509626068864,1204
1690.1670682781705,1184
1692.182661817329,1138
1694.1977434804217,1171
1696.2123135235875,1144
1698.226372203043,1149
1700.2399197750851,1168
1702.2529564960905,1156
1704.2654826225112,1196
1706.277498410882,1156
1708.2890041178139,1159
1710.2999999999988,1139
1712.3104863142066,1147
1714.3204633172854,1173
1716.329931266163,1098
1718.3388904178469,1098
1720.3473410294214,1115
1722.3552833580516,1127
1724.3627176609807,1204
1726.3696441955308,1173
1728.3760632191033,1177
1730.3819749891782,1219
1732.3873797633146,1177
1734.3922777991502,1166
1736.3966693544012,1115
1738.4005546868639,1128
1740.4039340544127,1184
1742.406807715001,1142
1744.4091759266616,1154
1746.4110389475054,1171
1748.4123970357223,1157
1750.413250449582,1120
1752.4135994474318,1173
1754.4134442876993,1123
1756.4127852288902,1148
1758.4116225295893,1133
1760.4099564484595,1109
1762.407787244244,1145
1764.405115175764,1139
1766.4019405019203,1174
1768.3982634816916,1117
1770.3940843741357,1096
1772.3894034383907,1100
1774.3842209336717,1161
1776.378537119274,1155
1778.372352254571,1090
1780.3656665990156,1109
1782.3584804121397,1118
1784.3507939535534,1134
1786.3426074829463,1138
1788.3339212600863,1117
1790.3247355448211,1087
1792.3150505970766,1121
1794.3048666768573,1128
1796.2941840442477,1099
1798.2830029594106,1141
1800.2713236825884,1119
1802.2591464741004,1095
1804.2464715943465,1087
1806.2332993038058,1168
1808.2196298630352,1079
1810.2054635326708,1073
1812.190800573428,1054
1814.175641246101,1084
1816.1599858115628,1124
1818.1438345307652,1122
1820.127187664738,1127
1822.1100454745924,1103
1824.092408221516,1108
1826.0742761667766,1125
1828.055649571721,1113
1830.0365286977735,1082
1832.0169138064398,1095
1833.9968051593014,1099
1835.9762030180214,1127
1837.9551076443408,1131
1839.9335193000788,1110
1841.9114382471344,1069
1843.888864747485,1103
1845.8657990631878,1119
1847.842241456378,1121
1849.8181921892697,1091
1851.7936515241558,1085
1853.7686197234098,1080
1855.7430970494815,1075
1857.7170837649014,1116
1859.6905801322787,1121
1861.6635864143004,1110
1863.6361028737338,1121
1865.608129773424,1133
1867.5796673762961,1088
1869.5507159453537,1105
1871.521275743678,1075
1873.4913470344313,1124
1875.4609300808534,1131
1877.4300251462632,1142
1879.3986324940588,1106
1881.366752387717,1101
1883.3343850907936,1098
1885.3015308669228,1163
1887.268189979819,1114
1889.2343626932739,1149
1891.2000492711595,1087
1893.1652499774254,1110
1895.1299650761011,1110
1897.0941948312952,1147
1899.0579395071945,1132
1901.0211993680641,1118
1902.98397467825,1217
1904.9462657021745,1162
1906.9080727043415,1114
1908.869395949332,1120
1910.8302357018065,1174
1912.790592226504,1139
1914.7504657882428,1154
1916.7098566519212,1129
1918.6687650825133,1124
1920.6271913450764,1128
1922.5851357047422,1103
1924.5425984267245,1167
1926.499579776314,1073
1928.4560800188833,1098
1930.4120994198802,1206
1932.367638244833,1193
1934.32269675935,1103
1936.2772752291175,1132
1938.231373919899,1174
1940.1849930975404,1136
1942.1381330279637,1141
1944.0907939771696,1151
1946.0429762112412,1107
1947.9946799963363,1098
1949.9459055986945,1136
1951.896653284633,1090
1953.8469233205478,1111
1955.7967159729142,1101
1957.7460315082863,1132
1959.6948701932974,1089
1961.6432322946594,1097
1963.5911180791632,1126
1965.5385278136787,1115
1967.4854617651545,1110
1969.4319202006182,1097
1971.377903387176,1092
1973.3234115920136,1139
1975.268445082395,1054
1977.2130041256642,1091
1979.1570889892423,1078
1981.1006999406304,1083
1983.04383724741,1099
1984.986501177238,1072
1986.928691997853,1046
1988.8704099770712,1073
1990.811655382789,1100
1992.7524284829801,1094
1994.692729545698,1145
1996.6325588390755,1067
1998.5719166313224,1033
2000.5108031907307,1105
2002.4492187856677,1116
2004.387163684583,1040
2006.3246381560011,1070
2008.2616424685298,1078
2010.1981768908527,1048
2012.1342416917332,1072
2014.069837140014,1052
2016.0049635046162,1070
2017.9396210545406,1084
2019.8738100588666,1035
2021.8075307867502,1074
2023.740783507431,1084
2025.6735684902228,1100
2027.6058860045214,1119
2029.5377363198004,1082
2031.4691197056118,1097
2033.4000364315875,1077
2035.3304867674374,1063
2037.260470982952,1097
2039.189989347998,1065
2041.1190421325232,1078
2043.047629606554,1092
2044.9757520401945,1065
2046.9034097036288,1074
2048.8306028671195,1101
2050.7573318010086,1112
2052.683596775716,1053
2054.609398061742,1070
2056.5347359296647,1135
2058.4596106501403,1076
2060.384022493906,1084
2062.3079717317764,1066
2064.231458634646,1079
2066.1544834734873,1026
2068.077046519352,1007
2069.99914804337,1057
2071.9207883167524,1033
2073.8419676107865,1068
2075.7626861968406,1085
2077.6829443463607,1089
2079.6027423308715,1052
2081.522080421977,1034
2083.440958891362,1036
2085.359378010786,1104
2087.2773380520907,1063
2089.194839287196,1069
2091.111881988101,1053
2093.0284664268825,1036
2094.9445928756973,1028
2096.86026160678,1058
2098.775472892446,1058
2100.690227005088,1059
2102.604524217178,1052
2104.5183648012676,1052
2106.431749029985,1045
2108.34467717604,1028
2110.2571495122206,1090
2112.169166311393,1055
2114.080727846503,1078
2115.9918343905747,1084
2117.902486216711,1080
2119.8126835980956,1110
2121.722426807987,1080
2123.6317161197285,1093
2125.5405518067364,1068
2127.448934142509,1043
2129.356863400624,1081
2131.264339854737,1064
2133.1713637785815,1076
2135.077935445972,1067
2136.9840551308002,1108
2138.889723107037,1095
2140.7949396487334,1105
2142.699705030018,1090
2144.6040195250994,1093
2146.507883408264,1097
2148.4112969538774,1110
2150.3142604363848,1127
2152.2167741303097,1093
2154.1188383102535,1086
2156.0204532508997,1063
2157.9216192270064,1076
2159.822336513414,1062
2161.7226053850413,1126
2163.622426116884,1047
2165.5217989840185,1075
2167.4207242616,1082
2169.319202224862,1087
2171.2172331491165,1095
2173.1148173097563,1085
2175.0119549822507,1083
2176.90864644215,1122
2178.8048919650823,1124
2180.7006918267534,1135
2182.596046302952,1087
2184.4909556695407,1101
2186.3854202024645,1123
2188.279440177746,1111
2190.173015871487,1124
2192.066147559868,1097
2193.958835519149,1098
2195.851080025667,1103
2197.7428813558417,1093
2199.6342397861667,1151
2201.5251555932186,1112
2203.415629053651,1123
2205.3056604441986,1077
2207.19525004167,1091
2209.084398122958,1138
2210.9731049650327,1125
2212.861370844941,1182
2214.749196039812,1124
2216.636580826851,1131
2218.523525483344,1133
2220.410030286655,1081
2222.296095514226,1086
2224.1817214435805,1084
2226.066908352319,1099
2227.951656518121,1133
2229.835966218746,1119
2231.71983773203,1091
2233.6032713358913,1109
2235.486267308324,1117
2237.3688259274036,1178
2239.2509474712824,1147
2241.132632218193,1134
2243.013880446447,1121
2244.8946924344323,1139
2246.7750684606203,1154
2248.6550088035574,1078
2250.534513741871,1104
2252.413583554265,1127
2254.292218519526,1133
2256.170418916517,1113
2258.0481850241786,1134
2259.925517121534,1086
2261.8024154876825,1078
2263.678880401803,1119
2265.5549121431536,1139
2267.430510991071,1119
2269.305677224971,1077
2271.180411124348,1134
2273.0547129687766,1115
2274.9285830379076,1127
2276.8020216114737,1112
2278.6750289692845,1096
2280.5476053912294,1079
2282.4197511572766,1086
2284.2914665474727,1114
2286.162751841943,1123
2288.0336073208937,1128
2289.904033264608,1154
2291.774029953448,1120
2293.6435976678554,1116
2295.5127366883517,1118
2297.381447295534,1136
2299.2497297700825,1054
2301.1175843927526,1077
2302.9850114443825,1058
2304.852011205885,1023
2306.7185839582553,1027
2308.5847299825664,988
2310.4504495599676,1049
2312.3157429716925,1017
2314.1806104990483,1021
2316.0450524234247,1017
2317.9090690262888,1037
2319.772660589186,983
2321.635827393742,988
2323.498569721661,999
2325.3608878547248,1011
2327.2227820747967,997
2329.0842526638157,1009
2330.945299903803,1020
2332.805924076857,1001
2334.6661254651535,1009
2336.525904350951,997
2338.3852610165827,1009
2340.244195744464,1029
2342.102708817088,987
2343.9608005170253,1044
2345.8184711269287,985
2347.675720929526,1014
2349.532550207628,1005
2351.38895924412,1011
2353.24494832197,1022
2355.100517724223,1040
2356.955667734004,1002
2358.810398634514,1029
2360.664710709037,970
2362.5186042409337,1009
2364.3720795136437,981
2366.225136810686,1006
2368.0777764156583,1044
2369.929998612237,1067
2371.7818036841777,1020
2373.633191915315,991
2375.484163589562,1003
2377.3347189909114,994
2379.184858403434,1034
2381.03458211128,992
2382.8838903986775,1035
2384.732783549936,1030
2386.5812618494406,990
2388.4293255816588,1051
2390.2769750311327,987
2392.1242104824883,979
2393.971032220427,1038
2395.8174405297295,1033
2397.6634356952563,1045
2399.509018001947,1034
2401.3541877348193,985
2403.1989451789705,1034
2405.043290619576,1038
2406.8872243418905,1055
2408.730746631247,1041
2410.5738577730594,1018
2412.4165580528183,1049
2414.258847756095,1032
2416.100727168537,1023
2417.9421965758734,1031
2419.783256263912,1019
2421.623906518538,1070
2423.4641476257157,1039
2425.303979871491,1057
2427.143403541984,1025
2428.9824189233977,1023
2430.821026302012,1059
2432.6592259641866,1050
2434.497018196361,988
2436.33440328505,1026
2438.171381516851,961
2440.00795317844,975
2441.844118556569,1077
2443.6798779380724,1006
2445.5152316098606,1072
2447.3501798589255,1002
2449.1847229723357,1009
2451.0188612372403,1037
2452.8525949408663,1022
2454.6859243705203,1027
2456.518849813587,1037
2458.3513715575314,1032
2460.183489889895,1013
2462.015205098301,1028
2463.8465174704493,1071
2465.67742729412,1016
2467.5079348571717,1084
2469.338040447542,1066
2471.1677443532476,1021
2472.9970468623833,1078
2474.825948263123,1056
2476.6544488437207,1045
2478.482548892508,1083
2480.310248697896,1071
2482.137548548374,1033
2483.9644487325118,1038
2485.790949538956,1060
2487.617051256433,1062
2489.44275417375,1103
2491.26805857979,1068
2493.0929647635157,1069
2494.917473013971,1125
2496.741583620276,1084
2498.5652968716304,1111
2500.3886130573137,1060
2502.2115324666834,1063
2504.0340553891765,1044
2505.856182114308,1025
2507.6779129316733,1112
2509.499248130945,1056
2511.3201880018764,1042
2513.140732834298,1059
2514.9608829181198,1080
2516.780638543331,1114
2518.6,1071
2520.418967578273,1078
2522.237541568376,1091
2524.0557222606144,1054
2525.8735099453706,1045
2527.6909049131086,1037
2529.507907454368,1084
2531.32451785977,1055
2533.140736420014,1095
2534.9565634258774,1069
2536.771999168218,1098
2538.5870439379714,1117
2540.4016980261526,1073
2542.2159617238544,1116
2544.02983532225,1176
2545.8433191125914,1201
2547.656413386209,1166
2549.4691184345115,1143
2551.2814345489874,1147
2553.093362021204,1140
2554.904901142808,1144
2556.716052205523,1150
2558.526815501153,1176
2560.3371913215824,1167
2562.147179958771,1186
2563.956781704761,1255
2565.7659968516705,1184
2567.5748256916986,1257
2569.3832685171224,1235
2571.1913256202984,1144
2572.9989972936614,1230
2574.806283829725,1264
2576.613185521084,1269
2578.4197026604074,1181
2580.2258355404483,1248
2582.031584454035,1290
2583.836949694077,1253
2585.6419315535613,1219
2587.4465303255533,1217
2589.2507463032002,1258
2591.0545797797245,1261
2592.8580310484303,1274
2594.6611004026995,1226
2596.463788135992,1286
2598.266094541849,1239
2600.0680199138874,1206
2601.869564545807,1216
2603.670728731383,1178
2605.4715127644704,1265
2607.2719169390048,1234
2609.071941548998,1276
2610.8715868885433,1255
2612.670853251811,1276
2614.469740933052,1195
2616.268250226594,1253
2618.0663814268455,1215
2619.864134828292,1228
2621.6615107255006,1221
2623.458509413115,1257
2625.2551311858597,1238
2627.0513763385347,1223
2628.8472451660223,1230
2630.6427379632833,1205
2632.4378550253564,1203
2634.232596647359,1242
2636.026963124488,1203
2637.8209547520187,1220
2639.6145718253065,1240
2641.407814639785,1209
2643.200683490966,1150
2644.9931786744414,1115
2646.7853004858807,1140
2648.577049221034,1160
2650.3684251757277,1149
2652.1594286458712,1162
2653.9500599274484,1121
2655.740319316525,1150
2657.5302071092437,1112
2659.3197236018286,1135
2661.10886909058,1114
2662.8976438718782,1155
2664.686048242183,1122
2666.4740824980327,1147
2668.2617469360443,1175
2670.0490418529134,1109
2671.8359675454153,1102
2673.622524310403,1136
2675.408712444811,1072
2677.1945322456495,1075
2678.979984010009,1073
2680.76506803506,1100
2682.5497846180497,1138
2684.334134056306,1101
2686.1181166472343,1056
2687.9017326883213,1078
2689.6849824771293,1027
2691.4678663113013,1058
2693.2503844885596,1096
2695.032537306705,1096
2696.8143250636167,1094
2698.5957480572542,1060
2700.3768065856534,1035
2702.1575009469316,1009
2703.937831439283,1113
2705.717798360982,1034
2707.4974020103837,1018
2709.276642685917,1028
2711.055520686095,1036
2712.834036309506,1055
2714.612189854819,1010
2716.389981620782,996
2718.1674119062204,1049
2719.944481010041,1046
2721.721189231226,1012
2723.4975368688415,1057
2725.273524222027,1060
2727.0491515900053,1042
2728.824419272075,1036
2730.5993275676146,1023
2732.3738767760838,1025
2734.148067197016,992
2735.921899130031,977
2737.6953728748194,1021
2739.468488731156,1004
2741.2412469988926,1026
2743.0136479779617,980
2744.785691968372,1000
2746.5573792702116,1029
2748.3287101836504,1023
2750.099685008934,1023
2751.870304046388,1016
2753.640567596418,991
2755.4104759595057,1023
2757.1800294362156,987
2758.949228327187,1068
2760.7180729331412,962
2762.486563554877,1025
2764.254700493272,1036
2766.022484049284,1012
2767.789914523947,1005
2769.5569922183786,1004
2771.3237174337705,983
2773.090090471394,997
2774.8561116326036,1003
2776.6217812188274,981
2778.3870995315756,989
2780.1520668724356,964
2781.9166835430747,985
2783.6809498452394,1006
2785.444866080754,1007
2787.2084325515225,981
2788.971649559527,1001
2790.73451740683,1004
2792.4970363955713,973
2794.2592068279705,1000
2796.0210290063264,1012
2797.7825032330147,1011
2799.543629810493,1003
2801.304409041296,940
2803.0648412280366,992
2804.8249266734088,989
2806.5846656801846,1041
2808.344058551212,958
2810.1031055894246,1014
2811.8618070978273,1066
2813.6201633795085,967
2815.378174737636,1063
2817.1358414754536,987
2818.893163896285,1040
2820.6501423035334,992
2822.4067770006814,1025
2824.1630682912883,986
2825.9190164789957,972
2827.6746218675207,1005
2829.429884760661,1001
2831.184805462294,988
2832.9393842763743,1000
2834.693621506936,1017
2836.4475174580916,1007
2838.201072434034,988
2839.954286739034,1010
2841.707160677441,996
2843.459694553685,998
2845.2118886722724,1002
2846.96374333779,1010
2848.7152588549034,1036
2850.4664355283567,992
2852.217273662973,1019
2853.9677735636546,996
2855.7179355353833,975
2857.4677598832186,998
2859.217246912299,969
2860.9663969278427,980
2862.715210235146,1032
2864.4636871395846,1019
2866.211827946614,982
2867.9596329617652,1006
2869.7071024906536,1016
2871.4542368389684,956
2873.20103631248,1011
2874.947501217038,990
2876.6936318585695,975
2878.4394285430812,1037
2880.1848915766604,1020
2881.9300212654707,989
2883.6748179157553,1014
2885.4192818338374,1009
2887.1634133261173,1016
2888.907212699077,979
2890.6506802592744,1027
2892.393816313348,1020
2894.1366211680142,980
2895.8790951300693,1023
2897.621238506388,1023
2899.363051603925,1003
2901.1045347297118,993
2902.8456881908596,977
2904.58651229456,1034
2906.327007348081,1043
2908.067173658772,1039
2909.8070115340597,1037
2911.5465212814497,1026
2913.285703208527,1022
2915.0245576229563,1002
2916.7630848324807,1046
2918.5012851449196,1007
2920.2391588681758,983
2921.976706310227,1007
2923.7139277791334,1002
2925.4508235830313,966
2927.187394030137,984
2928.923639428745,1017
2930.6595600872306,1013
2932.395156314046,1021
2934.1304284177218,1023
2935.8653767068713,999
2937.6000014901815,983
2939.3343030764227,950
2941.068281774442,1030
2942.8019378931644,989
2944.5352717415976,1017
2946.2682836288236,1044
2948.0009738640065,963
2949.7333427563885,1012
2951.465390615289,990
2953.1971177501086,968
2954.9285244703265,958
2956.6596110855,973
2958.3903779052657,991
2960.1208252393385,985
2961.8509533975125,997
2963.5807626896617,1022
2965.3102534257378,972
2967.0394259157715,947
2968.768280469873,1013
2970.496817398232,986
2972.2250370111146,984
2973.952939618869,1008
2975.6805255319196,952
2977.4077950607707,1007
2979.134748516006,1010
2980.861386208289,1009
2982.587708448359,970
2984.313715547037,1008
2986.039407815222,1000
2987.764785563891,969
2989.489849104102,1047
2991.2145987469908,1004
2992.9390348037705,1044
2994.6631575857346,986
2996.3869674042576,956
2998.1104645707887,1008
2999.83364939686,973
3001.5565221940783,987
3003.2790832741334,938
3005.0013329487924,998
3006.7232715298996,1013
3008.4448993293804,1009
3010.166216659239,936
3011.887223831558,971
3013.607921158498,980
3015.3283089522993,967
3017.0483875252826,985
3018.7681571898443,964
3020.4876182584626,984
3022.2067710436927,965
3023.9256158581707,988
3025.644153014609,980
3027.362382825801,978
3029.0803056046193,957
3030.797921664012,950
3032.5152313170106,1000
3034.2322348767225,964
3035.9489326563353,942
3037.665324969115,995
3039.3814121284063,984
3041.097194447633,937
3042.812672240299,962
3044.5278458199855,947
3046.2427155003525,967
3047.9572815951406,1003
3049.671544418167,970
3051.38550428333,948
3053.0991615046073,967
3054.812516396051,959
3056.5255692717974,961
3058.2383204460575,961
3059.9507702331257,955
3061.662918947372,982
3063.3747669032446,1017
3065.0863144152736,962
3066.7975617980674,975
3068.508509366309,1000
3070.219157434767,996
3071.9295063182844,990
3073.639556331785,965
3075.3493077902704,978
3077.058761008821,1003
3078.7679163025964,975
3080.476773986837,1019
3082.1853343768594,1012
3083.89359778806,1000
3085.6015645359153,988
3087.3092349359786,957
3089.016609303884,1027
3090.7236879553434,974
3092.4304712061476,971
3094.136959372166,994
3095.843152769349,988
3097.5490517137237,969
3099.2546565213966,938
3100.959967508554,1003
3102.66498499146,995
3104.3697092864577,980
3106.0741407099695,965
3107.778279578498,990
3109.482126208622,938
3111.1856809170004,959
3112.8889440203716,1028
3114.5919158355528,991
3116.294596679439,961
3117.996986869006,1005
3119.6990867213062,1009
3121.4008965534726,1024
3123.102416682717,996
3124.803647426329,971
3126.5045891016784,966
3128.205242026213,996
3129.90560651746,972
3131.605682893025,941
3133.3054714705922,1021
3135.0049725679282,1008
3136.7041865028714,947
3138.4031135933465,977
3140.101754157353,1008
3141.800108512971,984
3143.498176978357,956
3145.1959598717494,1000
3146.8934575114636,998
3148.5906702158954,996
3150.2875983035183,988
3151.9842420928853,991
3153.680601902627,1004
3155.376678051456,1028
3157.07247085816,985
3158.767980641609,954
3160.463207720748,929
3162.158152414606,959
3163.8528150422862,1031
3165.5471959229726,952
3167.2412953759303,985
3168.9351137204976,969
3170.628651276098,1020
3172.3219083622307,1016
3174.014885298474,984
3175.707582404485,994
3177.4000000000005,990
3179.092138404835,991
3180.7839979388846,983
3182.47557892212,1017
3184.166881674594,1004
3185.8579065164386,975
3187.5486537678626,987
3189.2391237491547,1019
3190.9293167806827,989
3192.6192331828934,978
3194.3088732763117,986
3195.998237381542,986
3197.687325819268,963
3199.376138910251,963
3201.064676975334,1014
3202.7529403354347,973
3204.4409293115523,982
3206.1286442247647,946
3207.816085396229,986
3209.5032531471825,926
3211.190147798936,986
3212.8767696728846,959
3214.5631190905015,1003
3216.2491963733373,979
3217.9350018430214,1004
3219.6205358212637,979
3221.305798629851,971
3222.990790590651,936
3224.6755120256103,972
3226.359963256751,937
3228.0441446061795,946
3229.7280563960758,947
3231.411698948703,979
3233.0950725863995,954
3234.778177631587,983
3236.461014406761,977
3238.1435832345005,972
3239.8258844374595,949
3241.507918338374,987
3243.1896852600576,972
3244.8711855254023,1000
3246.552419457381,964
3248.233387379042,962
3249.914089613516,1012
3251.59452648401,987
3253.274698313813,957
3254.95460542629,988
3256.6342481448855,918
3258.313626793125,941
3259.9927416946084,976
3261.6715931730196,942
3263.3501815521176,960
3265.0285071557437,943
3266.706570307815,982
3268.3843713323286,973
3270.0619105533615,977
3271.739188295068,964
3273.4162048816834,978
3275.0929606375184,972
3276.769455886966,962
3278.445690954498,962
3280.1216661646613,995
3281.797381842087,990
3283.4728383114807,951
3285.1480358976296,906
3286.8229749253996,950
3288.4976557197333,915
3290.172078605655,953
3291.846243908266,951
3293.5201519527463,975
3295.193803064357,953
3296.8671975684374,919
3298.5403357904024,984
3300.21321805575,931
3301.8858446900567,988
3303.558216018975,953
3305.23033236824,1000
3306.9021940636603,928
3308.57380143113,998
3310.2451547966184,967
3311.916254486174,981
3313.5871008259246,1033
3315.2576941420766,1020
3316.9280347609147,968
3318.5981230088046,948
3320.2679592121895,900
3321.9375436975924,964
3323.606876791612,919
3325.27595882093,949
3326.944790112305,952
3328.6133709925753,963
3330.2817017886573,936
3331.949782827547,940
3333.617614436319,972
3335.2851969421245,964
3336.952530672199,963
3338.619615953853,963
3340.286453114475,953
3341.9530424815357,968
3343.619384382583,1002
3345.2854791452437,973
3346.951327097224,960
3348.6169285663073,993
3350.2822838803577,990
3351.947393367319,983
3353.61225735521,986
3355.2768761721345,999
3356.9412501462693,970
3358.605379605873,980
3360.2692648792827,944
3361.9329062949146,994
3363.596304181263,961
