CollectionTime,7/11/2024 2:18:11 PM
ExposureUsed,3
CalibratedSpectrum
-962.7078968117929,431
-959.9714848408522,429
-957.2358232597828,441
-954.5009119013725,441
-951.7667505983302,454
-949.0333391832855,467
-946.3006774887896,457
-943.5687653473143,452
-940.837602591253,436
-938.1071890529199,436
-935.3775245645503,435
-932.6486089583007,455
-929.9204420662485,466
-927.1930237203925,478
-924.4663537526524,431
-921.7404319948689,446
-919.0152582788041,465
-916.2908324361409,474
-913.5671542984834,439
-910.8442236973568,446
-908.1220404642074,430
-905.4006044304027,428
-902.679915427231,475
-899.959973285902,436
-897.2407778375464,441
-894.5223289132158,425
-891.8046263438832,443
-889.0876699604426,449
-886.3714595937089,473
-883.6559950744183,479
-880.9412762332282,437
-878.2273029007168,435
-875.5140749073835,426
-872.8015920836489,442
-870.0898542598545,444
-867.3788612662631,429
-864.6686129330585,453
-861.9591090903457,441
-859.2503495681506,438
-856.5423341964203,455
-853.8350628050229,474
-851.1285352237478,457
-848.4227512823054,449
-845.7177108103272,469
-843.0134136373656,456
-840.3098595928943,456
-837.6070485063082,460
-834.9049802069229,476
-832.2036545239757,454
-829.5030712866244,461
-826.8032303239481,448
-824.1041314649472,462
-821.4057745385428,460
-818.7081593735775,460
-816.0112857988148,436
-813.3151536429393,457
-810.6197627345566,467
-807.9251129021936,442
-805.2312039742981,458
-802.5380357792392,449
-799.8456081453069,491
-797.1539209007124,494
-794.462973873588,482
-791.772766891987,472
-789.083299783884,473
-786.3945723771743,471
-783.7065844996748,468
-781.0193359791231,457
-778.3328266431781,470
-775.6470563194197,448
-772.9620248353489,455
-770.2777320183878,457
-767.5941776958798,476
-764.9113616950891,461
-762.2292838432011,468
-759.5479439673222,463
-756.8673418944801,461
-754.1874774516235,471
-751.5083504656222,469
-748.8299607632671,496
-746.15230817127,471
-743.475392516264,487
-740.7992136248035,458
-738.1237713233636,485
-735.4490654383407,496
-732.7750957960521,491
-730.1018622227365,488
-727.4293645445534,511
-724.7576025875837,490
-722.0865761778291,484
-719.4162851412126,489
-716.7467293035781,484
-714.0779084906909,494
-711.409822528237,480
-708.7424712418238,488
-706.0758544569796,486
-703.4099719991541,472
-700.7448236937178,481
-698.0804093659622,501
-695.4167288411002,491
-692.7537819442656,492
-690.0915685005134,491
-687.4300883348199,509
-684.7693412720819,489
-682.1093271371178,518
-679.4500457546669,518
-676.7914969493897,495
-674.1336805458676,490
-671.4765963686034,505
-668.8202442420206,517
-666.1646239904642,522
-663.5097354382001,519
-660.8555784094151,487
-658.2021527282176,497
-655.5494582186366,522
-652.8974947046223,491
-650.2462620100463,504
-647.5957599587009,508
-644.9459883742998,507
-642.2969470804776,509
-639.6486359007902,519
-637.0010546587141,522
-634.3542031776476,518
-631.7080812809096,516
-629.0626887917401,520
-626.4180255333008,505
-623.7740913286734,509
-621.1308860008619,548
-618.4884093727904,544
-615.8466612673046,540
-613.2056415071715,508
-610.5653499150785,509
-607.9257863136347,507
-605.28695052537,553
-602.6488423727357,518
-600.0114616781036,538
-597.3748082637674,514
-594.7388819519412,537
-592.1036825647604,540
-589.4692099242818,522
-586.8354638524829,549
-584.2024441712624,512
-581.5701507024403,533
-578.9385832677575,523
-576.3077416888759,545
-573.6776257873787,530
-571.0482353847704,532
-568.4195703024757,524
-565.7916303618415,543
-563.164415384135,554
-560.5379251905453,552
-557.9121596021815,557
-555.2871184400748,555
-552.6628015251767,568
-550.0392086783606,521
-547.4163397204204,549
-544.794194472071,572
-542.1727727539491,567
-539.5520743866118,566
-536.9320991905377,578
-534.3128469861261,590
-531.6943175936979,629
-529.0765108334947,599
-526.4594265256793,628
-523.8430644903358,749
-521.2274245474689,817
-518.612506517005,807
-515.9983102187913,790
-513.3848354725959,838
-510.77208209810846,930
-508.16004991493924,970
-505.5487387426199,996
-502.9381484006032,1060
-500.3282787082628,968
-497.71912948489364,935
-495.1107005497117,898
-492.5029917218539,764
-489.8960028203786,697
-487.28973366426493,665
-484.68418407241325,659
-482.07935386364494,654
-479.47524285670266,617
-476.87185087025,635
-474.2691777228715,664
-471.66722323307334,618
-469.0659872192821,680
-466.4654694998459,672
-463.86566989303384,700
-461.26658821703614,681
-458.66822428996414,652
-456.07057792985,671
-453.4736489546475,666
-450.877437182231,664
-448.28194243039627,635
-445.68716451686,655
-443.09310325926003,652
-440.49975847515555,667
-437.9071299820263,676
-435.31521759727354,687
-432.72402113821954,676
-430.13354042210767,656
-427.5437752661022,697
-424.95472548728867,700
-422.36639090267386,705
-419.7787713291855,731
-417.1918665836721,719
-414.60567648290385,718
-412.0202008435715,720
-409.4354394822874,723
-406.8513922155845,709
-404.26805885991723,754
-401.685439231661,740
-399.103533147112,715
-396.522340422488,709
-393.9418608739278,699
-391.3620943174908,669
-388.7830405691583,690
-386.2046994448317,646
-383.6270707603344,641
-381.05015433141045,640
-378.473949973725,567
-375.8984575028645,577
-373.32367673433623,558
-370.74960748356875,522
-368.1762495659117,529
-365.60360279663576,495
-363.03166699093265,476
-360.4604419639154,430
-357.8899275306178,463
-355.32012350599507,421
-352.7510297049233,406
-350.1826459421999,403
-347.61497203254316,405
-345.04800779059235,396
-342.4817530309082,394
-339.91620756797226,397
-337.35137121618743,409
-334.7872437898774,415
-332.22382510328725,443
-329.66111497058273,402
-327.09911320585127,430
-324.53781962310075,431
-321.9772340362607,426
-319.4173562591816,412
-316.8581861056348,414
-314.2997233893127,396
-311.7419679238294,430
-309.1849195227194,426
-306.62857799943856,440
-304.0729431673641,481
-301.51801483979375,482
-298.963792829947,488
-296.41027695096386,437
-293.85746701590574,463
-291.3053628377552,475
-288.7539642294155,456
-286.2032710037115,459
-283.65328297338897,471
-281.1039999511146,473
-278.5554217494762,461
-276.007548180983,482
-273.4603790580651,499
-270.9139141930734,503
-268.3681533982807,490
-265.8230964858798,540
-263.27874326798565,536
-260.7350935566336,530
-258.1921471637804,545
-255.6499039013039,554
-253.10836358100266,560
-250.56752601459698,503
-248.02739101372765,493
-245.48795838995704,501
-242.94922795476816,584
-240.41119951956557,577
-237.8738728956746,547
-235.33724789434166,542
-232.80132432673452,487
-230.2661020039418,517
-227.73158073697357,550
-225.19776033676033,538
-222.66464061415422,539
-220.1322213799284,569
-217.60050244477725,567
-215.06948361931552,566
-212.53916471408013,526
-210.00954553952818,599
-207.48062590603843,601
-204.9524056239104,588
-202.4248845033651,626
-199.8980623545441,601
-197.37193898751036,598
-194.84651421224817,640
-192.32178783866232,626
-189.79775967657952,574
-187.27442953574644,611
-184.7517972258321,583
-182.2298625564256,527
-179.7086253370378,588
-177.18808537710026,569
-174.66824248596583,572
-172.14909647290835,581
-169.6306471471229,651
-167.11289431772548,651
-164.59583779375328,644
-162.07947738416453,695
-159.5638128978386,654
-157.04884414357605,750
-154.53457093009854,760
-152.02099306604828,770
-149.50811035998936,732
-146.99592262040665,709
-144.48442965570587,759
-141.97363127421409,745
-139.46352728417958,793
-136.95411749377126,928
-134.44540171107985,783
-131.93737974411636,687
-129.43005140081357,693
-126.92341648902493,775
-124.41747481652521,915
-121.91222619101006,992
-119.40767042009657,1240
-116.90380731132257,1383
-114.40063667214702,1386
-111.8981583099503,1326
-109.3963720320337,1182
-106.89527764561933,1052
-104.39487495785067,1018
-101.89516377579241,1202
-99.39614390642998,1501
-96.89781515667039,1717
-94.40017733334128,1979
-91.90323024319173,2155
-89.40697369289148,2536
-86.91140748903172,3170
-84.41653143812482,2904
-81.92234534660395,2012
-79.42884902082358,1640
-76.93604226705907,2424
-74.4439248915071,4667
-71.95249670028534,7353
-69.46175749943245,9405
-66.97170709490854,9913
-64.48234529259423,8946
-61.99367189829195,7964
-59.50568671772464,7536
-57.01838955653636,6235
-54.53178022029283,4756
-52.045858514480074,4845
-49.560624244506016,5202
-47.07607721569923,5898
-44.59221723330904,6193
-42.10904410250669,5687
-39.62655762838392,5478
-37.14475761595372,5697
-34.66364387015028,6942
-32.18321619582866,8511
-29.70347439776515,9597
-27.224418280657005,10479
-24.74604764912317,11843
-22.26836230770266,12761
-19.7913620608565,16204
-17.315046712966478,22194
-14.83941606833514,27689
-12.36446993118659,35338
-9.89020810566592,65039
-7.416630395839093,65039
-4.94373660569363,65039
-2.471526539137585,65039
-6.821210263296962E-13,65039
2.47084320796705,65039
4.941003281093458,65039
7.410480415786196,65039
9.879274808531363,65039
12.347386655893956,65039
14.814816154518212,65039
17.28156350112681,65039
19.74762889252179,65039
22.21301252558385,26473
24.67771459727237,4006
27.141735304626195,2413
29.605074844762612,2047
32.06773341487792,1915
34.52971121224755,1849
36.99100843422559,1489
39.45162527824516,1411
41.91156194181792,1394
44.370818622535126,1184
46.82939551806646,1106
49.287292826160524,1101
51.74451074464503,1279
54.201049471426245,1390
56.65690920448981,1367
59.112090141899785,1111
61.56659248179983,961
64.02041642241159,984
66.4735621620365,905
68.92602989905402,893
71.37781983192338,1021
73.82893215918205,1085
76.27936707944684,1206
78.72912479141326,1087
81.17820549385567,1001
83.62660938562783,1014
86.07433666566146,1013
88.5213875329681,849
90.96776218663751,779
93.41346082583925,795
95.85848364982041,841
98.30283085790859,819
100.7465026495089,819
103.18949922410604,952
105.63182078126385,936
108.07346752062438,953
110.51443964190923,914
112.95473734491827,754
115.39436082953114,759
117.83331029570547,818
120.27158594347827,894
122.7091879729652,893
125.1461165843615,973
127.58237197794062,911
130.01795435405518,868
132.4528639131364,803
134.88710085569494,829
137.32066538231982,811
139.75355769367923,816
142.1857779905207,761
144.61732647366978,752
147.04820334403132,698
149.47840880258934,703
151.90794305040674,778
154.33680628862487,836
156.76499871846443,1004
159.19252054122433,1075
161.61937195828352,1138
164.04555317109896,1128
166.47106438120693,1228
168.89590579022217,1315
171.320077599839,1374
173.7435800118302,1462
176.16641322804742,1432
178.58857745042144,1610
181.01007288096173,1606
183.43089972175687,1668
185.85105817497413,1616
188.27054844285988,1633
190.6893707277394,1654
193.10752523201643,1621
195.5250121581745,1672
197.9418317087751,1706
200.3579840864594,1674
202.7734694939469,1726
205.18828813403627,1716
207.6024402096051,1738
210.01592592360964,1826
212.42874547908548,1810
214.84089907914665,1836
217.2523869269868,1760
219.66320922587727,1780
222.0733661791695,1837
224.48285799029293,1814
226.8916848627572,1777
229.29984700014882,1848
231.7073446061355,1798
234.11417788446204,1836
236.520347038953,1854
238.92585227351185,1806
241.33069379212054,1956
243.73487179884035,2018
246.1383864978112,1885
248.541238093252,1998
250.9434267894609,1925
253.34495279081432,1926
255.74581630176783,1970
258.1460175268563,1917
260.54555667069314,1975
262.9444339379703,2003
265.3426495334594,1882
267.7402036620107,1922
270.1370965285529,1912
272.53332833809407,1842
274.9288992957214,1784
277.32380960660055,1795
279.718059475976,1754
282.1116491091717,1718
284.5045787115897,1728
286.89684848871195,1769
289.2884586460981,1687
291.67940938938807,1739
294.0697009242996,1739
296.4593334566299,1716
298.84830719225477,1793
301.23662233712923,1760
303.6242790972866,1680
306.01127767884,1703
308.39761828798066,1643
310.78330113097934,1754
313.16832641418534,1630
315.5526943440269,1602
317.9364051270112,1638
320.3194589697242,1606
322.70185607883093,1622
325.0835966610754,1616
327.4646809232805,1584
329.8451090723478,1552
332.2248813152577,1668
334.6039978590701,1540
336.9824589109231,1562
339.36026467803447,1620
341.7374153677,1459
344.113911187295,1546
346.48975234427337,1521
348.8649390461686,1517
351.2394715005918,1503
353.61334991523415,1562
355.9865744978655,1521
358.35914545633375,1512
360.73106299856715,1478
363.10232733257146,1561
365.47293866643247,1535
367.84289720831396,1487
370.2122031664593,1408
372.5808567491905,1544
374.9488581649083,1447
377.31620762209275,1413
379.6829053293021,1432
382.0489514951745,1511
384.4143463284262,1417
386.7790900378528,1415
389.14318283232853,1413
391.50662492080653,1421
393.86941651231916,1431
396.23155781597745,1450
398.5930490409713,1435
400.9538903965696,1440
403.3140820921202,1458
405.6736243370498,1483
408.03251734086336,1462
410.3907613131465,1422
412.74835646356166,1409
415.10530300185144,1329
417.4616011378372,1431
419.81725108141893,1422
422.1722530425758,1380
424.5266072313656,1360
426.880313857925,1435
429.2333731324701,1395
431.58578526529516,1331
433.9375504667738,1305
436.2886689473588,1387
438.63914091758113,1330
440.9889665880513,1392
443.33814616945835,1345
445.68667987257015,1311
448.03456790823395,1338
450.3818104873759,1314
452.72840782100013,1339
455.07436012019105,1382
457.41966759611057,1282
459.7643304600007,1365
462.10834892318155,1356
464.4517231970525,1293
466.79445349309174,1380
469.1365400228566,1340
471.4779829979826,1393
473.81878263018564,1270
476.15893913125876,1324
478.4984527130747,1318
480.8373235875855,1350
483.17555196682144,1353
485.5131380628919,1386
487.8500820879857,1393
490.1863842543697,1408
492.52204477439034,1512
494.8570638604725,1506
497.1914417251204,1580
499.52517858091653,1785
501.85827464052306,1971
504.19073011668036,2203
506.5225452222086,2327
508.85372017000566,2369
511.18425517304956,2442
513.514150444396,2524
515.8434061971808,2829
518.1720226446176,3397
520.4999999999999,3485
522.8273384766991,3264
525.1540382881666,3034
527.480099647932,2727
529.8055227696037,2251
532.1303078668694,1779
534.454455153496,1551
536.777964843328,1433
539.1008371502907,1424
541.4230722883866,1415
543.744670471698,1369
546.0656319143858,1326
548.3859568306899,1413
550.7056454349294,1333
553.0246979415016,1382
555.3431145648834,1321
557.6608955196306,1375
559.978041020377,1400
562.2945512818363,1302
564.6104265188006,1411
566.9256669461412,1388
569.2402727788082,1342
571.5542442318302,1358
573.8675815203156,1377
576.1802848594508,1355
578.4923544645015,1412
580.8037905508126,1373
583.114593333807,1353
585.4247630289875,1395
587.7342998519354,1405
590.0432040183106,1372
592.3514757438526,1367
594.6591152443794,1315
596.9661227357875,1326
599.2724984340531,1347
601.578242555231,1376
603.8833553154542,1360
606.1878369309362,1350
608.4916876179676,1395
610.7949075929192,1462
613.0974970722403,1351
615.3994562724587,1337
617.7007854101818,1330
620.0014847020951,1394
622.3015543649641,1338
624.6009946156324,1371
626.8998056710224,1388
629.1979877481361,1347
631.4955410640538,1355
633.7924658359349,1436
636.0887622810175,1408
638.3844306166192,1360
640.6794710601358,1374
642.9738838290426,1425
645.2676691408932,1316
647.5608272133207,1365
649.853358264037,1425
652.1452625108324,1396
654.4365401715764,1409
656.7271914642178,1395
659.0172166067838,1425
661.3066158173809,1425
663.5953893141935,1432
665.8835373154867,1443
668.1710600396028,1414
670.4579577049639,1419
672.7442305300709,1474
675.0298787335033,1419
677.3149025339197,1432
679.599302150058,1397
681.8830778007342,1494
684.1662297048437,1379
686.4487580813608,1453
688.7306631493387,1440
691.0119451279091,1351
693.2926042362834,1408
695.5726406937516,1410
697.8520547196814,1446
700.1308465335215,1324
702.4090163547982,1406
704.6865644031171,1448
706.9634908981619,1345
709.2397960596965,1376
711.5154801075631,1392
713.7905432616823,1426
716.0649857420548,1368
718.3388077687592,1391
720.612009561953,1335
722.8845913418733,1403
725.1565533288352,1381
727.427895743234,1385
729.6986188055427,1379
731.9687227363137,1416
734.238207756178,1419
736.5070740858458,1445
738.7753219461066,1413
741.0429515578281,1377
743.3099631419569,1351
745.5763569195191,1394
747.8421331116193,1416
750.1072919394409,1383
752.3718336242467,1404
754.6357583873777,1379
756.8990664502545,1388
759.1617580343765,1400
761.423833361321,1402
763.6852926527457,1417
765.9461361303862,1438
768.206364016058,1411
770.4659765316536,1408
772.7249738991469,1419
774.9833563405886,1434
777.2411240781092,1480
779.4982773339183,1427
781.7548163303044,1392
784.010741289634,1393
786.2660524343538,1487
788.5207499869881,1506
790.7748341701416,1440
793.0283052064964,1475
795.2811633188143,1423
797.5334087299362,1504
799.7850416627813,1444
802.0360623403484,1440
804.2864709857143,1448
806.5362678220353,1404
808.7854530725468,1400
811.0340269605625,1418
813.2819897094754,1349
815.5293415427581,1470
817.77608268396,1436
820.0222133567116,1406
822.2677337847211,1455
824.5126441917765,1433
826.7569448017433,1418
829.0006358385675,1371
831.2437175262731,1420
833.4861900889629,1449
835.7280537508192,1403
837.9693087361026,1420
840.2099552691533,1407
842.4499935743896,1413
844.689423876309,1463
846.9282463994886,1352
849.1664613685833,1415
851.4040690083276,1387
853.6410695435349,1436
855.877463199097,1445
858.1132501999847,1400
860.3484307712487,1500
862.5830051380175,1454
864.8169735254988,1431
867.0503361589791,1473
869.2830932638243,1448
871.5152450654786,1436
873.7467917894654,1427
875.9777336613873,1479
878.2080709069252,1540
880.4378037518389,1442
882.666932421968,1446
884.8954571432301,1452
887.1233781416219,1414
889.3506956432192,1526
891.5774098741766,1483
893.803521060728,1411
896.0290294291852,1508
898.2539352059397,1447
900.4782386174619,1369
902.7019398903011,1423
904.925039251085,1401
907.147536926521,1420
909.3694331433943,1433
911.59072812857,1397
913.8114221089921,1400
916.0315153116827,1434
918.2510079637437,1443
920.4699002923547,1340
922.6881925247761,1449
924.905884888345,1401
927.1229776104793,1434
929.3394709186747,1407
931.555365040506,1389
933.7706602036275,1411
935.9853566357709,1410
938.1994545647489,1384
940.4129542184515,1411
942.6258558248488,1341
944.8381596119883,1371
947.0498658079974,1350
949.2609746410825,1365
951.4714863395287,1382
953.6814011316998,1373
955.8907192460387,1382
958.0994409110671,1413
960.3075663553858,1371
962.5150958076741,1380
964.7220294966913,1423
966.928367651274,1380
969.1341105003388,1403
971.3392582728806,1380
973.5438111979742,1378
975.747769504772,1438
977.9511334225061,1357
980.153903180487,1280
982.3560790081052,1387
984.5576611348289,1336
986.7586497902058,1422
988.9590452038618,1298
991.158847605503,1338
993.3580572249133,1312
995.5566742919558,1322
997.7546990365728,1275
999.952131688785,1278
1002.1489724786926,1251
1004.3452216364743,1291
1006.5408793923874,1272
1008.7359459767691,1241
1010.9304216200343,1256
1013.1243065526781,1262
1015.3176010052733,1216
1017.510305208472,1194
1019.7024193930064,1257
1021.8939437896848,1159
1024.0848786293977,1209
1026.2752241431122,1165
1028.4649805618747,1235
1030.6541481168115,1214
1032.842727039127,1199
1035.0307175601051,1157
1037.2181199111074,1146
1039.4049343235752,1134
1041.591161029029,1157
1043.7768002590683,1155
1045.9618522453698,1189
1048.1463172196918,1181
1050.3301954138697,1177
1052.513487059818,1149
1054.69619238953,1222
1056.8783116350783,1181
1059.0598450286152,1191
1061.2407928023704,1174
1063.4211551886528,1131
1065.6009324198508,1137
1067.780124728432,1142
1069.9587323469414,1171
1072.1367555080046,1124
1074.314194444325,1108
1076.4910493886855,1137
1078.667320573947,1187
1080.843008233051,1111
1083.0181125990161,1099
1085.1926339049414,1090
1087.3665723840027,1120
1089.5399282694575,1107
1091.7127017946405,1094
1093.8848931929647,1076
1096.0565026979243,1161
1098.2275305430899,1101
1100.3979769621128,1017
1102.567842188722,1084
1104.737126456726,1125
1106.9058300000124,1075
1109.0739530525475,1121
1111.2414958483764,1118
1113.4084586216231,1133
1115.5748416064907,1102
1117.7406450372605,1104
1119.9058691482942,1115
1122.0705141740304,1142
1124.2345803489884,1099
1126.3980679077658,1058
1128.5609770850388,1117
1130.7233081155623,1098
1132.8850612341707,1119
1135.0462366757774,1081
1137.2068346753745,1087
1139.3668554680326,1078
1141.526299288901,1069
1143.68516637321,1152
1145.8434569562655,1057
1148.001171273455,1066
1150.158309560244,1102
1152.3148720521767,1082
1154.470858984876,1080
1156.626270594044,1061
1158.7811071154629,1039
1160.9353687849912,1095
1163.089055838569,1037
1165.242168512213,1029
1167.3947070420209,1073
1169.5466716641677,1076
1171.6980626149075,1000
1173.8488801305748,1052
1175.9991244475814,1047
1178.1487958024186,1042
1180.2978944316555,1146
1182.4464205719428,1079
1184.5943744600072,1038
1186.7417563326567,1046
1188.8885664267755,1069
1191.0348049793297,1049
1193.1804722273619,1102
1195.325568407995,1082
1197.4700937584303,1100
1199.614048515948,1012
1201.7574329179074,1040
1203.900247201746,1054
1206.042491604982,1090
1208.1841663652099,1085
1210.3252717201053,1132
1212.465807907422,1110
1214.6057751649923,1065
1216.7451737307279,1134
1218.8840038426192,1090
1221.0222657387353,1074
1223.1599596572241,1076
1225.2970858363137,1076
1227.4336445143094,1113
1229.5696359295966,1085
1231.705060320639,1096
1233.8399179259786,1066
1235.9742089842384,1069
1238.107933734118,1133
1240.2410924143974,1075
1242.373685263935,1066
1244.5057125216676,1129
1246.6371744266116,1099
1248.7680712178621,1117
1250.898403134593,1075
1253.028170416058,1073
1255.1573733015875,1084
1257.2860120305932,1065
1259.4140868425648,1095
1261.54159797707,1119
1263.6685456737569,1094
1265.7949301723515,1092
1267.9207517126597,1164
1270.046010534565,1135
1272.1707068780306,1125
1274.2948409830983,1164
1276.4184130898889,1160
1278.541423438603,1113
1280.6638722695184,1195
1282.785759822993,1159
1284.9070863394636,1121
1287.0278520594447,1169
1289.1480572235314,1189
1291.2677020723963,1154
1293.3867868467923,1208
1295.5053117875495,1176
1297.623277135579,1185
1299.740683131868,1207
1301.8575300174857,1247
1303.973818033578,1214
1306.0895474213703,1252
1308.2047184221678,1243
1310.3193312773528,1227
1312.4333862283888,1234
1314.5468835168163,1233
1316.659823384255,1251
1318.7722060724045,1261
1320.8840318230418,1259
1322.9953008780249,1262
1325.1060134792888,1242
1327.2161698688478,1287
1329.3257702887959,1274
1331.4348149813054,1281
1333.5433041886276,1263
1335.6512381530933,1191
1337.7586171171101,1212
1339.8654413231675,1258
1341.9717110138317,1203
1344.0774264317488,1235
1346.1825878196432,1262
1348.2871954203192,1275
1350.3912494766587,1232
1352.4947502316231,1184
1354.5976979282532,1209
1356.7000928096686,1202
1358.8019351190665,1220
1360.9032250997243,1153
1363.0039629949988,1228
1365.1041490483235,1177
1367.2037835032133,1179
1369.3028666032606,1183
1371.401398592137,1220
1373.4993797135926,1196
1375.5968102114575,1200
1377.6936903296396,1159
1379.7900203121262,1203
1381.8858004029835,1228
1383.9810308463561,1196
1386.075711886469,1141
1388.1698437676241,1168
1390.2634267342032,1193
1392.356461030667,1233
1394.4489469015557,1194
1396.5408845914872,1248
1398.6322743451592,1207
1400.7231164073469,1191
1402.813411022907,1184
1404.903158436773,1191
1406.9923588939578,1179
1409.0810126395531,1190
1411.1691199187303,1179
1413.2566809767386,1193
1415.343696058907,1162
1417.4301654106425,1174
1419.5160892774315,1172
1421.6014679048399,1172
1423.6863015385125,1159
1425.7705904241707,1183
1427.8543348076178,1210
1429.9375349347342,1193
1432.0201910514802,1184
1434.102303403894,1192
1436.1838722380944,1231
1438.2648978002767,1190
1440.3453803367174,1214
1442.4253200937692,1218
1444.5047173178677,1284
1446.5835722555234,1220
1448.6618851533285,1237
1450.739656257952,1305
1452.8168858161434,1315
1454.8935740747306,1247
1456.96972128062,1267
1459.045327680797,1295
1461.120393522327,1293
1463.1949190523528,1265
1465.2689045180973,1346
1467.3423501668608,1381
1469.415256246024,1360
1471.4876230030463,1377
1473.559450685465,1333
1475.6307395408976,1387
1477.7014898170391,1405
1479.771701761665,1422
1481.8413756226287,1383
1483.9105116478618,1405
1485.9791100853772,1392
1488.0471711832643,1459
1490.1146951896926,1457
1492.1816823529098,1433
1494.2481329212433,1402
1496.3140471430984,1504
1498.3794252669609,1469
1500.4442675413939,1464
1502.5085742150404,1449
1504.572345536622,1483
1506.6355817549388,1535
1508.6982831188702,1523
1510.7604498773744,1481
1512.8220822794883,1555
1514.8831805743293,1495
1516.9437450110909,1556
1519.003775839048,1579
1521.0632733075522,1567
1523.1222376660367,1557
1525.1806691640113,1517
1527.2385680510652,1523
1529.2959345768668,1623
1531.3527689911643,1575
1533.4090715437833,1534
1535.4648424846291,1554
1537.5200820636855,1669
1539.5747905310159,1674
1541.6289681367616,1705
1543.6826151311434,1657
1545.7357317644614,1688
1547.7883182870937,1650
1549.8403749494987,1727
1551.8919020022113,1745
1553.9428996958477,1800
1555.9933682811015,1733
1558.0433080087469,1763
1560.0927191296346,1858
1562.1416018946961,1891
1564.1899565549415,1912
1566.2377833614592,1917
1568.2850825654164,1910
1570.3318544180606,1880
1572.3780991707158,1933
1574.423817074788,1897
1576.4690083817595,1883
1578.5136733431923,1785
1580.5578122107272,1834
1582.601425236085,1816
1584.6445126710646,1686
1586.6870747675434,1710
1588.7291117774776,1608
1590.7706239529034,1578
1592.8116115459347,1504
1594.8520748087658,1509
1596.8920139936686,1476
1598.9314293529933,1413
1600.9703211391711,1438
1603.008689604711,1464
1605.0465350022005,1402
1607.0838575843068,1351
1609.1206576037753,1316
1611.1569353134305,1315
1613.1926909661765,1251
1615.2279248149953,1263
1617.2626371129481,1260
1619.2968281131757,1278
1621.3304980688963,1218
1623.3636472334088,1206
1625.39627586009,1155
1627.428384202396,1219
1629.459972513861,1213
1631.4910410480993,1169
1633.5215900588028,1218
1635.551619799744,1177
1637.5811305247717,1159
1639.6101224878166,1110
1641.6385959428862,1111
1643.6665511440683,1129
1645.693988345528,1074
1647.7209078015112,1147
1649.7473097663405,1131
1651.7731944944203,1089
1653.7985622402307,1130
1655.823413258333,1156
1657.847747803366,1113
1659.8715661300494,1074
1661.8948684931793,1051
1663.9176551476316,1092
1665.9399263483624,1136
1667.9616823504057,1092
1669.982923408873,1105
1672.0036497789574,1112
1674.0238617159293,1136
1676.043559475138,1114
1678.0627433120121,1084
1680.081413482059,1089
1682.0995702408654,1086
1684.117213844096,1093
1686.134344547495,1051
1688.1509626068864,1074
1690.1670682781705,1096
1692.182661817329,1084
1694.1977434804217,1063
1696.2123135235875,1124
1698.226372203043,1090
1700.2399197750851,1091
1702.2529564960905,1046
1704.2654826225112,1089
1706.277498410882,1088
1708.2890041178139,1076
1710.2999999999988,1091
1712.3104863142066,1111
1714.3204633172854,1127
1716.329931266163,1060
1718.3388904178469,1057
1720.3473410294214,1071
1722.3552833580516,1050
1724.3627176609807,1098
1726.3696441955308,1137
1728.3760632191033,1059
1730.3819749891782,1115
1732.3873797633146,1060
1734.3922777991502,1084
1736.3966693544012,1072
1738.4005546868639,1060
1740.4039340544127,1043
1742.406807715001,1078
1744.4091759266616,1123
1746.4110389475054,1074
1748.4123970357223,1044
1750.413250449582,1086
1752.4135994474318,1035
1754.4134442876993,1066
1756.4127852288902,1045
1758.4116225295893,1075
1760.4099564484595,1105
1762.407787244244,1074
1764.405115175764,1061
1766.4019405019203,1057
1768.3982634816916,1063
1770.3940843741357,1025
1772.3894034383907,1024
1774.3842209336717,1041
1776.378537119274,1101
1778.372352254571,1062
1780.3656665990156,1054
1782.3584804121397,1048
1784.3507939535534,1029
1786.3426074829463,1017
1788.3339212600863,1042
1790.3247355448211,1064
1792.3150505970766,1075
1794.3048666768573,1069
1796.2941840442477,1064
1798.2830029594106,1041
1800.2713236825884,1019
1802.2591464741004,1087
1804.2464715943465,1083
1806.2332993038058,1089
1808.2196298630352,1052
1810.2054635326708,1021
1812.190800573428,1083
1814.175641246101,1051
1816.1599858115628,1069
1818.1438345307652,1037
1820.127187664738,1064
1822.1100454745924,1111
1824.092408221516,1073
1826.0742761667766,1067
1828.055649571721,1064
1830.0365286977735,1056
1832.0169138064398,1071
1833.9968051593014,1066
1835.9762030180214,1056
1837.9551076443408,1032
1839.9335193000788,1049
1841.9114382471344,1061
1843.888864747485,1036
1845.8657990631878,1048
1847.842241456378,1050
1849.8181921892697,1055
1851.7936515241558,1075
1853.7686197234098,999
1855.7430970494815,1063
1857.7170837649014,1020
1859.6905801322787,997
1861.6635864143004,1020
1863.6361028737338,1031
1865.608129773424,1059
1867.5796673762961,1016
1869.5507159453537,1046
1871.521275743678,1084
1873.4913470344313,1060
1875.4609300808534,1060
1877.4300251462632,1070
1879.3986324940588,1107
1881.366752387717,1045
1883.3343850907936,1084
1885.3015308669228,1058
1887.268189979819,1121
1889.2343626932739,1066
1891.2000492711595,1109
1893.1652499774254,1089
1895.1299650761011,1065
1897.0941948312952,1113
1899.0579395071945,1043
1901.0211993680641,1105
1902.98397467825,1035
1904.9462657021745,1114
1906.9080727043415,1089
1908.869395949332,1094
1910.8302357018065,1105
1912.790592226504,1072
1914.7504657882428,1089
1916.7098566519212,1139
1918.6687650825133,1089
1920.6271913450764,1122
1922.5851357047422,1094
1924.5425984267245,1095
1926.499579776314,1064
1928.4560800188833,1079
1930.4120994198802,1106
1932.367638244833,1100
1934.32269675935,1095
1936.2772752291175,1060
1938.231373919899,1106
1940.1849930975404,1084
1942.1381330279637,1020
1944.0907939771696,1051
1946.0429762112412,1047
1947.9946799963363,1039
1949.9459055986945,1072
1951.896653284633,1041
1953.8469233205478,1071
1955.7967159729142,1039
1957.7460315082863,1058
1959.6948701932974,1062
1961.6432322946594,1059
1963.5911180791632,1076
1965.5385278136787,1089
1967.4854617651545,1060
1969.4319202006182,1090
1971.377903387176,1011
1973.3234115920136,1047
1975.268445082395,1105
1977.2130041256642,1035
1979.1570889892423,1086
1981.1006999406304,1068
1983.04383724741,1051
1984.986501177238,1101
1986.928691997853,1061
1988.8704099770712,1101
1990.811655382789,1017
1992.7524284829801,1050
1994.692729545698,1080
1996.6325588390755,1079
1998.5719166313224,1076
2000.5108031907307,1060
2002.4492187856677,1059
2004.387163684583,1058
2006.3246381560011,1084
2008.2616424685298,1071
2010.1981768908527,1044
2012.1342416917332,1044
2014.069837140014,1054
2016.0049635046162,1052
2017.9396210545406,1066
2019.8738100588666,1035
2021.8075307867502,1021
2023.740783507431,1013
2025.6735684902228,1048
2027.6058860045214,1027
2029.5377363198004,1037
2031.4691197056118,1053
2033.4000364315875,1056
2035.3304867674374,1015
2037.260470982952,1062
2039.189989347998,1059
2041.1190421325232,1056
2043.047629606554,1055
2044.9757520401945,1071
2046.9034097036288,1041
2048.8306028671195,1053
2050.7573318010086,1035
2052.683596775716,1092
2054.609398061742,1061
2056.5347359296647,1081
2058.4596106501403,1043
2060.384022493906,1010
2062.3079717317764,1041
2064.231458634646,1062
2066.1544834734873,1033
2068.077046519352,1026
2069.99914804337,1076
2071.9207883167524,1046
2073.8419676107865,1024
2075.7626861968406,1060
2077.6829443463607,1054
2079.6027423308715,1042
2081.522080421977,1069
2083.440958891362,1062
2085.359378010786,1024
2087.2773380520907,1022
2089.194839287196,1017
2091.111881988101,1035
2093.0284664268825,1036
2094.9445928756973,1067
2096.86026160678,1014
2098.775472892446,1044
2100.690227005088,1055
2102.604524217178,1042
2104.5183648012676,1054
2106.431749029985,1061
2108.34467717604,1059
2110.2571495122206,1039
2112.169166311393,1042
2114.080727846503,1077
2115.9918343905747,1047
2117.902486216711,1035
2119.8126835980956,1063
2121.722426807987,1026
2123.6317161197285,1029
2125.5405518067364,1054
2127.448934142509,1078
2129.356863400624,1056
2131.264339854737,1086
2133.1713637785815,1044
2135.077935445972,1059
2136.9840551308002,1097
2138.889723107037,1086
2140.7949396487334,1046
2142.699705030018,1053
2144.6040195250994,1083
2146.507883408264,1047
2148.4112969538774,1066
2150.3142604363848,1074
2152.2167741303097,1085
2154.1188383102535,1098
2156.0204532508997,1073
2157.9216192270064,1042
2159.822336513414,1089
2161.7226053850413,1084
2163.622426116884,1085
2165.5217989840185,1037
2167.4207242616,1046
2169.319202224862,1045
2171.2172331491165,1059
2173.1148173097563,1038
2175.0119549822507,1070
2176.90864644215,1118
2178.8048919650823,1042
2180.7006918267534,1110
2182.596046302952,1036
2184.4909556695407,1085
2186.3854202024645,1032
2188.279440177746,1050
2190.173015871487,1063
2192.066147559868,1100
2193.958835519149,1040
2195.851080025667,1026
2197.7428813558417,1060
2199.6342397861667,1076
2201.5251555932186,1073
2203.415629053651,1053
2205.3056604441986,1102
2207.19525004167,1083
2209.084398122958,1073
2210.9731049650327,1125
2212.861370844941,1092
2214.749196039812,1120
2216.636580826851,1104
2218.523525483344,1107
2220.410030286655,1098
2222.296095514226,1132
2224.1817214435805,1117
2226.066908352319,1103
2227.951656518121,1117
2229.835966218746,1060
2231.71983773203,1088
2233.6032713358913,1115
2235.486267308324,1099
2237.3688259274036,1109
2239.2509474712824,1103
2241.132632218193,1154
2243.013880446447,1091
2244.8946924344323,1066
2246.7750684606203,1080
2248.6550088035574,1086
2250.534513741871,1070
2252.413583554265,1164
2254.292218519526,1113
2256.170418916517,1105
2258.0481850241786,1111
2259.925517121534,1152
2261.8024154876825,1104
2263.678880401803,1073
2265.5549121431536,1096
2267.430510991071,1080
2269.305677224971,1144
2271.180411124348,1102
2273.0547129687766,1087
2274.9285830379076,1061
2276.8020216114737,1076
2278.6750289692845,1096
2280.5476053912294,1068
2282.4197511572766,1066
2284.2914665474727,1151
2286.162751841943,1114
2288.0336073208937,1098
2289.904033264608,1091
2291.774029953448,1123
2293.6435976678554,1117
2295.5127366883517,1120
2297.381447295534,1044
2299.2497297700825,1059
2301.1175843927526,1078
2302.9850114443825,1030
2304.852011205885,1037
2306.7185839582553,1054
2308.5847299825664,1024
2310.4504495599676,985
2312.3157429716925,1044
2314.1806104990483,971
2316.0450524234247,1024
2317.9090690262888,1011
2319.772660589186,968
2321.635827393742,977
2323.498569721661,1047
2325.3608878547248,983
2327.2227820747967,960
2329.0842526638157,1007
2330.945299903803,1003
2332.805924076857,980
2334.6661254651535,1012
2336.525904350951,944
2338.3852610165827,950
2340.244195744464,959
2342.102708817088,995
2343.9608005170253,970
2345.8184711269287,996
2347.675720929526,979
2349.532550207628,976
2351.38895924412,957
2353.24494832197,1008
2355.100517724223,984
2356.955667734004,1021
2358.810398634514,975
2360.664710709037,950
2362.5186042409337,1001
2364.3720795136437,1007
2366.225136810686,1020
2368.0777764156583,983
2369.929998612237,951
2371.7818036841777,1010
2373.633191915315,1021
2375.484163589562,991
2377.3347189909114,998
2379.184858403434,1019
2381.03458211128,1017
2382.8838903986775,981
2384.732783549936,1024
2386.5812618494406,986
2388.4293255816588,1001
2390.2769750311327,1020
2392.1242104824883,1011
2393.971032220427,1006
2395.8174405297295,1009
2397.6634356952563,995
2399.509018001947,1036
2401.3541877348193,997
2403.1989451789705,967
2405.043290619576,980
2406.8872243418905,1013
2408.730746631247,991
2410.5738577730594,989
2412.4165580528183,969
2414.258847756095,1022
2416.100727168537,982
2417.9421965758734,941
2419.783256263912,984
2421.623906518538,1011
2423.4641476257157,957
2425.303979871491,988
2427.143403541984,1004
2428.9824189233977,1000
2430.821026302012,995
2432.6592259641866,998
2434.497018196361,1007
2436.33440328505,987
2438.171381516851,994
2440.00795317844,1033
2441.844118556569,969
2443.6798779380724,994
2445.5152316098606,1009
2447.3501798589255,974
2449.1847229723357,1014
2451.0188612372403,1005
2452.8525949408663,993
2454.6859243705203,1004
2456.518849813587,1019
2458.3513715575314,987
2460.183489889895,1010
2462.015205098301,989
2463.8465174704493,972
2465.67742729412,960
2467.5079348571717,1012
2469.338040447542,1010
2471.1677443532476,936
2472.9970468623833,992
2474.825948263123,968
2476.6544488437207,1040
2478.482548892508,1043
2480.310248697896,1021
2482.137548548374,1003
2483.9644487325118,1023
2485.790949538956,1007
2487.617051256433,1005
2489.44275417375,1048
2491.26805857979,998
2493.0929647635157,1068
2494.917473013971,1034
2496.741583620276,1026
2498.5652968716304,972
2500.3886130573137,1024
2502.2115324666834,1061
2504.0340553891765,1003
2505.856182114308,998
2507.6779129316733,1052
2509.499248130945,1050
2511.3201880018764,1075
2513.140732834298,1059
2514.9608829181198,1105
2516.780638543331,1015
2518.6,1048
2520.418967578273,1046
2522.237541568376,967
2524.0557222606144,1072
2525.8735099453706,1027
2527.6909049131086,1089
2529.507907454368,1076
2531.32451785977,1061
2533.140736420014,1098
2534.9565634258774,1051
2536.771999168218,1034
2538.5870439379714,1054
2540.4016980261526,1068
2542.2159617238544,1113
2544.02983532225,1046
2545.8433191125914,1089
2547.656413386209,1084
2549.4691184345115,1081
2551.2814345489874,1125
2553.093362021204,1110
2554.904901142808,1143
2556.716052205523,1077
2558.526815501153,1093
2560.3371913215824,1117
2562.147179958771,1118
2563.956781704761,1145
2565.7659968516705,1153
2567.5748256916986,1146
2569.3832685171224,1132
2571.1913256202984,1142
2572.9989972936614,1106
2574.806283829725,1185
2576.613185521084,1132
2578.4197026604074,1191
2580.2258355404483,1163
2582.031584454035,1176
2583.836949694077,1187
2585.6419315535613,1241
2587.4465303255533,1175
2589.2507463032002,1204
2591.0545797797245,1211
2592.8580310484303,1162
2594.6611004026995,1210
2596.463788135992,1199
2598.266094541849,1149
2600.0680199138874,1151
2601.869564545807,1165
2603.670728731383,1158
2605.4715127644704,1170
2607.2719169390048,1176
2609.071941548998,1186
2610.8715868885433,1169
2612.670853251811,1128
2614.469740933052,1193
2616.268250226594,1193
2618.0663814268455,1156
2619.864134828292,1144
2621.6615107255006,1158
2623.458509413115,1153
2625.2551311858597,1165
2627.0513763385347,1160
2628.8472451660223,1159
2630.6427379632833,1173
2632.4378550253564,1124
2634.232596647359,1141
2636.026963124488,1102
2637.8209547520187,1123
2639.6145718253065,1124
2641.407814639785,1138
2643.200683490966,1092
2644.9931786744414,1083
2646.7853004858807,1078
2648.577049221034,1125
2650.3684251757277,1099
2652.1594286458712,1082
2653.9500599274484,1080
2655.740319316525,1076
2657.5302071092437,1089
2659.3197236018286,1088
2661.10886909058,1072
2662.8976438718782,1076
2664.686048242183,1057
2666.4740824980327,1083
2668.2617469360443,1079
2670.0490418529134,1054
2671.8359675454153,1039
2673.622524310403,1105
2675.408712444811,1051
2677.1945322456495,1061
2678.979984010009,1063
2680.76506803506,1059
2682.5497846180497,1058
2684.334134056306,1041
2686.1181166472343,1071
2687.9017326883213,983
2689.6849824771293,1003
2691.4678663113013,1011
2693.2503844885596,1003
2695.032537306705,1003
2696.8143250636167,1034
2698.5957480572542,1043
2700.3768065856534,1024
2702.1575009469316,961
2703.937831439283,984
2705.717798360982,1005
2707.4974020103837,1007
2709.276642685917,1011
2711.055520686095,1006
2712.834036309506,998
2714.612189854819,1014
2716.389981620782,979
2718.1674119062204,1013
2719.944481010041,996
2721.721189231226,1014
2723.4975368688415,1062
2725.273524222027,1024
2727.0491515900053,984
2728.824419272075,971
2730.5993275676146,1040
2732.3738767760838,971
2734.148067197016,997
2735.921899130031,975
2737.6953728748194,983
2739.468488731156,979
2741.2412469988926,978
2743.0136479779617,977
2744.785691968372,1011
2746.5573792702116,985
2748.3287101836504,966
2750.099685008934,1013
2751.870304046388,969
2753.640567596418,990
2755.4104759595057,1002
2757.1800294362156,1002
2758.949228327187,990
2760.7180729331412,1004
2762.486563554877,967
2764.254700493272,996
2766.022484049284,1000
2767.789914523947,973
2769.5569922183786,997
2771.3237174337705,973
2773.090090471394,964
2774.8561116326036,949
2776.6217812188274,996
2778.3870995315756,963
2780.1520668724356,1014
2781.9166835430747,946
2783.6809498452394,984
2785.444866080754,1021
2787.2084325515225,956
2788.971649559527,1002
2790.73451740683,982
2792.4970363955713,1027
2794.2592068279705,992
2796.0210290063264,973
2797.7825032330147,968
2799.543629810493,959
2801.304409041296,992
2803.0648412280366,954
2804.8249266734088,1018
2806.5846656801846,984
2808.344058551212,962
2810.1031055894246,1008
2811.8618070978273,995
2813.6201633795085,982
2815.378174737636,1011
2817.1358414754536,947
2818.893163896285,965
2820.6501423035334,972
2822.4067770006814,994
2824.1630682912883,981
2825.9190164789957,937
2827.6746218675207,997
2829.429884760661,1000
2831.184805462294,998
2832.9393842763743,961
2834.693621506936,972
2836.4475174580916,973
2838.201072434034,947
2839.954286739034,988
2841.707160677441,987
2843.459694553685,970
2845.2118886722724,967
2846.96374333779,1007
2848.7152588549034,985
2850.4664355283567,1007
2852.217273662973,1018
2853.9677735636546,993
2855.7179355353833,947
2857.4677598832186,988
2859.217246912299,1003
2860.9663969278427,977
2862.715210235146,975
2864.4636871395846,987
2866.211827946614,955
2867.9596329617652,959
2869.7071024906536,975
2871.4542368389684,991
2873.20103631248,989
2874.947501217038,981
2876.6936318585695,972
2878.4394285430812,1020
2880.1848915766604,975
2881.9300212654707,1013
2883.6748179157553,982
2885.4192818338374,1000
2887.1634133261173,975
2888.907212699077,959
2890.6506802592744,958
2892.393816313348,966
2894.1366211680142,969
2895.8790951300693,1002
2897.621238506388,967
2899.363051603925,1029
2901.1045347297118,973
2902.8456881908596,978
2904.58651229456,1012
2906.327007348081,981
2908.067173658772,942
2909.8070115340597,994
2911.5465212814497,963
2913.285703208527,972
2915.0245576229563,996
2916.7630848324807,985
2918.5012851449196,1010
2920.2391588681758,978
2921.976706310227,962
2923.7139277791334,971
2925.4508235830313,993
2927.187394030137,938
2928.923639428745,980
2930.6595600872306,985
2932.395156314046,1021
2934.1304284177218,976
2935.8653767068713,978
2937.6000014901815,970
2939.3343030764227,982
2941.068281774442,937
2942.8019378931644,986
2944.5352717415976,994
2946.2682836288236,1008
2948.0009738640065,985
2949.7333427563885,975
2951.465390615289,972
2953.1971177501086,962
2954.9285244703265,1010
2956.6596110855,975
2958.3903779052657,989
2960.1208252393385,976
2961.8509533975125,966
2963.5807626896617,978
2965.3102534257378,960
2967.0394259157715,942
2968.768280469873,984
2970.496817398232,999
2972.2250370111146,945
2973.952939618869,967
2975.6805255319196,979
2977.4077950607707,970
2979.134748516006,939
2980.861386208289,999
2982.587708448359,979
2984.313715547037,970
2986.039407815222,986
2987.764785563891,936
2989.489849104102,955
2991.2145987469908,922
2992.9390348037705,991
2994.6631575857346,961
2996.3869674042576,971
2998.1104645707887,949
2999.83364939686,942
3001.5565221940783,963
3003.2790832741334,960
3005.0013329487924,985
3006.7232715298996,962
3008.4448993293804,880
3010.166216659239,955
3011.887223831558,1002
3013.607921158498,935
3015.3283089522993,966
3017.0483875252826,931
3018.7681571898443,936
3020.4876182584626,952
3022.2067710436927,923
3023.9256158581707,1009
3025.644153014609,976
3027.362382825801,971
3029.0803056046193,961
3030.797921664012,960
3032.5152313170106,976
3034.2322348767225,970
3035.9489326563353,969
3037.665324969115,949
3039.3814121284063,926
3041.097194447633,997
3042.812672240299,934
3044.5278458199855,999
3046.2427155003525,926
3047.9572815951406,969
3049.671544418167,976
3051.38550428333,962
3053.0991615046073,973
3054.812516396051,923
3056.5255692717974,980
3058.2383204460575,962
3059.9507702331257,957
3061.662918947372,978
3063.3747669032446,979
3065.0863144152736,946
3066.7975617980674,960
3068.508509366309,950
3070.219157434767,955
3071.9295063182844,1003
3073.639556331785,986
3075.3493077902704,956
3077.058761008821,930
3078.7679163025964,943
3080.476773986837,942
3082.1853343768594,938
3083.89359778806,979
3085.6015645359153,979
3087.3092349359786,925
3089.016609303884,967
3090.7236879553434,976
3092.4304712061476,1002
3094.136959372166,954
3095.843152769349,982
3097.5490517137237,928
3099.2546565213966,927
3100.959967508554,977
3102.66498499146,967
3104.3697092864577,971
3106.0741407099695,983
3107.778279578498,1031
3109.482126208622,1052
3111.1856809170004,1007
3112.8889440203716,948
3114.5919158355528,941
3116.294596679439,948
3117.996986869006,981
3119.6990867213062,977
3121.4008965534726,959
3123.102416682717,992
3124.803647426329,977
3126.5045891016784,955
3128.205242026213,982
3129.90560651746,967
3131.605682893025,958
3133.3054714705922,965
3135.0049725679282,957
3136.7041865028714,945
3138.4031135933465,956
3140.101754157353,943
3141.800108512971,943
3143.498176978357,979
3145.1959598717494,986
3146.8934575114636,960
3148.5906702158954,930
3150.2875983035183,1007
3151.9842420928853,922
3153.680601902627,944
3155.376678051456,957
3157.07247085816,979
3158.767980641609,952
3160.463207720748,935
3162.158152414606,934
3163.8528150422862,972
3165.5471959229726,1008
3167.2412953759303,964
3168.9351137204976,945
3170.628651276098,939
3172.3219083622307,977
3174.014885298474,977
3175.707582404485,952
3177.4000000000005,979
3179.092138404835,986
3180.7839979388846,958
3182.47557892212,956
3184.166881674594,999
3185.8579065164386,943
3187.5486537678626,949
3189.2391237491547,956
3190.9293167806827,974
3192.6192331828934,937
3194.3088732763117,981
3195.998237381542,961
3197.687325819268,994
3199.376138910251,981
3201.064676975334,942
3202.7529403354347,916
3204.4409293115523,969
3206.1286442247647,970
3207.816085396229,987
3209.5032531471825,940
3211.190147798936,975
3212.8767696728846,909
3214.5631190905015,963
3216.2491963733373,933
3217.9350018430214,955
3219.6205358212637,971
3221.305798629851,930
3222.990790590651,966
3224.6755120256103,908
3226.359963256751,951
3228.0441446061795,976
3229.7280563960758,956
3231.411698948703,938
3233.0950725863995,945
3234.778177631587,973
3236.461014406761,1007
3238.1435832345005,964
3239.8258844374595,982
3241.507918338374,971
3243.1896852600576,967
3244.8711855254023,986
3246.552419457381,956
3248.233387379042,949
3249.914089613516,949
3251.59452648401,943
3253.274698313813,958
3254.95460542629,937
3256.6342481448855,992
3258.313626793125,939
3259.9927416946084,910
3261.6715931730196,933
3263.3501815521176,940
3265.0285071557437,965
3266.706570307815,905
3268.3843713323286,929
3270.0619105533615,939
3271.739188295068,910
3273.4162048816834,959
3275.0929606375184,952
3276.769455886966,962
3278.445690954498,926
3280.1216661646613,977
3281.797381842087,978
3283.4728383114807,932
3285.1480358976296,923
3286.8229749253996,942
3288.4976557197333,921
3290.172078605655,956
3291.846243908266,955
3293.5201519527463,934
3295.193803064357,953
3296.8671975684374,980
3298.5403357904024,957
3300.21321805575,950
3301.8858446900567,943
3303.558216018975,963
3305.23033236824,941
3306.9021940636603,928
3308.57380143113,912
3310.2451547966184,935
3311.916254486174,962
3313.5871008259246,952
3315.2576941420766,972
3316.9280347609147,925
3318.5981230088046,905
3320.2679592121895,937
3321.9375436975924,967
3323.606876791612,920
3325.27595882093,945
3326.944790112305,985
3328.6133709925753,939
3330.2817017886573,945
3331.949782827547,949
3333.617614436319,946
3335.2851969421245,952
3336.952530672199,968
3338.619615953853,1011
3340.286453114475,991
3341.9530424815357,923
3343.619384382583,942
3345.2854791452437,950
3346.951327097224,923
3348.6169285663073,929
3350.2822838803577,951
3351.947393367319,948
3353.61225735521,969
3355.2768761721345,955
3356.9412501462693,924
3358.605379605873,933
3360.2692648792827,957
3361.9329062949146,971
3363.596304181263,962
