CollectionTime,7/11/2024 2:16:42 PM
ExposureUsed,3
CalibratedSpectrum
-962.7078968117929,451
-959.9714848408522,428
-957.2358232597828,465
-954.5009119013725,473
-951.7667505983302,467
-949.0333391832855,468
-946.3006774887896,459
-943.5687653473143,470
-940.837602591253,477
-938.1071890529199,451
-935.3775245645503,463
-932.6486089583007,466
-929.9204420662485,474
-927.1930237203925,456
-924.4663537526524,454
-921.7404319948689,449
-919.0152582788041,463
-916.2908324361409,503
-913.5671542984834,469
-910.8442236973568,482
-908.1220404642074,464
-905.4006044304027,493
-902.679915427231,466
-899.959973285902,464
-897.2407778375464,473
-894.5223289132158,459
-891.8046263438832,450
-889.0876699604426,460
-886.3714595937089,470
-883.6559950744183,467
-880.9412762332282,466
-878.2273029007168,477
-875.5140749073835,456
-872.8015920836489,464
-870.0898542598545,451
-867.3788612662631,453
-864.6686129330585,459
-861.9591090903457,467
-859.2503495681506,467
-856.5423341964203,473
-853.8350628050229,475
-851.1285352237478,461
-848.4227512823054,470
-845.7177108103272,467
-843.0134136373656,487
-840.3098595928943,468
-837.6070485063082,521
-834.9049802069229,509
-832.2036545239757,477
-829.5030712866244,467
-826.8032303239481,502
-824.1041314649472,498
-821.4057745385428,486
-818.7081593735775,502
-816.0112857988148,474
-813.3151536429393,455
-810.6197627345566,465
-807.9251129021936,477
-805.2312039742981,473
-802.5380357792392,489
-799.8456081453069,476
-797.1539209007124,476
-794.462973873588,502
-791.772766891987,540
-789.083299783884,507
-786.3945723771743,482
-783.7065844996748,483
-781.0193359791231,475
-778.3328266431781,479
-775.6470563194197,477
-772.9620248353489,478
-770.2777320183878,473
-767.5941776958798,500
-764.9113616950891,501
-762.2292838432011,476
-759.5479439673222,469
-756.8673418944801,454
-754.1874774516235,466
-751.5083504656222,494
-748.8299607632671,511
-746.15230817127,497
-743.475392516264,494
-740.7992136248035,495
-738.1237713233636,480
-735.4490654383407,499
-732.7750957960521,512
-730.1018622227365,528
-727.4293645445534,481
-724.7576025875837,490
-722.0865761778291,501
-719.4162851412126,504
-716.7467293035781,523
-714.0779084906909,508
-711.409822528237,557
-708.7424712418238,514
-706.0758544569796,508
-703.4099719991541,530
-700.7448236937178,512
-698.0804093659622,532
-695.4167288411002,526
-692.7537819442656,498
-690.0915685005134,498
-687.4300883348199,506
-684.7693412720819,499
-682.1093271371178,518
-679.4500457546669,491
-676.7914969493897,520
-674.1336805458676,531
-671.4765963686034,533
-668.8202442420206,534
-666.1646239904642,515
-663.5097354382001,528
-660.8555784094151,501
-658.2021527282176,521
-655.5494582186366,521
-652.8974947046223,529
-650.2462620100463,552
-647.5957599587009,537
-644.9459883742998,543
-642.2969470804776,528
-639.6486359007902,543
-637.0010546587141,547
-634.3542031776476,546
-631.7080812809096,530
-629.0626887917401,536
-626.4180255333008,551
-623.7740913286734,566
-621.1308860008619,584
-618.4884093727904,563
-615.8466612673046,567
-613.2056415071715,535
-610.5653499150785,536
-607.9257863136347,567
-605.28695052537,567
-602.6488423727357,550
-600.0114616781036,544
-597.3748082637674,537
-594.7388819519412,542
-592.1036825647604,595
-589.4692099242818,611
-586.8354638524829,595
-584.2024441712624,556
-581.5701507024403,566
-578.9385832677575,571
-576.3077416888759,608
-573.6776257873787,592
-571.0482353847704,589
-568.4195703024757,578
-565.7916303618415,565
-563.164415384135,534
-560.5379251905453,594
-557.9121596021815,606
-555.2871184400748,554
-552.6628015251767,552
-550.0392086783606,588
-547.4163397204204,583
-544.794194472071,600
-542.1727727539491,601
-539.5520743866118,584
-536.9320991905377,573
-534.3128469861261,618
-531.6943175936979,667
-529.0765108334947,662
-526.4594265256793,666
-523.8430644903358,764
-521.2274245474689,851
-518.612506517005,856
-515.9983102187913,836
-513.3848354725959,910
-510.77208209810846,990
-508.16004991493924,1033
-505.5487387426199,1137
-502.9381484006032,1187
-500.3282787082628,1158
-497.71912948489364,1010
-495.1107005497117,971
-492.5029917218539,860
-489.8960028203786,779
-487.28973366426493,716
-484.68418407241325,678
-482.07935386364494,677
-479.47524285670266,680
-476.87185087025,679
-474.2691777228715,684
-471.66722323307334,689
-469.0659872192821,705
-466.4654694998459,736
-463.86566989303384,710
-461.26658821703614,680
-458.66822428996414,689
-456.07057792985,679
-453.4736489546475,701
-450.877437182231,707
-448.28194243039627,688
-445.68716451686,696
-443.09310325926003,688
-440.49975847515555,680
-437.9071299820263,683
-435.31521759727354,673
-432.72402113821954,698
-430.13354042210767,745
-427.5437752661022,773
-424.95472548728867,739
-422.36639090267386,723
-419.7787713291855,716
-417.1918665836721,761
-414.60567648290385,752
-412.0202008435715,724
-409.4354394822874,736
-406.8513922155845,742
-404.26805885991723,806
-401.685439231661,802
-399.103533147112,798
-396.522340422488,746
-393.9418608739278,729
-391.3620943174908,697
-388.7830405691583,717
-386.2046994448317,709
-383.6270707603344,675
-381.05015433141045,697
-378.473949973725,653
-375.8984575028645,615
-373.32367673433623,547
-370.74960748356875,540
-368.1762495659117,513
-365.60360279663576,510
-363.03166699093265,502
-360.4604419639154,468
-357.8899275306178,465
-355.32012350599507,442
-352.7510297049233,438
-350.1826459421999,430
-347.61497203254316,426
-345.04800779059235,409
-342.4817530309082,422
-339.91620756797226,439
-337.35137121618743,430
-334.7872437898774,436
-332.22382510328725,470
-329.66111497058273,457
-327.09911320585127,450
-324.53781962310075,431
-321.9772340362607,460
-319.4173562591816,467
-316.8581861056348,435
-314.2997233893127,431
-311.7419679238294,455
-309.1849195227194,491
-306.62857799943856,517
-304.0729431673641,520
-301.51801483979375,506
-298.963792829947,505
-296.41027695096386,482
-293.85746701590574,495
-291.3053628377552,525
-288.7539642294155,517
-286.2032710037115,471
-283.65328297338897,499
-281.1039999511146,507
-278.5554217494762,489
-276.007548180983,528
-273.4603790580651,509
-270.9139141930734,513
-268.3681533982807,525
-265.8230964858798,523
-263.27874326798565,550
-260.7350935566336,598
-258.1921471637804,571
-255.6499039013039,519
-253.10836358100266,557
-250.56752601459698,552
-248.02739101372765,495
-245.48795838995704,538
-242.94922795476816,586
-240.41119951956557,591
-237.8738728956746,599
-235.33724789434166,587
-232.80132432673452,547
-230.2661020039418,533
-227.73158073697357,594
-225.19776033676033,691
-222.66464061415422,664
-220.1322213799284,668
-217.60050244477725,657
-215.06948361931552,655
-212.53916471408013,633
-210.00954553952818,668
-207.48062590603843,652
-204.9524056239104,609
-202.4248845033651,645
-199.8980623545441,684
-197.37193898751036,678
-194.84651421224817,715
-192.32178783866232,760
-189.79775967657952,667
-187.27442953574644,697
-184.7517972258321,673
-182.2298625564256,665
-179.7086253370378,604
-177.18808537710026,618
-174.66824248596583,677
-172.14909647290835,715
-169.6306471471229,771
-167.11289431772548,745
-164.59583779375328,736
-162.07947738416453,738
-159.5638128978386,744
-157.04884414357605,755
-154.53457093009854,861
-152.02099306604828,794
-149.50811035998936,703
-146.99592262040665,692
-144.48442965570587,837
-141.97363127421409,805
-139.46352728417958,908
-136.95411749377126,919
-134.44540171107985,786
-131.93737974411636,760
-129.43005140081357,786
-126.92341648902493,933
-124.41747481652521,1065
-121.91222619101006,1320
-119.40767042009657,1494
-116.90380731132257,1797
-114.40063667214702,1877
-111.8981583099503,1833
-109.3963720320337,1572
-106.89527764561933,1326
-104.39487495785067,1212
-101.89516377579241,1619
-99.39614390642998,2302
-96.89781515667039,2692
-94.40017733334128,2783
-91.90323024319173,2737
-89.40697369289148,3037
-86.91140748903172,4131
-84.41653143812482,4230
-81.92234534660395,3164
-79.42884902082358,2628
-76.93604226705907,4070
-74.4439248915071,8168
-71.95249670028534,13284
-69.46175749943245,16594
-66.97170709490854,16217
-64.48234529259423,13249
-61.99367189829195,10506
-59.50568671772464,8957
-57.01838955653636,7237
-54.53178022029283,5278
-52.045858514480074,5524
-49.560624244506016,5859
-47.07607721569923,6243
-44.59221723330904,6751
-42.10904410250669,6810
-39.62655762838392,6963
-37.14475761595372,7275
-34.66364387015028,8518
-32.18321619582866,10008
-29.70347439776515,11195
-27.224418280657005,12225
-24.74604764912317,13889
-22.26836230770266,15447
-19.7913620608565,19351
-17.315046712966478,28403
-14.83941606833514,37699
-12.36446993118659,47155
-9.89020810566592,65039
-7.416630395839093,65039
-4.94373660569363,65039
-2.471526539137585,65039
-6.821210263296962E-13,65039
2.47084320796705,65039
4.941003281093458,65039
7.410480415786196,65039
9.879274808531363,65039
12.347386655893956,65039
14.814816154518212,65039
17.28156350112681,65039
19.74762889252179,65039
22.21301252558385,65039
24.67771459727237,20082
27.141735304626195,3861
29.605074844762612,2611
32.06773341487792,2452
34.52971121224755,2185
36.99100843422559,1903
39.45162527824516,1719
41.91156194181792,1641
44.370818622535126,1659
46.82939551806646,1568
49.287292826160524,1627
51.74451074464503,1842
54.201049471426245,1774
56.65690920448981,1748
59.112090141899785,1474
61.56659248179983,1223
64.02041642241159,1236
66.4735621620365,1108
68.92602989905402,920
71.37781983192338,1152
73.82893215918205,1214
76.27936707944684,1331
78.72912479141326,1296
81.17820549385567,1343
83.62660938562783,1423
86.07433666566146,1223
88.5213875329681,934
90.96776218663751,877
93.41346082583925,894
95.85848364982041,939
98.30283085790859,999
100.7465026495089,1028
103.18949922410604,1086
105.63182078126385,1015
108.07346752062438,963
110.51443964190923,994
112.95473734491827,927
115.39436082953114,842
117.83331029570547,933
120.27158594347827,911
122.7091879729652,1023
125.1461165843615,1048
127.58237197794062,1040
130.01795435405518,992
132.4528639131364,859
134.88710085569494,916
137.32066538231982,909
139.75355769367923,870
142.1857779905207,830
144.61732647366978,789
147.04820334403132,780
149.47840880258934,730
151.90794305040674,737
154.33680628862487,880
156.76499871846443,1084
159.19252054122433,1258
161.61937195828352,1234
164.04555317109896,1281
166.47106438120693,1338
168.89590579022217,1418
171.320077599839,1489
173.7435800118302,1566
176.16641322804742,1581
178.58857745042144,1739
181.01007288096173,1790
183.43089972175687,1782
185.85105817497413,1754
188.27054844285988,1768
190.6893707277394,1777
193.10752523201643,1695
195.5250121581745,1781
197.9418317087751,1922
200.3579840864594,1922
202.7734694939469,1972
205.18828813403627,1844
207.6024402096051,1915
210.01592592360964,1902
212.42874547908548,1938
214.84089907914665,1947
217.2523869269868,1931
219.66320922587727,1921
222.0733661791695,1907
224.48285799029293,1928
226.8916848627572,1870
229.29984700014882,1958
231.7073446061355,1873
234.11417788446204,1853
236.520347038953,1950
238.92585227351185,1949
241.33069379212054,2067
243.73487179884035,2056
246.1383864978112,2039
248.541238093252,2005
250.9434267894609,2042
253.34495279081432,2022
255.74581630176783,2113
258.1460175268563,1918
260.54555667069314,2056
262.9444339379703,2088
265.3426495334594,1968
267.7402036620107,2014
270.1370965285529,2024
272.53332833809407,2058
274.9288992957214,1880
277.32380960660055,1922
279.718059475976,1886
282.1116491091717,1915
284.5045787115897,1927
286.89684848871195,1858
289.2884586460981,1877
291.67940938938807,1827
294.0697009242996,1878
296.4593334566299,1924
298.84830719225477,1861
301.23662233712923,1806
303.6242790972866,1838
306.01127767884,1823
308.39761828798066,1835
310.78330113097934,1920
313.16832641418534,1782
315.5526943440269,1710
317.9364051270112,1706
320.3194589697242,1700
322.70185607883093,1689
325.0835966610754,1723
327.4646809232805,1740
329.8451090723478,1678
332.2248813152577,1690
334.6039978590701,1655
336.9824589109231,1630
339.36026467803447,1584
341.7374153677,1567
344.113911187295,1671
346.48975234427337,1647
348.8649390461686,1611
351.2394715005918,1628
353.61334991523415,1682
355.9865744978655,1602
358.35914545633375,1583
360.73106299856715,1591
363.10232733257146,1669
365.47293866643247,1616
367.84289720831396,1542
370.2122031664593,1523
372.5808567491905,1486
374.9488581649083,1580
377.31620762209275,1550
379.6829053293021,1561
382.0489514951745,1512
384.4143463284262,1485
386.7790900378528,1501
389.14318283232853,1568
391.50662492080653,1509
393.86941651231916,1525
396.23155781597745,1499
398.5930490409713,1517
400.9538903965696,1600
403.3140820921202,1544
405.6736243370498,1543
408.03251734086336,1544
410.3907613131465,1494
412.74835646356166,1515
415.10530300185144,1555
417.4616011378372,1445
419.81725108141893,1536
422.1722530425758,1507
424.5266072313656,1493
426.880313857925,1479
429.2333731324701,1496
431.58578526529516,1442
433.9375504667738,1480
436.2886689473588,1531
438.63914091758113,1454
440.9889665880513,1461
443.33814616945835,1500
445.68667987257015,1470
448.03456790823395,1473
450.3818104873759,1458
452.72840782100013,1447
455.07436012019105,1493
457.41966759611057,1438
459.7643304600007,1420
462.10834892318155,1378
464.4517231970525,1415
466.79445349309174,1437
469.1365400228566,1461
471.4779829979826,1430
473.81878263018564,1371
476.15893913125876,1428
478.4984527130747,1441
480.8373235875855,1483
483.17555196682144,1439
485.5131380628919,1571
487.8500820879857,1615
490.1863842543697,1538
492.52204477439034,1603
494.8570638604725,1797
497.1914417251204,1844
499.52517858091653,2055
501.85827464052306,2334
504.19073011668036,2493
506.5225452222086,2722
508.85372017000566,2676
511.18425517304956,2745
513.514150444396,2863
515.8434061971808,3077
518.1720226446176,3656
520.4999999999999,3741
522.8273384766991,3598
525.1540382881666,3231
527.480099647932,2854
529.8055227696037,2396
532.1303078668694,1950
534.454455153496,1666
536.777964843328,1546
539.1008371502907,1524
541.4230722883866,1503
543.744670471698,1488
546.0656319143858,1494
548.3859568306899,1474
550.7056454349294,1508
553.0246979415016,1448
555.3431145648834,1466
557.6608955196306,1466
559.978041020377,1449
562.2945512818363,1421
564.6104265188006,1493
566.9256669461412,1448
569.2402727788082,1410
571.5542442318302,1442
573.8675815203156,1423
576.1802848594508,1459
578.4923544645015,1427
580.8037905508126,1497
583.114593333807,1457
585.4247630289875,1489
587.7342998519354,1475
590.0432040183106,1438
592.3514757438526,1438
594.6591152443794,1453
596.9661227357875,1445
599.2724984340531,1478
601.578242555231,1448
603.8833553154542,1463
606.1878369309362,1410
608.4916876179676,1475
610.7949075929192,1435
613.0974970722403,1450
615.3994562724587,1381
617.7007854101818,1380
620.0014847020951,1431
622.3015543649641,1552
624.6009946156324,1461
626.8998056710224,1477
629.1979877481361,1511
631.4955410640538,1477
633.7924658359349,1485
636.0887622810175,1443
638.3844306166192,1481
640.6794710601358,1517
642.9738838290426,1523
645.2676691408932,1527
647.5608272133207,1506
649.853358264037,1497
652.1452625108324,1487
654.4365401715764,1461
656.7271914642178,1500
659.0172166067838,1447
661.3066158173809,1440
663.5953893141935,1494
665.8835373154867,1500
668.1710600396028,1462
670.4579577049639,1476
672.7442305300709,1468
675.0298787335033,1487
677.3149025339197,1508
679.599302150058,1543
681.8830778007342,1498
684.1662297048437,1480
686.4487580813608,1512
688.7306631493387,1510
691.0119451279091,1509
693.2926042362834,1512
695.5726406937516,1509
697.8520547196814,1456
700.1308465335215,1473
702.4090163547982,1457
704.6865644031171,1416
706.9634908981619,1459
709.2397960596965,1474
711.5154801075631,1530
713.7905432616823,1517
716.0649857420548,1496
718.3388077687592,1503
720.612009561953,1511
722.8845913418733,1426
725.1565533288352,1459
727.427895743234,1505
729.6986188055427,1415
731.9687227363137,1446
734.238207756178,1517
736.5070740858458,1483
738.7753219461066,1467
741.0429515578281,1476
743.3099631419569,1479
745.5763569195191,1541
747.8421331116193,1514
750.1072919394409,1487
752.3718336242467,1474
754.6357583873777,1564
756.8990664502545,1543
759.1617580343765,1480
761.423833361321,1493
763.6852926527457,1540
765.9461361303862,1516
768.206364016058,1534
770.4659765316536,1522
772.7249738991469,1493
774.9833563405886,1483
777.2411240781092,1547
779.4982773339183,1503
781.7548163303044,1547
784.010741289634,1500
786.2660524343538,1636
788.5207499869881,1519
790.7748341701416,1515
793.0283052064964,1558
795.2811633188143,1489
797.5334087299362,1521
799.7850416627813,1577
802.0360623403484,1549
804.2864709857143,1569
806.5362678220353,1520
808.7854530725468,1513
811.0340269605625,1458
813.2819897094754,1491
815.5293415427581,1506
817.77608268396,1565
820.0222133567116,1548
822.2677337847211,1550
824.5126441917765,1571
826.7569448017433,1559
829.0006358385675,1516
831.2437175262731,1577
833.4861900889629,1537
835.7280537508192,1486
837.9693087361026,1477
840.2099552691533,1516
842.4499935743896,1514
844.689423876309,1473
846.9282463994886,1547
849.1664613685833,1551
851.4040690083276,1552
853.6410695435349,1608
855.877463199097,1498
858.1132501999847,1530
860.3484307712487,1544
862.5830051380175,1556
864.8169735254988,1529
867.0503361589791,1605
869.2830932638243,1578
871.5152450654786,1536
873.7467917894654,1562
875.9777336613873,1506
878.2080709069252,1560
880.4378037518389,1575
882.666932421968,1616
884.8954571432301,1571
887.1233781416219,1498
889.3506956432192,1606
891.5774098741766,1584
893.803521060728,1518
896.0290294291852,1549
898.2539352059397,1538
900.4782386174619,1535
902.7019398903011,1560
904.925039251085,1571
907.147536926521,1588
909.3694331433943,1527
911.59072812857,1493
913.8114221089921,1504
916.0315153116827,1512
918.2510079637437,1531
920.4699002923547,1564
922.6881925247761,1518
924.905884888345,1545
927.1229776104793,1510
929.3394709186747,1486
931.555365040506,1494
933.7706602036275,1477
935.9853566357709,1474
938.1994545647489,1572
940.4129542184515,1486
942.6258558248488,1532
944.8381596119883,1497
947.0498658079974,1401
949.2609746410825,1474
951.4714863395287,1483
953.6814011316998,1485
955.8907192460387,1494
958.0994409110671,1503
960.3075663553858,1479
962.5150958076741,1512
964.7220294966913,1484
966.928367651274,1459
969.1341105003388,1433
971.3392582728806,1462
973.5438111979742,1454
975.747769504772,1454
977.9511334225061,1444
980.153903180487,1457
982.3560790081052,1487
984.5576611348289,1394
986.7586497902058,1428
988.9590452038618,1456
991.158847605503,1385
993.3580572249133,1430
995.5566742919558,1360
997.7546990365728,1350
999.952131688785,1323
1002.1489724786926,1327
1004.3452216364743,1286
1006.5408793923874,1289
1008.7359459767691,1275
1010.9304216200343,1303
1013.1243065526781,1228
1015.3176010052733,1300
1017.510305208472,1307
1019.7024193930064,1320
1021.8939437896848,1230
1024.0848786293977,1242
1026.2752241431122,1271
1028.4649805618747,1269
1030.6541481168115,1332
1032.842727039127,1290
1035.0307175601051,1189
1037.2181199111074,1237
1039.4049343235752,1248
1041.591161029029,1254
1043.7768002590683,1259
1045.9618522453698,1233
1048.1463172196918,1245
1050.3301954138697,1178
1052.513487059818,1246
1054.69619238953,1273
1056.8783116350783,1259
1059.0598450286152,1222
1061.2407928023704,1189
1063.4211551886528,1248
1065.6009324198508,1213
1067.780124728432,1225
1069.9587323469414,1291
1072.1367555080046,1278
1074.314194444325,1259
1076.4910493886855,1247
1078.667320573947,1254
1080.843008233051,1243
1083.0181125990161,1229
1085.1926339049414,1167
1087.3665723840027,1198
1089.5399282694575,1226
1091.7127017946405,1148
1093.8848931929647,1203
1096.0565026979243,1147
1098.2275305430899,1182
1100.3979769621128,1191
1102.567842188722,1084
1104.737126456726,1201
1106.9058300000124,1179
1109.0739530525475,1182
1111.2414958483764,1176
1113.4084586216231,1151
1115.5748416064907,1190
1117.7406450372605,1190
1119.9058691482942,1210
1122.0705141740304,1174
1124.2345803489884,1193
1126.3980679077658,1154
1128.5609770850388,1127
1130.7233081155623,1186
1132.8850612341707,1156
1135.0462366757774,1157
1137.2068346753745,1112
1139.3668554680326,1151
1141.526299288901,1147
1143.68516637321,1106
1145.8434569562655,1160
1148.001171273455,1154
1150.158309560244,1136
1152.3148720521767,1135
1154.470858984876,1155
1156.626270594044,1150
1158.7811071154629,1083
1160.9353687849912,1162
1163.089055838569,1110
1165.242168512213,1139
1167.3947070420209,1130
1169.5466716641677,1120
1171.6980626149075,1078
1173.8488801305748,1086
1175.9991244475814,1130
1178.1487958024186,1081
1180.2978944316555,1164
1182.4464205719428,1135
1184.5943744600072,1150
1186.7417563326567,1144
1188.8885664267755,1133
1191.0348049793297,1098
1193.1804722273619,1142
1195.325568407995,1133
1197.4700937584303,1115
1199.614048515948,1108
1201.7574329179074,1112
1203.900247201746,1125
1206.042491604982,1155
1208.1841663652099,1078
1210.3252717201053,1101
1212.465807907422,1153
1214.6057751649923,1136
1216.7451737307279,1179
1218.8840038426192,1132
1221.0222657387353,1113
1223.1599596572241,1138
1225.2970858363137,1137
1227.4336445143094,1123
1229.5696359295966,1192
1231.705060320639,1200
1233.8399179259786,1152
1235.9742089842384,1145
1238.107933734118,1188
1240.2410924143974,1182
1242.373685263935,1142
1244.5057125216676,1183
1246.6371744266116,1143
1248.7680712178621,1147
1250.898403134593,1135
1253.028170416058,1148
1255.1573733015875,1135
1257.2860120305932,1179
1259.4140868425648,1168
1261.54159797707,1132
1263.6685456737569,1163
1265.7949301723515,1226
1267.9207517126597,1225
1270.046010534565,1178
1272.1707068780306,1153
1274.2948409830983,1174
1276.4184130898889,1205
1278.541423438603,1184
1280.6638722695184,1210
1282.785759822993,1213
1284.9070863394636,1192
1287.0278520594447,1216
1289.1480572235314,1215
1291.2677020723963,1226
1293.3867868467923,1230
1295.5053117875495,1229
1297.623277135579,1230
1299.740683131868,1204
1301.8575300174857,1273
1303.973818033578,1235
1306.0895474213703,1293
1308.2047184221678,1321
1310.3193312773528,1280
1312.4333862283888,1245
1314.5468835168163,1289
1316.659823384255,1288
1318.7722060724045,1324
1320.8840318230418,1294
1322.9953008780249,1309
1325.1060134792888,1278
1327.2161698688478,1352
1329.3257702887959,1263
1331.4348149813054,1334
1333.5433041886276,1260
1335.6512381530933,1311
1337.7586171171101,1251
1339.8654413231675,1314
1341.9717110138317,1287
1344.0774264317488,1286
1346.1825878196432,1256
1348.2871954203192,1295
1350.3912494766587,1271
1352.4947502316231,1237
1354.5976979282532,1238
1356.7000928096686,1216
1358.8019351190665,1248
1360.9032250997243,1245
1363.0039629949988,1231
1365.1041490483235,1222
1367.2037835032133,1209
1369.3028666032606,1249
1371.401398592137,1226
1373.4993797135926,1217
1375.5968102114575,1278
1377.6936903296396,1276
1379.7900203121262,1253
1381.8858004029835,1218
1383.9810308463561,1188
1386.075711886469,1230
1388.1698437676241,1241
1390.2634267342032,1236
1392.356461030667,1205
1394.4489469015557,1249
1396.5408845914872,1270
1398.6322743451592,1229
1400.7231164073469,1205
1402.813411022907,1240
1404.903158436773,1243
1406.9923588939578,1285
1409.0810126395531,1257
1411.1691199187303,1278
1413.2566809767386,1258
1415.343696058907,1250
1417.4301654106425,1264
1419.5160892774315,1270
1421.6014679048399,1252
1423.6863015385125,1230
1425.7705904241707,1204
1427.8543348076178,1222
1429.9375349347342,1245
1432.0201910514802,1244
1434.102303403894,1331
1436.1838722380944,1247
1438.2648978002767,1268
1440.3453803367174,1255
1442.4253200937692,1278
1444.5047173178677,1273
1446.5835722555234,1295
1448.6618851533285,1283
1450.739656257952,1299
1452.8168858161434,1265
1454.8935740747306,1325
1456.96972128062,1328
1459.045327680797,1347
1461.120393522327,1321
1463.1949190523528,1341
1465.2689045180973,1346
1467.3423501668608,1332
1469.415256246024,1388
1471.4876230030463,1336
1473.559450685465,1369
1475.6307395408976,1336
1477.7014898170391,1387
1479.771701761665,1445
1481.8413756226287,1410
1483.9105116478618,1428
1485.9791100853772,1430
1488.0471711832643,1408
1490.1146951896926,1437
1492.1816823529098,1429
1494.2481329212433,1424
1496.3140471430984,1456
1498.3794252669609,1478
1500.4442675413939,1472
1502.5085742150404,1526
1504.572345536622,1483
1506.6355817549388,1460
1508.6982831188702,1518
1510.7604498773744,1453
1512.8220822794883,1448
1514.8831805743293,1500
1516.9437450110909,1531
1519.003775839048,1552
1521.0632733075522,1583
1523.1222376660367,1543
1525.1806691640113,1480
1527.2385680510652,1630
1529.2959345768668,1588
1531.3527689911643,1579
1533.4090715437833,1519
1535.4648424846291,1540
1537.5200820636855,1608
1539.5747905310159,1624
1541.6289681367616,1666
1543.6826151311434,1616
1545.7357317644614,1615
1547.7883182870937,1620
1549.8403749494987,1699
1551.8919020022113,1682
1553.9428996958477,1729
1555.9933682811015,1771
1558.0433080087469,1767
1560.0927191296346,1792
1562.1416018946961,1855
1564.1899565549415,1932
1566.2377833614592,1873
1568.2850825654164,1877
1570.3318544180606,1857
1572.3780991707158,1857
1574.423817074788,1827
1576.4690083817595,1837
1578.5136733431923,1766
1580.5578122107272,1743
1582.601425236085,1699
1584.6445126710646,1645
1586.6870747675434,1561
1588.7291117774776,1579
1590.7706239529034,1596
1592.8116115459347,1545
1594.8520748087658,1507
1596.8920139936686,1505
1598.9314293529933,1452
1600.9703211391711,1430
1603.008689604711,1452
1605.0465350022005,1345
1607.0838575843068,1353
1609.1206576037753,1359
1611.1569353134305,1345
1613.1926909661765,1331
1615.2279248149953,1326
1617.2626371129481,1336
1619.2968281131757,1273
1621.3304980688963,1277
1623.3636472334088,1263
1625.39627586009,1266
1627.428384202396,1275
1629.459972513861,1240
1631.4910410480993,1223
1633.5215900588028,1239
1635.551619799744,1208
1637.5811305247717,1154
1639.6101224878166,1182
1641.6385959428862,1191
1643.6665511440683,1195
1645.693988345528,1181
1647.7209078015112,1160
1649.7473097663405,1159
1651.7731944944203,1137
1653.7985622402307,1141
1655.823413258333,1131
1657.847747803366,1156
1659.8715661300494,1134
1661.8948684931793,1130
1663.9176551476316,1126
1665.9399263483624,1196
1667.9616823504057,1145
1669.982923408873,1134
1672.0036497789574,1131
1674.0238617159293,1135
1676.043559475138,1129
1678.0627433120121,1168
1680.081413482059,1178
1682.0995702408654,1138
1684.117213844096,1163
1686.134344547495,1119
1688.1509626068864,1178
1690.1670682781705,1119
1692.182661817329,1194
1694.1977434804217,1109
1696.2123135235875,1112
1698.226372203043,1118
1700.2399197750851,1108
1702.2529564960905,1173
1704.2654826225112,1160
1706.277498410882,1127
1708.2890041178139,1118
1710.2999999999988,1112
1712.3104863142066,1118
1714.3204633172854,1148
1716.329931266163,1143
1718.3388904178469,1177
1720.3473410294214,1178
1722.3552833580516,1159
1724.3627176609807,1157
1726.3696441955308,1143
1728.3760632191033,1166
1730.3819749891782,1136
1732.3873797633146,1126
1734.3922777991502,1077
1736.3966693544012,1133
1738.4005546868639,1129
1740.4039340544127,1162
1742.406807715001,1116
1744.4091759266616,1145
1746.4110389475054,1122
1748.4123970357223,1159
1750.413250449582,1133
1752.4135994474318,1119
1754.4134442876993,1067
1756.4127852288902,1129
1758.4116225295893,1105
1760.4099564484595,1113
1762.407787244244,1139
1764.405115175764,1094
1766.4019405019203,1143
1768.3982634816916,1127
1770.3940843741357,1125
1772.3894034383907,1110
1774.3842209336717,1137
1776.378537119274,1079
1778.372352254571,1103
1780.3656665990156,1129
1782.3584804121397,1120
1784.3507939535534,1086
1786.3426074829463,1134
1788.3339212600863,1104
1790.3247355448211,1146
1792.3150505970766,1123
1794.3048666768573,1092
1796.2941840442477,1147
1798.2830029594106,1160
1800.2713236825884,1126
1802.2591464741004,1050
1804.2464715943465,1119
1806.2332993038058,1111
1808.2196298630352,1085
1810.2054635326708,1159
1812.190800573428,1117
1814.175641246101,1096
1816.1599858115628,1091
1818.1438345307652,1160
1820.127187664738,1123
1822.1100454745924,1089
1824.092408221516,1134
1826.0742761667766,1087
1828.055649571721,1122
1830.0365286977735,1099
1832.0169138064398,1116
1833.9968051593014,1126
1835.9762030180214,1107
1837.9551076443408,1133
1839.9335193000788,1099
1841.9114382471344,1075
1843.888864747485,1144
1845.8657990631878,1172
1847.842241456378,1123
1849.8181921892697,1121
1851.7936515241558,1123
1853.7686197234098,1084
1855.7430970494815,1131
1857.7170837649014,1171
1859.6905801322787,1078
1861.6635864143004,1112
1863.6361028737338,1102
1865.608129773424,1107
1867.5796673762961,1167
1869.5507159453537,1171
1871.521275743678,1102
1873.4913470344313,1116
1875.4609300808534,1119
1877.4300251462632,1103
1879.3986324940588,1130
1881.366752387717,1108
1883.3343850907936,1132
1885.3015308669228,1174
1887.268189979819,1163
1889.2343626932739,1123
1891.2000492711595,1147
1893.1652499774254,1164
1895.1299650761011,1162
1897.0941948312952,1168
1899.0579395071945,1135
1901.0211993680641,1139
1902.98397467825,1181
1904.9462657021745,1119
1906.9080727043415,1143
1908.869395949332,1162
1910.8302357018065,1116
1912.790592226504,1135
1914.7504657882428,1187
1916.7098566519212,1051
1918.6687650825133,1151
1920.6271913450764,1137
1922.5851357047422,1157
1924.5425984267245,1143
1926.499579776314,1157
1928.4560800188833,1157
1930.4120994198802,1143
1932.367638244833,1143
1934.32269675935,1192
1936.2772752291175,1169
1938.231373919899,1127
1940.1849930975404,1177
1942.1381330279637,1131
1944.0907939771696,1142
1946.0429762112412,1155
1947.9946799963363,1139
1949.9459055986945,1113
1951.896653284633,1090
1953.8469233205478,1159
1955.7967159729142,1117
1957.7460315082863,1093
1959.6948701932974,1166
1961.6432322946594,1153
1963.5911180791632,1138
1965.5385278136787,1082
1967.4854617651545,1129
1969.4319202006182,1137
1971.377903387176,1124
1973.3234115920136,1090
1975.268445082395,1079
1977.2130041256642,1103
1979.1570889892423,1126
1981.1006999406304,1115
1983.04383724741,1108
1984.986501177238,1067
1986.928691997853,1094
1988.8704099770712,1131
1990.811655382789,1137
1992.7524284829801,1133
1994.692729545698,1103
1996.6325588390755,1162
1998.5719166313224,1142
2000.5108031907307,1134
2002.4492187856677,1128
2004.387163684583,1135
2006.3246381560011,1146
2008.2616424685298,1135
2010.1981768908527,1140
2012.1342416917332,1092
2014.069837140014,1095
2016.0049635046162,1074
2017.9396210545406,1068
2019.8738100588666,1127
2021.8075307867502,1154
2023.740783507431,1080
2025.6735684902228,1076
2027.6058860045214,1092
2029.5377363198004,1096
2031.4691197056118,1153
2033.4000364315875,1139
2035.3304867674374,1085
2037.260470982952,1105
2039.189989347998,1060
2041.1190421325232,1098
2043.047629606554,1113
2044.9757520401945,1078
2046.9034097036288,1114
2048.8306028671195,1071
2050.7573318010086,1128
2052.683596775716,1087
2054.609398061742,1085
2056.5347359296647,1091
2058.4596106501403,1026
2060.384022493906,1075
2062.3079717317764,1056
2064.231458634646,1093
2066.1544834734873,1069
2068.077046519352,1156
2069.99914804337,1086
2071.9207883167524,1107
2073.8419676107865,1126
2075.7626861968406,1077
2077.6829443463607,1069
2079.6027423308715,1056
2081.522080421977,1099
2083.440958891362,1144
2085.359378010786,1143
2087.2773380520907,1146
2089.194839287196,1093
2091.111881988101,1111
2093.0284664268825,1092
2094.9445928756973,1086
2096.86026160678,1128
2098.775472892446,1112
2100.690227005088,1099
2102.604524217178,1146
2104.5183648012676,1100
2106.431749029985,1187
2108.34467717604,1116
2110.2571495122206,1090
2112.169166311393,1078
2114.080727846503,1153
2115.9918343905747,1098
2117.902486216711,1139
2119.8126835980956,1106
2121.722426807987,1098
2123.6317161197285,1096
2125.5405518067364,1155
2127.448934142509,1072
2129.356863400624,1080
2131.264339854737,1110
2133.1713637785815,1148
2135.077935445972,1105
2136.9840551308002,1125
2138.889723107037,1120
2140.7949396487334,1114
2142.699705030018,1151
2144.6040195250994,1108
2146.507883408264,1165
2148.4112969538774,1156
2150.3142604363848,1095
2152.2167741303097,1098
2154.1188383102535,1128
2156.0204532508997,1089
2157.9216192270064,1145
2159.822336513414,1091
2161.7226053850413,1082
2163.622426116884,1058
2165.5217989840185,1111
2167.4207242616,1100
2169.319202224862,1181
2171.2172331491165,1138
2173.1148173097563,1126
2175.0119549822507,1151
2176.90864644215,1135
2178.8048919650823,1124
2180.7006918267534,1094
2182.596046302952,1108
2184.4909556695407,1122
2186.3854202024645,1187
2188.279440177746,1151
2190.173015871487,1108
2192.066147559868,1106
2193.958835519149,1102
2195.851080025667,1109
2197.7428813558417,1137
2199.6342397861667,1107
2201.5251555932186,1115
2203.415629053651,1123
2205.3056604441986,1097
2207.19525004167,1157
2209.084398122958,1134
2210.9731049650327,1158
2212.861370844941,1185
2214.749196039812,1187
2216.636580826851,1192
2218.523525483344,1152
2220.410030286655,1219
2222.296095514226,1203
2224.1817214435805,1215
2226.066908352319,1158
2227.951656518121,1157
2229.835966218746,1195
2231.71983773203,1227
2233.6032713358913,1208
2235.486267308324,1184
2237.3688259274036,1159
2239.2509474712824,1160
2241.132632218193,1181
2243.013880446447,1199
2244.8946924344323,1243
2246.7750684606203,1159
2248.6550088035574,1157
2250.534513741871,1187
2252.413583554265,1210
2254.292218519526,1167
2256.170418916517,1166
2258.0481850241786,1177
2259.925517121534,1132
2261.8024154876825,1177
2263.678880401803,1189
2265.5549121431536,1162
2267.430510991071,1230
2269.305677224971,1134
2271.180411124348,1140
2273.0547129687766,1146
2274.9285830379076,1144
2276.8020216114737,1172
2278.6750289692845,1171
2280.5476053912294,1190
2282.4197511572766,1249
2284.2914665474727,1207
2286.162751841943,1205
2288.0336073208937,1266
2289.904033264608,1155
2291.774029953448,1199
2293.6435976678554,1160
2295.5127366883517,1193
2297.381447295534,1179
2299.2497297700825,1130
2301.1175843927526,1141
2302.9850114443825,1071
2304.852011205885,1087
2306.7185839582553,1040
2308.5847299825664,1066
2310.4504495599676,1051
2312.3157429716925,1011
2314.1806104990483,1034
2316.0450524234247,1024
2317.9090690262888,1016
2319.772660589186,1026
2321.635827393742,1005
2323.498569721661,1029
2325.3608878547248,1043
2327.2227820747967,1029
2329.0842526638157,1012
2330.945299903803,1012
2332.805924076857,994
2334.6661254651535,1021
2336.525904350951,1002
2338.3852610165827,1033
2340.244195744464,1019
2342.102708817088,1042
2343.9608005170253,1018
2345.8184711269287,1035
2347.675720929526,1005
2349.532550207628,990
2351.38895924412,1019
2353.24494832197,1047
2355.100517724223,1047
2356.955667734004,1031
2358.810398634514,983
2360.664710709037,1017
2362.5186042409337,1022
2364.3720795136437,1008
2366.225136810686,1023
2368.0777764156583,1012
2369.929998612237,1063
2371.7818036841777,1043
2373.633191915315,1015
2375.484163589562,1064
2377.3347189909114,1068
2379.184858403434,1035
2381.03458211128,1042
2382.8838903986775,1032
2384.732783549936,1025
2386.5812618494406,1049
2388.4293255816588,1019
2390.2769750311327,998
2392.1242104824883,1038
2393.971032220427,1037
2395.8174405297295,1029
2397.6634356952563,1018
2399.509018001947,1051
2401.3541877348193,1057
2403.1989451789705,1020
2405.043290619576,1059
2406.8872243418905,1022
2408.730746631247,1032
2410.5738577730594,1015
2412.4165580528183,1033
2414.258847756095,1073
2416.100727168537,1011
2417.9421965758734,1018
2419.783256263912,1018
2421.623906518538,1008
2423.4641476257157,1020
2425.303979871491,1037
2427.143403541984,1057
2428.9824189233977,1021
2430.821026302012,1090
2432.6592259641866,984
2434.497018196361,1042
2436.33440328505,1002
2438.171381516851,1026
2440.00795317844,1042
2441.844118556569,1072
2443.6798779380724,1032
2445.5152316098606,1045
2447.3501798589255,1031
2449.1847229723357,1002
2451.0188612372403,1064
2452.8525949408663,1084
2454.6859243705203,1038
2456.518849813587,1043
2458.3513715575314,1051
2460.183489889895,1008
2462.015205098301,1008
2463.8465174704493,999
2465.67742729412,1041
2467.5079348571717,1021
2469.338040447542,1029
2471.1677443532476,1070
2472.9970468623833,1046
2474.825948263123,1010
2476.6544488437207,1021
2478.482548892508,1000
2480.310248697896,1046
2482.137548548374,1048
2483.9644487325118,1071
2485.790949538956,1067
2487.617051256433,1051
2489.44275417375,1019
2491.26805857979,1081
2493.0929647635157,1085
2494.917473013971,1055
2496.741583620276,1066
2498.5652968716304,1115
2500.3886130573137,1090
2502.2115324666834,1066
2504.0340553891765,1059
2505.856182114308,1100
2507.6779129316733,1087
2509.499248130945,1069
2511.3201880018764,1077
2513.140732834298,1090
2514.9608829181198,1059
2516.780638543331,979
2518.6,1090
2520.418967578273,1105
2522.237541568376,1037
2524.0557222606144,1048
2525.8735099453706,1079
2527.6909049131086,1072
2529.507907454368,1077
2531.32451785977,1114
2533.140736420014,1078
2534.9565634258774,1100
2536.771999168218,1105
2538.5870439379714,1076
2540.4016980261526,1089
2542.2159617238544,1130
2544.02983532225,1114
2545.8433191125914,1068
2547.656413386209,1125
2549.4691184345115,1139
2551.2814345489874,1132
2553.093362021204,1120
2554.904901142808,1121
2556.716052205523,1143
2558.526815501153,1080
2560.3371913215824,1089
2562.147179958771,1187
2563.956781704761,1111
2565.7659968516705,1191
2567.5748256916986,1182
2569.3832685171224,1113
2571.1913256202984,1153
2572.9989972936614,1160
2574.806283829725,1180
2576.613185521084,1192
2578.4197026604074,1165
2580.2258355404483,1185
2582.031584454035,1224
2583.836949694077,1166
2585.6419315535613,1242
2587.4465303255533,1197
2589.2507463032002,1163
2591.0545797797245,1157
2592.8580310484303,1159
2594.6611004026995,1166
2596.463788135992,1213
2598.266094541849,1181
2600.0680199138874,1176
2601.869564545807,1211
2603.670728731383,1222
2605.4715127644704,1212
2607.2719169390048,1195
2609.071941548998,1155
2610.8715868885433,1133
2612.670853251811,1211
2614.469740933052,1189
2616.268250226594,1126
2618.0663814268455,1147
2619.864134828292,1212
2621.6615107255006,1162
2623.458509413115,1158
2625.2551311858597,1176
2627.0513763385347,1149
2628.8472451660223,1169
2630.6427379632833,1107
2632.4378550253564,1161
2634.232596647359,1159
2636.026963124488,1139
2637.8209547520187,1163
2639.6145718253065,1124
2641.407814639785,1098
2643.200683490966,1138
2644.9931786744414,1138
2646.7853004858807,1137
2648.577049221034,1191
2650.3684251757277,1070
2652.1594286458712,1112
2653.9500599274484,1082
2655.740319316525,1053
2657.5302071092437,1070
2659.3197236018286,1109
2661.10886909058,1068
2662.8976438718782,1078
2664.686048242183,1103
2666.4740824980327,1105
2668.2617469360443,1077
2670.0490418529134,1056
2671.8359675454153,1102
2673.622524310403,1122
2675.408712444811,1109
2677.1945322456495,1121
2678.979984010009,1119
2680.76506803506,1143
2682.5497846180497,1099
2684.334134056306,1067
2686.1181166472343,1098
2687.9017326883213,1058
2689.6849824771293,1026
2691.4678663113013,1055
2693.2503844885596,1069
2695.032537306705,1049
2696.8143250636167,1052
2698.5957480572542,1069
2700.3768065856534,1051
2702.1575009469316,1027
2703.937831439283,1022
2705.717798360982,1063
2707.4974020103837,1073
2709.276642685917,1044
2711.055520686095,1026
2712.834036309506,1046
2714.612189854819,1037
2716.389981620782,1037
2718.1674119062204,1030
2719.944481010041,1062
2721.721189231226,990
2723.4975368688415,1013
2725.273524222027,1053
2727.0491515900053,1062
2728.824419272075,998
2730.5993275676146,1021
2732.3738767760838,1029
2734.148067197016,1027
2735.921899130031,1065
2737.6953728748194,1040
2739.468488731156,970
2741.2412469988926,1013
2743.0136479779617,1031
2744.785691968372,1008
2746.5573792702116,1049
2748.3287101836504,1030
2750.099685008934,1025
2751.870304046388,963
2753.640567596418,1037
2755.4104759595057,1023
2757.1800294362156,1020
2758.949228327187,1044
2760.7180729331412,990
2762.486563554877,1057
2764.254700493272,1011
2766.022484049284,1063
2767.789914523947,1013
2769.5569922183786,1028
2771.3237174337705,993
2773.090090471394,1053
2774.8561116326036,1011
2776.6217812188274,1040
2778.3870995315756,1024
2780.1520668724356,984
2781.9166835430747,1056
2783.6809498452394,1017
2785.444866080754,1053
2787.2084325515225,976
2788.971649559527,999
2790.73451740683,1033
2792.4970363955713,1034
2794.2592068279705,1037
2796.0210290063264,1042
2797.7825032330147,981
2799.543629810493,994
2801.304409041296,979
2803.0648412280366,1028
2804.8249266734088,1023
2806.5846656801846,1020
2808.344058551212,1052
2810.1031055894246,1004
2811.8618070978273,1011
2813.6201633795085,1011
2815.378174737636,1088
2817.1358414754536,1007
2818.893163896285,1008
2820.6501423035334,1052
2822.4067770006814,979
2824.1630682912883,1029
2825.9190164789957,989
2827.6746218675207,1054
2829.429884760661,1015
2831.184805462294,1030
2832.9393842763743,1013
2834.693621506936,1020
2836.4475174580916,946
2838.201072434034,1010
2839.954286739034,1011
2841.707160677441,1041
2843.459694553685,1021
2845.2118886722724,1018
2846.96374333779,1043
2848.7152588549034,1019
2850.4664355283567,1001
2852.217273662973,1062
2853.9677735636546,1062
2855.7179355353833,1041
2857.4677598832186,979
2859.217246912299,1041
2860.9663969278427,1036
2862.715210235146,1049
2864.4636871395846,1014
2866.211827946614,1059
2867.9596329617652,1040
2869.7071024906536,999
2871.4542368389684,973
2873.20103631248,1008
2874.947501217038,953
2876.6936318585695,1018
2878.4394285430812,1042
2880.1848915766604,1008
2881.9300212654707,1025
2883.6748179157553,1008
2885.4192818338374,1035
2887.1634133261173,1016
2888.907212699077,993
2890.6506802592744,1023
2892.393816313348,984
2894.1366211680142,1063
2895.8790951300693,1035
2897.621238506388,1005
2899.363051603925,1030
2901.1045347297118,1031
2902.8456881908596,981
2904.58651229456,1031
2906.327007348081,1032
2908.067173658772,968
2909.8070115340597,1054
2911.5465212814497,1068
2913.285703208527,1038
2915.0245576229563,1037
2916.7630848324807,1010
2918.5012851449196,1010
2920.2391588681758,1024
2921.976706310227,1045
2923.7139277791334,1012
2925.4508235830313,1091
2927.187394030137,1011
2928.923639428745,993
2930.6595600872306,1018
2932.395156314046,1037
2934.1304284177218,1039
2935.8653767068713,998
2937.6000014901815,1043
2939.3343030764227,1001
2941.068281774442,995
2942.8019378931644,1074
2944.5352717415976,1025
2946.2682836288236,1020
2948.0009738640065,1007
2949.7333427563885,1012
2951.465390615289,1040
2953.1971177501086,1034
2954.9285244703265,1005
2956.6596110855,1025
2958.3903779052657,1000
2960.1208252393385,1013
2961.8509533975125,1029
2963.5807626896617,1022
2965.3102534257378,1027
2967.0394259157715,1000
2968.768280469873,1033
2970.496817398232,1019
2972.2250370111146,1020
2973.952939618869,1016
2975.6805255319196,990
2977.4077950607707,997
2979.134748516006,1018
2980.861386208289,1004
2982.587708448359,966
2984.313715547037,1013
2986.039407815222,1060
2987.764785563891,955
2989.489849104102,1014
2991.2145987469908,1039
2992.9390348037705,1012
2994.6631575857346,996
2996.3869674042576,1008
2998.1104645707887,1019
2999.83364939686,988
3001.5565221940783,1018
3003.2790832741334,965
3005.0013329487924,978
3006.7232715298996,999
3008.4448993293804,976
3010.166216659239,1023
3011.887223831558,982
3013.607921158498,1019
3015.3283089522993,1032
3017.0483875252826,1012
3018.7681571898443,1002
3020.4876182584626,1012
3022.2067710436927,1013
3023.9256158581707,976
3025.644153014609,987
3027.362382825801,1003
3029.0803056046193,1041
3030.797921664012,1027
3032.5152313170106,1025
3034.2322348767225,954
3035.9489326563353,984
3037.665324969115,1010
3039.3814121284063,1003
3041.097194447633,990
3042.812672240299,1012
3044.5278458199855,976
3046.2427155003525,1019
3047.9572815951406,1007
3049.671544418167,1017
3051.38550428333,974
3053.0991615046073,1024
3054.812516396051,992
3056.5255692717974,1000
3058.2383204460575,1007
3059.9507702331257,1020
3061.662918947372,989
3063.3747669032446,1003
3065.0863144152736,1010
3066.7975617980674,1033
3068.508509366309,1005
3070.219157434767,1020
3071.9295063182844,993
3073.639556331785,1015
3075.3493077902704,1001
3077.058761008821,1030
3078.7679163025964,996
3080.476773986837,1018
3082.1853343768594,1040
3083.89359778806,1003
3085.6015645359153,1012
3087.3092349359786,1009
3089.016609303884,994
3090.7236879553434,1016
3092.4304712061476,999
3094.136959372166,1026
3095.843152769349,996
3097.5490517137237,1044
3099.2546565213966,1005
3100.959967508554,988
3102.66498499146,1033
3104.3697092864577,1015
3106.0741407099695,1023
3107.778279578498,1035
3109.482126208622,970
3111.1856809170004,1022
3112.8889440203716,998
3114.5919158355528,998
3116.294596679439,982
3117.996986869006,1022
3119.6990867213062,1003
3121.4008965534726,1020
3123.102416682717,1056
3124.803647426329,1029
3126.5045891016784,998
3128.205242026213,1003
3129.90560651746,1044
3131.605682893025,997
3133.3054714705922,1025
3135.0049725679282,1062
3136.7041865028714,994
3138.4031135933465,1044
3140.101754157353,1043
3141.800108512971,1002
3143.498176978357,998
3145.1959598717494,1043
3146.8934575114636,1010
3148.5906702158954,980
3150.2875983035183,998
3151.9842420928853,978
3153.680601902627,1023
3155.376678051456,1014
3157.07247085816,1019
3158.767980641609,1032
3160.463207720748,999
3162.158152414606,1016
3163.8528150422862,1027
3165.5471959229726,1004
3167.2412953759303,1056
3168.9351137204976,1019
3170.628651276098,1003
3172.3219083622307,1015
3174.014885298474,1004
3175.707582404485,1011
3177.4000000000005,1001
3179.092138404835,1011
3180.7839979388846,996
3182.47557892212,986
3184.166881674594,989
3185.8579065164386,965
3187.5486537678626,1039
3189.2391237491547,1020
3190.9293167806827,1053
3192.6192331828934,1032
3194.3088732763117,991
3195.998237381542,1035
3197.687325819268,993
3199.376138910251,1015
3201.064676975334,1017
3202.7529403354347,992
3204.4409293115523,966
3206.1286442247647,993
3207.816085396229,963
3209.5032531471825,1007
3211.190147798936,971
3212.8767696728846,973
3214.5631190905015,960
3216.2491963733373,948
3217.9350018430214,968
3219.6205358212637,947
3221.305798629851,975
3222.990790590651,961
3224.6755120256103,982
3226.359963256751,1004
3228.0441446061795,1011
3229.7280563960758,987
3231.411698948703,969
3233.0950725863995,1000
3234.778177631587,991
3236.461014406761,988
3238.1435832345005,1033
3239.8258844374595,985
3241.507918338374,1029
3243.1896852600576,975
3244.8711855254023,976
3246.552419457381,992
3248.233387379042,1030
3249.914089613516,985
3251.59452648401,997
3253.274698313813,997
3254.95460542629,982
3256.6342481448855,974
3258.313626793125,977
3259.9927416946084,974
3261.6715931730196,972
3263.3501815521176,950
3265.0285071557437,985
3266.706570307815,980
3268.3843713323286,981
3270.0619105533615,985
3271.739188295068,1004
3273.4162048816834,985
3275.0929606375184,978
3276.769455886966,995
3278.445690954498,1012
3280.1216661646613,1044
3281.797381842087,989
3283.4728383114807,1008
3285.1480358976296,1032
3286.8229749253996,938
3288.4976557197333,983
3290.172078605655,989
3291.846243908266,992
3293.5201519527463,974
3295.193803064357,1009
3296.8671975684374,990
3298.5403357904024,941
3300.21321805575,1016
3301.8858446900567,1003
3303.558216018975,1013
3305.23033236824,974
3306.9021940636603,1036
3308.57380143113,1012
3310.2451547966184,1038
3311.916254486174,981
3313.5871008259246,992
3315.2576941420766,958
3316.9280347609147,968
3318.5981230088046,991
3320.2679592121895,978
3321.9375436975924,948
3323.606876791612,966
3325.27595882093,930
3326.944790112305,949
3328.6133709925753,960
3330.2817017886573,966
3331.949782827547,969
3333.617614436319,948
3335.2851969421245,973
3336.952530672199,986
3338.619615953853,1009
3340.286453114475,1007
3341.9530424815357,985
3343.619384382583,1037
3345.2854791452437,981
3346.951327097224,992
3348.6169285663073,958
3350.2822838803577,1026
3351.947393367319,970
3353.61225735521,967
3355.2768761721345,983
3356.9412501462693,1010
3358.605379605873,984
3360.2692648792827,1014
3361.9329062949146,1010
3363.596304181263,986
