CollectionTime,7/11/2024 2:16:22 PM
ExposureUsed,3
CalibratedSpectrum
-962.7078968117929,446
-959.9714848408522,443
-957.2358232597828,480
-954.5009119013725,449
-951.7667505983302,454
-949.0333391832855,472
-946.3006774887896,472
-943.5687653473143,455
-940.837602591253,441
-938.1071890529199,454
-935.3775245645503,447
-932.6486089583007,478
-929.9204420662485,493
-927.1930237203925,457
-924.4663537526524,440
-921.7404319948689,473
-919.0152582788041,474
-916.2908324361409,505
-913.5671542984834,470
-910.8442236973568,437
-908.1220404642074,474
-905.4006044304027,468
-902.679915427231,463
-899.959973285902,464
-897.2407778375464,465
-894.5223289132158,436
-891.8046263438832,442
-889.0876699604426,437
-886.3714595937089,470
-883.6559950744183,477
-880.9412762332282,450
-878.2273029007168,447
-875.5140749073835,469
-872.8015920836489,457
-870.0898542598545,452
-867.3788612662631,451
-864.6686129330585,451
-861.9591090903457,459
-859.2503495681506,442
-856.5423341964203,456
-853.8350628050229,451
-851.1285352237478,448
-848.4227512823054,473
-845.7177108103272,483
-843.0134136373656,460
-840.3098595928943,457
-837.6070485063082,468
-834.9049802069229,495
-832.2036545239757,452
-829.5030712866244,444
-826.8032303239481,460
-824.1041314649472,495
-821.4057745385428,454
-818.7081593735775,480
-816.0112857988148,485
-813.3151536429393,480
-810.6197627345566,468
-807.9251129021936,480
-805.2312039742981,451
-802.5380357792392,466
-799.8456081453069,469
-797.1539209007124,481
-794.462973873588,475
-791.772766891987,477
-789.083299783884,467
-786.3945723771743,497
-783.7065844996748,463
-781.0193359791231,463
-778.3328266431781,506
-775.6470563194197,509
-772.9620248353489,464
-770.2777320183878,485
-767.5941776958798,485
-764.9113616950891,478
-762.2292838432011,485
-759.5479439673222,486
-756.8673418944801,478
-754.1874774516235,486
-751.5083504656222,483
-748.8299607632671,492
-746.15230817127,511
-743.475392516264,489
-740.7992136248035,515
-738.1237713233636,512
-735.4490654383407,470
-732.7750957960521,504
-730.1018622227365,532
-727.4293645445534,470
-724.7576025875837,487
-722.0865761778291,489
-719.4162851412126,507
-716.7467293035781,503
-714.0779084906909,518
-711.409822528237,541
-708.7424712418238,505
-706.0758544569796,479
-703.4099719991541,508
-700.7448236937178,555
-698.0804093659622,522
-695.4167288411002,503
-692.7537819442656,494
-690.0915685005134,490
-687.4300883348199,505
-684.7693412720819,524
-682.1093271371178,513
-679.4500457546669,534
-676.7914969493897,526
-674.1336805458676,521
-671.4765963686034,520
-668.8202442420206,518
-666.1646239904642,491
-663.5097354382001,512
-660.8555784094151,543
-658.2021527282176,501
-655.5494582186366,505
-652.8974947046223,517
-650.2462620100463,507
-647.5957599587009,509
-644.9459883742998,540
-642.2969470804776,510
-639.6486359007902,531
-637.0010546587141,563
-634.3542031776476,544
-631.7080812809096,527
-629.0626887917401,527
-626.4180255333008,551
-623.7740913286734,554
-621.1308860008619,558
-618.4884093727904,544
-615.8466612673046,538
-613.2056415071715,516
-610.5653499150785,530
-607.9257863136347,530
-605.28695052537,565
-602.6488423727357,544
-600.0114616781036,528
-597.3748082637674,515
-594.7388819519412,525
-592.1036825647604,596
-589.4692099242818,585
-586.8354638524829,566
-584.2024441712624,550
-581.5701507024403,608
-578.9385832677575,574
-576.3077416888759,573
-573.6776257873787,565
-571.0482353847704,554
-568.4195703024757,569
-565.7916303618415,582
-563.164415384135,586
-560.5379251905453,560
-557.9121596021815,575
-555.2871184400748,575
-552.6628015251767,545
-550.0392086783606,580
-547.4163397204204,576
-544.794194472071,568
-542.1727727539491,579
-539.5520743866118,609
-536.9320991905377,605
-534.3128469861261,654
-531.6943175936979,633
-529.0765108334947,664
-526.4594265256793,677
-523.8430644903358,750
-521.2274245474689,839
-518.612506517005,886
-515.9983102187913,936
-513.3848354725959,874
-510.77208209810846,998
-508.16004991493924,1140
-505.5487387426199,1165
-502.9381484006032,1183
-500.3282787082628,1147
-497.71912948489364,985
-495.1107005497117,952
-492.5029917218539,837
-489.8960028203786,774
-487.28973366426493,704
-484.68418407241325,671
-482.07935386364494,679
-479.47524285670266,666
-476.87185087025,676
-474.2691777228715,682
-471.66722323307334,703
-469.0659872192821,672
-466.4654694998459,700
-463.86566989303384,704
-461.26658821703614,686
-458.66822428996414,709
-456.07057792985,708
-453.4736489546475,707
-450.877437182231,654
-448.28194243039627,690
-445.68716451686,676
-443.09310325926003,710
-440.49975847515555,710
-437.9071299820263,682
-435.31521759727354,679
-432.72402113821954,727
-430.13354042210767,727
-427.5437752661022,699
-424.95472548728867,749
-422.36639090267386,747
-419.7787713291855,729
-417.1918665836721,730
-414.60567648290385,764
-412.0202008435715,746
-409.4354394822874,756
-406.8513922155845,750
-404.26805885991723,792
-401.685439231661,745
-399.103533147112,771
-396.522340422488,769
-393.9418608739278,718
-391.3620943174908,714
-388.7830405691583,729
-386.2046994448317,665
-383.6270707603344,684
-381.05015433141045,682
-378.473949973725,636
-375.8984575028645,602
-373.32367673433623,575
-370.74960748356875,547
-368.1762495659117,527
-365.60360279663576,513
-363.03166699093265,477
-360.4604419639154,471
-357.8899275306178,470
-355.32012350599507,438
-352.7510297049233,436
-350.1826459421999,441
-347.61497203254316,426
-345.04800779059235,448
-342.4817530309082,469
-339.91620756797226,442
-337.35137121618743,446
-334.7872437898774,471
-332.22382510328725,457
-329.66111497058273,429
-327.09911320585127,433
-324.53781962310075,421
-321.9772340362607,436
-319.4173562591816,426
-316.8581861056348,430
-314.2997233893127,471
-311.7419679238294,447
-309.1849195227194,471
-306.62857799943856,484
-304.0729431673641,503
-301.51801483979375,472
-298.963792829947,477
-296.41027695096386,491
-293.85746701590574,491
-291.3053628377552,495
-288.7539642294155,507
-286.2032710037115,473
-283.65328297338897,494
-281.1039999511146,550
-278.5554217494762,515
-276.007548180983,527
-273.4603790580651,518
-270.9139141930734,554
-268.3681533982807,527
-265.8230964858798,543
-263.27874326798565,508
-260.7350935566336,536
-258.1921471637804,547
-255.6499039013039,509
-253.10836358100266,505
-250.56752601459698,533
-248.02739101372765,549
-245.48795838995704,522
-242.94922795476816,589
-240.41119951956557,529
-237.8738728956746,559
-235.33724789434166,559
-232.80132432673452,609
-230.2661020039418,604
-227.73158073697357,626
-225.19776033676033,700
-222.66464061415422,680
-220.1322213799284,679
-217.60050244477725,662
-215.06948361931552,586
-212.53916471408013,598
-210.00954553952818,658
-207.48062590603843,646
-204.9524056239104,660
-202.4248845033651,722
-199.8980623545441,702
-197.37193898751036,643
-194.84651421224817,681
-192.32178783866232,678
-189.79775967657952,642
-187.27442953574644,670
-184.7517972258321,708
-182.2298625564256,711
-179.7086253370378,696
-177.18808537710026,671
-174.66824248596583,650
-172.14909647290835,694
-169.6306471471229,758
-167.11289431772548,754
-164.59583779375328,771
-162.07947738416453,776
-159.5638128978386,751
-157.04884414357605,816
-154.53457093009854,901
-152.02099306604828,798
-149.50811035998936,728
-146.99592262040665,724
-144.48442965570587,709
-141.97363127421409,790
-139.46352728417958,830
-136.95411749377126,835
-134.44540171107985,776
-131.93737974411636,742
-129.43005140081357,861
-126.92341648902493,1061
-124.41747481652521,1163
-121.91222619101006,1287
-119.40767042009657,1541
-116.90380731132257,1927
-114.40063667214702,2057
-111.8981583099503,1929
-109.3963720320337,1631
-106.89527764561933,1281
-104.39487495785067,1162
-101.89516377579241,1715
-99.39614390642998,2547
-96.89781515667039,3019
-94.40017733334128,2997
-91.90323024319173,2847
-89.40697369289148,3197
-86.91140748903172,4353
-84.41653143812482,4713
-81.92234534660395,3614
-79.42884902082358,3015
-76.93604226705907,4944
-74.4439248915071,9493
-71.95249670028534,14922
-69.46175749943245,18623
-66.97170709490854,18278
-64.48234529259423,15015
-61.99367189829195,11757
-59.50568671772464,10180
-57.01838955653636,8572
-54.53178022029283,6843
-52.045858514480074,7052
-49.560624244506016,8487
-47.07607721569923,8706
-44.59221723330904,9679
-42.10904410250669,8842
-39.62655762838392,8536
-37.14475761595372,8409
-34.66364387015028,9057
-32.18321619582866,10635
-29.70347439776515,10911
-27.224418280657005,12265
-24.74604764912317,14134
-22.26836230770266,16266
-19.7913620608565,22345
-17.315046712966478,34356
-14.83941606833514,45572
-12.36446993118659,65038
-9.89020810566592,65038
-7.416630395839093,65038
-4.94373660569363,65038
-2.471526539137585,65038
-6.821210263296962E-13,65038
2.47084320796705,65038
4.941003281093458,65038
7.410480415786196,65038
9.879274808531363,65038
12.347386655893956,65038
14.814816154518212,65038
17.28156350112681,65038
19.74762889252179,65038
22.21301252558385,65038
24.67771459727237,20251
27.141735304626195,3985
29.605074844762612,2893
32.06773341487792,2358
34.52971121224755,1966
36.99100843422559,2002
39.45162527824516,1817
41.91156194181792,1681
44.370818622535126,1634
46.82939551806646,1554
49.287292826160524,1669
51.74451074464503,1879
54.201049471426245,1800
56.65690920448981,1394
59.112090141899785,1257
61.56659248179983,1178
64.02041642241159,1178
66.4735621620365,1080
68.92602989905402,1019
71.37781983192338,1118
73.82893215918205,1163
76.27936707944684,1189
78.72912479141326,1196
81.17820549385567,1334
83.62660938562783,1412
86.07433666566146,1275
88.5213875329681,897
90.96776218663751,965
93.41346082583925,1002
95.85848364982041,1088
98.30283085790859,1045
100.7465026495089,932
103.18949922410604,1011
105.63182078126385,983
108.07346752062438,932
110.51443964190923,833
112.95473734491827,847
115.39436082953114,873
117.83331029570547,833
120.27158594347827,827
122.7091879729652,943
125.1461165843615,939
127.58237197794062,859
130.01795435405518,807
132.4528639131364,817
134.88710085569494,840
137.32066538231982,896
139.75355769367923,837
142.1857779905207,827
144.61732647366978,757
147.04820334403132,753
149.47840880258934,791
151.90794305040674,882
154.33680628862487,981
156.76499871846443,1106
159.19252054122433,1234
161.61937195828352,1141
164.04555317109896,1186
166.47106438120693,1269
168.89590579022217,1427
171.320077599839,1440
173.7435800118302,1647
176.16641322804742,1700
178.58857745042144,1724
181.01007288096173,1866
183.43089972175687,1714
185.85105817497413,1696
188.27054844285988,1744
190.6893707277394,1686
193.10752523201643,1809
195.5250121581745,1886
197.9418317087751,1941
200.3579840864594,1874
202.7734694939469,1863
205.18828813403627,1791
207.6024402096051,1824
210.01592592360964,1846
212.42874547908548,1926
214.84089907914665,1915
217.2523869269868,1914
219.66320922587727,1940
222.0733661791695,1881
224.48285799029293,2026
226.8916848627572,1862
229.29984700014882,1988
231.7073446061355,1965
234.11417788446204,1932
236.520347038953,1938
238.92585227351185,2035
241.33069379212054,2037
243.73487179884035,2006
246.1383864978112,2060
248.541238093252,2022
250.9434267894609,2067
253.34495279081432,2090
255.74581630176783,2102
258.1460175268563,2008
260.54555667069314,2089
262.9444339379703,2026
265.3426495334594,2011
267.7402036620107,2091
270.1370965285529,2017
272.53332833809407,1993
274.9288992957214,1857
277.32380960660055,1940
279.718059475976,1947
282.1116491091717,1977
284.5045787115897,1781
286.89684848871195,1815
289.2884586460981,1860
291.67940938938807,1867
294.0697009242996,1863
296.4593334566299,1890
298.84830719225477,1944
301.23662233712923,1825
303.6242790972866,1792
306.01127767884,1817
308.39761828798066,1858
310.78330113097934,1794
313.16832641418534,1765
315.5526943440269,1708
317.9364051270112,1740
320.3194589697242,1760
322.70185607883093,1785
325.0835966610754,1687
327.4646809232805,1730
329.8451090723478,1746
332.2248813152577,1740
334.6039978590701,1686
336.9824589109231,1635
339.36026467803447,1623
341.7374153677,1693
344.113911187295,1695
346.48975234427337,1696
348.8649390461686,1640
351.2394715005918,1640
353.61334991523415,1639
355.9865744978655,1587
358.35914545633375,1572
360.73106299856715,1611
363.10232733257146,1587
365.47293866643247,1550
367.84289720831396,1526
370.2122031664593,1595
372.5808567491905,1539
374.9488581649083,1516
377.31620762209275,1546
379.6829053293021,1548
382.0489514951745,1524
384.4143463284262,1516
386.7790900378528,1463
389.14318283232853,1562
391.50662492080653,1533
393.86941651231916,1492
396.23155781597745,1484
398.5930490409713,1526
400.9538903965696,1528
403.3140820921202,1486
405.6736243370498,1531
408.03251734086336,1510
410.3907613131465,1570
412.74835646356166,1532
415.10530300185144,1507
417.4616011378372,1489
419.81725108141893,1455
422.1722530425758,1437
424.5266072313656,1490
426.880313857925,1471
429.2333731324701,1457
431.58578526529516,1474
433.9375504667738,1455
436.2886689473588,1523
438.63914091758113,1459
440.9889665880513,1443
443.33814616945835,1420
445.68667987257015,1437
448.03456790823395,1442
450.3818104873759,1441
452.72840782100013,1434
455.07436012019105,1396
457.41966759611057,1424
459.7643304600007,1440
462.10834892318155,1375
464.4517231970525,1412
466.79445349309174,1434
469.1365400228566,1433
471.4779829979826,1433
473.81878263018564,1433
476.15893913125876,1453
478.4984527130747,1477
480.8373235875855,1449
483.17555196682144,1484
485.5131380628919,1547
487.8500820879857,1562
490.1863842543697,1573
492.52204477439034,1664
494.8570638604725,1735
497.1914417251204,1835
499.52517858091653,2056
501.85827464052306,2324
504.19073011668036,2624
506.5225452222086,2735
508.85372017000566,2712
511.18425517304956,2805
513.514150444396,2883
515.8434061971808,3128
518.1720226446176,3750
520.4999999999999,3815
522.8273384766991,3435
525.1540382881666,3236
527.480099647932,2824
529.8055227696037,2477
532.1303078668694,2031
534.454455153496,1659
536.777964843328,1553
539.1008371502907,1523
541.4230722883866,1465
543.744670471698,1511
546.0656319143858,1428
548.3859568306899,1506
550.7056454349294,1533
553.0246979415016,1493
555.3431145648834,1427
557.6608955196306,1467
559.978041020377,1430
562.2945512818363,1412
564.6104265188006,1467
566.9256669461412,1448
569.2402727788082,1480
571.5542442318302,1485
573.8675815203156,1396
576.1802848594508,1409
578.4923544645015,1436
580.8037905508126,1471
583.114593333807,1499
585.4247630289875,1414
587.7342998519354,1445
590.0432040183106,1416
592.3514757438526,1464
594.6591152443794,1478
596.9661227357875,1429
599.2724984340531,1490
601.578242555231,1383
603.8833553154542,1420
606.1878369309362,1412
608.4916876179676,1416
610.7949075929192,1464
613.0974970722403,1452
615.3994562724587,1409
617.7007854101818,1441
620.0014847020951,1399
622.3015543649641,1441
624.6009946156324,1489
626.8998056710224,1505
629.1979877481361,1485
631.4955410640538,1456
633.7924658359349,1459
636.0887622810175,1406
638.3844306166192,1451
640.6794710601358,1422
642.9738838290426,1485
645.2676691408932,1491
647.5608272133207,1462
649.853358264037,1485
652.1452625108324,1505
654.4365401715764,1433
656.7271914642178,1507
659.0172166067838,1512
661.3066158173809,1478
663.5953893141935,1459
665.8835373154867,1484
668.1710600396028,1506
670.4579577049639,1537
672.7442305300709,1540
675.0298787335033,1497
677.3149025339197,1466
679.599302150058,1441
681.8830778007342,1509
684.1662297048437,1516
686.4487580813608,1500
688.7306631493387,1485
691.0119451279091,1515
693.2926042362834,1538
695.5726406937516,1534
697.8520547196814,1486
700.1308465335215,1479
702.4090163547982,1526
704.6865644031171,1512
706.9634908981619,1425
709.2397960596965,1495
711.5154801075631,1452
713.7905432616823,1481
716.0649857420548,1521
718.3388077687592,1422
720.612009561953,1523
722.8845913418733,1542
725.1565533288352,1480
727.427895743234,1482
729.6986188055427,1487
731.9687227363137,1493
734.238207756178,1472
736.5070740858458,1450
738.7753219461066,1414
741.0429515578281,1557
743.3099631419569,1513
745.5763569195191,1522
747.8421331116193,1494
750.1072919394409,1491
752.3718336242467,1504
754.6357583873777,1525
756.8990664502545,1491
759.1617580343765,1471
761.423833361321,1478
763.6852926527457,1483
765.9461361303862,1507
768.206364016058,1542
770.4659765316536,1472
772.7249738991469,1486
774.9833563405886,1513
777.2411240781092,1445
779.4982773339183,1479
781.7548163303044,1513
784.010741289634,1523
786.2660524343538,1574
788.5207499869881,1551
790.7748341701416,1472
793.0283052064964,1478
795.2811633188143,1503
797.5334087299362,1550
799.7850416627813,1560
802.0360623403484,1589
804.2864709857143,1474
806.5362678220353,1535
808.7854530725468,1534
811.0340269605625,1540
813.2819897094754,1477
815.5293415427581,1532
817.77608268396,1496
820.0222133567116,1496
822.2677337847211,1510
824.5126441917765,1506
826.7569448017433,1554
829.0006358385675,1503
831.2437175262731,1549
833.4861900889629,1504
835.7280537508192,1554
837.9693087361026,1522
840.2099552691533,1524
842.4499935743896,1509
844.689423876309,1534
846.9282463994886,1524
849.1664613685833,1576
851.4040690083276,1516
853.6410695435349,1508
855.877463199097,1536
858.1132501999847,1504
860.3484307712487,1554
862.5830051380175,1499
864.8169735254988,1514
867.0503361589791,1546
869.2830932638243,1524
871.5152450654786,1518
873.7467917894654,1549
875.9777336613873,1522
878.2080709069252,1524
880.4378037518389,1531
882.666932421968,1602
884.8954571432301,1573
887.1233781416219,1585
889.3506956432192,1574
891.5774098741766,1591
893.803521060728,1564
896.0290294291852,1527
898.2539352059397,1534
900.4782386174619,1568
902.7019398903011,1502
904.925039251085,1526
907.147536926521,1518
909.3694331433943,1484
911.59072812857,1522
913.8114221089921,1521
916.0315153116827,1594
918.2510079637437,1546
920.4699002923547,1447
922.6881925247761,1539
924.905884888345,1526
927.1229776104793,1527
929.3394709186747,1493
931.555365040506,1449
933.7706602036275,1528
935.9853566357709,1526
938.1994545647489,1545
940.4129542184515,1533
942.6258558248488,1535
944.8381596119883,1474
947.0498658079974,1479
949.2609746410825,1570
951.4714863395287,1454
953.6814011316998,1533
955.8907192460387,1459
958.0994409110671,1472
960.3075663553858,1522
962.5150958076741,1444
964.7220294966913,1477
966.928367651274,1493
969.1341105003388,1419
971.3392582728806,1392
973.5438111979742,1467
975.747769504772,1472
977.9511334225061,1461
980.153903180487,1481
982.3560790081052,1411
984.5576611348289,1477
986.7586497902058,1409
988.9590452038618,1410
991.158847605503,1368
993.3580572249133,1387
995.5566742919558,1428
997.7546990365728,1329
999.952131688785,1370
1002.1489724786926,1435
1004.3452216364743,1363
1006.5408793923874,1362
1008.7359459767691,1264
1010.9304216200343,1300
1013.1243065526781,1272
1015.3176010052733,1330
1017.510305208472,1267
1019.7024193930064,1288
1021.8939437896848,1275
1024.0848786293977,1210
1026.2752241431122,1273
1028.4649805618747,1194
1030.6541481168115,1254
1032.842727039127,1287
1035.0307175601051,1220
1037.2181199111074,1262
1039.4049343235752,1214
1041.591161029029,1245
1043.7768002590683,1229
1045.9618522453698,1240
1048.1463172196918,1175
1050.3301954138697,1211
1052.513487059818,1184
1054.69619238953,1209
1056.8783116350783,1245
1059.0598450286152,1241
1061.2407928023704,1244
1063.4211551886528,1229
1065.6009324198508,1260
1067.780124728432,1199
1069.9587323469414,1240
1072.1367555080046,1217
1074.314194444325,1260
1076.4910493886855,1204
1078.667320573947,1230
1080.843008233051,1186
1083.0181125990161,1150
1085.1926339049414,1138
1087.3665723840027,1206
1089.5399282694575,1181
1091.7127017946405,1216
1093.8848931929647,1221
1096.0565026979243,1207
1098.2275305430899,1145
1100.3979769621128,1149
1102.567842188722,1200
1104.737126456726,1196
1106.9058300000124,1187
1109.0739530525475,1128
1111.2414958483764,1167
1113.4084586216231,1135
1115.5748416064907,1218
1117.7406450372605,1165
1119.9058691482942,1104
1122.0705141740304,1158
1124.2345803489884,1141
1126.3980679077658,1177
1128.5609770850388,1160
1130.7233081155623,1151
1132.8850612341707,1162
1135.0462366757774,1116
1137.2068346753745,1195
1139.3668554680326,1164
1141.526299288901,1160
1143.68516637321,1110
1145.8434569562655,1129
1148.001171273455,1174
1150.158309560244,1101
1152.3148720521767,1143
1154.470858984876,1186
1156.626270594044,1144
1158.7811071154629,1143
1160.9353687849912,1105
1163.089055838569,1102
1165.242168512213,1173
1167.3947070420209,1161
1169.5466716641677,1201
1171.6980626149075,1140
1173.8488801305748,1113
1175.9991244475814,1148
1178.1487958024186,1116
1180.2978944316555,1142
1182.4464205719428,1132
1184.5943744600072,1135
1186.7417563326567,1114
1188.8885664267755,1073
1191.0348049793297,1123
1193.1804722273619,1138
1195.325568407995,1123
1197.4700937584303,1163
1199.614048515948,1130
1201.7574329179074,1087
1203.900247201746,1129
1206.042491604982,1124
1208.1841663652099,1173
1210.3252717201053,1136
1212.465807907422,1135
1214.6057751649923,1193
1216.7451737307279,1156
1218.8840038426192,1156
1221.0222657387353,1169
1223.1599596572241,1156
1225.2970858363137,1167
1227.4336445143094,1193
1229.5696359295966,1170
1231.705060320639,1162
1233.8399179259786,1166
1235.9742089842384,1190
1238.107933734118,1204
1240.2410924143974,1192
1242.373685263935,1196
1244.5057125216676,1185
1246.6371744266116,1173
1248.7680712178621,1170
1250.898403134593,1226
1253.028170416058,1160
1255.1573733015875,1186
1257.2860120305932,1226
1259.4140868425648,1155
1261.54159797707,1167
1263.6685456737569,1195
1265.7949301723515,1206
1267.9207517126597,1146
1270.046010534565,1164
1272.1707068780306,1176
1274.2948409830983,1227
1276.4184130898889,1168
1278.541423438603,1241
1280.6638722695184,1222
1282.785759822993,1193
1284.9070863394636,1215
1287.0278520594447,1193
1289.1480572235314,1235
1291.2677020723963,1226
1293.3867868467923,1210
1295.5053117875495,1256
1297.623277135579,1249
1299.740683131868,1248
1301.8575300174857,1297
1303.973818033578,1282
1306.0895474213703,1305
1308.2047184221678,1275
1310.3193312773528,1254
1312.4333862283888,1320
1314.5468835168163,1326
1316.659823384255,1264
1318.7722060724045,1298
1320.8840318230418,1314
1322.9953008780249,1313
1325.1060134792888,1279
1327.2161698688478,1306
1329.3257702887959,1303
1331.4348149813054,1281
1333.5433041886276,1310
1335.6512381530933,1313
1337.7586171171101,1255
1339.8654413231675,1326
1341.9717110138317,1302
1344.0774264317488,1206
1346.1825878196432,1270
1348.2871954203192,1240
1350.3912494766587,1202
1352.4947502316231,1295
1354.5976979282532,1338
1356.7000928096686,1268
1358.8019351190665,1248
1360.9032250997243,1212
1363.0039629949988,1292
1365.1041490483235,1192
1367.2037835032133,1238
1369.3028666032606,1212
1371.401398592137,1229
1373.4993797135926,1225
1375.5968102114575,1245
1377.6936903296396,1242
1379.7900203121262,1208
1381.8858004029835,1234
1383.9810308463561,1217
1386.075711886469,1261
1388.1698437676241,1242
1390.2634267342032,1167
1392.356461030667,1202
1394.4489469015557,1290
1396.5408845914872,1270
1398.6322743451592,1219
1400.7231164073469,1312
1402.813411022907,1214
1404.903158436773,1223
1406.9923588939578,1212
1409.0810126395531,1164
1411.1691199187303,1270
1413.2566809767386,1244
1415.343696058907,1240
1417.4301654106425,1297
1419.5160892774315,1260
1421.6014679048399,1215
1423.6863015385125,1272
1425.7705904241707,1278
1427.8543348076178,1294
1429.9375349347342,1265
1432.0201910514802,1283
1434.102303403894,1254
1436.1838722380944,1191
1438.2648978002767,1312
1440.3453803367174,1286
1442.4253200937692,1336
1444.5047173178677,1268
1446.5835722555234,1313
1448.6618851533285,1291
1450.739656257952,1292
1452.8168858161434,1291
1454.8935740747306,1242
1456.96972128062,1287
1459.045327680797,1319
1461.120393522327,1402
1463.1949190523528,1337
1465.2689045180973,1315
1467.3423501668608,1376
1469.415256246024,1441
1471.4876230030463,1432
1473.559450685465,1443
1475.6307395408976,1420
1477.7014898170391,1396
1479.771701761665,1424
1481.8413756226287,1453
1483.9105116478618,1411
1485.9791100853772,1428
1488.0471711832643,1352
1490.1146951896926,1397
1492.1816823529098,1457
1494.2481329212433,1462
1496.3140471430984,1523
1498.3794252669609,1498
1500.4442675413939,1547
1502.5085742150404,1537
1504.572345536622,1505
1506.6355817549388,1465
1508.6982831188702,1478
1510.7604498773744,1530
1512.8220822794883,1481
1514.8831805743293,1554
1516.9437450110909,1487
1519.003775839048,1509
1521.0632733075522,1516
1523.1222376660367,1563
1525.1806691640113,1490
1527.2385680510652,1562
1529.2959345768668,1494
1531.3527689911643,1481
1533.4090715437833,1557
1535.4648424846291,1655
1537.5200820636855,1612
1539.5747905310159,1575
1541.6289681367616,1662
1543.6826151311434,1653
1545.7357317644614,1611
1547.7883182870937,1672
1549.8403749494987,1689
1551.8919020022113,1686
1553.9428996958477,1703
1555.9933682811015,1751
1558.0433080087469,1724
1560.0927191296346,1756
1562.1416018946961,1776
1564.1899565549415,1805
1566.2377833614592,1820
1568.2850825654164,1886
1570.3318544180606,1838
1572.3780991707158,1875
1574.423817074788,1857
1576.4690083817595,1890
1578.5136733431923,1779
1580.5578122107272,1742
1582.601425236085,1736
1584.6445126710646,1651
1586.6870747675434,1642
1588.7291117774776,1547
1590.7706239529034,1583
1592.8116115459347,1548
1594.8520748087658,1542
1596.8920139936686,1492
1598.9314293529933,1460
1600.9703211391711,1475
1603.008689604711,1418
1605.0465350022005,1455
1607.0838575843068,1418
1609.1206576037753,1363
1611.1569353134305,1369
1613.1926909661765,1347
1615.2279248149953,1309
1617.2626371129481,1262
1619.2968281131757,1290
1621.3304980688963,1254
1623.3636472334088,1263
1625.39627586009,1271
1627.428384202396,1260
1629.459972513861,1218
1631.4910410480993,1243
1633.5215900588028,1198
1635.551619799744,1209
1637.5811305247717,1174
1639.6101224878166,1204
1641.6385959428862,1179
1643.6665511440683,1229
1645.693988345528,1193
1647.7209078015112,1191
1649.7473097663405,1211
1651.7731944944203,1173
1653.7985622402307,1177
1655.823413258333,1191
1657.847747803366,1127
1659.8715661300494,1155
1661.8948684931793,1144
1663.9176551476316,1151
1665.9399263483624,1151
1667.9616823504057,1151
1669.982923408873,1175
1672.0036497789574,1185
1674.0238617159293,1162
1676.043559475138,1143
1678.0627433120121,1189
1680.081413482059,1130
1682.0995702408654,1176
1684.117213844096,1146
1686.134344547495,1124
1688.1509626068864,1137
1690.1670682781705,1180
1692.182661817329,1155
1694.1977434804217,1144
1696.2123135235875,1137
1698.226372203043,1119
1700.2399197750851,1147
1702.2529564960905,1190
1704.2654826225112,1185
1706.277498410882,1216
1708.2890041178139,1195
1710.2999999999988,1174
1712.3104863142066,1136
1714.3204633172854,1159
1716.329931266163,1192
1718.3388904178469,1156
1720.3473410294214,1149
1722.3552833580516,1187
1724.3627176609807,1176
1726.3696441955308,1181
1728.3760632191033,1145
1730.3819749891782,1177
1732.3873797633146,1149
1734.3922777991502,1155
1736.3966693544012,1173
1738.4005546868639,1152
1740.4039340544127,1146
1742.406807715001,1140
1744.4091759266616,1107
1746.4110389475054,1119
1748.4123970357223,1115
1750.413250449582,1166
1752.4135994474318,1123
1754.4134442876993,1163
1756.4127852288902,1120
1758.4116225295893,1154
1760.4099564484595,1111
1762.407787244244,1131
1764.405115175764,1129
1766.4019405019203,1111
1768.3982634816916,1123
1770.3940843741357,1154
1772.3894034383907,1159
1774.3842209336717,1162
1776.378537119274,1154
1778.372352254571,1195
1780.3656665990156,1132
1782.3584804121397,1166
1784.3507939535534,1129
1786.3426074829463,1128
1788.3339212600863,1102
1790.3247355448211,1138
1792.3150505970766,1124
1794.3048666768573,1127
1796.2941840442477,1136
1798.2830029594106,1151
1800.2713236825884,1161
1802.2591464741004,1100
1804.2464715943465,1130
1806.2332993038058,1152
1808.2196298630352,1146
1810.2054635326708,1175
1812.190800573428,1147
1814.175641246101,1176
1816.1599858115628,1148
1818.1438345307652,1125
1820.127187664738,1124
1822.1100454745924,1104
1824.092408221516,1155
1826.0742761667766,1147
1828.055649571721,1113
1830.0365286977735,1150
1832.0169138064398,1125
1833.9968051593014,1111
1835.9762030180214,1109
1837.9551076443408,1159
1839.9335193000788,1104
1841.9114382471344,1156
1843.888864747485,1116
1845.8657990631878,1094
1847.842241456378,1115
1849.8181921892697,1147
1851.7936515241558,1143
1853.7686197234098,1128
1855.7430970494815,1140
1857.7170837649014,1118
1859.6905801322787,1090
1861.6635864143004,1124
1863.6361028737338,1136
1865.608129773424,1137
1867.5796673762961,1121
1869.5507159453537,1144
1871.521275743678,1159
1873.4913470344313,1136
1875.4609300808534,1124
1877.4300251462632,1160
1879.3986324940588,1087
1881.366752387717,1114
1883.3343850907936,1126
1885.3015308669228,1137
1887.268189979819,1091
1889.2343626932739,1143
1891.2000492711595,1165
1893.1652499774254,1110
1895.1299650761011,1164
1897.0941948312952,1152
1899.0579395071945,1140
1901.0211993680641,1155
1902.98397467825,1156
1904.9462657021745,1174
1906.9080727043415,1184
1908.869395949332,1156
1910.8302357018065,1173
1912.790592226504,1161
1914.7504657882428,1179
1916.7098566519212,1139
1918.6687650825133,1192
1920.6271913450764,1165
1922.5851357047422,1142
1924.5425984267245,1170
1926.499579776314,1179
1928.4560800188833,1130
1930.4120994198802,1115
1932.367638244833,1140
1934.32269675935,1131
1936.2772752291175,1097
1938.231373919899,1170
1940.1849930975404,1161
1942.1381330279637,1120
1944.0907939771696,1119
1946.0429762112412,1093
1947.9946799963363,1117
1949.9459055986945,1068
1951.896653284633,1125
1953.8469233205478,1130
1955.7967159729142,1107
1957.7460315082863,1114
1959.6948701932974,1107
1961.6432322946594,1103
1963.5911180791632,1084
1965.5385278136787,1083
1967.4854617651545,1116
1969.4319202006182,1095
1971.377903387176,1068
1973.3234115920136,1160
1975.268445082395,1108
1977.2130041256642,1104
1979.1570889892423,1133
1981.1006999406304,1120
1983.04383724741,1093
1984.986501177238,1144
1986.928691997853,1140
1988.8704099770712,1114
1990.811655382789,1133
1992.7524284829801,1124
1994.692729545698,1161
1996.6325588390755,1090
1998.5719166313224,1132
2000.5108031907307,1116
2002.4492187856677,1049
2004.387163684583,1106
2006.3246381560011,1101
2008.2616424685298,1078
2010.1981768908527,1075
2012.1342416917332,1067
2014.069837140014,1084
2016.0049635046162,1091
2017.9396210545406,1134
2019.8738100588666,1127
2021.8075307867502,1110
2023.740783507431,1073
2025.6735684902228,1082
2027.6058860045214,1099
2029.5377363198004,1121
2031.4691197056118,1127
2033.4000364315875,1097
2035.3304867674374,1094
2037.260470982952,1114
2039.189989347998,1070
2041.1190421325232,1102
2043.047629606554,1142
2044.9757520401945,1108
2046.9034097036288,1090
2048.8306028671195,1136
2050.7573318010086,1120
2052.683596775716,1125
2054.609398061742,1086
2056.5347359296647,1139
2058.4596106501403,1078
2060.384022493906,1096
2062.3079717317764,1102
2064.231458634646,1112
2066.1544834734873,1114
2068.077046519352,1077
2069.99914804337,1127
2071.9207883167524,1147
2073.8419676107865,1101
2075.7626861968406,1110
2077.6829443463607,1092
2079.6027423308715,1079
2081.522080421977,1165
2083.440958891362,1071
2085.359378010786,1110
2087.2773380520907,1084
2089.194839287196,1062
2091.111881988101,1092
2093.0284664268825,1098
2094.9445928756973,1118
2096.86026160678,1130
2098.775472892446,1105
2100.690227005088,1095
2102.604524217178,1158
2104.5183648012676,1098
2106.431749029985,1114
2108.34467717604,1062
2110.2571495122206,1110
2112.169166311393,1054
2114.080727846503,1119
2115.9918343905747,1134
2117.902486216711,1098
2119.8126835980956,1107
2121.722426807987,1133
2123.6317161197285,1134
2125.5405518067364,1133
2127.448934142509,1107
2129.356863400624,1181
2131.264339854737,1111
2133.1713637785815,1103
2135.077935445972,1100
2136.9840551308002,1128
2138.889723107037,1109
2140.7949396487334,1137
2142.699705030018,1122
2144.6040195250994,1131
2146.507883408264,1099
2148.4112969538774,1086
2150.3142604363848,1110
2152.2167741303097,1116
2154.1188383102535,1140
2156.0204532508997,1137
2157.9216192270064,1085
2159.822336513414,1105
2161.7226053850413,1128
2163.622426116884,1205
2165.5217989840185,1131
2167.4207242616,1103
2169.319202224862,1108
2171.2172331491165,1125
2173.1148173097563,1090
2175.0119549822507,1151
2176.90864644215,1184
2178.8048919650823,1152
2180.7006918267534,1100
2182.596046302952,1125
2184.4909556695407,1061
2186.3854202024645,1148
2188.279440177746,1075
2190.173015871487,1143
2192.066147559868,1111
2193.958835519149,1126
2195.851080025667,1152
2197.7428813558417,1167
2199.6342397861667,1148
2201.5251555932186,1119
2203.415629053651,1159
2205.3056604441986,1132
2207.19525004167,1170
2209.084398122958,1139
2210.9731049650327,1112
2212.861370844941,1171
2214.749196039812,1166
2216.636580826851,1138
2218.523525483344,1250
2220.410030286655,1106
2222.296095514226,1211
2224.1817214435805,1220
2226.066908352319,1171
2227.951656518121,1167
2229.835966218746,1192
2231.71983773203,1161
2233.6032713358913,1163
2235.486267308324,1186
2237.3688259274036,1164
2239.2509474712824,1182
2241.132632218193,1170
2243.013880446447,1161
2244.8946924344323,1150
2246.7750684606203,1145
2248.6550088035574,1185
2250.534513741871,1177
2252.413583554265,1169
2254.292218519526,1195
2256.170418916517,1159
2258.0481850241786,1191
2259.925517121534,1142
2261.8024154876825,1176
2263.678880401803,1179
2265.5549121431536,1174
2267.430510991071,1174
2269.305677224971,1184
2271.180411124348,1116
2273.0547129687766,1146
2274.9285830379076,1146
2276.8020216114737,1116
2278.6750289692845,1149
2280.5476053912294,1159
2282.4197511572766,1158
2284.2914665474727,1219
2286.162751841943,1224
2288.0336073208937,1211
2289.904033264608,1223
2291.774029953448,1207
2293.6435976678554,1179
2295.5127366883517,1140
2297.381447295534,1115
2299.2497297700825,1107
2301.1175843927526,1078
2302.9850114443825,1092
2304.852011205885,1059
2306.7185839582553,1111
2308.5847299825664,1103
2310.4504495599676,1018
2312.3157429716925,1030
2314.1806104990483,1025
2316.0450524234247,995
2317.9090690262888,1023
2319.772660589186,1045
2321.635827393742,1035
2323.498569721661,982
2325.3608878547248,1063
2327.2227820747967,980
2329.0842526638157,995
2330.945299903803,1019
2332.805924076857,1032
2334.6661254651535,989
2336.525904350951,998
2338.3852610165827,996
2340.244195744464,1021
2342.102708817088,1013
2343.9608005170253,1034
2345.8184711269287,985
2347.675720929526,1034
2349.532550207628,1030
2351.38895924412,999
2353.24494832197,1018
2355.100517724223,1024
2356.955667734004,995
2358.810398634514,1010
2360.664710709037,1012
2362.5186042409337,1035
2364.3720795136437,1015
2366.225136810686,1017
2368.0777764156583,1035
2369.929998612237,1039
2371.7818036841777,1065
2373.633191915315,1021
2375.484163589562,1042
2377.3347189909114,992
2379.184858403434,1015
2381.03458211128,1042
2382.8838903986775,1057
2384.732783549936,1038
2386.5812618494406,1058
2388.4293255816588,1011
2390.2769750311327,1043
2392.1242104824883,1054
2393.971032220427,1033
2395.8174405297295,1032
2397.6634356952563,1049
2399.509018001947,1027
2401.3541877348193,1046
2403.1989451789705,1098
2405.043290619576,1036
2406.8872243418905,1065
2408.730746631247,1067
2410.5738577730594,1046
2412.4165580528183,967
2414.258847756095,1042
2416.100727168537,1008
2417.9421965758734,1038
2419.783256263912,1007
2421.623906518538,1025
2423.4641476257157,1018
2425.303979871491,1072
2427.143403541984,1051
2428.9824189233977,1066
2430.821026302012,978
2432.6592259641866,1052
2434.497018196361,1044
2436.33440328505,1001
2438.171381516851,1026
2440.00795317844,1041
2441.844118556569,975
2443.6798779380724,1054
2445.5152316098606,1010
2447.3501798589255,1037
2449.1847229723357,1047
2451.0188612372403,1049
2452.8525949408663,1042
2454.6859243705203,1076
2456.518849813587,1010
2458.3513715575314,1048
2460.183489889895,1072
2462.015205098301,995
2463.8465174704493,1060
2465.67742729412,1004
2467.5079348571717,1034
2469.338040447542,1028
2471.1677443532476,1067
2472.9970468623833,1041
2474.825948263123,1029
2476.6544488437207,1039
2478.482548892508,1032
2480.310248697896,1055
2482.137548548374,1031
2483.9644487325118,1041
2485.790949538956,1012
2487.617051256433,1027
2489.44275417375,1050
2491.26805857979,1089
2493.0929647635157,1077
2494.917473013971,1040
2496.741583620276,1063
2498.5652968716304,986
2500.3886130573137,1057
2502.2115324666834,1026
2504.0340553891765,1108
2505.856182114308,1038
2507.6779129316733,1030
2509.499248130945,1051
2511.3201880018764,1058
2513.140732834298,1055
2514.9608829181198,1051
2516.780638543331,1068
2518.6,1072
2520.418967578273,1050
2522.237541568376,1067
2524.0557222606144,1058
2525.8735099453706,1069
2527.6909049131086,1057
2529.507907454368,1111
2531.32451785977,1066
2533.140736420014,1053
2534.9565634258774,1100
2536.771999168218,1129
2538.5870439379714,1099
2540.4016980261526,1090
2542.2159617238544,1098
2544.02983532225,1092
2545.8433191125914,1077
2547.656413386209,1122
2549.4691184345115,1156
2551.2814345489874,1125
2553.093362021204,1169
2554.904901142808,1130
2556.716052205523,1104
2558.526815501153,1129
2560.3371913215824,1181
2562.147179958771,1156
2563.956781704761,1078
2565.7659968516705,1154
2567.5748256916986,1163
2569.3832685171224,1169
2571.1913256202984,1143
2572.9989972936614,1172
2574.806283829725,1157
2576.613185521084,1214
2578.4197026604074,1181
2580.2258355404483,1225
2582.031584454035,1195
2583.836949694077,1180
2585.6419315535613,1186
2587.4465303255533,1196
2589.2507463032002,1202
2591.0545797797245,1210
2592.8580310484303,1244
2594.6611004026995,1203
2596.463788135992,1184
2598.266094541849,1169
2600.0680199138874,1206
2601.869564545807,1171
2603.670728731383,1177
2605.4715127644704,1199
2607.2719169390048,1130
2609.071941548998,1165
2610.8715868885433,1117
2612.670853251811,1131
2614.469740933052,1151
2616.268250226594,1181
2618.0663814268455,1116
2619.864134828292,1082
2621.6615107255006,1211
2623.458509413115,1139
2625.2551311858597,1123
2627.0513763385347,1143
2628.8472451660223,1123
2630.6427379632833,1083
2632.4378550253564,1123
2634.232596647359,1156
2636.026963124488,1118
2637.8209547520187,1106
2639.6145718253065,1132
2641.407814639785,1126
2643.200683490966,1142
2644.9931786744414,1119
2646.7853004858807,1075
2648.577049221034,1159
2650.3684251757277,1073
2652.1594286458712,1136
2653.9500599274484,1146
2655.740319316525,1118
2657.5302071092437,1083
2659.3197236018286,1121
2661.10886909058,1094
2662.8976438718782,1094
2664.686048242183,1047
2666.4740824980327,1153
2668.2617469360443,1080
2670.0490418529134,1080
2671.8359675454153,1077
2673.622524310403,1090
2675.408712444811,1074
2677.1945322456495,1042
2678.979984010009,1053
2680.76506803506,1098
2682.5497846180497,1073
2684.334134056306,1047
2686.1181166472343,1064
2687.9017326883213,1038
2689.6849824771293,1011
2691.4678663113013,1059
2693.2503844885596,1049
2695.032537306705,1016
2696.8143250636167,1076
2698.5957480572542,996
2700.3768065856534,1024
2702.1575009469316,1039
2703.937831439283,1043
2705.717798360982,1009
2707.4974020103837,1049
2709.276642685917,1027
2711.055520686095,1041
2712.834036309506,1039
2714.612189854819,1039
2716.389981620782,1040
2718.1674119062204,1027
2719.944481010041,1043
2721.721189231226,1000
2723.4975368688415,1037
2725.273524222027,1029
2727.0491515900053,1006
2728.824419272075,1018
2730.5993275676146,1007
2732.3738767760838,1015
2734.148067197016,1014
2735.921899130031,1024
2737.6953728748194,969
2739.468488731156,1007
2741.2412469988926,1011
2743.0136479779617,984
2744.785691968372,1003
2746.5573792702116,1030
2748.3287101836504,1015
2750.099685008934,1036
2751.870304046388,1037
2753.640567596418,1020
2755.4104759595057,1091
2757.1800294362156,966
2758.949228327187,1007
2760.7180729331412,1028
2762.486563554877,1011
2764.254700493272,1042
2766.022484049284,997
2767.789914523947,1036
2769.5569922183786,1021
2771.3237174337705,1030
2773.090090471394,1032
2774.8561116326036,988
2776.6217812188274,1033
2778.3870995315756,1010
2780.1520668724356,1001
2781.9166835430747,1009
2783.6809498452394,949
2785.444866080754,987
2787.2084325515225,1025
2788.971649559527,1025
2790.73451740683,1020
2792.4970363955713,1028
2794.2592068279705,1008
2796.0210290063264,1056
2797.7825032330147,1045
2799.543629810493,1022
2801.304409041296,1011
2803.0648412280366,1018
2804.8249266734088,1005
2806.5846656801846,1001
2808.344058551212,1053
2810.1031055894246,1038
2811.8618070978273,1043
2813.6201633795085,1056
2815.378174737636,999
2817.1358414754536,1040
2818.893163896285,1015
2820.6501423035334,1022
2822.4067770006814,970
2824.1630682912883,1031
2825.9190164789957,1014
2827.6746218675207,1039
2829.429884760661,993
2831.184805462294,1058
2832.9393842763743,1003
2834.693621506936,999
2836.4475174580916,1027
2838.201072434034,1032
2839.954286739034,1011
2841.707160677441,974
2843.459694553685,1006
2845.2118886722724,1049
2846.96374333779,1027
2848.7152588549034,1040
2850.4664355283567,974
2852.217273662973,1026
2853.9677735636546,1036
2855.7179355353833,973
2857.4677598832186,1031
2859.217246912299,1034
2860.9663969278427,1045
2862.715210235146,1051
2864.4636871395846,1055
2866.211827946614,1002
2867.9596329617652,1039
2869.7071024906536,1014
2871.4542368389684,992
2873.20103631248,1057
2874.947501217038,1015
2876.6936318585695,1008
2878.4394285430812,996
2880.1848915766604,1060
2881.9300212654707,1034
2883.6748179157553,1045
2885.4192818338374,1063
2887.1634133261173,1041
2888.907212699077,1065
2890.6506802592744,1013
2892.393816313348,1022
2894.1366211680142,1011
2895.8790951300693,1066
2897.621238506388,1058
2899.363051603925,987
2901.1045347297118,1018
2902.8456881908596,1099
2904.58651229456,1037
2906.327007348081,1045
2908.067173658772,1012
2909.8070115340597,1026
2911.5465212814497,1023
2913.285703208527,1048
2915.0245576229563,1068
2916.7630848324807,1055
2918.5012851449196,982
2920.2391588681758,1044
2921.976706310227,999
2923.7139277791334,996
2925.4508235830313,984
2927.187394030137,1006
2928.923639428745,1025
2930.6595600872306,1009
2932.395156314046,1002
2934.1304284177218,1049
2935.8653767068713,1011
2937.6000014901815,1037
2939.3343030764227,1019
2941.068281774442,981
2942.8019378931644,1006
2944.5352717415976,1011
2946.2682836288236,985
2948.0009738640065,1027
2949.7333427563885,1007
2951.465390615289,1028
2953.1971177501086,1002
2954.9285244703265,1052
2956.6596110855,1034
2958.3903779052657,1003
2960.1208252393385,1054
2961.8509533975125,1017
2963.5807626896617,1014
2965.3102534257378,978
2967.0394259157715,1018
2968.768280469873,991
2970.496817398232,986
2972.2250370111146,1032
2973.952939618869,983
2975.6805255319196,1017
2977.4077950607707,1033
2979.134748516006,1015
2980.861386208289,1028
2982.587708448359,1013
2984.313715547037,1008
2986.039407815222,995
2987.764785563891,1000
2989.489849104102,1035
2991.2145987469908,1046
2992.9390348037705,998
2994.6631575857346,981
2996.3869674042576,974
2998.1104645707887,993
2999.83364939686,1008
3001.5565221940783,1035
3003.2790832741334,979
3005.0013329487924,1016
3006.7232715298996,971
3008.4448993293804,984
3010.166216659239,1042
3011.887223831558,1004
3013.607921158498,1011
3015.3283089522993,1035
3017.0483875252826,1046
3018.7681571898443,1056
3020.4876182584626,1025
3022.2067710436927,970
3023.9256158581707,991
3025.644153014609,991
3027.362382825801,1014
3029.0803056046193,951
3030.797921664012,992
3032.5152313170106,981
3034.2322348767225,993
3035.9489326563353,982
3037.665324969115,992
3039.3814121284063,1016
3041.097194447633,986
3042.812672240299,990
3044.5278458199855,1018
3046.2427155003525,1000
3047.9572815951406,1012
3049.671544418167,994
3051.38550428333,993
3053.0991615046073,976
3054.812516396051,1014
3056.5255692717974,1018
3058.2383204460575,1027
3059.9507702331257,1019
3061.662918947372,1071
3063.3747669032446,1013
3065.0863144152736,982
3066.7975617980674,977
3068.508509366309,981
3070.219157434767,1027
3071.9295063182844,995
3073.639556331785,1055
3075.3493077902704,978
3077.058761008821,986
3078.7679163025964,1054
3080.476773986837,988
3082.1853343768594,1035
3083.89359778806,985
3085.6015645359153,1020
3087.3092349359786,1035
3089.016609303884,957
3090.7236879553434,1031
3092.4304712061476,1034
3094.136959372166,1029
3095.843152769349,979
3097.5490517137237,995
3099.2546565213966,975
3100.959967508554,1007
3102.66498499146,1002
3104.3697092864577,1043
3106.0741407099695,1018
3107.778279578498,998
3109.482126208622,1024
3111.1856809170004,969
3112.8889440203716,1004
3114.5919158355528,1020
3116.294596679439,1002
3117.996986869006,1026
3119.6990867213062,1073
3121.4008965534726,1011
3123.102416682717,985
3124.803647426329,1031
3126.5045891016784,1030
3128.205242026213,1032
3129.90560651746,971
3131.605682893025,1015
3133.3054714705922,992
3135.0049725679282,1051
3136.7041865028714,1066
3138.4031135933465,1054
3140.101754157353,1004
3141.800108512971,985
3143.498176978357,1009
3145.1959598717494,994
3146.8934575114636,1008
3148.5906702158954,988
3150.2875983035183,969
3151.9842420928853,1040
3153.680601902627,1027
3155.376678051456,977
3157.07247085816,1010
3158.767980641609,1045
3160.463207720748,959
3162.158152414606,1021
3163.8528150422862,1061
3165.5471959229726,1025
3167.2412953759303,999
3168.9351137204976,1027
3170.628651276098,969
3172.3219083622307,992
3174.014885298474,995
3175.707582404485,993
3177.4000000000005,987
3179.092138404835,1000
3180.7839979388846,1010
3182.47557892212,1006
3184.166881674594,953
3185.8579065164386,1002
3187.5486537678626,1009
3189.2391237491547,1025
3190.9293167806827,1046
3192.6192331828934,994
3194.3088732763117,1008
3195.998237381542,956
3197.687325819268,986
3199.376138910251,992
3201.064676975334,1039
3202.7529403354347,999
3204.4409293115523,979
3206.1286442247647,952
3207.816085396229,1032
3209.5032531471825,962
3211.190147798936,1021
3212.8767696728846,986
3214.5631190905015,989
3216.2491963733373,965
3217.9350018430214,1005
3219.6205358212637,1003
3221.305798629851,983
3222.990790590651,1015
3224.6755120256103,1013
3226.359963256751,991
3228.0441446061795,973
3229.7280563960758,994
3231.411698948703,988
3233.0950725863995,978
3234.778177631587,958
3236.461014406761,1013
3238.1435832345005,998
3239.8258844374595,997
3241.507918338374,972
3243.1896852600576,952
3244.8711855254023,1017
3246.552419457381,1011
3248.233387379042,996
3249.914089613516,931
3251.59452648401,1001
3253.274698313813,977
3254.95460542629,966
3256.6342481448855,1014
3258.313626793125,978
3259.9927416946084,997
3261.6715931730196,983
3263.3501815521176,987
3265.0285071557437,934
3266.706570307815,983
3268.3843713323286,930
3270.0619105533615,955
3271.739188295068,971
3273.4162048816834,974
3275.0929606375184,954
3276.769455886966,929
3278.445690954498,1005
3280.1216661646613,999
3281.797381842087,984
3283.4728383114807,996
3285.1480358976296,957
3286.8229749253996,956
3288.4976557197333,931
3290.172078605655,986
3291.846243908266,1036
3293.5201519527463,945
3295.193803064357,1010
3296.8671975684374,974
3298.5403357904024,966
3300.21321805575,987
3301.8858446900567,930
3303.558216018975,956
3305.23033236824,1038
3306.9021940636603,1003
3308.57380143113,987
3310.2451547966184,966
3311.916254486174,995
3313.5871008259246,1009
3315.2576941420766,957
3316.9280347609147,974
3318.5981230088046,1016
3320.2679592121895,969
3321.9375436975924,975
3323.606876791612,970
3325.27595882093,954
3326.944790112305,1010
3328.6133709925753,988
3330.2817017886573,1017
3331.949782827547,1005
3333.617614436319,990
3335.2851969421245,1006
3336.952530672199,997
3338.619615953853,1034
3340.286453114475,1001
3341.9530424815357,995
3343.619384382583,958
3345.2854791452437,1001
3346.951327097224,970
3348.6169285663073,999
3350.2822838803577,997
3351.947393367319,985
3353.61225735521,972
3355.2768761721345,987
3356.9412501462693,1004
3358.605379605873,985
3360.2692648792827,1014
3361.9329062949146,961
3363.596304181263,985
