CollectionTime,7/11/2024 2:14:27 PM
ExposureUsed,3
CalibratedSpectrum
-962.7078968117929,456
-959.9714848408522,437
-957.2358232597828,500
-954.5009119013725,469
-951.7667505983302,466
-949.0333391832855,484
-946.3006774887896,481
-943.5687653473143,493
-940.837602591253,485
-938.1071890529199,470
-935.3775245645503,460
-932.6486089583007,478
-929.9204420662485,505
-927.1930237203925,480
-924.4663537526524,480
-921.7404319948689,494
-919.0152582788041,499
-916.2908324361409,530
-913.5671542984834,491
-910.8442236973568,470
-908.1220404642074,457
-905.4006044304027,504
-902.679915427231,509
-899.959973285902,474
-897.2407778375464,489
-894.5223289132158,479
-891.8046263438832,468
-889.0876699604426,473
-886.3714595937089,474
-883.6559950744183,476
-880.9412762332282,481
-878.2273029007168,469
-875.5140749073835,463
-872.8015920836489,466
-870.0898542598545,467
-867.3788612662631,480
-864.6686129330585,469
-861.9591090903457,491
-859.2503495681506,480
-856.5423341964203,480
-853.8350628050229,468
-851.1285352237478,490
-848.4227512823054,487
-845.7177108103272,471
-843.0134136373656,467
-840.3098595928943,468
-837.6070485063082,488
-834.9049802069229,464
-832.2036545239757,496
-829.5030712866244,497
-826.8032303239481,487
-824.1041314649472,488
-821.4057745385428,478
-818.7081593735775,495
-816.0112857988148,513
-813.3151536429393,483
-810.6197627345566,491
-807.9251129021936,493
-805.2312039742981,479
-802.5380357792392,485
-799.8456081453069,501
-797.1539209007124,492
-794.462973873588,525
-791.772766891987,565
-789.083299783884,513
-786.3945723771743,511
-783.7065844996748,495
-781.0193359791231,505
-778.3328266431781,513
-775.6470563194197,497
-772.9620248353489,491
-770.2777320183878,482
-767.5941776958798,465
-764.9113616950891,506
-762.2292838432011,524
-759.5479439673222,493
-756.8673418944801,473
-754.1874774516235,513
-751.5083504656222,491
-748.8299607632671,516
-746.15230817127,500
-743.475392516264,503
-740.7992136248035,494
-738.1237713233636,510
-735.4490654383407,490
-732.7750957960521,535
-730.1018622227365,557
-727.4293645445534,507
-724.7576025875837,531
-722.0865761778291,513
-719.4162851412126,538
-716.7467293035781,552
-714.0779084906909,538
-711.409822528237,533
-708.7424712418238,522
-706.0758544569796,491
-703.4099719991541,506
-700.7448236937178,535
-698.0804093659622,572
-695.4167288411002,538
-692.7537819442656,524
-690.0915685005134,504
-687.4300883348199,511
-684.7693412720819,505
-682.1093271371178,501
-679.4500457546669,535
-676.7914969493897,511
-674.1336805458676,514
-671.4765963686034,545
-668.8202442420206,572
-666.1646239904642,530
-663.5097354382001,529
-660.8555784094151,545
-658.2021527282176,499
-655.5494582186366,530
-652.8974947046223,537
-650.2462620100463,538
-647.5957599587009,526
-644.9459883742998,537
-642.2969470804776,569
-639.6486359007902,565
-637.0010546587141,580
-634.3542031776476,582
-631.7080812809096,553
-629.0626887917401,557
-626.4180255333008,561
-623.7740913286734,582
-621.1308860008619,591
-618.4884093727904,591
-615.8466612673046,560
-613.2056415071715,543
-610.5653499150785,550
-607.9257863136347,577
-605.28695052537,596
-602.6488423727357,579
-600.0114616781036,583
-597.3748082637674,576
-594.7388819519412,625
-592.1036825647604,662
-589.4692099242818,674
-586.8354638524829,630
-584.2024441712624,609
-581.5701507024403,618
-578.9385832677575,590
-576.3077416888759,597
-573.6776257873787,607
-571.0482353847704,596
-568.4195703024757,575
-565.7916303618415,611
-563.164415384135,640
-560.5379251905453,659
-557.9121596021815,600
-555.2871184400748,633
-552.6628015251767,604
-550.0392086783606,594
-547.4163397204204,585
-544.794194472071,600
-542.1727727539491,700
-539.5520743866118,671
-536.9320991905377,675
-534.3128469861261,703
-531.6943175936979,745
-529.0765108334947,738
-526.4594265256793,772
-523.8430644903358,852
-521.2274245474689,971
-518.612506517005,1042
-515.9983102187913,1069
-513.3848354725959,1205
-510.77208209810846,1361
-508.16004991493924,1553
-505.5487387426199,1657
-502.9381484006032,1672
-500.3282787082628,1656
-497.71912948489364,1483
-495.1107005497117,1330
-492.5029917218539,1079
-489.8960028203786,952
-487.28973366426493,809
-484.68418407241325,797
-482.07935386364494,746
-479.47524285670266,774
-476.87185087025,774
-474.2691777228715,779
-471.66722323307334,761
-469.0659872192821,749
-466.4654694998459,743
-463.86566989303384,780
-461.26658821703614,724
-458.66822428996414,766
-456.07057792985,756
-453.4736489546475,747
-450.877437182231,734
-448.28194243039627,749
-445.68716451686,750
-443.09310325926003,751
-440.49975847515555,740
-437.9071299820263,727
-435.31521759727354,728
-432.72402113821954,727
-430.13354042210767,786
-427.5437752661022,783
-424.95472548728867,752
-422.36639090267386,775
-419.7787713291855,822
-417.1918665836721,900
-414.60567648290385,887
-412.0202008435715,824
-409.4354394822874,771
-406.8513922155845,792
-404.26805885991723,801
-401.685439231661,885
-399.103533147112,878
-396.522340422488,852
-393.9418608739278,776
-391.3620943174908,769
-388.7830405691583,755
-386.2046994448317,765
-383.6270707603344,758
-381.05015433141045,739
-378.473949973725,696
-375.8984575028645,670
-373.32367673433623,624
-370.74960748356875,634
-368.1762495659117,592
-365.60360279663576,585
-363.03166699093265,542
-360.4604419639154,510
-357.8899275306178,482
-355.32012350599507,500
-352.7510297049233,503
-350.1826459421999,475
-347.61497203254316,453
-345.04800779059235,459
-342.4817530309082,469
-339.91620756797226,494
-337.35137121618743,501
-334.7872437898774,545
-332.22382510328725,538
-329.66111497058273,539
-327.09911320585127,516
-324.53781962310075,581
-321.9772340362607,614
-319.4173562591816,514
-316.8581861056348,492
-314.2997233893127,503
-311.7419679238294,496
-309.1849195227194,532
-306.62857799943856,581
-304.0729431673641,637
-301.51801483979375,616
-298.963792829947,587
-296.41027695096386,582
-293.85746701590574,581
-291.3053628377552,652
-288.7539642294155,672
-286.2032710037115,600
-283.65328297338897,564
-281.1039999511146,589
-278.5554217494762,639
-276.007548180983,635
-273.4603790580651,606
-270.9139141930734,597
-268.3681533982807,569
-265.8230964858798,635
-263.27874326798565,750
-260.7350935566336,736
-258.1921471637804,685
-255.6499039013039,646
-253.10836358100266,709
-250.56752601459698,665
-248.02739101372765,604
-245.48795838995704,687
-242.94922795476816,661
-240.41119951956557,744
-237.8738728956746,757
-235.33724789434166,727
-232.80132432673452,655
-230.2661020039418,631
-227.73158073697357,690
-225.19776033676033,788
-222.66464061415422,774
-220.1322213799284,743
-217.60050244477725,729
-215.06948361931552,732
-212.53916471408013,767
-210.00954553952818,853
-207.48062590603843,779
-204.9524056239104,707
-202.4248845033651,728
-199.8980623545441,803
-197.37193898751036,881
-194.84651421224817,922
-192.32178783866232,956
-189.79775967657952,860
-187.27442953574644,942
-184.7517972258321,955
-182.2298625564256,917
-179.7086253370378,765
-177.18808537710026,794
-174.66824248596583,929
-172.14909647290835,913
-169.6306471471229,921
-167.11289431772548,891
-164.59583779375328,927
-162.07947738416453,967
-159.5638128978386,981
-157.04884414357605,969
-154.53457093009854,1202
-152.02099306604828,1072
-149.50811035998936,926
-146.99592262040665,984
-144.48442965570587,1151
-141.97363127421409,1108
-139.46352728417958,1127
-136.95411749377126,1169
-134.44540171107985,1065
-131.93737974411636,1014
-129.43005140081357,1046
-126.92341648902493,1487
-124.41747481652521,1633
-121.91222619101006,1941
-119.40767042009657,2296
-116.90380731132257,2689
-114.40063667214702,2803
-111.8981583099503,2745
-109.3963720320337,2185
-106.89527764561933,1842
-104.39487495785067,1876
-101.89516377579241,2890
-99.39614390642998,4214
-96.89781515667039,5276
-94.40017733334128,4748
-91.90323024319173,3761
-89.40697369289148,4041
-86.91140748903172,6528
-84.41653143812482,7502
-81.92234534660395,6346
-79.42884902082358,5451
-76.93604226705907,9248
-74.4439248915071,18258
-71.95249670028534,28281
-69.46175749943245,34967
-66.97170709490854,33152
-64.48234529259423,25289
-61.99367189829195,18366
-59.50568671772464,14549
-57.01838955653636,10756
-54.53178022029283,7168
-52.045858514480074,7360
-49.560624244506016,7403
-47.07607721569923,8422
-44.59221723330904,9543
-42.10904410250669,10448
-39.62655762838392,11428
-37.14475761595372,12268
-34.66364387015028,13840
-32.18321619582866,15350
-29.70347439776515,16434
-27.224418280657005,17072
-24.74604764912317,18044
-22.26836230770266,22120
-19.7913620608565,31273
-17.315046712966478,48131
-14.83941606833514,65037
-12.36446993118659,65037
-9.89020810566592,65037
-7.416630395839093,65037
-4.94373660569363,65037
-2.471526539137585,65037
-6.821210263296962E-13,65037
2.47084320796705,65037
4.941003281093458,65037
7.410480415786196,65037
9.879274808531363,65037
12.347386655893956,65037
14.814816154518212,65037
17.28156350112681,65037
19.74762889252179,65037
22.21301252558385,65037
24.67771459727237,21176
27.141735304626195,5072
29.605074844762612,3902
32.06773341487792,3716
34.52971121224755,3234
36.99100843422559,3273
39.45162527824516,2688
41.91156194181792,2367
44.370818622535126,2546
46.82939551806646,2275
49.287292826160524,2225
51.74451074464503,2509
54.201049471426245,2305
56.65690920448981,2424
59.112090141899785,2047
61.56659248179983,1591
64.02041642241159,1591
66.4735621620365,1489
68.92602989905402,1419
71.37781983192338,1585
73.82893215918205,1713
76.27936707944684,1914
78.72912479141326,1797
81.17820549385567,1911
83.62660938562783,2026
86.07433666566146,1614
88.5213875329681,1196
90.96776218663751,1126
93.41346082583925,1088
95.85848364982041,1386
98.30283085790859,1571
100.7465026495089,1553
103.18949922410604,1505
105.63182078126385,1404
108.07346752062438,1372
110.51443964190923,1166
112.95473734491827,1123
115.39436082953114,1026
117.83331029570547,1119
120.27158594347827,1104
122.7091879729652,1417
125.1461165843615,1392
127.58237197794062,1268
130.01795435405518,1240
132.4528639131364,1130
134.88710085569494,1189
137.32066538231982,1164
139.75355769367923,1065
142.1857779905207,1003
144.61732647366978,1001
147.04820334403132,1036
149.47840880258934,994
151.90794305040674,898
154.33680628862487,1078
156.76499871846443,1260
159.19252054122433,1433
161.61937195828352,1525
164.04555317109896,1541
166.47106438120693,1616
168.89590579022217,1749
171.320077599839,1781
173.7435800118302,1898
176.16641322804742,1916
178.58857745042144,1958
181.01007288096173,1998
183.43089972175687,2039
185.85105817497413,1961
188.27054844285988,2095
190.6893707277394,2049
193.10752523201643,2043
195.5250121581745,2062
197.9418317087751,2165
200.3579840864594,2201
202.7734694939469,2075
205.18828813403627,2128
207.6024402096051,2153
210.01592592360964,2258
212.42874547908548,2273
214.84089907914665,2278
217.2523869269868,2211
219.66320922587727,2134
222.0733661791695,2158
224.48285799029293,2137
226.8916848627572,2128
229.29984700014882,2261
231.7073446061355,2203
234.11417788446204,2154
236.520347038953,2106
238.92585227351185,2119
241.33069379212054,2226
243.73487179884035,2162
246.1383864978112,2173
248.541238093252,2211
250.9434267894609,2229
253.34495279081432,2254
255.74581630176783,2137
258.1460175268563,2134
260.54555667069314,2124
262.9444339379703,2139
265.3426495334594,2089
267.7402036620107,2145
270.1370965285529,2253
272.53332833809407,2338
274.9288992957214,2277
277.32380960660055,2220
279.718059475976,2119
282.1116491091717,2227
284.5045787115897,2190
286.89684848871195,2163
289.2884586460981,2121
291.67940938938807,2248
294.0697009242996,2243
296.4593334566299,2226
298.84830719225477,2237
301.23662233712923,2152
303.6242790972866,2233
306.01127767884,2118
308.39761828798066,2089
310.78330113097934,2158
313.16832641418534,2108
315.5526943440269,2030
317.9364051270112,2011
320.3194589697242,1981
322.70185607883093,2070
325.0835966610754,2049
327.4646809232805,1931
329.8451090723478,1981
332.2248813152577,2009
334.6039978590701,1981
336.9824589109231,1877
339.36026467803447,1946
341.7374153677,1889
344.113911187295,1958
346.48975234427337,1911
348.8649390461686,1962
351.2394715005918,1866
353.61334991523415,1832
355.9865744978655,1934
358.35914545633375,1945
360.73106299856715,1891
363.10232733257146,1874
365.47293866643247,1908
367.84289720831396,1790
370.2122031664593,1798
372.5808567491905,1771
374.9488581649083,1830
377.31620762209275,1749
379.6829053293021,1747
382.0489514951745,1751
384.4143463284262,1784
386.7790900378528,1748
389.14318283232853,1794
391.50662492080653,1773
393.86941651231916,1813
396.23155781597745,1781
398.5930490409713,1783
400.9538903965696,1777
403.3140820921202,1750
405.6736243370498,1762
408.03251734086336,1676
410.3907613131465,1721
412.74835646356166,1728
415.10530300185144,1713
417.4616011378372,1708
419.81725108141893,1744
422.1722530425758,1719
424.5266072313656,1734
426.880313857925,1686
429.2333731324701,1682
431.58578526529516,1707
433.9375504667738,1716
436.2886689473588,1692
438.63914091758113,1673
440.9889665880513,1647
443.33814616945835,1658
445.68667987257015,1662
448.03456790823395,1703
450.3818104873759,1682
452.72840782100013,1625
455.07436012019105,1617
457.41966759611057,1670
459.7643304600007,1679
462.10834892318155,1563
464.4517231970525,1628
466.79445349309174,1639
469.1365400228566,1670
471.4779829979826,1681
473.81878263018564,1664
476.15893913125876,1626
478.4984527130747,1699
480.8373235875855,1797
483.17555196682144,1826
485.5131380628919,1791
487.8500820879857,1794
490.1863842543697,1908
492.52204477439034,2016
494.8570638604725,2191
497.1914417251204,2411
499.52517858091653,2893
501.85827464052306,3349
504.19073011668036,3729
506.5225452222086,3968
508.85372017000566,4077
511.18425517304956,4048
513.514150444396,3939
515.8434061971808,4250
518.1720226446176,4683
520.4999999999999,4835
522.8273384766991,4456
525.1540382881666,3974
527.480099647932,3601
529.8055227696037,2964
532.1303078668694,2420
534.454455153496,2054
536.777964843328,1933
539.1008371502907,1793
541.4230722883866,1713
543.744670471698,1733
546.0656319143858,1750
548.3859568306899,1706
550.7056454349294,1723
553.0246979415016,1645
555.3431145648834,1683
557.6608955196306,1681
559.978041020377,1698
562.2945512818363,1662
564.6104265188006,1673
566.9256669461412,1695
569.2402727788082,1731
571.5542442318302,1678
573.8675815203156,1667
576.1802848594508,1708
578.4923544645015,1769
580.8037905508126,1758
583.114593333807,1739
585.4247630289875,1706
587.7342998519354,1724
590.0432040183106,1703
592.3514757438526,1684
594.6591152443794,1735
596.9661227357875,1757
599.2724984340531,1683
601.578242555231,1692
603.8833553154542,1678
606.1878369309362,1782
608.4916876179676,1719
610.7949075929192,1720
613.0974970722403,1758
615.3994562724587,1736
617.7007854101818,1721
620.0014847020951,1717
622.3015543649641,1760
624.6009946156324,1750
626.8998056710224,1763
629.1979877481361,1700
631.4955410640538,1746
633.7924658359349,1672
636.0887622810175,1675
638.3844306166192,1718
640.6794710601358,1665
642.9738838290426,1742
645.2676691408932,1712
647.5608272133207,1703
649.853358264037,1730
652.1452625108324,1733
654.4365401715764,1651
656.7271914642178,1702
659.0172166067838,1715
661.3066158173809,1743
663.5953893141935,1680
665.8835373154867,1683
668.1710600396028,1761
670.4579577049639,1712
672.7442305300709,1698
675.0298787335033,1717
677.3149025339197,1702
679.599302150058,1710
681.8830778007342,1705
684.1662297048437,1685
686.4487580813608,1781
688.7306631493387,1693
691.0119451279091,1656
693.2926042362834,1769
695.5726406937516,1735
697.8520547196814,1713
700.1308465335215,1720
702.4090163547982,1746
704.6865644031171,1642
706.9634908981619,1669
709.2397960596965,1731
711.5154801075631,1717
713.7905432616823,1745
716.0649857420548,1728
718.3388077687592,1728
720.612009561953,1722
722.8845913418733,1660
725.1565533288352,1672
727.427895743234,1634
729.6986188055427,1761
731.9687227363137,1730
734.238207756178,1714
736.5070740858458,1647
738.7753219461066,1773
741.0429515578281,1761
743.3099631419569,1792
745.5763569195191,1703
747.8421331116193,1737
750.1072919394409,1710
752.3718336242467,1750
754.6357583873777,1703
756.8990664502545,1776
759.1617580343765,1653
761.423833361321,1751
763.6852926527457,1754
765.9461361303862,1769
768.206364016058,1812
770.4659765316536,1734
772.7249738991469,1731
774.9833563405886,1794
777.2411240781092,1760
779.4982773339183,1717
781.7548163303044,1789
784.010741289634,1786
786.2660524343538,1792
788.5207499869881,1708
790.7748341701416,1767
793.0283052064964,1704
795.2811633188143,1764
797.5334087299362,1767
799.7850416627813,1758
802.0360623403484,1728
804.2864709857143,1795
806.5362678220353,1718
808.7854530725468,1805
811.0340269605625,1836
813.2819897094754,1726
815.5293415427581,1770
817.77608268396,1788
820.0222133567116,1780
822.2677337847211,1729
824.5126441917765,1782
826.7569448017433,1756
829.0006358385675,1722
831.2437175262731,1756
833.4861900889629,1761
835.7280537508192,1748
837.9693087361026,1730
840.2099552691533,1784
842.4499935743896,1704
844.689423876309,1689
846.9282463994886,1762
849.1664613685833,1771
851.4040690083276,1790
853.6410695435349,1773
855.877463199097,1655
858.1132501999847,1713
860.3484307712487,1741
862.5830051380175,1751
864.8169735254988,1794
867.0503361589791,1774
869.2830932638243,1790
871.5152450654786,1807
873.7467917894654,1811
875.9777336613873,1772
878.2080709069252,1751
880.4378037518389,1732
882.666932421968,1747
884.8954571432301,1809
887.1233781416219,1799
889.3506956432192,1775
891.5774098741766,1824
893.803521060728,1727
896.0290294291852,1748
898.2539352059397,1785
900.4782386174619,1801
902.7019398903011,1836
904.925039251085,1752
907.147536926521,1774
909.3694331433943,1799
911.59072812857,1757
913.8114221089921,1804
916.0315153116827,1778
918.2510079637437,1837
920.4699002923547,1766
922.6881925247761,1726
924.905884888345,1745
927.1229776104793,1737
929.3394709186747,1783
931.555365040506,1754
933.7706602036275,1796
935.9853566357709,1752
938.1994545647489,1742
940.4129542184515,1715
942.6258558248488,1694
944.8381596119883,1738
947.0498658079974,1745
949.2609746410825,1758
951.4714863395287,1765
953.6814011316998,1731
955.8907192460387,1752
958.0994409110671,1678
960.3075663553858,1678
962.5150958076741,1739
964.7220294966913,1727
966.928367651274,1703
969.1341105003388,1692
971.3392582728806,1717
973.5438111979742,1627
975.747769504772,1631
977.9511334225061,1598
980.153903180487,1650
982.3560790081052,1649
984.5576611348289,1708
986.7586497902058,1577
988.9590452038618,1631
991.158847605503,1597
993.3580572249133,1601
995.5566742919558,1592
997.7546990365728,1588
999.952131688785,1498
1002.1489724786926,1483
1004.3452216364743,1447
1006.5408793923874,1495
1008.7359459767691,1464
1010.9304216200343,1487
1013.1243065526781,1434
1015.3176010052733,1471
1017.510305208472,1416
1019.7024193930064,1382
1021.8939437896848,1440
1024.0848786293977,1398
1026.2752241431122,1400
1028.4649805618747,1385
1030.6541481168115,1444
1032.842727039127,1370
1035.0307175601051,1327
1037.2181199111074,1323
1039.4049343235752,1292
1041.591161029029,1379
1043.7768002590683,1345
1045.9618522453698,1390
1048.1463172196918,1323
1050.3301954138697,1294
1052.513487059818,1385
1054.69619238953,1318
1056.8783116350783,1362
1059.0598450286152,1326
1061.2407928023704,1339
1063.4211551886528,1320
1065.6009324198508,1266
1067.780124728432,1339
1069.9587323469414,1308
1072.1367555080046,1381
1074.314194444325,1314
1076.4910493886855,1362
1078.667320573947,1343
1080.843008233051,1324
1083.0181125990161,1292
1085.1926339049414,1295
1087.3665723840027,1298
1089.5399282694575,1282
1091.7127017946405,1268
1093.8848931929647,1276
1096.0565026979243,1278
1098.2275305430899,1249
1100.3979769621128,1240
1102.567842188722,1248
1104.737126456726,1264
1106.9058300000124,1269
1109.0739530525475,1227
1111.2414958483764,1287
1113.4084586216231,1305
1115.5748416064907,1275
1117.7406450372605,1337
1119.9058691482942,1290
1122.0705141740304,1283
1124.2345803489884,1259
1126.3980679077658,1260
1128.5609770850388,1247
1130.7233081155623,1240
1132.8850612341707,1323
1135.0462366757774,1198
1137.2068346753745,1224
1139.3668554680326,1274
1141.526299288901,1257
1143.68516637321,1221
1145.8434569562655,1247
1148.001171273455,1233
1150.158309560244,1208
1152.3148720521767,1191
1154.470858984876,1267
1156.626270594044,1204
1158.7811071154629,1242
1160.9353687849912,1237
1163.089055838569,1204
1165.242168512213,1232
1167.3947070420209,1248
1169.5466716641677,1212
1171.6980626149075,1185
1173.8488801305748,1222
1175.9991244475814,1192
1178.1487958024186,1209
1180.2978944316555,1223
1182.4464205719428,1237
1184.5943744600072,1192
1186.7417563326567,1225
1188.8885664267755,1177
1191.0348049793297,1210
1193.1804722273619,1231
1195.325568407995,1170
1197.4700937584303,1202
1199.614048515948,1163
1201.7574329179074,1168
1203.900247201746,1191
1206.042491604982,1175
1208.1841663652099,1191
1210.3252717201053,1229
1212.465807907422,1195
1214.6057751649923,1221
1216.7451737307279,1248
1218.8840038426192,1203
1221.0222657387353,1257
1223.1599596572241,1238
1225.2970858363137,1181
1227.4336445143094,1314
1229.5696359295966,1226
1231.705060320639,1221
1233.8399179259786,1201
1235.9742089842384,1197
1238.107933734118,1176
1240.2410924143974,1218
1242.373685263935,1220
1244.5057125216676,1248
1246.6371744266116,1247
1248.7680712178621,1180
1250.898403134593,1218
1253.028170416058,1236
1255.1573733015875,1227
1257.2860120305932,1179
1259.4140868425648,1191
1261.54159797707,1178
1263.6685456737569,1210
1265.7949301723515,1155
1267.9207517126597,1257
1270.046010534565,1283
1272.1707068780306,1254
1274.2948409830983,1257
1276.4184130898889,1205
1278.541423438603,1247
1280.6638722695184,1233
1282.785759822993,1241
1284.9070863394636,1232
1287.0278520594447,1217
1289.1480572235314,1282
1291.2677020723963,1221
1293.3867868467923,1235
1295.5053117875495,1244
1297.623277135579,1246
1299.740683131868,1202
1301.8575300174857,1253
1303.973818033578,1235
1306.0895474213703,1283
1308.2047184221678,1228
1310.3193312773528,1224
1312.4333862283888,1221
1314.5468835168163,1229
1316.659823384255,1290
1318.7722060724045,1256
1320.8840318230418,1226
1322.9953008780249,1267
1325.1060134792888,1247
1327.2161698688478,1252
1329.3257702887959,1241
1331.4348149813054,1288
1333.5433041886276,1200
1335.6512381530933,1247
1337.7586171171101,1306
1339.8654413231675,1262
1341.9717110138317,1227
1344.0774264317488,1228
1346.1825878196432,1276
1348.2871954203192,1289
1350.3912494766587,1252
1352.4947502316231,1193
1354.5976979282532,1265
1356.7000928096686,1247
1358.8019351190665,1229
1360.9032250997243,1189
1363.0039629949988,1197
1365.1041490483235,1254
1367.2037835032133,1224
1369.3028666032606,1235
1371.401398592137,1268
1373.4993797135926,1299
1375.5968102114575,1232
1377.6936903296396,1233
1379.7900203121262,1284
1381.8858004029835,1293
1383.9810308463561,1301
1386.075711886469,1259
1388.1698437676241,1211
1390.2634267342032,1259
1392.356461030667,1257
1394.4489469015557,1334
1396.5408845914872,1223
1398.6322743451592,1260
1400.7231164073469,1285
1402.813411022907,1216
1404.903158436773,1288
1406.9923588939578,1326
1409.0810126395531,1242
1411.1691199187303,1272
1413.2566809767386,1267
1415.343696058907,1275
1417.4301654106425,1258
1419.5160892774315,1294
1421.6014679048399,1307
1423.6863015385125,1278
1425.7705904241707,1278
1427.8543348076178,1226
1429.9375349347342,1315
1432.0201910514802,1295
1434.102303403894,1222
1436.1838722380944,1240
1438.2648978002767,1277
1440.3453803367174,1229
1442.4253200937692,1279
1444.5047173178677,1309
1446.5835722555234,1311
1448.6618851533285,1261
1450.739656257952,1292
1452.8168858161434,1240
1454.8935740747306,1259
1456.96972128062,1317
1459.045327680797,1258
1461.120393522327,1303
1463.1949190523528,1310
1465.2689045180973,1324
1467.3423501668608,1307
1469.415256246024,1319
1471.4876230030463,1308
1473.559450685465,1273
1475.6307395408976,1334
1477.7014898170391,1291
1479.771701761665,1323
1481.8413756226287,1294
1483.9105116478618,1263
1485.9791100853772,1290
1488.0471711832643,1322
1490.1146951896926,1290
1492.1816823529098,1276
1494.2481329212433,1297
1496.3140471430984,1335
1498.3794252669609,1264
1500.4442675413939,1326
1502.5085742150404,1359
1504.572345536622,1359
1506.6355817549388,1359
1508.6982831188702,1340
1510.7604498773744,1306
1512.8220822794883,1312
1514.8831805743293,1326
1516.9437450110909,1340
1519.003775839048,1356
1521.0632733075522,1382
1523.1222376660367,1373
1525.1806691640113,1305
1527.2385680510652,1338
1529.2959345768668,1363
1531.3527689911643,1313
1533.4090715437833,1321
1535.4648424846291,1302
1537.5200820636855,1332
1539.5747905310159,1366
1541.6289681367616,1295
1543.6826151311434,1318
1545.7357317644614,1305
1547.7883182870937,1324
1549.8403749494987,1352
1551.8919020022113,1364
1553.9428996958477,1343
1555.9933682811015,1421
1558.0433080087469,1384
1560.0927191296346,1371
1562.1416018946961,1269
1564.1899565549415,1377
1566.2377833614592,1401
1568.2850825654164,1369
1570.3318544180606,1355
1572.3780991707158,1366
1574.423817074788,1400
1576.4690083817595,1405
1578.5136733431923,1349
1580.5578122107272,1377
1582.601425236085,1364
1584.6445126710646,1411
1586.6870747675434,1373
1588.7291117774776,1384
1590.7706239529034,1304
1592.8116115459347,1321
1594.8520748087658,1288
1596.8920139936686,1332
1598.9314293529933,1272
1600.9703211391711,1312
1603.008689604711,1327
1605.0465350022005,1284
1607.0838575843068,1326
1609.1206576037753,1323
1611.1569353134305,1305
1613.1926909661765,1276
1615.2279248149953,1307
1617.2626371129481,1297
1619.2968281131757,1285
1621.3304980688963,1294
1623.3636472334088,1250
1625.39627586009,1271
1627.428384202396,1230
1629.459972513861,1270
1631.4910410480993,1265
1633.5215900588028,1313
1635.551619799744,1287
1637.5811305247717,1287
1639.6101224878166,1239
1641.6385959428862,1303
1643.6665511440683,1271
1645.693988345528,1281
1647.7209078015112,1286
1649.7473097663405,1265
1651.7731944944203,1241
1653.7985622402307,1307
1655.823413258333,1336
1657.847747803366,1285
1659.8715661300494,1256
1661.8948684931793,1287
1663.9176551476316,1293
1665.9399263483624,1243
1667.9616823504057,1263
1669.982923408873,1257
1672.0036497789574,1270
1674.0238617159293,1230
1676.043559475138,1265
1678.0627433120121,1261
1680.081413482059,1218
1682.0995702408654,1185
1684.117213844096,1250
1686.134344547495,1232
1688.1509626068864,1261
1690.1670682781705,1257
1692.182661817329,1259
1694.1977434804217,1234
1696.2123135235875,1245
1698.226372203043,1249
1700.2399197750851,1292
1702.2529564960905,1270
1704.2654826225112,1319
1706.277498410882,1277
1708.2890041178139,1234
1710.2999999999988,1265
1712.3104863142066,1276
1714.3204633172854,1296
1716.329931266163,1301
1718.3388904178469,1311
1720.3473410294214,1300
1722.3552833580516,1305
1724.3627176609807,1282
1726.3696441955308,1316
1728.3760632191033,1213
1730.3819749891782,1269
1732.3873797633146,1253
1734.3922777991502,1286
1736.3966693544012,1257
1738.4005546868639,1209
1740.4039340544127,1262
1742.406807715001,1264
1744.4091759266616,1240
1746.4110389475054,1238
1748.4123970357223,1249
1750.413250449582,1285
1752.4135994474318,1242
1754.4134442876993,1254
1756.4127852288902,1281
1758.4116225295893,1256
1760.4099564484595,1290
1762.407787244244,1296
1764.405115175764,1274
1766.4019405019203,1322
1768.3982634816916,1282
1770.3940843741357,1296
1772.3894034383907,1285
1774.3842209336717,1297
1776.378537119274,1269
1778.372352254571,1346
1780.3656665990156,1212
1782.3584804121397,1292
1784.3507939535534,1222
1786.3426074829463,1233
1788.3339212600863,1255
1790.3247355448211,1257
1792.3150505970766,1317
1794.3048666768573,1236
1796.2941840442477,1261
1798.2830029594106,1295
1800.2713236825884,1368
1802.2591464741004,1299
1804.2464715943465,1260
1806.2332993038058,1238
1808.2196298630352,1267
1810.2054635326708,1331
1812.190800573428,1258
1814.175641246101,1274
1816.1599858115628,1263
1818.1438345307652,1273
1820.127187664738,1282
1822.1100454745924,1307
1824.092408221516,1316
1826.0742761667766,1263
1828.055649571721,1277
1830.0365286977735,1250
1832.0169138064398,1264
1833.9968051593014,1283
1835.9762030180214,1299
1837.9551076443408,1255
1839.9335193000788,1312
1841.9114382471344,1290
1843.888864747485,1255
1845.8657990631878,1221
1847.842241456378,1216
1849.8181921892697,1274
1851.7936515241558,1253
1853.7686197234098,1263
1855.7430970494815,1264
1857.7170837649014,1255
1859.6905801322787,1238
1861.6635864143004,1302
1863.6361028737338,1297
1865.608129773424,1230
1867.5796673762961,1268
1869.5507159453537,1266
1871.521275743678,1273
1873.4913470344313,1250
1875.4609300808534,1288
1877.4300251462632,1304
1879.3986324940588,1265
1881.366752387717,1250
1883.3343850907936,1281
1885.3015308669228,1272
1887.268189979819,1296
1889.2343626932739,1277
1891.2000492711595,1251
1893.1652499774254,1267
1895.1299650761011,1252
1897.0941948312952,1276
1899.0579395071945,1323
1901.0211993680641,1299
1902.98397467825,1282
1904.9462657021745,1320
1906.9080727043415,1275
1908.869395949332,1295
1910.8302357018065,1276
1912.790592226504,1249
1914.7504657882428,1290
1916.7098566519212,1308
1918.6687650825133,1267
1920.6271913450764,1286
1922.5851357047422,1293
1924.5425984267245,1310
1926.499579776314,1264
1928.4560800188833,1262
1930.4120994198802,1269
1932.367638244833,1316
1934.32269675935,1274
1936.2772752291175,1281
1938.231373919899,1279
1940.1849930975404,1255
1942.1381330279637,1287
1944.0907939771696,1298
1946.0429762112412,1291
1947.9946799963363,1296
1949.9459055986945,1289
1951.896653284633,1248
1953.8469233205478,1206
1955.7967159729142,1290
1957.7460315082863,1321
1959.6948701932974,1320
1961.6432322946594,1320
1963.5911180791632,1245
1965.5385278136787,1329
1967.4854617651545,1257
1969.4319202006182,1255
1971.377903387176,1291
1973.3234115920136,1281
1975.268445082395,1321
1977.2130041256642,1316
1979.1570889892423,1231
1981.1006999406304,1261
1983.04383724741,1231
1984.986501177238,1324
1986.928691997853,1285
1988.8704099770712,1253
1990.811655382789,1286
1992.7524284829801,1317
1994.692729545698,1231
1996.6325588390755,1303
1998.5719166313224,1298
2000.5108031907307,1232
2002.4492187856677,1219
2004.387163684583,1239
2006.3246381560011,1291
2008.2616424685298,1256
2010.1981768908527,1271
2012.1342416917332,1270
2014.069837140014,1287
2016.0049635046162,1286
2017.9396210545406,1252
2019.8738100588666,1232
2021.8075307867502,1276
2023.740783507431,1278
2025.6735684902228,1274
2027.6058860045214,1270
2029.5377363198004,1270
2031.4691197056118,1282
2033.4000364315875,1236
2035.3304867674374,1273
2037.260470982952,1255
2039.189989347998,1280
2041.1190421325232,1238
2043.047629606554,1273
2044.9757520401945,1237
2046.9034097036288,1270
2048.8306028671195,1296
2050.7573318010086,1273
2052.683596775716,1254
2054.609398061742,1264
2056.5347359296647,1245
2058.4596106501403,1276
2060.384022493906,1290
2062.3079717317764,1224
2064.231458634646,1266
2066.1544834734873,1253
2068.077046519352,1293
2069.99914804337,1245
2071.9207883167524,1299
2073.8419676107865,1220
2075.7626861968406,1278
2077.6829443463607,1285
2079.6027423308715,1247
2081.522080421977,1289
2083.440958891362,1262
2085.359378010786,1321
2087.2773380520907,1301
2089.194839287196,1298
2091.111881988101,1256
2093.0284664268825,1296
2094.9445928756973,1278
2096.86026160678,1254
2098.775472892446,1261
2100.690227005088,1261
2102.604524217178,1293
2104.5183648012676,1267
2106.431749029985,1267
2108.34467717604,1280
2110.2571495122206,1247
2112.169166311393,1300
2114.080727846503,1305
2115.9918343905747,1331
2117.902486216711,1276
2119.8126835980956,1250
2121.722426807987,1242
2123.6317161197285,1278
2125.5405518067364,1289
2127.448934142509,1299
2129.356863400624,1262
2131.264339854737,1336
2133.1713637785815,1310
2135.077935445972,1241
2136.9840551308002,1290
2138.889723107037,1327
2140.7949396487334,1265
2142.699705030018,1261
2144.6040195250994,1273
2146.507883408264,1326
2148.4112969538774,1317
2150.3142604363848,1312
2152.2167741303097,1333
2154.1188383102535,1279
2156.0204532508997,1320
2157.9216192270064,1293
2159.822336513414,1328
2161.7226053850413,1292
2163.622426116884,1299
2165.5217989840185,1356
2167.4207242616,1321
2169.319202224862,1301
2171.2172331491165,1297
2173.1148173097563,1350
2175.0119549822507,1328
2176.90864644215,1268
2178.8048919650823,1341
2180.7006918267534,1367
2182.596046302952,1381
2184.4909556695407,1329
2186.3854202024645,1308
2188.279440177746,1362
2190.173015871487,1311
2192.066147559868,1381
2193.958835519149,1297
2195.851080025667,1313
2197.7428813558417,1326
2199.6342397861667,1358
2201.5251555932186,1344
2203.415629053651,1370
2205.3056604441986,1350
2207.19525004167,1310
2209.084398122958,1423
2210.9731049650327,1357
2212.861370844941,1392
2214.749196039812,1410
2216.636580826851,1385
2218.523525483344,1402
2220.410030286655,1414
2222.296095514226,1420
2224.1817214435805,1413
2226.066908352319,1393
2227.951656518121,1363
2229.835966218746,1402
2231.71983773203,1373
2233.6032713358913,1406
2235.486267308324,1434
2237.3688259274036,1394
2239.2509474712824,1420
2241.132632218193,1356
2243.013880446447,1433
2244.8946924344323,1443
2246.7750684606203,1377
2248.6550088035574,1390
2250.534513741871,1364
2252.413583554265,1391
2254.292218519526,1340
2256.170418916517,1387
2258.0481850241786,1385
2259.925517121534,1458
2261.8024154876825,1425
2263.678880401803,1446
2265.5549121431536,1402
2267.430510991071,1406
2269.305677224971,1353
2271.180411124348,1379
2273.0547129687766,1385
2274.9285830379076,1322
2276.8020216114737,1356
2278.6750289692845,1381
2280.5476053912294,1413
2282.4197511572766,1365
2284.2914665474727,1450
2286.162751841943,1432
2288.0336073208937,1458
2289.904033264608,1459
2291.774029953448,1464
2293.6435976678554,1422
2295.5127366883517,1366
2297.381447295534,1344
2299.2497297700825,1289
2301.1175843927526,1289
2302.9850114443825,1280
2304.852011205885,1229
2306.7185839582553,1193
2308.5847299825664,1203
2310.4504495599676,1180
2312.3157429716925,1142
2314.1806104990483,1131
2316.0450524234247,1174
2317.9090690262888,1171
2319.772660589186,1119
2321.635827393742,1129
2323.498569721661,1112
2325.3608878547248,1150
2327.2227820747967,1199
2329.0842526638157,1122
2330.945299903803,1144
2332.805924076857,1131
2334.6661254651535,1069
2336.525904350951,1097
2338.3852610165827,1121
2340.244195744464,1089
2342.102708817088,1131
2343.9608005170253,1076
2345.8184711269287,1138
2347.675720929526,1111
2349.532550207628,1117
2351.38895924412,1145
2353.24494832197,1097
2355.100517724223,1180
2356.955667734004,1105
2358.810398634514,1117
2360.664710709037,1077
2362.5186042409337,1188
2364.3720795136437,1127
2366.225136810686,1132
2368.0777764156583,1176
2369.929998612237,1127
2371.7818036841777,1106
2373.633191915315,1150
2375.484163589562,1171
2377.3347189909114,1135
2379.184858403434,1169
2381.03458211128,1114
2382.8838903986775,1097
2384.732783549936,1095
2386.5812618494406,1131
2388.4293255816588,1154
2390.2769750311327,1130
2392.1242104824883,1121
2393.971032220427,1125
2395.8174405297295,1100
2397.6634356952563,1151
2399.509018001947,1140
2401.3541877348193,1148
2403.1989451789705,1134
2405.043290619576,1102
2406.8872243418905,1105
2408.730746631247,1096
2410.5738577730594,1150
2412.4165580528183,1128
2414.258847756095,1124
2416.100727168537,1097
2417.9421965758734,1175
2419.783256263912,1108
2421.623906518538,1136
2423.4641476257157,1116
2425.303979871491,1120
2427.143403541984,1123
2428.9824189233977,1120
2430.821026302012,1138
2432.6592259641866,1055
2434.497018196361,1121
2436.33440328505,1075
2438.171381516851,1120
2440.00795317844,1148
2441.844118556569,1125
2443.6798779380724,1123
2445.5152316098606,1144
2447.3501798589255,1133
2449.1847229723357,1084
2451.0188612372403,1154
2452.8525949408663,1105
2454.6859243705203,1129
2456.518849813587,1165
2458.3513715575314,1113
2460.183489889895,1080
2462.015205098301,1119
2463.8465174704493,1112
2465.67742729412,1116
2467.5079348571717,1089
2469.338040447542,1125
2471.1677443532476,1092
2472.9970468623833,1132
2474.825948263123,1181
2476.6544488437207,1144
2478.482548892508,1068
2480.310248697896,1157
2482.137548548374,1118
2483.9644487325118,1081
2485.790949538956,1165
2487.617051256433,1107
2489.44275417375,1100
2491.26805857979,1096
2493.0929647635157,1139
2494.917473013971,1108
2496.741583620276,1176
2498.5652968716304,1133
2500.3886130573137,1123
2502.2115324666834,1188
2504.0340553891765,1115
2505.856182114308,1146
2507.6779129316733,1137
2509.499248130945,1142
2511.3201880018764,1094
2513.140732834298,1138
2514.9608829181198,1185
2516.780638543331,1120
2518.6,1060
2520.418967578273,1137
2522.237541568376,1144
2524.0557222606144,1143
2525.8735099453706,1106
2527.6909049131086,1154
2529.507907454368,1172
2531.32451785977,1140
2533.140736420014,1149
2534.9565634258774,1102
2536.771999168218,1150
2538.5870439379714,1138
2540.4016980261526,1148
2542.2159617238544,1165
2544.02983532225,1123
2545.8433191125914,1132
2547.656413386209,1136
2549.4691184345115,1114
2551.2814345489874,1145
2553.093362021204,1172
2554.904901142808,1135
2556.716052205523,1180
2558.526815501153,1131
2560.3371913215824,1123
2562.147179958771,1166
2563.956781704761,1140
2565.7659968516705,1150
2567.5748256916986,1131
2569.3832685171224,1163
2571.1913256202984,1094
2572.9989972936614,1121
2574.806283829725,1147
2576.613185521084,1185
2578.4197026604074,1142
2580.2258355404483,1169
2582.031584454035,1159
2583.836949694077,1125
2585.6419315535613,1168
2587.4465303255533,1180
2589.2507463032002,1135
2591.0545797797245,1153
2592.8580310484303,1174
2594.6611004026995,1187
2596.463788135992,1153
2598.266094541849,1165
2600.0680199138874,1167
2601.869564545807,1169
2603.670728731383,1175
2605.4715127644704,1161
2607.2719169390048,1095
2609.071941548998,1145
2610.8715868885433,1152
2612.670853251811,1224
2614.469740933052,1133
2616.268250226594,1137
2618.0663814268455,1116
2619.864134828292,1174
2621.6615107255006,1114
2623.458509413115,1127
2625.2551311858597,1136
2627.0513763385347,1134
2628.8472451660223,1144
2630.6427379632833,1102
2632.4378550253564,1183
2634.232596647359,1129
2636.026963124488,1156
2637.8209547520187,1155
2639.6145718253065,1132
2641.407814639785,1143
2643.200683490966,1143
2644.9931786744414,1146
2646.7853004858807,1140
2648.577049221034,1152
2650.3684251757277,1124
2652.1594286458712,1127
2653.9500599274484,1162
2655.740319316525,1116
2657.5302071092437,1070
2659.3197236018286,1149
2661.10886909058,1091
2662.8976438718782,1098
2664.686048242183,1151
2666.4740824980327,1125
2668.2617469360443,1152
2670.0490418529134,1125
2671.8359675454153,1155
2673.622524310403,1107
2675.408712444811,1149
2677.1945322456495,1162
2678.979984010009,1123
2680.76506803506,1127
2682.5497846180497,1169
2684.334134056306,1138
2686.1181166472343,1152
2687.9017326883213,1148
2689.6849824771293,1162
2691.4678663113013,1157
2693.2503844885596,1126
2695.032537306705,1074
2696.8143250636167,1132
2698.5957480572542,1138
2700.3768065856534,1088
2702.1575009469316,1168
2703.937831439283,1108
2705.717798360982,1094
2707.4974020103837,1112
2709.276642685917,1106
2711.055520686095,1101
2712.834036309506,1086
2714.612189854819,1121
2716.389981620782,1136
2718.1674119062204,1151
2719.944481010041,1138
2721.721189231226,1158
2723.4975368688415,1154
2725.273524222027,1063
2727.0491515900053,1141
2728.824419272075,1113
2730.5993275676146,1093
2732.3738767760838,1123
2734.148067197016,1146
2735.921899130031,1133
2737.6953728748194,1108
2739.468488731156,1105
2741.2412469988926,1135
2743.0136479779617,1129
2744.785691968372,1148
2746.5573792702116,1101
2748.3287101836504,1201
2750.099685008934,1186
2751.870304046388,1128
2753.640567596418,1155
2755.4104759595057,1134
2757.1800294362156,1171
2758.949228327187,1104
2760.7180729331412,1163
2762.486563554877,1141
2764.254700493272,1120
2766.022484049284,1115
2767.789914523947,1112
2769.5569922183786,1171
2771.3237174337705,1123
2773.090090471394,1103
2774.8561116326036,1124
2776.6217812188274,1190
2778.3870995315756,1113
2780.1520668724356,1137
2781.9166835430747,1108
2783.6809498452394,1130
2785.444866080754,1136
2787.2084325515225,1158
2788.971649559527,1074
2790.73451740683,1105
2792.4970363955713,1150
2794.2592068279705,1118
2796.0210290063264,1165
2797.7825032330147,1145
2799.543629810493,1106
2801.304409041296,1161
2803.0648412280366,1132
2804.8249266734088,1135
2806.5846656801846,1154
2808.344058551212,1161
2810.1031055894246,1145
2811.8618070978273,1126
2813.6201633795085,1181
2815.378174737636,1170
2817.1358414754536,1166
2818.893163896285,1142
2820.6501423035334,1146
2822.4067770006814,1147
2824.1630682912883,1134
2825.9190164789957,1133
2827.6746218675207,1106
2829.429884760661,1102
2831.184805462294,1180
2832.9393842763743,1149
2834.693621506936,1109
2836.4475174580916,1169
2838.201072434034,1146
2839.954286739034,1115
2841.707160677441,1154
2843.459694553685,1147
2845.2118886722724,1124
2846.96374333779,1153
2848.7152588549034,1131
2850.4664355283567,1170
2852.217273662973,1107
2853.9677735636546,1143
2855.7179355353833,1171
2857.4677598832186,1089
2859.217246912299,1112
2860.9663969278427,1117
2862.715210235146,1148
2864.4636871395846,1098
2866.211827946614,1148
2867.9596329617652,1076
2869.7071024906536,1155
2871.4542368389684,1118
2873.20103631248,1103
2874.947501217038,1154
2876.6936318585695,1148
2878.4394285430812,1097
2880.1848915766604,1142
2881.9300212654707,1178
2883.6748179157553,1140
2885.4192818338374,1122
2887.1634133261173,1112
2888.907212699077,1106
2890.6506802592744,1161
2892.393816313348,1134
2894.1366211680142,1106
2895.8790951300693,1162
2897.621238506388,1168
2899.363051603925,1117
2901.1045347297118,1164
2902.8456881908596,1172
2904.58651229456,1175
2906.327007348081,1156
2908.067173658772,1137
2909.8070115340597,1188
2911.5465212814497,1152
2913.285703208527,1169
2915.0245576229563,1109
2916.7630848324807,1106
2918.5012851449196,1162
2920.2391588681758,1153
2921.976706310227,1154
2923.7139277791334,1133
2925.4508235830313,1137
2927.187394030137,1149
2928.923639428745,1173
2930.6595600872306,1144
2932.395156314046,1157
2934.1304284177218,1142
2935.8653767068713,1190
2937.6000014901815,1161
2939.3343030764227,1129
2941.068281774442,1144
2942.8019378931644,1128
2944.5352717415976,1157
2946.2682836288236,1160
2948.0009738640065,1113
2949.7333427563885,1160
2951.465390615289,1159
2953.1971177501086,1092
2954.9285244703265,1176
2956.6596110855,1170
2958.3903779052657,1159
2960.1208252393385,1172
2961.8509533975125,1158
2963.5807626896617,1110
2965.3102534257378,1173
2967.0394259157715,1170
2968.768280469873,1094
2970.496817398232,1130
2972.2250370111146,1136
2973.952939618869,1111
2975.6805255319196,1212
2977.4077950607707,1114
2979.134748516006,1166
2980.861386208289,1104
2982.587708448359,1209
2984.313715547037,1152
2986.039407815222,1157
2987.764785563891,1183
2989.489849104102,1136
2991.2145987469908,1142
2992.9390348037705,1154
2994.6631575857346,1136
2996.3869674042576,1184
2998.1104645707887,1161
2999.83364939686,1124
3001.5565221940783,1102
3003.2790832741334,1145
3005.0013329487924,1150
3006.7232715298996,1147
3008.4448993293804,1134
3010.166216659239,1138
3011.887223831558,1080
3013.607921158498,1124
3015.3283089522993,1121
3017.0483875252826,1111
3018.7681571898443,1130
3020.4876182584626,1083
3022.2067710436927,1169
3023.9256158581707,1126
3025.644153014609,1157
3027.362382825801,1113
3029.0803056046193,1127
3030.797921664012,1137
3032.5152313170106,1200
3034.2322348767225,1069
3035.9489326563353,1122
3037.665324969115,1066
3039.3814121284063,1067
3041.097194447633,1096
3042.812672240299,1164
3044.5278458199855,1086
3046.2427155003525,1161
3047.9572815951406,1138
3049.671544418167,1119
3051.38550428333,1146
3053.0991615046073,1114
3054.812516396051,1191
3056.5255692717974,1132
3058.2383204460575,1125
3059.9507702331257,1127
3061.662918947372,1100
3063.3747669032446,1115
3065.0863144152736,1202
3066.7975617980674,1137
3068.508509366309,1108
3070.219157434767,1155
3071.9295063182844,1132
3073.639556331785,1094
3075.3493077902704,1138
3077.058761008821,1152
3078.7679163025964,1129
3080.476773986837,1117
3082.1853343768594,1114
3083.89359778806,1158
3085.6015645359153,1159
3087.3092349359786,1105
3089.016609303884,1181
3090.7236879553434,1137
3092.4304712061476,1111
3094.136959372166,1089
3095.843152769349,1105
3097.5490517137237,1147
3099.2546565213966,1075
3100.959967508554,1099
3102.66498499146,1126
3104.3697092864577,1160
3106.0741407099695,1162
3107.778279578498,1125
3109.482126208622,1101
3111.1856809170004,1111
3112.8889440203716,1147
3114.5919158355528,1134
3116.294596679439,1154
3117.996986869006,1143
3119.6990867213062,1108
3121.4008965534726,1154
3123.102416682717,1192
3124.803647426329,1122
3126.5045891016784,1148
3128.205242026213,1138
3129.90560651746,1188
3131.605682893025,1112
3133.3054714705922,1126
3135.0049725679282,1178
3136.7041865028714,1133
3138.4031135933465,1189
3140.101754157353,1143
3141.800108512971,1145
3143.498176978357,1129
3145.1959598717494,1109
3146.8934575114636,1114
3148.5906702158954,1117
3150.2875983035183,1177
3151.9842420928853,1154
3153.680601902627,1106
3155.376678051456,1113
3157.07247085816,1071
3158.767980641609,1088
3160.463207720748,1146
3162.158152414606,1110
3163.8528150422862,1139
3165.5471959229726,1115
3167.2412953759303,1107
3168.9351137204976,1173
3170.628651276098,1157
3172.3219083622307,1112
3174.014885298474,1133
3175.707582404485,1174
3177.4000000000005,1127
3179.092138404835,1109
3180.7839979388846,1146
3182.47557892212,1094
3184.166881674594,1108
3185.8579065164386,1121
3187.5486537678626,1120
3189.2391237491547,1186
3190.9293167806827,1129
3192.6192331828934,1137
3194.3088732763117,1124
3195.998237381542,1159
3197.687325819268,1198
3199.376138910251,1107
3201.064676975334,1141
3202.7529403354347,1105
3204.4409293115523,1097
3206.1286442247647,1169
3207.816085396229,1099
3209.5032531471825,1113
3211.190147798936,1174
3212.8767696728846,1109
3214.5631190905015,1132
3216.2491963733373,1097
3217.9350018430214,1093
3219.6205358212637,1119
3221.305798629851,1088
3222.990790590651,1116
3224.6755120256103,1143
3226.359963256751,1088
3228.0441446061795,1103
3229.7280563960758,1091
3231.411698948703,1129
3233.0950725863995,1119
3234.778177631587,1125
3236.461014406761,1088
3238.1435832345005,1116
3239.8258844374595,1098
3241.507918338374,1146
3243.1896852600576,1165
3244.8711855254023,1108
3246.552419457381,1082
3248.233387379042,1134
3249.914089613516,1108
3251.59452648401,1104
3253.274698313813,1174
3254.95460542629,1124
3256.6342481448855,1148
3258.313626793125,1114
3259.9927416946084,1097
3261.6715931730196,1074
3263.3501815521176,1115
3265.0285071557437,1085
3266.706570307815,1120
3268.3843713323286,1086
3270.0619105533615,1071
3271.739188295068,1138
3273.4162048816834,1117
3275.0929606375184,1133
3276.769455886966,1113
3278.445690954498,1103
3280.1216661646613,1133
3281.797381842087,1187
3283.4728383114807,1153
3285.1480358976296,1131
3286.8229749253996,1147
3288.4976557197333,1113
3290.172078605655,1146
3291.846243908266,1128
3293.5201519527463,1134
3295.193803064357,1124
3296.8671975684374,1095
3298.5403357904024,1134
3300.21321805575,1105
3301.8858446900567,1161
3303.558216018975,1170
3305.23033236824,1149
3306.9021940636603,1150
3308.57380143113,1138
3310.2451547966184,1149
3311.916254486174,1131
3313.5871008259246,1092
3315.2576941420766,1164
3316.9280347609147,1103
3318.5981230088046,1076
3320.2679592121895,1099
3321.9375436975924,1097
3323.606876791612,1109
3325.27595882093,1102
3326.944790112305,1129
3328.6133709925753,1142
3330.2817017886573,1114
3331.949782827547,1105
3333.617614436319,1141
3335.2851969421245,1118
3336.952530672199,1112
3338.619615953853,1137
3340.286453114475,1160
3341.9530424815357,1086
3343.619384382583,1068
3345.2854791452437,1099
3346.951327097224,1098
3348.6169285663073,1109
3350.2822838803577,1128
3351.947393367319,1103
3353.61225735521,1114
3355.2768761721345,1142
3356.9412501462693,1130
3358.605379605873,1108
3360.2692648792827,1103
3361.9329062949146,1103
3363.596304181263,1130
