CollectionTime,7/11/2024 2:19:03 PM
ExposureUsed,3
CalibratedSpectrum
-962.7078968117929,415
-959.9714848408522,435
-957.2358232597828,432
-954.5009119013725,430
-951.7667505983302,453
-949.0333391832855,441
-946.3006774887896,449
-943.5687653473143,471
-940.837602591253,439
-938.1071890529199,432
-935.3775245645503,439
-932.6486089583007,448
-929.9204420662485,455
-927.1930237203925,445
-924.4663537526524,446
-921.7404319948689,462
-919.0152582788041,447
-916.2908324361409,452
-913.5671542984834,451
-910.8442236973568,446
-908.1220404642074,442
-905.4006044304027,452
-902.679915427231,448
-899.959973285902,438
-897.2407778375464,450
-894.5223289132158,447
-891.8046263438832,451
-889.0876699604426,438
-886.3714595937089,433
-883.6559950744183,463
-880.9412762332282,461
-878.2273029007168,429
-875.5140749073835,434
-872.8015920836489,457
-870.0898542598545,457
-867.3788612662631,444
-864.6686129330585,452
-861.9591090903457,458
-859.2503495681506,439
-856.5423341964203,428
-853.8350628050229,446
-851.1285352237478,455
-848.4227512823054,460
-845.7177108103272,460
-843.0134136373656,455
-840.3098595928943,431
-837.6070485063082,451
-834.9049802069229,443
-832.2036545239757,468
-829.5030712866244,442
-826.8032303239481,442
-824.1041314649472,455
-821.4057745385428,461
-818.7081593735775,451
-816.0112857988148,465
-813.3151536429393,466
-810.6197627345566,454
-807.9251129021936,449
-805.2312039742981,467
-802.5380357792392,463
-799.8456081453069,450
-797.1539209007124,470
-794.462973873588,466
-791.772766891987,473
-789.083299783884,486
-786.3945723771743,451
-783.7065844996748,461
-781.0193359791231,462
-778.3328266431781,443
-775.6470563194197,454
-772.9620248353489,448
-770.2777320183878,460
-767.5941776958798,454
-764.9113616950891,460
-762.2292838432011,464
-759.5479439673222,469
-756.8673418944801,471
-754.1874774516235,472
-751.5083504656222,466
-748.8299607632671,489
-746.15230817127,498
-743.475392516264,450
-740.7992136248035,488
-738.1237713233636,490
-735.4490654383407,501
-732.7750957960521,521
-730.1018622227365,480
-727.4293645445534,494
-724.7576025875837,494
-722.0865761778291,483
-719.4162851412126,468
-716.7467293035781,487
-714.0779084906909,474
-711.409822528237,499
-708.7424712418238,477
-706.0758544569796,483
-703.4099719991541,486
-700.7448236937178,474
-698.0804093659622,508
-695.4167288411002,498
-692.7537819442656,498
-690.0915685005134,479
-687.4300883348199,495
-684.7693412720819,496
-682.1093271371178,475
-679.4500457546669,502
-676.7914969493897,498
-674.1336805458676,479
-671.4765963686034,507
-668.8202442420206,498
-666.1646239904642,529
-663.5097354382001,504
-660.8555784094151,523
-658.2021527282176,498
-655.5494582186366,516
-652.8974947046223,496
-650.2462620100463,524
-647.5957599587009,501
-644.9459883742998,505
-642.2969470804776,525
-639.6486359007902,523
-637.0010546587141,515
-634.3542031776476,507
-631.7080812809096,530
-629.0626887917401,515
-626.4180255333008,518
-623.7740913286734,521
-621.1308860008619,555
-618.4884093727904,527
-615.8466612673046,541
-613.2056415071715,534
-610.5653499150785,530
-607.9257863136347,525
-605.28695052537,534
-602.6488423727357,533
-600.0114616781036,542
-597.3748082637674,539
-594.7388819519412,548
-592.1036825647604,537
-589.4692099242818,540
-586.8354638524829,559
-584.2024441712624,544
-581.5701507024403,542
-578.9385832677575,542
-576.3077416888759,529
-573.6776257873787,541
-571.0482353847704,526
-568.4195703024757,527
-565.7916303618415,519
-563.164415384135,549
-560.5379251905453,569
-557.9121596021815,541
-555.2871184400748,558
-552.6628015251767,545
-550.0392086783606,546
-547.4163397204204,540
-544.794194472071,538
-542.1727727539491,559
-539.5520743866118,569
-536.9320991905377,589
-534.3128469861261,573
-531.6943175936979,642
-529.0765108334947,624
-526.4594265256793,658
-523.8430644903358,734
-521.2274245474689,771
-518.612506517005,839
-515.9983102187913,789
-513.3848354725959,829
-510.77208209810846,842
-508.16004991493924,884
-505.5487387426199,950
-502.9381484006032,980
-500.3282787082628,1037
-497.71912948489364,885
-495.1107005497117,814
-492.5029917218539,728
-489.8960028203786,696
-487.28973366426493,666
-484.68418407241325,636
-482.07935386364494,648
-479.47524285670266,638
-476.87185087025,675
-474.2691777228715,658
-471.66722323307334,664
-469.0659872192821,662
-466.4654694998459,674
-463.86566989303384,646
-461.26658821703614,643
-458.66822428996414,652
-456.07057792985,666
-453.4736489546475,659
-450.877437182231,621
-448.28194243039627,666
-445.68716451686,683
-443.09310325926003,660
-440.49975847515555,634
-437.9071299820263,653
-435.31521759727354,672
-432.72402113821954,642
-430.13354042210767,662
-427.5437752661022,682
-424.95472548728867,685
-422.36639090267386,692
-419.7787713291855,694
-417.1918665836721,690
-414.60567648290385,682
-412.0202008435715,711
-409.4354394822874,707
-406.8513922155845,724
-404.26805885991723,706
-401.685439231661,718
-399.103533147112,728
-396.522340422488,692
-393.9418608739278,671
-391.3620943174908,676
-388.7830405691583,662
-386.2046994448317,655
-383.6270707603344,639
-381.05015433141045,649
-378.473949973725,591
-375.8984575028645,594
-373.32367673433623,541
-370.74960748356875,531
-368.1762495659117,499
-365.60360279663576,479
-363.03166699093265,456
-360.4604419639154,455
-357.8899275306178,438
-355.32012350599507,412
-352.7510297049233,398
-350.1826459421999,394
-347.61497203254316,385
-345.04800779059235,386
-342.4817530309082,417
-339.91620756797226,398
-337.35137121618743,395
-334.7872437898774,408
-332.22382510328725,402
-329.66111497058273,399
-327.09911320585127,424
-324.53781962310075,420
-321.9772340362607,407
-319.4173562591816,399
-316.8581861056348,386
-314.2997233893127,402
-311.7419679238294,412
-309.1849195227194,422
-306.62857799943856,451
-304.0729431673641,440
-301.51801483979375,426
-298.963792829947,438
-296.41027695096386,440
-293.85746701590574,451
-291.3053628377552,471
-288.7539642294155,455
-286.2032710037115,454
-283.65328297338897,435
-281.1039999511146,443
-278.5554217494762,456
-276.007548180983,460
-273.4603790580651,484
-270.9139141930734,495
-268.3681533982807,467
-265.8230964858798,507
-263.27874326798565,521
-260.7350935566336,497
-258.1921471637804,533
-255.6499039013039,510
-253.10836358100266,523
-250.56752601459698,508
-248.02739101372765,463
-245.48795838995704,508
-242.94922795476816,530
-240.41119951956557,518
-237.8738728956746,529
-235.33724789434166,558
-232.80132432673452,512
-230.2661020039418,520
-227.73158073697357,537
-225.19776033676033,542
-222.66464061415422,536
-220.1322213799284,546
-217.60050244477725,521
-215.06948361931552,536
-212.53916471408013,540
-210.00954553952818,590
-207.48062590603843,581
-204.9524056239104,575
-202.4248845033651,580
-199.8980623545441,552
-197.37193898751036,563
-194.84651421224817,554
-192.32178783866232,575
-189.79775967657952,586
-187.27442953574644,617
-184.7517972258321,666
-182.2298625564256,623
-179.7086253370378,554
-177.18808537710026,548
-174.66824248596583,536
-172.14909647290835,571
-169.6306471471229,616
-167.11289431772548,654
-164.59583779375328,602
-162.07947738416453,617
-159.5638128978386,608
-157.04884414357605,682
-154.53457093009854,761
-152.02099306604828,708
-149.50811035998936,694
-146.99592262040665,717
-144.48442965570587,733
-141.97363127421409,751
-139.46352728417958,790
-136.95411749377126,812
-134.44540171107985,831
-131.93737974411636,740
-129.43005140081357,676
-126.92341648902493,749
-124.41747481652521,949
-121.91222619101006,1061
-119.40767042009657,1243
-116.90380731132257,1294
-114.40063667214702,1198
-111.8981583099503,1227
-109.3963720320337,1056
-106.89527764561933,959
-104.39487495785067,1004
-101.89516377579241,1110
-99.39614390642998,1411
-96.89781515667039,1530
-94.40017733334128,1565
-91.90323024319173,1665
-89.40697369289148,1729
-86.91140748903172,1964
-84.41653143812482,1842
-81.92234534660395,1580
-79.42884902082358,1457
-76.93604226705907,2096
-74.4439248915071,3632
-71.95249670028534,5241
-69.46175749943245,7119
-66.97170709490854,7654
-64.48234529259423,7555
-61.99367189829195,7080
-59.50568671772464,7010
-57.01838955653636,5865
-54.53178022029283,4378
-52.045858514480074,4826
-49.560624244506016,6023
-47.07607721569923,7678
-44.59221723330904,9332
-42.10904410250669,10027
-39.62655762838392,9610
-37.14475761595372,9192
-34.66364387015028,9145
-32.18321619582866,9886
-29.70347439776515,10807
-27.224418280657005,12269
-24.74604764912317,12766
-22.26836230770266,13296
-19.7913620608565,16487
-17.315046712966478,22310
-14.83941606833514,26527
-12.36446993118659,32566
-9.89020810566592,65038
-7.416630395839093,65038
-4.94373660569363,65038
-2.471526539137585,65038
-6.821210263296962E-13,65038
2.47084320796705,65038
4.941003281093458,65038
7.410480415786196,65038
9.879274808531363,65038
12.347386655893956,65038
14.814816154518212,65038
17.28156350112681,65038
19.74762889252179,65038
22.21301252558385,20314
24.67771459727237,3375
27.141735304626195,1867
29.605074844762612,1597
32.06773341487792,1434
34.52971121224755,1384
36.99100843422559,1274
39.45162527824516,1532
41.91156194181792,1462
44.370818622535126,1085
46.82939551806646,986
49.287292826160524,1000
51.74451074464503,1057
54.201049471426245,1251
56.65690920448981,1110
59.112090141899785,915
61.56659248179983,874
64.02041642241159,855
66.4735621620365,816
68.92602989905402,779
71.37781983192338,851
73.82893215918205,939
76.27936707944684,937
78.72912479141326,949
81.17820549385567,889
83.62660938562783,842
86.07433666566146,853
88.5213875329681,766
90.96776218663751,737
93.41346082583925,697
95.85848364982041,768
98.30283085790859,891
100.7465026495089,813
103.18949922410604,799
105.63182078126385,797
108.07346752062438,771
110.51443964190923,781
112.95473734491827,707
115.39436082953114,668
117.83331029570547,721
120.27158594347827,792
122.7091879729652,843
125.1461165843615,908
127.58237197794062,883
130.01795435405518,772
132.4528639131364,741
134.88710085569494,763
137.32066538231982,724
139.75355769367923,742
142.1857779905207,714
144.61732647366978,708
147.04820334403132,690
149.47840880258934,724
151.90794305040674,761
154.33680628862487,820
156.76499871846443,973
159.19252054122433,1094
161.61937195828352,1097
164.04555317109896,1149
166.47106438120693,1275
168.89590579022217,1350
171.320077599839,1396
173.7435800118302,1412
176.16641322804742,1577
178.58857745042144,1527
181.01007288096173,1541
183.43089972175687,1566
185.85105817497413,1588
188.27054844285988,1574
190.6893707277394,1645
193.10752523201643,1687
195.5250121581745,1728
197.9418317087751,1778
200.3579840864594,1675
202.7734694939469,1726
205.18828813403627,1779
207.6024402096051,1861
210.01592592360964,1812
212.42874547908548,1809
214.84089907914665,1800
217.2523869269868,1783
219.66320922587727,1789
222.0733661791695,1827
224.48285799029293,1783
226.8916848627572,1804
229.29984700014882,1900
231.7073446061355,1832
234.11417788446204,1776
236.520347038953,1799
238.92585227351185,1931
241.33069379212054,1923
243.73487179884035,1887
246.1383864978112,1959
248.541238093252,1939
250.9434267894609,1992
253.34495279081432,1955
255.74581630176783,1996
258.1460175268563,1912
260.54555667069314,1994
262.9444339379703,2029
265.3426495334594,1922
267.7402036620107,1872
270.1370965285529,1932
272.53332833809407,1825
274.9288992957214,1793
277.32380960660055,1792
279.718059475976,1813
282.1116491091717,1738
284.5045787115897,1731
286.89684848871195,1775
289.2884586460981,1718
291.67940938938807,1767
294.0697009242996,1706
296.4593334566299,1814
298.84830719225477,1819
301.23662233712923,1737
303.6242790972866,1768
306.01127767884,1726
308.39761828798066,1752
310.78330113097934,1724
313.16832641418534,1613
315.5526943440269,1656
317.9364051270112,1631
320.3194589697242,1671
322.70185607883093,1614
325.0835966610754,1602
327.4646809232805,1625
329.8451090723478,1612
332.2248813152577,1553
334.6039978590701,1523
336.9824589109231,1525
339.36026467803447,1599
341.7374153677,1559
344.113911187295,1492
346.48975234427337,1490
348.8649390461686,1529
351.2394715005918,1548
353.61334991523415,1570
355.9865744978655,1524
358.35914545633375,1494
360.73106299856715,1517
363.10232733257146,1472
365.47293866643247,1500
367.84289720831396,1531
370.2122031664593,1518
372.5808567491905,1477
374.9488581649083,1515
377.31620762209275,1397
379.6829053293021,1431
382.0489514951745,1475
384.4143463284262,1462
386.7790900378528,1413
389.14318283232853,1481
391.50662492080653,1438
393.86941651231916,1415
396.23155781597745,1493
398.5930490409713,1393
400.9538903965696,1383
403.3140820921202,1441
405.6736243370498,1408
408.03251734086336,1500
410.3907613131465,1352
412.74835646356166,1363
415.10530300185144,1430
417.4616011378372,1421
419.81725108141893,1471
422.1722530425758,1357
424.5266072313656,1456
426.880313857925,1438
429.2333731324701,1401
431.58578526529516,1395
433.9375504667738,1398
436.2886689473588,1386
438.63914091758113,1430
440.9889665880513,1349
443.33814616945835,1410
445.68667987257015,1370
448.03456790823395,1360
450.3818104873759,1371
452.72840782100013,1392
455.07436012019105,1402
457.41966759611057,1384
459.7643304600007,1362
462.10834892318155,1326
464.4517231970525,1371
466.79445349309174,1396
469.1365400228566,1371
471.4779829979826,1375
473.81878263018564,1348
476.15893913125876,1360
478.4984527130747,1378
480.8373235875855,1348
483.17555196682144,1437
485.5131380628919,1398
487.8500820879857,1435
490.1863842543697,1497
492.52204477439034,1501
494.8570638604725,1559
497.1914417251204,1648
499.52517858091653,1748
501.85827464052306,1983
504.19073011668036,2071
506.5225452222086,2183
508.85372017000566,2292
511.18425517304956,2319
513.514150444396,2405
515.8434061971808,2729
518.1720226446176,3408
520.4999999999999,3479
522.8273384766991,3236
525.1540382881666,2974
527.480099647932,2715
529.8055227696037,2285
532.1303078668694,1867
534.454455153496,1531
536.777964843328,1539
539.1008371502907,1407
541.4230722883866,1442
543.744670471698,1405
546.0656319143858,1443
548.3859568306899,1374
550.7056454349294,1438
553.0246979415016,1391
555.3431145648834,1403
557.6608955196306,1415
559.978041020377,1321
562.2945512818363,1415
564.6104265188006,1374
566.9256669461412,1398
569.2402727788082,1295
571.5542442318302,1401
573.8675815203156,1453
576.1802848594508,1380
578.4923544645015,1402
580.8037905508126,1438
583.114593333807,1475
585.4247630289875,1383
587.7342998519354,1371
590.0432040183106,1407
592.3514757438526,1443
594.6591152443794,1426
596.9661227357875,1356
599.2724984340531,1435
601.578242555231,1407
603.8833553154542,1414
606.1878369309362,1426
608.4916876179676,1457
610.7949075929192,1418
613.0974970722403,1420
615.3994562724587,1412
617.7007854101818,1431
620.0014847020951,1394
622.3015543649641,1458
624.6009946156324,1396
626.8998056710224,1387
629.1979877481361,1462
631.4955410640538,1431
633.7924658359349,1426
636.0887622810175,1511
638.3844306166192,1413
640.6794710601358,1407
642.9738838290426,1371
645.2676691408932,1482
647.5608272133207,1430
649.853358264037,1424
652.1452625108324,1454
654.4365401715764,1405
656.7271914642178,1426
659.0172166067838,1452
661.3066158173809,1475
663.5953893141935,1505
665.8835373154867,1427
668.1710600396028,1486
670.4579577049639,1428
672.7442305300709,1452
675.0298787335033,1476
677.3149025339197,1437
679.599302150058,1468
681.8830778007342,1486
684.1662297048437,1523
686.4487580813608,1437
688.7306631493387,1449
691.0119451279091,1530
693.2926042362834,1473
695.5726406937516,1483
697.8520547196814,1437
700.1308465335215,1453
702.4090163547982,1450
704.6865644031171,1442
706.9634908981619,1452
709.2397960596965,1370
711.5154801075631,1444
713.7905432616823,1481
716.0649857420548,1499
718.3388077687592,1459
720.612009561953,1440
722.8845913418733,1431
725.1565533288352,1451
727.427895743234,1456
729.6986188055427,1455
731.9687227363137,1390
734.238207756178,1421
736.5070740858458,1415
738.7753219461066,1372
741.0429515578281,1476
743.3099631419569,1493
745.5763569195191,1462
747.8421331116193,1405
750.1072919394409,1366
752.3718336242467,1440
754.6357583873777,1472
756.8990664502545,1482
759.1617580343765,1482
761.423833361321,1440
763.6852926527457,1476
765.9461361303862,1406
768.206364016058,1392
770.4659765316536,1468
772.7249738991469,1503
774.9833563405886,1469
777.2411240781092,1416
779.4982773339183,1464
781.7548163303044,1458
784.010741289634,1490
786.2660524343538,1464
788.5207499869881,1466
790.7748341701416,1505
793.0283052064964,1471
795.2811633188143,1499
797.5334087299362,1465
799.7850416627813,1429
802.0360623403484,1442
804.2864709857143,1490
806.5362678220353,1490
808.7854530725468,1492
811.0340269605625,1539
813.2819897094754,1461
815.5293415427581,1481
817.77608268396,1446
820.0222133567116,1511
822.2677337847211,1498
824.5126441917765,1531
826.7569448017433,1556
829.0006358385675,1484
831.2437175262731,1398
833.4861900889629,1444
835.7280537508192,1447
837.9693087361026,1425
840.2099552691533,1461
842.4499935743896,1455
844.689423876309,1483
846.9282463994886,1451
849.1664613685833,1441
851.4040690083276,1516
853.6410695435349,1490
855.877463199097,1502
858.1132501999847,1449
860.3484307712487,1459
862.5830051380175,1478
864.8169735254988,1498
867.0503361589791,1511
869.2830932638243,1475
871.5152450654786,1473
873.7467917894654,1459
875.9777336613873,1491
878.2080709069252,1507
880.4378037518389,1497
882.666932421968,1473
884.8954571432301,1487
887.1233781416219,1475
889.3506956432192,1493
891.5774098741766,1447
893.803521060728,1475
896.0290294291852,1477
898.2539352059397,1491
900.4782386174619,1448
902.7019398903011,1393
904.925039251085,1409
907.147536926521,1443
909.3694331433943,1440
911.59072812857,1454
913.8114221089921,1439
916.0315153116827,1389
918.2510079637437,1416
920.4699002923547,1364
922.6881925247761,1399
924.905884888345,1390
927.1229776104793,1405
929.3394709186747,1409
931.555365040506,1425
933.7706602036275,1417
935.9853566357709,1379
938.1994545647489,1431
940.4129542184515,1426
942.6258558248488,1441
944.8381596119883,1431
947.0498658079974,1439
949.2609746410825,1430
951.4714863395287,1429
953.6814011316998,1424
955.8907192460387,1428
958.0994409110671,1368
960.3075663553858,1379
962.5150958076741,1400
964.7220294966913,1342
966.928367651274,1394
969.1341105003388,1366
971.3392582728806,1382
973.5438111979742,1384
975.747769504772,1341
977.9511334225061,1396
980.153903180487,1367
982.3560790081052,1398
984.5576611348289,1407
986.7586497902058,1385
988.9590452038618,1369
991.158847605503,1291
993.3580572249133,1312
995.5566742919558,1331
997.7546990365728,1319
999.952131688785,1262
1002.1489724786926,1299
1004.3452216364743,1277
1006.5408793923874,1249
1008.7359459767691,1230
1010.9304216200343,1306
1013.1243065526781,1260
1015.3176010052733,1213
1017.510305208472,1289
1019.7024193930064,1168
1021.8939437896848,1215
1024.0848786293977,1237
1026.2752241431122,1276
1028.4649805618747,1208
1030.6541481168115,1229
1032.842727039127,1178
1035.0307175601051,1182
1037.2181199111074,1226
1039.4049343235752,1198
1041.591161029029,1202
1043.7768002590683,1182
1045.9618522453698,1208
1048.1463172196918,1228
1050.3301954138697,1168
1052.513487059818,1162
1054.69619238953,1139
1056.8783116350783,1159
1059.0598450286152,1218
1061.2407928023704,1202
1063.4211551886528,1191
1065.6009324198508,1227
1067.780124728432,1125
1069.9587323469414,1159
1072.1367555080046,1168
1074.314194444325,1200
1076.4910493886855,1119
1078.667320573947,1175
1080.843008233051,1162
1083.0181125990161,1169
1085.1926339049414,1119
1087.3665723840027,1133
1089.5399282694575,1176
1091.7127017946405,1085
1093.8848931929647,1107
1096.0565026979243,1144
1098.2275305430899,1138
1100.3979769621128,1092
1102.567842188722,1163
1104.737126456726,1134
1106.9058300000124,1177
1109.0739530525475,1119
1111.2414958483764,1103
1113.4084586216231,1127
1115.5748416064907,1130
1117.7406450372605,1145
1119.9058691482942,1098
1122.0705141740304,1130
1124.2345803489884,1118
1126.3980679077658,1150
1128.5609770850388,1076
1130.7233081155623,1112
1132.8850612341707,1098
1135.0462366757774,1086
1137.2068346753745,1120
1139.3668554680326,1088
1141.526299288901,1081
1143.68516637321,1085
1145.8434569562655,1058
1148.001171273455,1098
1150.158309560244,1117
1152.3148720521767,1117
1154.470858984876,1126
1156.626270594044,1062
1158.7811071154629,1087
1160.9353687849912,1154
1163.089055838569,1129
1165.242168512213,1091
1167.3947070420209,1056
1169.5466716641677,1046
1171.6980626149075,1091
1173.8488801305748,1103
1175.9991244475814,1104
1178.1487958024186,1126
1180.2978944316555,1116
1182.4464205719428,1109
1184.5943744600072,1063
1186.7417563326567,1080
1188.8885664267755,1075
1191.0348049793297,1071
1193.1804722273619,1083
1195.325568407995,1073
1197.4700937584303,1098
1199.614048515948,1089
1201.7574329179074,1089
1203.900247201746,1057
1206.042491604982,1091
1208.1841663652099,1055
1210.3252717201053,1050
1212.465807907422,1059
1214.6057751649923,1061
1216.7451737307279,1098
1218.8840038426192,1093
1221.0222657387353,1093
1223.1599596572241,1148
1225.2970858363137,1098
1227.4336445143094,1074
1229.5696359295966,1104
1231.705060320639,1128
1233.8399179259786,1088
1235.9742089842384,1116
1238.107933734118,1084
1240.2410924143974,1106
1242.373685263935,1138
1244.5057125216676,1083
1246.6371744266116,1079
1248.7680712178621,1134
1250.898403134593,1164
1253.028170416058,1080
1255.1573733015875,1160
1257.2860120305932,1135
1259.4140868425648,1207
1261.54159797707,1139
1263.6685456737569,1128
1265.7949301723515,1075
1267.9207517126597,1152
1270.046010534565,1157
1272.1707068780306,1141
1274.2948409830983,1179
1276.4184130898889,1085
1278.541423438603,1167
1280.6638722695184,1142
1282.785759822993,1159
1284.9070863394636,1200
1287.0278520594447,1212
1289.1480572235314,1251
1291.2677020723963,1184
1293.3867868467923,1173
1295.5053117875495,1217
1297.623277135579,1243
1299.740683131868,1259
1301.8575300174857,1207
1303.973818033578,1261
1306.0895474213703,1258
1308.2047184221678,1264
1310.3193312773528,1315
1312.4333862283888,1315
1314.5468835168163,1242
1316.659823384255,1296
1318.7722060724045,1340
1320.8840318230418,1301
1322.9953008780249,1267
1325.1060134792888,1327
1327.2161698688478,1259
1329.3257702887959,1237
1331.4348149813054,1331
1333.5433041886276,1322
1335.6512381530933,1312
1337.7586171171101,1262
1339.8654413231675,1290
1341.9717110138317,1283
1344.0774264317488,1229
1346.1825878196432,1327
1348.2871954203192,1250
1350.3912494766587,1291
1352.4947502316231,1288
1354.5976979282532,1203
1356.7000928096686,1261
1358.8019351190665,1244
1360.9032250997243,1233
1363.0039629949988,1240
1365.1041490483235,1198
1367.2037835032133,1216
1369.3028666032606,1189
1371.401398592137,1261
1373.4993797135926,1189
1375.5968102114575,1242
1377.6936903296396,1199
1379.7900203121262,1202
1381.8858004029835,1219
1383.9810308463561,1232
1386.075711886469,1221
1388.1698437676241,1171
1390.2634267342032,1203
1392.356461030667,1209
1394.4489469015557,1214
1396.5408845914872,1228
1398.6322743451592,1236
1400.7231164073469,1193
1402.813411022907,1201
1404.903158436773,1175
1406.9923588939578,1217
1409.0810126395531,1221
1411.1691199187303,1196
1413.2566809767386,1178
1415.343696058907,1236
1417.4301654106425,1191
1419.5160892774315,1191
1421.6014679048399,1196
1423.6863015385125,1224
1425.7705904241707,1286
1427.8543348076178,1244
1429.9375349347342,1194
1432.0201910514802,1201
1434.102303403894,1251
1436.1838722380944,1226
1438.2648978002767,1232
1440.3453803367174,1243
1442.4253200937692,1274
1444.5047173178677,1310
1446.5835722555234,1286
1448.6618851533285,1346
1450.739656257952,1335
1452.8168858161434,1280
1454.8935740747306,1311
1456.96972128062,1308
1459.045327680797,1320
1461.120393522327,1384
1463.1949190523528,1320
1465.2689045180973,1402
1467.3423501668608,1330
1469.415256246024,1413
1471.4876230030463,1365
1473.559450685465,1386
1475.6307395408976,1352
1477.7014898170391,1421
1479.771701761665,1425
1481.8413756226287,1462
1483.9105116478618,1467
1485.9791100853772,1450
1488.0471711832643,1486
1490.1146951896926,1513
1492.1816823529098,1473
1494.2481329212433,1462
1496.3140471430984,1431
1498.3794252669609,1511
1500.4442675413939,1481
1502.5085742150404,1551
1504.572345536622,1534
1506.6355817549388,1577
1508.6982831188702,1538
1510.7604498773744,1536
1512.8220822794883,1574
1514.8831805743293,1572
1516.9437450110909,1567
1519.003775839048,1626
1521.0632733075522,1693
1523.1222376660367,1656
1525.1806691640113,1615
1527.2385680510652,1643
1529.2959345768668,1610
1531.3527689911643,1687
1533.4090715437833,1640
1535.4648424846291,1677
1537.5200820636855,1625
1539.5747905310159,1686
1541.6289681367616,1685
1543.6826151311434,1699
1545.7357317644614,1716
1547.7883182870937,1807
1549.8403749494987,1840
1551.8919020022113,1787
1553.9428996958477,1875
1555.9933682811015,1910
1558.0433080087469,1949
1560.0927191296346,1931
1562.1416018946961,1947
1564.1899565549415,1966
1566.2377833614592,1929
1568.2850825654164,1962
1570.3318544180606,1935
1572.3780991707158,1937
1574.423817074788,1893
1576.4690083817595,1882
1578.5136733431923,1796
1580.5578122107272,1721
1582.601425236085,1741
1584.6445126710646,1663
1586.6870747675434,1604
1588.7291117774776,1611
1590.7706239529034,1577
1592.8116115459347,1541
1594.8520748087658,1499
1596.8920139936686,1478
1598.9314293529933,1504
1600.9703211391711,1453
1603.008689604711,1400
1605.0465350022005,1409
1607.0838575843068,1356
1609.1206576037753,1377
1611.1569353134305,1354
1613.1926909661765,1309
1615.2279248149953,1259
1617.2626371129481,1295
1619.2968281131757,1244
1621.3304980688963,1235
1623.3636472334088,1193
1625.39627586009,1178
1627.428384202396,1248
1629.459972513861,1200
1631.4910410480993,1186
1633.5215900588028,1160
1635.551619799744,1168
1637.5811305247717,1144
1639.6101224878166,1090
1641.6385959428862,1136
1643.6665511440683,1149
1645.693988345528,1116
1647.7209078015112,1079
1649.7473097663405,1123
1651.7731944944203,1143
1653.7985622402307,1132
1655.823413258333,1144
1657.847747803366,1085
1659.8715661300494,1130
1661.8948684931793,1101
1663.9176551476316,1134
1665.9399263483624,1121
1667.9616823504057,1117
1669.982923408873,1110
1672.0036497789574,1085
1674.0238617159293,1090
1676.043559475138,1156
1678.0627433120121,1113
1680.081413482059,1106
1682.0995702408654,1061
1684.117213844096,1155
1686.134344547495,1103
1688.1509626068864,1105
1690.1670682781705,1145
1692.182661817329,1114
1694.1977434804217,1106
1696.2123135235875,1071
1698.226372203043,1061
1700.2399197750851,1121
1702.2529564960905,1164
1704.2654826225112,1165
1706.277498410882,1107
1708.2890041178139,1102
1710.2999999999988,1061
1712.3104863142066,1121
1714.3204633172854,1094
1716.329931266163,1097
1718.3388904178469,1069
1720.3473410294214,1109
1722.3552833580516,1124
1724.3627176609807,1090
1726.3696441955308,1127
1728.3760632191033,1127
1730.3819749891782,1126
1732.3873797633146,1131
1734.3922777991502,1094
1736.3966693544012,1097
1738.4005546868639,1087
1740.4039340544127,1091
1742.406807715001,1082
1744.4091759266616,1084
1746.4110389475054,1082
1748.4123970357223,1073
1750.413250449582,1089
1752.4135994474318,1086
1754.4134442876993,1031
1756.4127852288902,1112
1758.4116225295893,1073
1760.4099564484595,1054
1762.407787244244,1056
1764.405115175764,1130
1766.4019405019203,1136
1768.3982634816916,1074
1770.3940843741357,1110
1772.3894034383907,1058
1774.3842209336717,1079
1776.378537119274,1059
1778.372352254571,1109
1780.3656665990156,1029
1782.3584804121397,1100
1784.3507939535534,1070
1786.3426074829463,1044
1788.3339212600863,1098
1790.3247355448211,1094
1792.3150505970766,1081
1794.3048666768573,1040
1796.2941840442477,1075
1798.2830029594106,1081
1800.2713236825884,1114
1802.2591464741004,1076
1804.2464715943465,1044
1806.2332993038058,1103
1808.2196298630352,1073
1810.2054635326708,1107
1812.190800573428,1055
1814.175641246101,1068
1816.1599858115628,1072
1818.1438345307652,1102
1820.127187664738,1087
1822.1100454745924,1060
1824.092408221516,1056
1826.0742761667766,1028
1828.055649571721,1021
1830.0365286977735,1036
1832.0169138064398,1076
1833.9968051593014,1071
1835.9762030180214,1101
1837.9551076443408,1037
1839.9335193000788,1116
1841.9114382471344,1097
1843.888864747485,1107
1845.8657990631878,1056
1847.842241456378,1103
1849.8181921892697,1084
1851.7936515241558,1047
1853.7686197234098,1093
1855.7430970494815,1075
1857.7170837649014,1089
1859.6905801322787,1084
1861.6635864143004,1066
1863.6361028737338,1095
1865.608129773424,1063
1867.5796673762961,994
1869.5507159453537,1057
1871.521275743678,1068
1873.4913470344313,1093
1875.4609300808534,1080
1877.4300251462632,1089
1879.3986324940588,1099
1881.366752387717,1099
1883.3343850907936,1141
1885.3015308669228,1116
1887.268189979819,1047
1889.2343626932739,1092
1891.2000492711595,1119
1893.1652499774254,1089
1895.1299650761011,1048
1897.0941948312952,1112
1899.0579395071945,1072
1901.0211993680641,1114
1902.98397467825,1118
1904.9462657021745,1117
1906.9080727043415,1108
1908.869395949332,1115
1910.8302357018065,1127
1912.790592226504,1125
1914.7504657882428,1097
1916.7098566519212,1077
1918.6687650825133,1044
1920.6271913450764,1101
1922.5851357047422,1116
1924.5425984267245,1088
1926.499579776314,1099
1928.4560800188833,1076
1930.4120994198802,1090
1932.367638244833,1076
1934.32269675935,1073
1936.2772752291175,1116
1938.231373919899,1137
1940.1849930975404,1053
1942.1381330279637,1102
1944.0907939771696,1055
1946.0429762112412,1040
1947.9946799963363,1107
1949.9459055986945,1100
1951.896653284633,1093
1953.8469233205478,1099
1955.7967159729142,1055
1957.7460315082863,1068
1959.6948701932974,1079
1961.6432322946594,1088
1963.5911180791632,1075
1965.5385278136787,1110
1967.4854617651545,1097
1969.4319202006182,1073
1971.377903387176,1142
1973.3234115920136,1101
1975.268445082395,1089
1977.2130041256642,1062
1979.1570889892423,1096
1981.1006999406304,1086
1983.04383724741,1094
1984.986501177238,1126
1986.928691997853,1116
1988.8704099770712,1053
1990.811655382789,1034
1992.7524284829801,1059
1994.692729545698,1064
1996.6325588390755,1049
1998.5719166313224,1101
2000.5108031907307,1078
2002.4492187856677,1099
2004.387163684583,1068
2006.3246381560011,1086
2008.2616424685298,1022
2010.1981768908527,1074
2012.1342416917332,1064
2014.069837140014,1047
2016.0049635046162,1079
2017.9396210545406,1053
2019.8738100588666,1025
2021.8075307867502,1058
2023.740783507431,1033
2025.6735684902228,1061
2027.6058860045214,1024
2029.5377363198004,1073
2031.4691197056118,1015
2033.4000364315875,1030
2035.3304867674374,1078
2037.260470982952,1015
2039.189989347998,1105
2041.1190421325232,1054
2043.047629606554,1046
2044.9757520401945,1061
2046.9034097036288,1060
2048.8306028671195,1072
2050.7573318010086,1096
2052.683596775716,1022
2054.609398061742,1037
2056.5347359296647,1038
2058.4596106501403,1036
2060.384022493906,1075
2062.3079717317764,1093
2064.231458634646,1110
2066.1544834734873,1074
2068.077046519352,1058
2069.99914804337,1057
2071.9207883167524,1029
2073.8419676107865,1039
2075.7626861968406,1071
2077.6829443463607,1031
2079.6027423308715,1016
2081.522080421977,1083
2083.440958891362,1040
2085.359378010786,1037
2087.2773380520907,1080
2089.194839287196,1064
2091.111881988101,1057
2093.0284664268825,1060
2094.9445928756973,1032
2096.86026160678,1023
2098.775472892446,1022
2100.690227005088,1032
2102.604524217178,1036
2104.5183648012676,1040
2106.431749029985,1027
2108.34467717604,1082
2110.2571495122206,1060
2112.169166311393,1025
2114.080727846503,1048
2115.9918343905747,1037
2117.902486216711,1029
2119.8126835980956,1042
2121.722426807987,1074
2123.6317161197285,1048
2125.5405518067364,1081
2127.448934142509,1040
2129.356863400624,1045
2131.264339854737,1037
2133.1713637785815,1077
2135.077935445972,1021
2136.9840551308002,1094
2138.889723107037,1052
2140.7949396487334,1074
2142.699705030018,1078
2144.6040195250994,1103
2146.507883408264,1105
2148.4112969538774,1041
2150.3142604363848,1129
2152.2167741303097,1046
2154.1188383102535,1090
2156.0204532508997,1016
2157.9216192270064,1058
2159.822336513414,1077
2161.7226053850413,1061
2163.622426116884,1066
2165.5217989840185,1081
2167.4207242616,1051
2169.319202224862,1044
2171.2172331491165,1053
2173.1148173097563,1074
2175.0119549822507,1028
2176.90864644215,1091
2178.8048919650823,1076
2180.7006918267534,1087
2182.596046302952,1082
2184.4909556695407,1062
2186.3854202024645,1074
2188.279440177746,1061
2190.173015871487,1094
2192.066147559868,1112
2193.958835519149,1102
2195.851080025667,1102
2197.7428813558417,1088
2199.6342397861667,1076
2201.5251555932186,1065
2203.415629053651,1155
2205.3056604441986,1090
2207.19525004167,1087
2209.084398122958,1051
2210.9731049650327,1076
2212.861370844941,1102
2214.749196039812,1047
2216.636580826851,1094
2218.523525483344,1102
2220.410030286655,1106
2222.296095514226,1148
2224.1817214435805,1108
2226.066908352319,1127
2227.951656518121,1087
2229.835966218746,1109
2231.71983773203,1080
2233.6032713358913,1144
2235.486267308324,1083
2237.3688259274036,1108
2239.2509474712824,1154
2241.132632218193,1092
2243.013880446447,1132
2244.8946924344323,1162
2246.7750684606203,1137
2248.6550088035574,1112
2250.534513741871,1119
2252.413583554265,1078
2254.292218519526,1143
2256.170418916517,1103
2258.0481850241786,1135
2259.925517121534,1070
2261.8024154876825,1127
2263.678880401803,1121
2265.5549121431536,1131
2267.430510991071,1130
2269.305677224971,1131
2271.180411124348,1099
2273.0547129687766,1058
2274.9285830379076,1133
2276.8020216114737,1094
2278.6750289692845,1102
2280.5476053912294,1087
2282.4197511572766,1125
2284.2914665474727,1106
2286.162751841943,1104
2288.0336073208937,1159
2289.904033264608,1112
2291.774029953448,1074
2293.6435976678554,1120
2295.5127366883517,1106
2297.381447295534,1051
2299.2497297700825,1081
2301.1175843927526,1014
2302.9850114443825,1032
2304.852011205885,1029
2306.7185839582553,1024
2308.5847299825664,1013
2310.4504495599676,1044
2312.3157429716925,991
2314.1806104990483,1044
2316.0450524234247,1020
2317.9090690262888,1013
2319.772660589186,1030
2321.635827393742,987
2323.498569721661,990
2325.3608878547248,1013
2327.2227820747967,996
2329.0842526638157,1024
2330.945299903803,1025
2332.805924076857,997
2334.6661254651535,975
2336.525904350951,990
2338.3852610165827,991
2340.244195744464,988
2342.102708817088,975
2343.9608005170253,1026
2345.8184711269287,1034
2347.675720929526,982
2349.532550207628,1026
2351.38895924412,968
2353.24494832197,974
2355.100517724223,1004
2356.955667734004,1002
2358.810398634514,995
2360.664710709037,1021
2362.5186042409337,1024
2364.3720795136437,963
2366.225136810686,1004
2368.0777764156583,979
2369.929998612237,983
2371.7818036841777,992
2373.633191915315,1021
2375.484163589562,1026
2377.3347189909114,992
2379.184858403434,1042
2381.03458211128,996
2382.8838903986775,1021
2384.732783549936,993
2386.5812618494406,980
2388.4293255816588,1009
2390.2769750311327,1031
2392.1242104824883,1017
2393.971032220427,982
2395.8174405297295,1020
2397.6634356952563,983
2399.509018001947,1005
2401.3541877348193,1034
2403.1989451789705,1030
2405.043290619576,1018
2406.8872243418905,1044
2408.730746631247,963
2410.5738577730594,1025
2412.4165580528183,1047
2414.258847756095,1001
2416.100727168537,997
2417.9421965758734,1061
2419.783256263912,1012
2421.623906518538,1020
2423.4641476257157,986
2425.303979871491,1013
2427.143403541984,1009
2428.9824189233977,992
2430.821026302012,1080
2432.6592259641866,1019
2434.497018196361,1047
2436.33440328505,1039
2438.171381516851,998
2440.00795317844,972
2441.844118556569,1032
2443.6798779380724,1066
2445.5152316098606,1017
2447.3501798589255,1041
2449.1847229723357,1032
2451.0188612372403,1038
2452.8525949408663,1042
2454.6859243705203,983
2456.518849813587,1014
2458.3513715575314,1027
2460.183489889895,996
2462.015205098301,1029
2463.8465174704493,987
2465.67742729412,1027
2467.5079348571717,1008
2469.338040447542,1041
2471.1677443532476,1029
2472.9970468623833,1019
2474.825948263123,1025
2476.6544488437207,1050
2478.482548892508,1045
2480.310248697896,1018
2482.137548548374,1026
2483.9644487325118,1060
2485.790949538956,1058
2487.617051256433,1059
2489.44275417375,1076
2491.26805857979,1103
2493.0929647635157,1062
2494.917473013971,1008
2496.741583620276,1030
2498.5652968716304,1046
2500.3886130573137,1042
2502.2115324666834,1004
2504.0340553891765,1077
2505.856182114308,1024
2507.6779129316733,1047
2509.499248130945,1040
2511.3201880018764,1064
2513.140732834298,1045
2514.9608829181198,1070
2516.780638543331,1077
2518.6,1056
2520.418967578273,1065
2522.237541568376,1094
2524.0557222606144,1071
2525.8735099453706,1014
2527.6909049131086,1038
2529.507907454368,1040
2531.32451785977,1093
2533.140736420014,1055
2534.9565634258774,1040
2536.771999168218,1094
2538.5870439379714,1106
2540.4016980261526,1101
2542.2159617238544,1124
2544.02983532225,1073
2545.8433191125914,1169
2547.656413386209,1159
2549.4691184345115,1149
2551.2814345489874,1163
2553.093362021204,1143
2554.904901142808,1154
2556.716052205523,1128
2558.526815501153,1115
2560.3371913215824,1172
2562.147179958771,1135
2563.956781704761,1157
2565.7659968516705,1162
2567.5748256916986,1199
2569.3832685171224,1166
2571.1913256202984,1158
2572.9989972936614,1177
2574.806283829725,1170
2576.613185521084,1232
2578.4197026604074,1166
2580.2258355404483,1147
2582.031584454035,1192
2583.836949694077,1208
2585.6419315535613,1168
2587.4465303255533,1252
2589.2507463032002,1181
2591.0545797797245,1201
2592.8580310484303,1277
2594.6611004026995,1172
2596.463788135992,1163
2598.266094541849,1221
2600.0680199138874,1173
2601.869564545807,1189
2603.670728731383,1240
2605.4715127644704,1228
2607.2719169390048,1201
2609.071941548998,1140
2610.8715868885433,1175
2612.670853251811,1189
2614.469740933052,1137
2616.268250226594,1184
2618.0663814268455,1165
2619.864134828292,1160
2621.6615107255006,1173
2623.458509413115,1167
2625.2551311858597,1251
2627.0513763385347,1128
2628.8472451660223,1106
2630.6427379632833,1190
2632.4378550253564,1159
2634.232596647359,1152
2636.026963124488,1171
2637.8209547520187,1210
2639.6145718253065,1137
2641.407814639785,1110
2643.200683490966,1131
2644.9931786744414,1163
2646.7853004858807,1169
2648.577049221034,1100
2650.3684251757277,1113
2652.1594286458712,1124
2653.9500599274484,1168
2655.740319316525,1131
2657.5302071092437,1113
2659.3197236018286,1050
2661.10886909058,1097
2662.8976438718782,1078
2664.686048242183,1125
2666.4740824980327,1087
2668.2617469360443,1073
2670.0490418529134,1099
2671.8359675454153,1062
2673.622524310403,1076
2675.408712444811,1055
2677.1945322456495,1091
2678.979984010009,1061
2680.76506803506,1081
2682.5497846180497,1083
2684.334134056306,1066
2686.1181166472343,1070
2687.9017326883213,1057
2689.6849824771293,1080
2691.4678663113013,1093
2693.2503844885596,1038
2695.032537306705,985
2696.8143250636167,1040
2698.5957480572542,1098
2700.3768065856534,1014
2702.1575009469316,1012
2703.937831439283,1034
2705.717798360982,1021
2707.4974020103837,1001
2709.276642685917,968
2711.055520686095,1019
2712.834036309506,986
2714.612189854819,1043
2716.389981620782,1030
2718.1674119062204,1026
2719.944481010041,971
2721.721189231226,1041
2723.4975368688415,1041
2725.273524222027,988
2727.0491515900053,1009
2728.824419272075,1004
2730.5993275676146,1070
2732.3738767760838,992
2734.148067197016,1012
2735.921899130031,993
2737.6953728748194,981
2739.468488731156,984
2741.2412469988926,994
2743.0136479779617,1004
2744.785691968372,1012
2746.5573792702116,1006
2748.3287101836504,978
2750.099685008934,1052
2751.870304046388,974
2753.640567596418,1041
2755.4104759595057,981
2757.1800294362156,1035
2758.949228327187,941
2760.7180729331412,984
2762.486563554877,1035
2764.254700493272,967
2766.022484049284,989
2767.789914523947,985
2769.5569922183786,990
2771.3237174337705,1026
2773.090090471394,1022
2774.8561116326036,1012
2776.6217812188274,985
2778.3870995315756,986
2780.1520668724356,972
2781.9166835430747,975
2783.6809498452394,975
2785.444866080754,1008
2787.2084325515225,979
2788.971649559527,1045
2790.73451740683,957
2792.4970363955713,959
2794.2592068279705,1031
2796.0210290063264,994
2797.7825032330147,987
2799.543629810493,1006
2801.304409041296,1010
2803.0648412280366,973
2804.8249266734088,1018
2806.5846656801846,1015
2808.344058551212,995
2810.1031055894246,1016
2811.8618070978273,1005
2813.6201633795085,1027
2815.378174737636,994
2817.1358414754536,985
2818.893163896285,1002
2820.6501423035334,971
2822.4067770006814,980
2824.1630682912883,989
2825.9190164789957,1016
2827.6746218675207,1016
2829.429884760661,1031
2831.184805462294,954
2832.9393842763743,959
2834.693621506936,1019
2836.4475174580916,997
2838.201072434034,1003
2839.954286739034,990
2841.707160677441,956
2843.459694553685,971
2845.2118886722724,1009
2846.96374333779,1014
2848.7152588549034,1015
2850.4664355283567,1020
2852.217273662973,1008
2853.9677735636546,995
2855.7179355353833,979
2857.4677598832186,1013
2859.217246912299,998
2860.9663969278427,978
2862.715210235146,999
2864.4636871395846,1044
2866.211827946614,969
2867.9596329617652,998
2869.7071024906536,1003
2871.4542368389684,980
2873.20103631248,968
2874.947501217038,1002
2876.6936318585695,994
2878.4394285430812,998
2880.1848915766604,1038
2881.9300212654707,1021
2883.6748179157553,1047
2885.4192818338374,1044
2887.1634133261173,993
2888.907212699077,983
2890.6506802592744,1009
2892.393816313348,1020
2894.1366211680142,1020
2895.8790951300693,981
2897.621238506388,990
2899.363051603925,1006
2901.1045347297118,966
2902.8456881908596,1000
2904.58651229456,1000
2906.327007348081,1003
2908.067173658772,1006
2909.8070115340597,1010
2911.5465212814497,997
2913.285703208527,981
2915.0245576229563,1010
2916.7630848324807,1009
2918.5012851449196,1017
2920.2391588681758,990
2921.976706310227,1028
2923.7139277791334,983
2925.4508235830313,1015
2927.187394030137,968
2928.923639428745,961
2930.6595600872306,1010
2932.395156314046,1002
2934.1304284177218,1004
2935.8653767068713,1002
2937.6000014901815,987
2939.3343030764227,953
2941.068281774442,999
2942.8019378931644,994
2944.5352717415976,981
2946.2682836288236,1028
2948.0009738640065,1011
2949.7333427563885,1005
2951.465390615289,994
2953.1971177501086,1032
2954.9285244703265,1000
2956.6596110855,1005
2958.3903779052657,992
2960.1208252393385,996
2961.8509533975125,991
2963.5807626896617,937
2965.3102534257378,1001
2967.0394259157715,1009
2968.768280469873,997
2970.496817398232,998
2972.2250370111146,1002
2973.952939618869,966
2975.6805255319196,958
2977.4077950607707,974
2979.134748516006,976
2980.861386208289,1016
2982.587708448359,978
2984.313715547037,1030
2986.039407815222,980
2987.764785563891,999
2989.489849104102,1015
2991.2145987469908,962
2992.9390348037705,968
2994.6631575857346,971
2996.3869674042576,1012
2998.1104645707887,973
2999.83364939686,1012
3001.5565221940783,1000
3003.2790832741334,1004
3005.0013329487924,949
3006.7232715298996,972
3008.4448993293804,1008
3010.166216659239,954
3011.887223831558,946
3013.607921158498,1015
3015.3283089522993,970
3017.0483875252826,994
3018.7681571898443,981
3020.4876182584626,992
3022.2067710436927,980
3023.9256158581707,957
3025.644153014609,977
3027.362382825801,1028
3029.0803056046193,980
3030.797921664012,985
3032.5152313170106,988
3034.2322348767225,965
3035.9489326563353,984
3037.665324969115,940
3039.3814121284063,969
3041.097194447633,984
3042.812672240299,940
3044.5278458199855,939
3046.2427155003525,982
3047.9572815951406,978
3049.671544418167,978
3051.38550428333,972
3053.0991615046073,964
3054.812516396051,953
3056.5255692717974,987
3058.2383204460575,995
3059.9507702331257,1008
3061.662918947372,989
3063.3747669032446,1001
3065.0863144152736,972
3066.7975617980674,1020
3068.508509366309,987
3070.219157434767,962
3071.9295063182844,1007
3073.639556331785,955
3075.3493077902704,952
3077.058761008821,1007
3078.7679163025964,973
3080.476773986837,993
3082.1853343768594,944
3083.89359778806,980
3085.6015645359153,1006
3087.3092349359786,970
3089.016609303884,958
3090.7236879553434,956
3092.4304712061476,989
3094.136959372166,976
3095.843152769349,959
3097.5490517137237,991
3099.2546565213966,1002
3100.959967508554,977
3102.66498499146,976
3104.3697092864577,964
3106.0741407099695,986
3107.778279578498,999
3109.482126208622,978
3111.1856809170004,967
3112.8889440203716,992
3114.5919158355528,1005
3116.294596679439,1018
3117.996986869006,1050
3119.6990867213062,1013
3121.4008965534726,969
3123.102416682717,994
3124.803647426329,991
3126.5045891016784,983
3128.205242026213,1005
3129.90560651746,1007
3131.605682893025,988
3133.3054714705922,991
3135.0049725679282,996
3136.7041865028714,982
3138.4031135933465,974
3140.101754157353,980
3141.800108512971,968
3143.498176978357,994
3145.1959598717494,987
3146.8934575114636,1005
3148.5906702158954,1002
3150.2875983035183,935
3151.9842420928853,967
3153.680601902627,976
3155.376678051456,967
3157.07247085816,1000
3158.767980641609,937
3160.463207720748,1018
3162.158152414606,989
3163.8528150422862,1024
3165.5471959229726,959
3167.2412953759303,943
3168.9351137204976,1005
3170.628651276098,1010
3172.3219083622307,1003
3174.014885298474,1015
3175.707582404485,937
3177.4000000000005,971
3179.092138404835,925
3180.7839979388846,988
3182.47557892212,978
3184.166881674594,986
3185.8579065164386,941
3187.5486537678626,970
3189.2391237491547,980
3190.9293167806827,989
3192.6192331828934,1004
3194.3088732763117,967
3195.998237381542,994
3197.687325819268,987
3199.376138910251,973
3201.064676975334,974
3202.7529403354347,952
3204.4409293115523,970
3206.1286442247647,1024
3207.816085396229,945
3209.5032531471825,973
3211.190147798936,1014
3212.8767696728846,966
3214.5631190905015,944
3216.2491963733373,937
3217.9350018430214,1003
3219.6205358212637,951
3221.305798629851,966
3222.990790590651,968
3224.6755120256103,995
3226.359963256751,947
3228.0441446061795,962
3229.7280563960758,927
3231.411698948703,988
3233.0950725863995,952
3234.778177631587,953
3236.461014406761,936
3238.1435832345005,930
3239.8258844374595,1011
3241.507918338374,995
3243.1896852600576,954
3244.8711855254023,1003
3246.552419457381,957
3248.233387379042,1002
3249.914089613516,988
3251.59452648401,941
3253.274698313813,985
3254.95460542629,996
3256.6342481448855,949
3258.313626793125,977
3259.9927416946084,953
3261.6715931730196,963
3263.3501815521176,969
3265.0285071557437,955
3266.706570307815,954
3268.3843713323286,921
3270.0619105533615,962
3271.739188295068,1002
3273.4162048816834,903
3275.0929606375184,950
3276.769455886966,956
3278.445690954498,954
3280.1216661646613,965
3281.797381842087,975
3283.4728383114807,961
3285.1480358976296,1021
3286.8229749253996,937
3288.4976557197333,924
3290.172078605655,954
3291.846243908266,918
3293.5201519527463,1010
3295.193803064357,961
3296.8671975684374,961
3298.5403357904024,918
3300.21321805575,1015
3301.8858446900567,1000
3303.558216018975,936
3305.23033236824,958
3306.9021940636603,948
3308.57380143113,933
3310.2451547966184,969
3311.916254486174,941
3313.5871008259246,979
3315.2576941420766,985
3316.9280347609147,966
3318.5981230088046,976
3320.2679592121895,968
3321.9375436975924,907
3323.606876791612,950
3325.27595882093,934
3326.944790112305,979
3328.6133709925753,916
3330.2817017886573,947
3331.949782827547,922
3333.617614436319,951
3335.2851969421245,920
3336.952530672199,994
3338.619615953853,947
3340.286453114475,936
3341.9530424815357,967
3343.619384382583,979
3345.2854791452437,1003
3346.951327097224,962
3348.6169285663073,988
3350.2822838803577,986
3351.947393367319,963
3353.61225735521,987
3355.2768761721345,991
3356.9412501462693,944
3358.605379605873,955
3360.2692648792827,977
3361.9329062949146,1027
3363.596304181263,975
