CollectionTime,7/11/2024 2:16:52 PM
ExposureUsed,3
CalibratedSpectrum
-962.7078968117929,419
-959.9714848408522,449
-957.2358232597828,483
-954.5009119013725,468
-951.7667505983302,440
-949.0333391832855,465
-946.3006774887896,454
-943.5687653473143,467
-940.837602591253,465
-938.1071890529199,441
-935.3775245645503,478
-932.6486089583007,446
-929.9204420662485,446
-927.1930237203925,461
-924.4663537526524,449
-921.7404319948689,442
-919.0152582788041,477
-916.2908324361409,508
-913.5671542984834,483
-910.8442236973568,457
-908.1220404642074,459
-905.4006044304027,488
-902.679915427231,485
-899.959973285902,468
-897.2407778375464,460
-894.5223289132158,449
-891.8046263438832,459
-889.0876699604426,466
-886.3714595937089,486
-883.6559950744183,450
-880.9412762332282,466
-878.2273029007168,458
-875.5140749073835,460
-872.8015920836489,453
-870.0898542598545,451
-867.3788612662631,469
-864.6686129330585,496
-861.9591090903457,468
-859.2503495681506,445
-856.5423341964203,445
-853.8350628050229,461
-851.1285352237478,458
-848.4227512823054,477
-845.7177108103272,488
-843.0134136373656,469
-840.3098595928943,509
-837.6070485063082,491
-834.9049802069229,475
-832.2036545239757,464
-829.5030712866244,466
-826.8032303239481,483
-824.1041314649472,478
-821.4057745385428,472
-818.7081593735775,496
-816.0112857988148,483
-813.3151536429393,472
-810.6197627345566,466
-807.9251129021936,451
-805.2312039742981,445
-802.5380357792392,470
-799.8456081453069,476
-797.1539209007124,493
-794.462973873588,488
-791.772766891987,534
-789.083299783884,491
-786.3945723771743,489
-783.7065844996748,480
-781.0193359791231,468
-778.3328266431781,496
-775.6470563194197,462
-772.9620248353489,456
-770.2777320183878,476
-767.5941776958798,494
-764.9113616950891,492
-762.2292838432011,452
-759.5479439673222,479
-756.8673418944801,473
-754.1874774516235,503
-751.5083504656222,483
-748.8299607632671,513
-746.15230817127,502
-743.475392516264,502
-740.7992136248035,487
-738.1237713233636,495
-735.4490654383407,514
-732.7750957960521,518
-730.1018622227365,518
-727.4293645445534,511
-724.7576025875837,483
-722.0865761778291,518
-719.4162851412126,529
-716.7467293035781,535
-714.0779084906909,511
-711.409822528237,506
-708.7424712418238,498
-706.0758544569796,491
-703.4099719991541,509
-700.7448236937178,519
-698.0804093659622,510
-695.4167288411002,494
-692.7537819442656,512
-690.0915685005134,493
-687.4300883348199,516
-684.7693412720819,497
-682.1093271371178,494
-679.4500457546669,483
-676.7914969493897,511
-674.1336805458676,512
-671.4765963686034,531
-668.8202442420206,552
-666.1646239904642,513
-663.5097354382001,517
-660.8555784094151,540
-658.2021527282176,542
-655.5494582186366,503
-652.8974947046223,537
-650.2462620100463,536
-647.5957599587009,523
-644.9459883742998,526
-642.2969470804776,524
-639.6486359007902,527
-637.0010546587141,577
-634.3542031776476,529
-631.7080812809096,557
-629.0626887917401,540
-626.4180255333008,567
-623.7740913286734,538
-621.1308860008619,562
-618.4884093727904,556
-615.8466612673046,522
-613.2056415071715,507
-610.5653499150785,537
-607.9257863136347,563
-605.28695052537,572
-602.6488423727357,563
-600.0114616781036,544
-597.3748082637674,537
-594.7388819519412,557
-592.1036825647604,609
-589.4692099242818,593
-586.8354638524829,592
-584.2024441712624,612
-581.5701507024403,585
-578.9385832677575,600
-576.3077416888759,567
-573.6776257873787,579
-571.0482353847704,570
-568.4195703024757,576
-565.7916303618415,556
-563.164415384135,580
-560.5379251905453,528
-557.9121596021815,570
-555.2871184400748,606
-552.6628015251767,567
-550.0392086783606,603
-547.4163397204204,591
-544.794194472071,574
-542.1727727539491,573
-539.5520743866118,579
-536.9320991905377,614
-534.3128469861261,643
-531.6943175936979,652
-529.0765108334947,679
-526.4594265256793,686
-523.8430644903358,777
-521.2274245474689,828
-518.612506517005,868
-515.9983102187913,916
-513.3848354725959,942
-510.77208209810846,1004
-508.16004991493924,1066
-505.5487387426199,1119
-502.9381484006032,1188
-500.3282787082628,1164
-497.71912948489364,1079
-495.1107005497117,973
-492.5029917218539,838
-489.8960028203786,769
-487.28973366426493,749
-484.68418407241325,685
-482.07935386364494,670
-479.47524285670266,685
-476.87185087025,682
-474.2691777228715,689
-471.66722323307334,730
-469.0659872192821,673
-466.4654694998459,719
-463.86566989303384,687
-461.26658821703614,711
-458.66822428996414,700
-456.07057792985,696
-453.4736489546475,693
-450.877437182231,701
-448.28194243039627,655
-445.68716451686,681
-443.09310325926003,713
-440.49975847515555,688
-437.9071299820263,658
-435.31521759727354,730
-432.72402113821954,719
-430.13354042210767,702
-427.5437752661022,739
-424.95472548728867,720
-422.36639090267386,703
-419.7787713291855,742
-417.1918665836721,818
-414.60567648290385,762
-412.0202008435715,751
-409.4354394822874,739
-406.8513922155845,753
-404.26805885991723,762
-401.685439231661,816
-399.103533147112,824
-396.522340422488,760
-393.9418608739278,712
-391.3620943174908,725
-388.7830405691583,716
-386.2046994448317,691
-383.6270707603344,704
-381.05015433141045,680
-378.473949973725,621
-375.8984575028645,599
-373.32367673433623,540
-370.74960748356875,535
-368.1762495659117,564
-365.60360279663576,530
-363.03166699093265,509
-360.4604419639154,518
-357.8899275306178,456
-355.32012350599507,458
-352.7510297049233,431
-350.1826459421999,414
-347.61497203254316,411
-345.04800779059235,433
-342.4817530309082,435
-339.91620756797226,437
-337.35137121618743,446
-334.7872437898774,454
-332.22382510328725,466
-329.66111497058273,457
-327.09911320585127,453
-324.53781962310075,454
-321.9772340362607,475
-319.4173562591816,469
-316.8581861056348,431
-314.2997233893127,444
-311.7419679238294,435
-309.1849195227194,465
-306.62857799943856,513
-304.0729431673641,528
-301.51801483979375,519
-298.963792829947,481
-296.41027695096386,495
-293.85746701590574,499
-291.3053628377552,543
-288.7539642294155,554
-286.2032710037115,483
-283.65328297338897,483
-281.1039999511146,487
-278.5554217494762,523
-276.007548180983,539
-273.4603790580651,519
-270.9139141930734,509
-268.3681533982807,538
-265.8230964858798,597
-263.27874326798565,606
-260.7350935566336,632
-258.1921471637804,599
-255.6499039013039,605
-253.10836358100266,585
-250.56752601459698,545
-248.02739101372765,527
-245.48795838995704,563
-242.94922795476816,633
-240.41119951956557,620
-237.8738728956746,643
-235.33724789434166,616
-232.80132432673452,567
-230.2661020039418,560
-227.73158073697357,566
-225.19776033676033,586
-222.66464061415422,588
-220.1322213799284,620
-217.60050244477725,621
-215.06948361931552,636
-212.53916471408013,583
-210.00954553952818,686
-207.48062590603843,675
-204.9524056239104,630
-202.4248845033651,638
-199.8980623545441,663
-197.37193898751036,677
-194.84651421224817,716
-192.32178783866232,755
-189.79775967657952,694
-187.27442953574644,723
-184.7517972258321,723
-182.2298625564256,675
-179.7086253370378,614
-177.18808537710026,598
-174.66824248596583,638
-172.14909647290835,719
-169.6306471471229,730
-167.11289431772548,751
-164.59583779375328,727
-162.07947738416453,712
-159.5638128978386,728
-157.04884414357605,777
-154.53457093009854,823
-152.02099306604828,810
-149.50811035998936,784
-146.99592262040665,791
-144.48442965570587,879
-141.97363127421409,838
-139.46352728417958,915
-136.95411749377126,955
-134.44540171107985,901
-131.93737974411636,851
-129.43005140081357,748
-126.92341648902493,914
-124.41747481652521,1095
-121.91222619101006,1340
-119.40767042009657,1621
-116.90380731132257,1881
-114.40063667214702,1842
-111.8981583099503,1850
-109.3963720320337,1644
-106.89527764561933,1379
-104.39487495785067,1239
-101.89516377579241,1462
-99.39614390642998,2044
-96.89781515667039,2665
-94.40017733334128,2645
-91.90323024319173,2637
-89.40697369289148,3041
-86.91140748903172,4210
-84.41653143812482,4235
-81.92234534660395,3343
-79.42884902082358,2569
-76.93604226705907,3923
-74.4439248915071,7901
-71.95249670028534,12270
-69.46175749943245,15826
-66.97170709490854,15580
-64.48234529259423,12907
-61.99367189829195,10375
-59.50568671772464,8995
-57.01838955653636,7194
-54.53178022029283,5003
-52.045858514480074,5525
-49.560624244506016,6114
-47.07607721569923,6962
-44.59221723330904,8224
-42.10904410250669,8994
-39.62655762838392,8768
-37.14475761595372,8568
-34.66364387015028,9313
-32.18321619582866,10913
-29.70347439776515,11648
-27.224418280657005,12117
-24.74604764912317,13053
-22.26836230770266,14631
-19.7913620608565,18291
-17.315046712966478,25932
-14.83941606833514,32486
-12.36446993118659,40233
-9.89020810566592,65039
-7.416630395839093,65039
-4.94373660569363,65039
-2.471526539137585,65039
-6.821210263296962E-13,65039
2.47084320796705,65039
4.941003281093458,65039
7.410480415786196,65039
9.879274808531363,65039
12.347386655893956,65039
14.814816154518212,65039
17.28156350112681,65039
19.74762889252179,65039
22.21301252558385,65039
24.67771459727237,19965
27.141735304626195,3605
29.605074844762612,2281
32.06773341487792,2195
34.52971121224755,2093
36.99100843422559,1845
39.45162527824516,1871
41.91156194181792,1747
44.370818622535126,1603
46.82939551806646,1383
49.287292826160524,1342
51.74451074464503,1689
54.201049471426245,1864
56.65690920448981,1762
59.112090141899785,1399
61.56659248179983,1161
64.02041642241159,1160
66.4735621620365,1040
68.92602989905402,992
71.37781983192338,1106
73.82893215918205,1300
76.27936707944684,1419
78.72912479141326,1340
81.17820549385567,1275
83.62660938562783,1250
86.07433666566146,1210
88.5213875329681,956
90.96776218663751,904
93.41346082583925,836
95.85848364982041,971
98.30283085790859,1102
100.7465026495089,1122
103.18949922410604,1064
105.63182078126385,1062
108.07346752062438,1011
110.51443964190923,1018
112.95473734491827,879
115.39436082953114,812
117.83331029570547,902
120.27158594347827,1043
122.7091879729652,1196
125.1461165843615,1229
127.58237197794062,1130
130.01795435405518,1047
132.4528639131364,963
134.88710085569494,964
137.32066538231982,908
139.75355769367923,867
142.1857779905207,822
144.61732647366978,826
147.04820334403132,744
149.47840880258934,767
151.90794305040674,785
154.33680628862487,954
156.76499871846443,1065
159.19252054122433,1247
161.61937195828352,1230
164.04555317109896,1299
166.47106438120693,1415
168.89590579022217,1455
171.320077599839,1535
173.7435800118302,1469
176.16641322804742,1550
178.58857745042144,1688
181.01007288096173,1707
183.43089972175687,1725
185.85105817497413,1764
188.27054844285988,1738
190.6893707277394,1710
193.10752523201643,1800
195.5250121581745,1825
197.9418317087751,1940
200.3579840864594,1963
202.7734694939469,1843
205.18828813403627,1853
207.6024402096051,1898
210.01592592360964,2031
212.42874547908548,1923
214.84089907914665,1941
217.2523869269868,1935
219.66320922587727,1857
222.0733661791695,1904
224.48285799029293,1910
226.8916848627572,1910
229.29984700014882,1941
231.7073446061355,1996
234.11417788446204,1906
236.520347038953,1903
238.92585227351185,1883
241.33069379212054,2054
243.73487179884035,1958
246.1383864978112,2003
248.541238093252,2029
250.9434267894609,2012
253.34495279081432,2103
255.74581630176783,2071
258.1460175268563,2013
260.54555667069314,2101
262.9444339379703,2056
265.3426495334594,2020
267.7402036620107,2056
270.1370965285529,2051
272.53332833809407,2041
274.9288992957214,1951
277.32380960660055,1903
279.718059475976,1963
282.1116491091717,1993
284.5045787115897,1832
286.89684848871195,1879
289.2884586460981,1792
291.67940938938807,1937
294.0697009242996,1915
296.4593334566299,1942
298.84830719225477,1865
301.23662233712923,1856
303.6242790972866,1901
306.01127767884,1868
308.39761828798066,1831
310.78330113097934,1811
313.16832641418534,1790
315.5526943440269,1708
317.9364051270112,1784
320.3194589697242,1769
322.70185607883093,1702
325.0835966610754,1667
327.4646809232805,1649
329.8451090723478,1737
332.2248813152577,1626
334.6039978590701,1714
336.9824589109231,1650
339.36026467803447,1619
341.7374153677,1632
344.113911187295,1635
346.48975234427337,1631
348.8649390461686,1610
351.2394715005918,1604
353.61334991523415,1646
355.9865744978655,1620
358.35914545633375,1589
360.73106299856715,1713
363.10232733257146,1684
365.47293866643247,1593
367.84289720831396,1591
370.2122031664593,1479
372.5808567491905,1604
374.9488581649083,1569
377.31620762209275,1598
379.6829053293021,1601
382.0489514951745,1486
384.4143463284262,1541
386.7790900378528,1522
389.14318283232853,1518
391.50662492080653,1534
393.86941651231916,1556
396.23155781597745,1545
398.5930490409713,1531
400.9538903965696,1542
403.3140820921202,1516
405.6736243370498,1530
408.03251734086336,1534
410.3907613131465,1468
412.74835646356166,1510
415.10530300185144,1486
417.4616011378372,1510
419.81725108141893,1504
422.1722530425758,1454
424.5266072313656,1504
426.880313857925,1443
429.2333731324701,1462
431.58578526529516,1476
433.9375504667738,1510
436.2886689473588,1495
438.63914091758113,1444
440.9889665880513,1457
443.33814616945835,1449
445.68667987257015,1491
448.03456790823395,1437
450.3818104873759,1436
452.72840782100013,1378
455.07436012019105,1458
457.41966759611057,1441
459.7643304600007,1439
462.10834892318155,1399
464.4517231970525,1461
466.79445349309174,1414
469.1365400228566,1413
471.4779829979826,1374
473.81878263018564,1415
476.15893913125876,1464
478.4984527130747,1416
480.8373235875855,1427
483.17555196682144,1477
485.5131380628919,1477
487.8500820879857,1562
490.1863842543697,1604
492.52204477439034,1626
494.8570638604725,1739
497.1914417251204,1882
499.52517858091653,2075
501.85827464052306,2241
504.19073011668036,2494
506.5225452222086,2637
508.85372017000566,2631
511.18425517304956,2723
513.514150444396,2727
515.8434061971808,3119
518.1720226446176,3641
520.4999999999999,3717
522.8273384766991,3581
525.1540382881666,3277
527.480099647932,2908
529.8055227696037,2391
532.1303078668694,1915
534.454455153496,1730
536.777964843328,1563
539.1008371502907,1561
541.4230722883866,1559
543.744670471698,1492
546.0656319143858,1496
548.3859568306899,1441
550.7056454349294,1465
553.0246979415016,1462
555.3431145648834,1448
557.6608955196306,1482
559.978041020377,1484
562.2945512818363,1472
564.6104265188006,1462
566.9256669461412,1527
569.2402727788082,1479
571.5542442318302,1458
573.8675815203156,1417
576.1802848594508,1507
578.4923544645015,1484
580.8037905508126,1550
583.114593333807,1501
585.4247630289875,1459
587.7342998519354,1511
590.0432040183106,1500
592.3514757438526,1500
594.6591152443794,1548
596.9661227357875,1534
599.2724984340531,1465
601.578242555231,1495
603.8833553154542,1549
606.1878369309362,1468
608.4916876179676,1469
610.7949075929192,1479
613.0974970722403,1518
615.3994562724587,1442
617.7007854101818,1481
620.0014847020951,1440
622.3015543649641,1511
624.6009946156324,1479
626.8998056710224,1523
629.1979877481361,1497
631.4955410640538,1502
633.7924658359349,1545
636.0887622810175,1430
638.3844306166192,1535
640.6794710601358,1444
642.9738838290426,1452
645.2676691408932,1561
647.5608272133207,1599
649.853358264037,1487
652.1452625108324,1544
654.4365401715764,1513
656.7271914642178,1504
659.0172166067838,1520
661.3066158173809,1468
663.5953893141935,1547
665.8835373154867,1527
668.1710600396028,1543
670.4579577049639,1514
672.7442305300709,1487
675.0298787335033,1540
677.3149025339197,1472
679.599302150058,1470
681.8830778007342,1473
684.1662297048437,1529
686.4487580813608,1543
688.7306631493387,1548
691.0119451279091,1519
693.2926042362834,1540
695.5726406937516,1483
697.8520547196814,1514
700.1308465335215,1538
702.4090163547982,1538
704.6865644031171,1508
706.9634908981619,1453
709.2397960596965,1469
711.5154801075631,1527
713.7905432616823,1482
716.0649857420548,1485
718.3388077687592,1521
720.612009561953,1511
722.8845913418733,1447
725.1565533288352,1504
727.427895743234,1518
729.6986188055427,1493
731.9687227363137,1490
734.238207756178,1480
736.5070740858458,1494
738.7753219461066,1438
741.0429515578281,1535
743.3099631419569,1594
745.5763569195191,1487
747.8421331116193,1602
750.1072919394409,1557
752.3718336242467,1449
754.6357583873777,1453
756.8990664502545,1511
759.1617580343765,1504
761.423833361321,1530
763.6852926527457,1535
765.9461361303862,1572
768.206364016058,1516
770.4659765316536,1570
772.7249738991469,1605
774.9833563405886,1535
777.2411240781092,1537
779.4982773339183,1554
781.7548163303044,1549
784.010741289634,1543
786.2660524343538,1584
788.5207499869881,1508
790.7748341701416,1601
793.0283052064964,1554
795.2811633188143,1521
797.5334087299362,1585
799.7850416627813,1594
802.0360623403484,1559
804.2864709857143,1593
806.5362678220353,1597
808.7854530725468,1598
811.0340269605625,1571
813.2819897094754,1604
815.5293415427581,1547
817.77608268396,1568
820.0222133567116,1562
822.2677337847211,1573
824.5126441917765,1591
826.7569448017433,1626
829.0006358385675,1543
831.2437175262731,1527
833.4861900889629,1495
835.7280537508192,1500
837.9693087361026,1489
840.2099552691533,1505
842.4499935743896,1604
844.689423876309,1552
846.9282463994886,1541
849.1664613685833,1528
851.4040690083276,1519
853.6410695435349,1577
855.877463199097,1550
858.1132501999847,1515
860.3484307712487,1515
862.5830051380175,1551
864.8169735254988,1537
867.0503361589791,1581
869.2830932638243,1564
871.5152450654786,1529
873.7467917894654,1503
875.9777336613873,1555
878.2080709069252,1561
880.4378037518389,1549
882.666932421968,1556
884.8954571432301,1543
887.1233781416219,1526
889.3506956432192,1551
891.5774098741766,1578
893.803521060728,1544
896.0290294291852,1574
898.2539352059397,1500
900.4782386174619,1549
902.7019398903011,1528
904.925039251085,1603
907.147536926521,1567
909.3694331433943,1554
911.59072812857,1525
913.8114221089921,1539
916.0315153116827,1549
918.2510079637437,1582
920.4699002923547,1474
922.6881925247761,1529
924.905884888345,1517
927.1229776104793,1500
929.3394709186747,1476
931.555365040506,1544
933.7706602036275,1499
935.9853566357709,1438
938.1994545647489,1528
940.4129542184515,1471
942.6258558248488,1486
944.8381596119883,1498
947.0498658079974,1552
949.2609746410825,1493
951.4714863395287,1482
953.6814011316998,1469
955.8907192460387,1447
958.0994409110671,1455
960.3075663553858,1429
962.5150958076741,1484
964.7220294966913,1539
966.928367651274,1472
969.1341105003388,1448
971.3392582728806,1446
973.5438111979742,1407
975.747769504772,1435
977.9511334225061,1434
980.153903180487,1394
982.3560790081052,1417
984.5576611348289,1462
986.7586497902058,1456
988.9590452038618,1466
991.158847605503,1345
993.3580572249133,1382
995.5566742919558,1424
997.7546990365728,1378
999.952131688785,1263
1002.1489724786926,1345
1004.3452216364743,1360
1006.5408793923874,1321
1008.7359459767691,1315
1010.9304216200343,1299
1013.1243065526781,1317
1015.3176010052733,1356
1017.510305208472,1252
1019.7024193930064,1295
1021.8939437896848,1291
1024.0848786293977,1311
1026.2752241431122,1273
1028.4649805618747,1238
1030.6541481168115,1201
1032.842727039127,1281
1035.0307175601051,1259
1037.2181199111074,1250
1039.4049343235752,1231
1041.591161029029,1201
1043.7768002590683,1231
1045.9618522453698,1261
1048.1463172196918,1266
1050.3301954138697,1235
1052.513487059818,1224
1054.69619238953,1208
1056.8783116350783,1233
1059.0598450286152,1231
1061.2407928023704,1200
1063.4211551886528,1207
1065.6009324198508,1218
1067.780124728432,1221
1069.9587323469414,1234
1072.1367555080046,1205
1074.314194444325,1207
1076.4910493886855,1226
1078.667320573947,1192
1080.843008233051,1255
1083.0181125990161,1207
1085.1926339049414,1180
1087.3665723840027,1161
1089.5399282694575,1124
1091.7127017946405,1207
1093.8848931929647,1181
1096.0565026979243,1161
1098.2275305430899,1165
1100.3979769621128,1172
1102.567842188722,1156
1104.737126456726,1143
1106.9058300000124,1159
1109.0739530525475,1168
1111.2414958483764,1206
1113.4084586216231,1179
1115.5748416064907,1189
1117.7406450372605,1205
1119.9058691482942,1176
1122.0705141740304,1169
1124.2345803489884,1161
1126.3980679077658,1163
1128.5609770850388,1116
1130.7233081155623,1171
1132.8850612341707,1162
1135.0462366757774,1138
1137.2068346753745,1135
1139.3668554680326,1185
1141.526299288901,1178
1143.68516637321,1132
1145.8434569562655,1124
1148.001171273455,1130
1150.158309560244,1108
1152.3148720521767,1156
1154.470858984876,1108
1156.626270594044,1133
1158.7811071154629,1212
1160.9353687849912,1171
1163.089055838569,1130
1165.242168512213,1140
1167.3947070420209,1102
1169.5466716641677,1121
1171.6980626149075,1087
1173.8488801305748,1095
1175.9991244475814,1124
1178.1487958024186,1116
1180.2978944316555,1073
1182.4464205719428,1130
1184.5943744600072,1144
1186.7417563326567,1152
1188.8885664267755,1086
1191.0348049793297,1101
1193.1804722273619,1128
1195.325568407995,1139
1197.4700937584303,1129
1199.614048515948,1110
1201.7574329179074,1073
1203.900247201746,1115
1206.042491604982,1142
1208.1841663652099,1128
1210.3252717201053,1138
1212.465807907422,1155
1214.6057751649923,1162
1216.7451737307279,1143
1218.8840038426192,1149
1221.0222657387353,1139
1223.1599596572241,1149
1225.2970858363137,1123
1227.4336445143094,1127
1229.5696359295966,1113
1231.705060320639,1136
1233.8399179259786,1101
1235.9742089842384,1138
1238.107933734118,1142
1240.2410924143974,1155
1242.373685263935,1118
1244.5057125216676,1185
1246.6371744266116,1129
1248.7680712178621,1143
1250.898403134593,1169
1253.028170416058,1166
1255.1573733015875,1126
1257.2860120305932,1133
1259.4140868425648,1150
1261.54159797707,1221
1263.6685456737569,1219
1265.7949301723515,1174
1267.9207517126597,1226
1270.046010534565,1190
1272.1707068780306,1202
1274.2948409830983,1207
1276.4184130898889,1152
1278.541423438603,1163
1280.6638722695184,1181
1282.785759822993,1182
1284.9070863394636,1206
1287.0278520594447,1169
1289.1480572235314,1224
1291.2677020723963,1177
1293.3867868467923,1238
1295.5053117875495,1256
1297.623277135579,1245
1299.740683131868,1259
1301.8575300174857,1269
1303.973818033578,1225
1306.0895474213703,1244
1308.2047184221678,1277
1310.3193312773528,1260
1312.4333862283888,1298
1314.5468835168163,1293
1316.659823384255,1317
1318.7722060724045,1289
1320.8840318230418,1300
1322.9953008780249,1328
1325.1060134792888,1307
1327.2161698688478,1317
1329.3257702887959,1243
1331.4348149813054,1281
1333.5433041886276,1326
1335.6512381530933,1303
1337.7586171171101,1258
1339.8654413231675,1308
1341.9717110138317,1318
1344.0774264317488,1344
1346.1825878196432,1285
1348.2871954203192,1288
1350.3912494766587,1261
1352.4947502316231,1303
1354.5976979282532,1230
1356.7000928096686,1206
1358.8019351190665,1276
1360.9032250997243,1291
1363.0039629949988,1263
1365.1041490483235,1229
1367.2037835032133,1195
1369.3028666032606,1232
1371.401398592137,1249
1373.4993797135926,1221
1375.5968102114575,1216
1377.6936903296396,1220
1379.7900203121262,1217
1381.8858004029835,1239
1383.9810308463561,1230
1386.075711886469,1294
1388.1698437676241,1195
1390.2634267342032,1196
1392.356461030667,1195
1394.4489469015557,1207
1396.5408845914872,1244
1398.6322743451592,1183
1400.7231164073469,1211
1402.813411022907,1190
1404.903158436773,1194
1406.9923588939578,1253
1409.0810126395531,1217
1411.1691199187303,1197
1413.2566809767386,1214
1415.343696058907,1198
1417.4301654106425,1221
1419.5160892774315,1270
1421.6014679048399,1238
1423.6863015385125,1268
1425.7705904241707,1271
1427.8543348076178,1211
1429.9375349347342,1244
1432.0201910514802,1194
1434.102303403894,1231
1436.1838722380944,1246
1438.2648978002767,1243
1440.3453803367174,1267
1442.4253200937692,1250
1444.5047173178677,1336
1446.5835722555234,1299
1448.6618851533285,1315
1450.739656257952,1269
1452.8168858161434,1348
1454.8935740747306,1297
1456.96972128062,1353
1459.045327680797,1336
1461.120393522327,1339
1463.1949190523528,1275
1465.2689045180973,1377
1467.3423501668608,1400
1469.415256246024,1395
1471.4876230030463,1360
1473.559450685465,1413
1475.6307395408976,1460
1477.7014898170391,1401
1479.771701761665,1416
1481.8413756226287,1487
1483.9105116478618,1452
1485.9791100853772,1464
1488.0471711832643,1462
1490.1146951896926,1430
1492.1816823529098,1467
1494.2481329212433,1489
1496.3140471430984,1475
1498.3794252669609,1523
1500.4442675413939,1496
1502.5085742150404,1427
1504.572345536622,1461
1506.6355817549388,1544
1508.6982831188702,1519
1510.7604498773744,1471
1512.8220822794883,1528
1514.8831805743293,1524
1516.9437450110909,1541
1519.003775839048,1486
1521.0632733075522,1491
1523.1222376660367,1486
1525.1806691640113,1537
1527.2385680510652,1561
1529.2959345768668,1544
1531.3527689911643,1564
1533.4090715437833,1550
1535.4648424846291,1588
1537.5200820636855,1592
1539.5747905310159,1615
1541.6289681367616,1666
1543.6826151311434,1639
1545.7357317644614,1641
1547.7883182870937,1667
1549.8403749494987,1720
1551.8919020022113,1713
1553.9428996958477,1727
1555.9933682811015,1808
1558.0433080087469,1826
1560.0927191296346,1834
1562.1416018946961,1811
1564.1899565549415,1892
1566.2377833614592,1857
1568.2850825654164,1853
1570.3318544180606,1888
1572.3780991707158,1848
1574.423817074788,1836
1576.4690083817595,1824
1578.5136733431923,1754
1580.5578122107272,1673
1582.601425236085,1717
1584.6445126710646,1634
1586.6870747675434,1585
1588.7291117774776,1603
1590.7706239529034,1589
1592.8116115459347,1570
1594.8520748087658,1527
1596.8920139936686,1469
1598.9314293529933,1486
1600.9703211391711,1395
1603.008689604711,1381
1605.0465350022005,1396
1607.0838575843068,1340
1609.1206576037753,1382
1611.1569353134305,1314
1613.1926909661765,1311
1615.2279248149953,1335
1617.2626371129481,1233
1619.2968281131757,1298
1621.3304980688963,1254
1623.3636472334088,1262
1625.39627586009,1237
1627.428384202396,1242
1629.459972513861,1250
1631.4910410480993,1222
1633.5215900588028,1178
1635.551619799744,1197
1637.5811305247717,1141
1639.6101224878166,1197
1641.6385959428862,1160
1643.6665511440683,1177
1645.693988345528,1203
1647.7209078015112,1229
1649.7473097663405,1147
1651.7731944944203,1188
1653.7985622402307,1154
1655.823413258333,1142
1657.847747803366,1154
1659.8715661300494,1173
1661.8948684931793,1138
1663.9176551476316,1138
1665.9399263483624,1151
1667.9616823504057,1125
1669.982923408873,1125
1672.0036497789574,1151
1674.0238617159293,1149
1676.043559475138,1113
1678.0627433120121,1160
1680.081413482059,1173
1682.0995702408654,1147
1684.117213844096,1165
1686.134344547495,1187
1688.1509626068864,1144
1690.1670682781705,1163
1692.182661817329,1139
1694.1977434804217,1189
1696.2123135235875,1144
1698.226372203043,1078
1700.2399197750851,1155
1702.2529564960905,1121
1704.2654826225112,1115
1706.277498410882,1145
1708.2890041178139,1140
1710.2999999999988,1140
1712.3104863142066,1140
1714.3204633172854,1165
1716.329931266163,1118
1718.3388904178469,1163
1720.3473410294214,1094
1722.3552833580516,1117
1724.3627176609807,1107
1726.3696441955308,1104
1728.3760632191033,1162
1730.3819749891782,1114
1732.3873797633146,1067
1734.3922777991502,1137
1736.3966693544012,1087
1738.4005546868639,1081
1740.4039340544127,1126
1742.406807715001,1135
1744.4091759266616,1130
1746.4110389475054,1116
1748.4123970357223,1171
1750.413250449582,1160
1752.4135994474318,1094
1754.4134442876993,1099
1756.4127852288902,1109
1758.4116225295893,1107
1760.4099564484595,1124
1762.407787244244,1120
1764.405115175764,1139
1766.4019405019203,1086
1768.3982634816916,1131
1770.3940843741357,1107
1772.3894034383907,1091
1774.3842209336717,1090
1776.378537119274,1111
1778.372352254571,1104
1780.3656665990156,1127
1782.3584804121397,1119
1784.3507939535534,1065
1786.3426074829463,1054
1788.3339212600863,1077
1790.3247355448211,1091
1792.3150505970766,1142
1794.3048666768573,1119
1796.2941840442477,1109
1798.2830029594106,1125
1800.2713236825884,1099
1802.2591464741004,1101
1804.2464715943465,1068
1806.2332993038058,1125
1808.2196298630352,1099
1810.2054635326708,1059
1812.190800573428,1056
1814.175641246101,1128
1816.1599858115628,1119
1818.1438345307652,1092
1820.127187664738,1075
1822.1100454745924,1115
1824.092408221516,1118
1826.0742761667766,1085
1828.055649571721,1107
1830.0365286977735,1126
1832.0169138064398,1148
1833.9968051593014,1121
1835.9762030180214,1169
1837.9551076443408,1134
1839.9335193000788,1083
1841.9114382471344,1117
1843.888864747485,1101
1845.8657990631878,1106
1847.842241456378,1094
1849.8181921892697,1075
1851.7936515241558,1119
1853.7686197234098,1047
1855.7430970494815,1082
1857.7170837649014,1038
1859.6905801322787,1115
1861.6635864143004,1102
1863.6361028737338,1115
1865.608129773424,1159
1867.5796673762961,1118
1869.5507159453537,1118
1871.521275743678,1164
1873.4913470344313,1105
1875.4609300808534,1174
1877.4300251462632,1177
1879.3986324940588,1107
1881.366752387717,1135
1883.3343850907936,1091
1885.3015308669228,1127
1887.268189979819,1140
1889.2343626932739,1090
1891.2000492711595,1156
1893.1652499774254,1139
1895.1299650761011,1146
1897.0941948312952,1159
1899.0579395071945,1140
1901.0211993680641,1137
1902.98397467825,1199
1904.9462657021745,1141
1906.9080727043415,1175
1908.869395949332,1144
1910.8302357018065,1154
1912.790592226504,1099
1914.7504657882428,1132
1916.7098566519212,1116
1918.6687650825133,1069
1920.6271913450764,1100
1922.5851357047422,1140
1924.5425984267245,1158
1926.499579776314,1177
1928.4560800188833,1183
1930.4120994198802,1125
1932.367638244833,1091
1934.32269675935,1119
1936.2772752291175,1148
1938.231373919899,1126
1940.1849930975404,1101
1942.1381330279637,1132
1944.0907939771696,1160
1946.0429762112412,1115
1947.9946799963363,1107
1949.9459055986945,1127
1951.896653284633,1091
1953.8469233205478,1128
1955.7967159729142,1121
1957.7460315082863,1083
1959.6948701932974,1159
1961.6432322946594,1102
1963.5911180791632,1158
1965.5385278136787,1153
1967.4854617651545,1070
1969.4319202006182,1101
1971.377903387176,1110
1973.3234115920136,1099
1975.268445082395,1107
1977.2130041256642,1108
1979.1570889892423,1111
1981.1006999406304,1107
1983.04383724741,1155
1984.986501177238,1107
1986.928691997853,1075
1988.8704099770712,1079
1990.811655382789,1101
1992.7524284829801,1130
1994.692729545698,1146
1996.6325588390755,1129
1998.5719166313224,1145
2000.5108031907307,1121
2002.4492187856677,1066
2004.387163684583,1077
2006.3246381560011,1066
2008.2616424685298,1042
2010.1981768908527,1067
2012.1342416917332,1064
2014.069837140014,1145
2016.0049635046162,1085
2017.9396210545406,1075
2019.8738100588666,1102
2021.8075307867502,1079
2023.740783507431,1055
2025.6735684902228,1079
2027.6058860045214,1116
2029.5377363198004,1113
2031.4691197056118,1111
2033.4000364315875,1132
2035.3304867674374,1097
2037.260470982952,1110
2039.189989347998,1096
2041.1190421325232,1117
2043.047629606554,1052
2044.9757520401945,1108
2046.9034097036288,1107
2048.8306028671195,1087
2050.7573318010086,1167
2052.683596775716,1024
2054.609398061742,1077
2056.5347359296647,1056
2058.4596106501403,1120
2060.384022493906,1035
2062.3079717317764,1103
2064.231458634646,1088
2066.1544834734873,1039
2068.077046519352,1079
2069.99914804337,1086
2071.9207883167524,1090
2073.8419676107865,1096
2075.7626861968406,1092
2077.6829443463607,1098
2079.6027423308715,1113
2081.522080421977,1114
2083.440958891362,1127
2085.359378010786,1064
2087.2773380520907,1107
2089.194839287196,1110
2091.111881988101,1129
2093.0284664268825,1065
2094.9445928756973,1137
2096.86026160678,1083
2098.775472892446,1051
2100.690227005088,1100
2102.604524217178,1089
2104.5183648012676,1099
2106.431749029985,1124
2108.34467717604,1115
2110.2571495122206,1129
2112.169166311393,1089
2114.080727846503,1114
2115.9918343905747,1123
2117.902486216711,1107
2119.8126835980956,1114
2121.722426807987,1087
2123.6317161197285,1099
2125.5405518067364,1111
2127.448934142509,1116
2129.356863400624,1094
2131.264339854737,1106
2133.1713637785815,1087
2135.077935445972,1144
2136.9840551308002,1127
2138.889723107037,1083
2140.7949396487334,1117
2142.699705030018,1148
2144.6040195250994,1111
2146.507883408264,1124
2148.4112969538774,1094
2150.3142604363848,1058
2152.2167741303097,1147
2154.1188383102535,1129
2156.0204532508997,1159
2157.9216192270064,1099
2159.822336513414,1094
2161.7226053850413,1084
2163.622426116884,1102
2165.5217989840185,1134
2167.4207242616,1105
2169.319202224862,1075
2171.2172331491165,1112
2173.1148173097563,1118
2175.0119549822507,1129
2176.90864644215,1145
2178.8048919650823,1137
2180.7006918267534,1130
2182.596046302952,1192
2184.4909556695407,1115
2186.3854202024645,1103
2188.279440177746,1163
2190.173015871487,1176
2192.066147559868,1159
2193.958835519149,1116
2195.851080025667,1099
2197.7428813558417,1152
2199.6342397861667,1168
2201.5251555932186,1160
2203.415629053651,1148
2205.3056604441986,1154
2207.19525004167,1174
2209.084398122958,1164
2210.9731049650327,1165
2212.861370844941,1145
2214.749196039812,1148
2216.636580826851,1180
2218.523525483344,1201
2220.410030286655,1210
2222.296095514226,1192
2224.1817214435805,1184
2226.066908352319,1203
2227.951656518121,1140
2229.835966218746,1132
2231.71983773203,1144
2233.6032713358913,1199
2235.486267308324,1156
2237.3688259274036,1159
2239.2509474712824,1150
2241.132632218193,1172
2243.013880446447,1217
2244.8946924344323,1162
2246.7750684606203,1201
2248.6550088035574,1176
2250.534513741871,1185
2252.413583554265,1179
2254.292218519526,1249
2256.170418916517,1150
2258.0481850241786,1115
2259.925517121534,1153
2261.8024154876825,1164
2263.678880401803,1160
2265.5549121431536,1219
2267.430510991071,1174
2269.305677224971,1194
2271.180411124348,1101
2273.0547129687766,1140
2274.9285830379076,1147
2276.8020216114737,1175
2278.6750289692845,1143
2280.5476053912294,1167
2282.4197511572766,1215
2284.2914665474727,1179
2286.162751841943,1238
2288.0336073208937,1188
2289.904033264608,1206
2291.774029953448,1158
2293.6435976678554,1195
2295.5127366883517,1188
2297.381447295534,1166
2299.2497297700825,1067
2301.1175843927526,1091
2302.9850114443825,1075
2304.852011205885,1063
2306.7185839582553,1072
2308.5847299825664,1027
2310.4504495599676,1073
2312.3157429716925,1074
2314.1806104990483,1042
2316.0450524234247,1010
2317.9090690262888,1036
2319.772660589186,1077
2321.635827393742,1047
2323.498569721661,1003
2325.3608878547248,985
2327.2227820747967,963
2329.0842526638157,1017
2330.945299903803,1014
2332.805924076857,1003
2334.6661254651535,994
2336.525904350951,1001
2338.3852610165827,1000
2340.244195744464,1064
2342.102708817088,1012
2343.9608005170253,996
2345.8184711269287,1056
2347.675720929526,1026
2349.532550207628,1023
2351.38895924412,1051
2353.24494832197,1014
2355.100517724223,1035
2356.955667734004,992
2358.810398634514,1046
2360.664710709037,1010
2362.5186042409337,1027
2364.3720795136437,1016
2366.225136810686,1015
2368.0777764156583,1003
2369.929998612237,1063
2371.7818036841777,1080
2373.633191915315,1050
2375.484163589562,1048
2377.3347189909114,1022
2379.184858403434,1004
2381.03458211128,1059
2382.8838903986775,1020
2384.732783549936,1070
2386.5812618494406,1036
2388.4293255816588,1062
2390.2769750311327,990
2392.1242104824883,1042
2393.971032220427,1075
2395.8174405297295,1042
2397.6634356952563,1084
2399.509018001947,1040
2401.3541877348193,1030
2403.1989451789705,979
2405.043290619576,1049
2406.8872243418905,987
2408.730746631247,1092
2410.5738577730594,1031
2412.4165580528183,1050
2414.258847756095,1035
2416.100727168537,1057
2417.9421965758734,1068
2419.783256263912,1066
2421.623906518538,1045
2423.4641476257157,1012
2425.303979871491,1044
2427.143403541984,1035
2428.9824189233977,1019
2430.821026302012,1050
2432.6592259641866,1020
2434.497018196361,1076
2436.33440328505,1053
2438.171381516851,1063
2440.00795317844,1044
2441.844118556569,1110
2443.6798779380724,1027
2445.5152316098606,1020
2447.3501798589255,1044
2449.1847229723357,1050
2451.0188612372403,1011
2452.8525949408663,1042
2454.6859243705203,981
2456.518849813587,998
2458.3513715575314,1047
2460.183489889895,1014
2462.015205098301,1049
2463.8465174704493,1046
2465.67742729412,1023
2467.5079348571717,1028
2469.338040447542,1085
2471.1677443532476,1075
2472.9970468623833,1088
2474.825948263123,1033
2476.6544488437207,1051
2478.482548892508,1068
2480.310248697896,1064
2482.137548548374,1014
2483.9644487325118,1039
2485.790949538956,1104
2487.617051256433,1083
2489.44275417375,1081
2491.26805857979,1027
2493.0929647635157,1071
2494.917473013971,1051
2496.741583620276,1042
2498.5652968716304,1038
2500.3886130573137,1079
2502.2115324666834,1106
2504.0340553891765,1086
2505.856182114308,1107
2507.6779129316733,1057
2509.499248130945,1041
2511.3201880018764,1055
2513.140732834298,1053
2514.9608829181198,1082
2516.780638543331,1112
2518.6,1136
2520.418967578273,1114
2522.237541568376,1078
2524.0557222606144,1122
2525.8735099453706,1090
2527.6909049131086,1119
2529.507907454368,1101
2531.32451785977,1112
2533.140736420014,1092
2534.9565634258774,1101
2536.771999168218,1154
2538.5870439379714,1086
2540.4016980261526,1114
2542.2159617238544,1088
2544.02983532225,1035
2545.8433191125914,1074
2547.656413386209,1153
2549.4691184345115,1111
2551.2814345489874,1111
2553.093362021204,1103
2554.904901142808,1156
2556.716052205523,1154
2558.526815501153,1171
2560.3371913215824,1138
2562.147179958771,1188
2563.956781704761,1118
2565.7659968516705,1125
2567.5748256916986,1177
2569.3832685171224,1184
2571.1913256202984,1168
2572.9989972936614,1190
2574.806283829725,1182
2576.613185521084,1124
2578.4197026604074,1102
2580.2258355404483,1167
2582.031584454035,1204
2583.836949694077,1188
2585.6419315535613,1195
2587.4465303255533,1184
2589.2507463032002,1161
2591.0545797797245,1164
2592.8580310484303,1180
2594.6611004026995,1151
2596.463788135992,1158
2598.266094541849,1178
2600.0680199138874,1190
2601.869564545807,1229
2603.670728731383,1121
2605.4715127644704,1192
2607.2719169390048,1163
2609.071941548998,1189
2610.8715868885433,1164
2612.670853251811,1177
2614.469740933052,1136
2616.268250226594,1218
2618.0663814268455,1137
2619.864134828292,1177
2621.6615107255006,1144
2623.458509413115,1174
2625.2551311858597,1149
2627.0513763385347,1123
2628.8472451660223,1151
2630.6427379632833,1170
2632.4378550253564,1122
2634.232596647359,1162
2636.026963124488,1135
2637.8209547520187,1163
2639.6145718253065,1122
2641.407814639785,1097
2643.200683490966,1137
2644.9931786744414,1074
2646.7853004858807,1129
2648.577049221034,1102
2650.3684251757277,1149
2652.1594286458712,1112
2653.9500599274484,1141
2655.740319316525,1143
2657.5302071092437,1095
2659.3197236018286,1149
2661.10886909058,1133
2662.8976438718782,1113
2664.686048242183,1054
2666.4740824980327,1135
2668.2617469360443,1113
2670.0490418529134,1083
2671.8359675454153,1038
2673.622524310403,1042
2675.408712444811,1042
2677.1945322456495,1057
2678.979984010009,1055
2680.76506803506,1077
2682.5497846180497,1070
2684.334134056306,1092
2686.1181166472343,1060
2687.9017326883213,1087
2689.6849824771293,991
2691.4678663113013,1083
2693.2503844885596,1062
2695.032537306705,1015
2696.8143250636167,1036
2698.5957480572542,1042
2700.3768065856534,1056
2702.1575009469316,1000
2703.937831439283,1016
2705.717798360982,1033
2707.4974020103837,1051
2709.276642685917,1092
2711.055520686095,1050
2712.834036309506,1059
2714.612189854819,1031
2716.389981620782,1064
2718.1674119062204,1049
2719.944481010041,1028
2721.721189231226,1011
2723.4975368688415,1005
2725.273524222027,1010
2727.0491515900053,1023
2728.824419272075,1038
2730.5993275676146,1030
2732.3738767760838,1043
2734.148067197016,1015
2735.921899130031,1032
2737.6953728748194,1036
2739.468488731156,1011
2741.2412469988926,1060
2743.0136479779617,1018
2744.785691968372,1009
2746.5573792702116,999
2748.3287101836504,1023
2750.099685008934,1036
2751.870304046388,1036
2753.640567596418,997
2755.4104759595057,1014
2757.1800294362156,982
2758.949228327187,1014
2760.7180729331412,1047
2762.486563554877,1003
2764.254700493272,1013
2766.022484049284,1009
2767.789914523947,1034
2769.5569922183786,987
2771.3237174337705,1079
2773.090090471394,1001
2774.8561116326036,1004
2776.6217812188274,988
2778.3870995315756,1018
2780.1520668724356,1046
2781.9166835430747,1047
2783.6809498452394,979
2785.444866080754,1055
2787.2084325515225,1018
2788.971649559527,1030
2790.73451740683,1033
2792.4970363955713,1027
2794.2592068279705,1040
2796.0210290063264,1009
2797.7825032330147,987
2799.543629810493,977
2801.304409041296,1008
2803.0648412280366,1042
2804.8249266734088,1031
2806.5846656801846,1015
2808.344058551212,985
2810.1031055894246,1041
2811.8618070978273,1020
2813.6201633795085,1054
2815.378174737636,1001
2817.1358414754536,1039
2818.893163896285,1054
2820.6501423035334,1004
2822.4067770006814,1059
2824.1630682912883,982
2825.9190164789957,1043
2827.6746218675207,1005
2829.429884760661,1009
2831.184805462294,1027
2832.9393842763743,1034
2834.693621506936,1030
2836.4475174580916,1047
2838.201072434034,1027
2839.954286739034,994
2841.707160677441,1021
2843.459694553685,1014
2845.2118886722724,1053
2846.96374333779,1058
2848.7152588549034,1050
2850.4664355283567,1026
2852.217273662973,1005
2853.9677735636546,988
2855.7179355353833,1016
2857.4677598832186,1043
2859.217246912299,1055
2860.9663969278427,1001
2862.715210235146,979
2864.4636871395846,945
2866.211827946614,1023
2867.9596329617652,1031
2869.7071024906536,1024
2871.4542368389684,1030
2873.20103631248,1001
2874.947501217038,1067
2876.6936318585695,1006
2878.4394285430812,1044
2880.1848915766604,1003
2881.9300212654707,1049
2883.6748179157553,1020
2885.4192818338374,1002
2887.1634133261173,1049
2888.907212699077,1021
2890.6506802592744,1017
2892.393816313348,977
2894.1366211680142,1065
2895.8790951300693,986
2897.621238506388,1013
2899.363051603925,1009
2901.1045347297118,1022
2902.8456881908596,1037
2904.58651229456,1014
2906.327007348081,970
2908.067173658772,1027
2909.8070115340597,1009
2911.5465212814497,1035
2913.285703208527,1012
2915.0245576229563,985
2916.7630848324807,980
2918.5012851449196,992
2920.2391588681758,987
2921.976706310227,1041
2923.7139277791334,1019
2925.4508235830313,1049
2927.187394030137,995
2928.923639428745,976
2930.6595600872306,1039
2932.395156314046,1018
2934.1304284177218,1079
2935.8653767068713,1016
2937.6000014901815,1025
2939.3343030764227,1051
2941.068281774442,1004
2942.8019378931644,1013
2944.5352717415976,988
2946.2682836288236,1012
2948.0009738640065,1053
2949.7333427563885,1053
2951.465390615289,1043
2953.1971177501086,982
2954.9285244703265,1052
2956.6596110855,1027
2958.3903779052657,1015
2960.1208252393385,1056
2961.8509533975125,1031
2963.5807626896617,999
2965.3102534257378,1000
2967.0394259157715,1028
2968.768280469873,1018
2970.496817398232,981
2972.2250370111146,1035
2973.952939618869,1002
2975.6805255319196,1074
2977.4077950607707,994
2979.134748516006,1118
2980.861386208289,1057
2982.587708448359,993
2984.313715547037,1042
2986.039407815222,1021
2987.764785563891,1052
2989.489849104102,973
2991.2145987469908,1052
2992.9390348037705,1051
2994.6631575857346,1030
2996.3869674042576,1037
2998.1104645707887,1038
2999.83364939686,1010
3001.5565221940783,1032
3003.2790832741334,1010
3005.0013329487924,1011
3006.7232715298996,1014
3008.4448993293804,1020
3010.166216659239,961
3011.887223831558,1016
3013.607921158498,1008
3015.3283089522993,987
3017.0483875252826,1013
3018.7681571898443,956
3020.4876182584626,1012
3022.2067710436927,972
3023.9256158581707,1011
3025.644153014609,1033
3027.362382825801,1020
3029.0803056046193,993
3030.797921664012,1005
3032.5152313170106,989
3034.2322348767225,1002
3035.9489326563353,1028
3037.665324969115,982
3039.3814121284063,1039
3041.097194447633,987
3042.812672240299,1014
3044.5278458199855,1023
3046.2427155003525,1036
3047.9572815951406,1036
3049.671544418167,1034
3051.38550428333,988
3053.0991615046073,1019
3054.812516396051,1022
3056.5255692717974,982
3058.2383204460575,1024
3059.9507702331257,1019
3061.662918947372,1003
3063.3747669032446,1040
3065.0863144152736,1008
3066.7975617980674,1011
3068.508509366309,985
3070.219157434767,997
3071.9295063182844,1000
3073.639556331785,994
3075.3493077902704,1027
3077.058761008821,1027
3078.7679163025964,1035
3080.476773986837,1001
3082.1853343768594,986
3083.89359778806,1056
3085.6015645359153,1065
3087.3092349359786,1040
3089.016609303884,996
3090.7236879553434,1039
3092.4304712061476,998
3094.136959372166,1018
3095.843152769349,974
3097.5490517137237,1012
3099.2546565213966,998
3100.959967508554,964
3102.66498499146,1011
3104.3697092864577,997
3106.0741407099695,1051
3107.778279578498,1008
3109.482126208622,1015
3111.1856809170004,1027
3112.8889440203716,1076
3114.5919158355528,1070
3116.294596679439,1033
3117.996986869006,1016
3119.6990867213062,1026
3121.4008965534726,1034
3123.102416682717,1030
3124.803647426329,1054
3126.5045891016784,1013
3128.205242026213,1013
3129.90560651746,1023
3131.605682893025,1044
3133.3054714705922,1028
3135.0049725679282,1036
3136.7041865028714,1014
3138.4031135933465,1056
3140.101754157353,1020
3141.800108512971,993
3143.498176978357,1042
3145.1959598717494,997
3146.8934575114636,999
3148.5906702158954,1002
3150.2875983035183,1027
3151.9842420928853,1033
3153.680601902627,999
3155.376678051456,1002
3157.07247085816,993
3158.767980641609,994
3160.463207720748,989
3162.158152414606,992
3163.8528150422862,1025
3165.5471959229726,1039
3167.2412953759303,1010
3168.9351137204976,1022
3170.628651276098,994
3172.3219083622307,1016
3174.014885298474,1005
3175.707582404485,1035
3177.4000000000005,977
3179.092138404835,1033
3180.7839979388846,1011
3182.47557892212,1016
3184.166881674594,983
3185.8579065164386,990
3187.5486537678626,1001
3189.2391237491547,1014
3190.9293167806827,1005
3192.6192331828934,987
3194.3088732763117,1023
3195.998237381542,1008
3197.687325819268,990
3199.376138910251,982
3201.064676975334,1008
3202.7529403354347,996
3204.4409293115523,965
3206.1286442247647,991
3207.816085396229,1020
3209.5032531471825,976
3211.190147798936,972
3212.8767696728846,1024
3214.5631190905015,987
3216.2491963733373,970
3217.9350018430214,1001
3219.6205358212637,1001
3221.305798629851,987
3222.990790590651,966
3224.6755120256103,990
3226.359963256751,1011
3228.0441446061795,988
3229.7280563960758,975
3231.411698948703,936
3233.0950725863995,981
3234.778177631587,988
3236.461014406761,939
3238.1435832345005,939
3239.8258844374595,977
3241.507918338374,1000
3243.1896852600576,1049
3244.8711855254023,978
3246.552419457381,999
3248.233387379042,990
3249.914089613516,1006
3251.59452648401,970
3253.274698313813,1013
3254.95460542629,953
3256.6342481448855,975
3258.313626793125,1006
3259.9927416946084,998
3261.6715931730196,993
3263.3501815521176,992
3265.0285071557437,1031
3266.706570307815,944
3268.3843713323286,992
3270.0619105533615,959
3271.739188295068,1019
3273.4162048816834,1037
3275.0929606375184,1031
3276.769455886966,957
3278.445690954498,1016
3280.1216661646613,987
3281.797381842087,990
3283.4728383114807,1045
3285.1480358976296,1011
3286.8229749253996,1006
3288.4976557197333,1007
3290.172078605655,1027
3291.846243908266,988
3293.5201519527463,1000
3295.193803064357,1001
3296.8671975684374,989
3298.5403357904024,968
3300.21321805575,995
3301.8858446900567,982
3303.558216018975,992
3305.23033236824,990
3306.9021940636603,960
3308.57380143113,951
3310.2451547966184,1014
3311.916254486174,1043
3313.5871008259246,984
3315.2576941420766,1023
3316.9280347609147,1030
3318.5981230088046,998
3320.2679592121895,1003
3321.9375436975924,967
3323.606876791612,969
3325.27595882093,981
3326.944790112305,987
3328.6133709925753,1004
3330.2817017886573,964
3331.949782827547,969
3333.617614436319,982
3335.2851969421245,989
3336.952530672199,975
3338.619615953853,1031
3340.286453114475,988
3341.9530424815357,980
3343.619384382583,993
3345.2854791452437,972
3346.951327097224,1012
3348.6169285663073,1037
3350.2822838803577,992
3351.947393367319,1001
3353.61225735521,1016
3355.2768761721345,1030
3356.9412501462693,976
3358.605379605873,968
3360.2692648792827,1009
3361.9329062949146,1016
3363.596304181263,1022
