CollectionTime,9/19/2024 11:48:30 AM
ExposureUsed,3
CalibratedSpectrum
-962.7078968117929,591
-959.9714848408522,609
-957.2358232597828,651
-954.5009119013725,624
-951.7667505983302,658
-949.0333391832855,649
-946.3006774887896,674
-943.5687653473143,672
-940.837602591253,680
-938.1071890529199,657
-935.3775245645503,643
-932.6486089583007,620
-929.9204420662485,668
-927.1930237203925,648
-924.4663537526524,682
-921.7404319948689,649
-919.0152582788041,647
-916.2908324361409,638
-913.5671542984834,634
-910.8442236973568,625
-908.1220404642074,623
-905.4006044304027,637
-902.679915427231,665
-899.959973285902,638
-897.2407778375464,599
-894.5223289132158,594
-891.8046263438832,621
-889.0876699604426,626
-886.3714595937089,653
-883.6559950744183,589
-880.9412762332282,590
-878.2273029007168,603
-875.5140749073835,635
-872.8015920836489,625
-870.0898542598545,597
-867.3788612662631,595
-864.6686129330585,582
-861.9591090903457,615
-859.2503495681506,601
-856.5423341964203,597
-853.8350628050229,609
-851.1285352237478,604
-848.4227512823054,641
-845.7177108103272,627
-843.0134136373656,624
-840.3098595928943,640
-837.6070485063082,618
-834.9049802069229,635
-832.2036545239757,612
-829.5030712866244,633
-826.8032303239481,608
-824.1041314649472,618
-821.4057745385428,615
-818.7081593735775,634
-816.0112857988148,597
-813.3151536429393,620
-810.6197627345566,625
-807.9251129021936,621
-805.2312039742981,607
-802.5380357792392,659
-799.8456081453069,645
-797.1539209007124,668
-794.462973873588,657
-791.772766891987,644
-789.083299783884,639
-786.3945723771743,643
-783.7065844996748,631
-781.0193359791231,620
-778.3328266431781,645
-775.6470563194197,641
-772.9620248353489,593
-770.2777320183878,639
-767.5941776958798,640
-764.9113616950891,629
-762.2292838432011,655
-759.5479439673222,583
-756.8673418944801,639
-754.1874774516235,637
-751.5083504656222,645
-748.8299607632671,661
-746.15230817127,642
-743.475392516264,664
-740.7992136248035,683
-738.1237713233636,630
-735.4490654383407,670
-732.7750957960521,647
-730.1018622227365,677
-727.4293645445534,655
-724.7576025875837,672
-722.0865761778291,696
-719.4162851412126,640
-716.7467293035781,659
-714.0779084906909,679
-711.409822528237,705
-708.7424712418238,692
-706.0758544569796,734
-703.4099719991541,714
-700.7448236937178,720
-698.0804093659622,698
-695.4167288411002,668
-692.7537819442656,676
-690.0915685005134,705
-687.4300883348199,736
-684.7693412720819,707
-682.1093271371178,752
-679.4500457546669,711
-676.7914969493897,694
-674.1336805458676,708
-671.4765963686034,732
-668.8202442420206,697
-666.1646239904642,714
-663.5097354382001,706
-660.8555784094151,696
-658.2021527282176,719
-655.5494582186366,729
-652.8974947046223,727
-650.2462620100463,729
-647.5957599587009,736
-644.9459883742998,763
-642.2969470804776,751
-639.6486359007902,740
-637.0010546587141,791
-634.3542031776476,768
-631.7080812809096,757
-629.0626887917401,711
-626.4180255333008,727
-623.7740913286734,742
-621.1308860008619,762
-618.4884093727904,714
-615.8466612673046,743
-613.2056415071715,784
-610.5653499150785,739
-607.9257863136347,822
-605.28695052537,812
-602.6488423727357,780
-600.0114616781036,758
-597.3748082637674,763
-594.7388819519412,752
-592.1036825647604,799
-589.4692099242818,842
-586.8354638524829,810
-584.2024441712624,772
-581.5701507024403,791
-578.9385832677575,837
-576.3077416888759,817
-573.6776257873787,805
-571.0482353847704,796
-568.4195703024757,756
-565.7916303618415,807
-563.164415384135,821
-560.5379251905453,787
-557.9121596021815,819
-555.2871184400748,788
-552.6628015251767,827
-550.0392086783606,855
-547.4163397204204,857
-544.794194472071,903
-542.1727727539491,891
-539.5520743866118,838
-536.9320991905377,872
-534.3128469861261,883
-531.6943175936979,933
-529.0765108334947,942
-526.4594265256793,992
-523.8430644903358,1201
-521.2274245474689,1292
-518.612506517005,1442
-515.9983102187913,1382
-513.3848354725959,1466
-510.77208209810846,1521
-508.16004991493924,1563
-505.5487387426199,1688
-502.9381484006032,1700
-500.3282787082628,1710
-497.71912948489364,1657
-495.1107005497117,1473
-492.5029917218539,1323
-489.8960028203786,1189
-487.28973366426493,1049
-484.68418407241325,983
-482.07935386364494,988
-479.47524285670266,968
-476.87185087025,1007
-474.2691777228715,1000
-471.66722323307334,999
-469.0659872192821,979
-466.4654694998459,1027
-463.86566989303384,979
-461.26658821703614,972
-458.66822428996414,965
-456.07057792985,972
-453.4736489546475,944
-450.877437182231,961
-448.28194243039627,921
-445.68716451686,957
-443.09310325926003,934
-440.49975847515555,934
-437.9071299820263,946
-435.31521759727354,934
-432.72402113821954,960
-430.13354042210767,994
-427.5437752661022,964
-424.95472548728867,981
-422.36639090267386,979
-419.7787713291855,1041
-417.1918665836721,995
-414.60567648290385,987
-412.0202008435715,1001
-409.4354394822874,983
-406.8513922155845,994
-404.26805885991723,1045
-401.685439231661,1081
-399.103533147112,1026
-396.522340422488,1040
-393.9418608739278,1018
-391.3620943174908,1018
-388.7830405691583,980
-386.2046994448317,963
-383.6270707603344,929
-381.05015433141045,878
-378.473949973725,898
-375.8984575028645,830
-373.32367673433623,725
-370.74960748356875,701
-368.1762495659117,686
-365.60360279663576,677
-363.03166699093265,593
-360.4604419639154,579
-357.8899275306178,514
-355.32012350599507,558
-352.7510297049233,538
-350.1826459421999,517
-347.61497203254316,475
-345.04800779059235,485
-342.4817530309082,525
-339.91620756797226,592
-337.35137121618743,545
-334.7872437898774,528
-332.22382510328725,504
-329.66111497058273,505
-327.09911320585127,510
-324.53781962310075,538
-321.9772340362607,501
-319.4173562591816,514
-316.8581861056348,503
-314.2997233893127,517
-311.7419679238294,519
-309.1849195227194,527
-306.62857799943856,611
-304.0729431673641,563
-301.51801483979375,554
-298.963792829947,514
-296.41027695096386,555
-293.85746701590574,684
-291.3053628377552,666
-288.7539642294155,630
-286.2032710037115,645
-283.65328297338897,642
-281.1039999511146,645
-278.5554217494762,604
-276.007548180983,608
-273.4603790580651,641
-270.9139141930734,623
-268.3681533982807,684
-265.8230964858798,726
-263.27874326798565,773
-260.7350935566336,714
-258.1921471637804,712
-255.6499039013039,804
-253.10836358100266,863
-250.56752601459698,721
-248.02739101372765,722
-245.48795838995704,760
-242.94922795476816,731
-240.41119951956557,786
-237.8738728956746,760
-235.33724789434166,749
-232.80132432673452,744
-230.2661020039418,724
-227.73158073697357,740
-225.19776033676033,748
-222.66464061415422,803
-220.1322213799284,788
-217.60050244477725,756
-215.06948361931552,787
-212.53916471408013,956
-210.00954553952818,915
-207.48062590603843,783
-204.9524056239104,779
-202.4248845033651,848
-199.8980623545441,904
-197.37193898751036,978
-194.84651421224817,1050
-192.32178783866232,900
-189.79775967657952,887
-187.27442953574644,997
-184.7517972258321,1120
-182.2298625564256,927
-179.7086253370378,811
-177.18808537710026,892
-174.66824248596583,1111
-172.14909647290835,1126
-169.6306471471229,1081
-167.11289431772548,983
-164.59583779375328,1003
-162.07947738416453,1193
-159.5638128978386,1288
-157.04884414357605,1471
-154.53457093009854,1530
-152.02099306604828,1171
-149.50811035998936,1110
-146.99592262040665,1400
-144.48442965570587,1440
-141.97363127421409,1598
-139.46352728417958,1675
-136.95411749377126,1601
-134.44540171107985,1362
-131.93737974411636,1269
-129.43005140081357,1249
-126.92341648902493,1613
-124.41747481652521,1966
-121.91222619101006,2303
-119.40767042009657,2678
-116.90380731132257,2702
-114.40063667214702,3086
-111.8981583099503,3923
-109.3963720320337,5151
-106.89527764561933,6776
-104.39487495785067,7941
-101.89516377579241,10300
-99.39614390642998,16594
-96.89781515667039,22432
-94.40017733334128,24045
-91.90323024319173,20076
-89.40697369289148,16198
-86.91140748903172,9742
-84.41653143812482,6566
-81.92234534660395,8843
-79.42884902082358,13492
-76.93604226705907,16658
-74.4439248915071,19030
-71.95249670028534,20550
-69.46175749943245,17836
-66.97170709490854,13714
-64.48234529259423,10514
-61.99367189829195,9362
-59.50568671772464,9782
-57.01838955653636,9659
-54.53178022029283,12403
-52.045858514480074,14078
-49.560624244506016,16523
-47.07607721569923,18515
-44.59221723330904,22137
-42.10904410250669,24221
-39.62655762838392,21556
-37.14475761595372,17845
-34.66364387015028,19155
-32.18321619582866,24059
-29.70347439776515,23625
-27.224418280657005,21737
-24.74604764912317,26000
-22.26836230770266,41191
-19.7913620608565,65033
-17.315046712966478,65033
-14.83941606833514,65033
-12.36446993118659,65033
-9.89020810566592,65033
-7.416630395839093,65033
-4.94373660569363,65033
-2.471526539137585,65033
-6.821210263296962E-13,65033
2.47084320796705,65033
4.941003281093458,65033
7.410480415786196,65033
9.879274808531363,65033
12.347386655893956,65033
14.814816154518212,65033
17.28156350112681,65033
19.74762889252179,65033
22.21301252558385,65033
24.67771459727237,23815
27.141735304626195,8571
29.605074844762612,6765
32.06773341487792,5651
34.52971121224755,5372
36.99100843422559,5105
39.45162527824516,4323
41.91156194181792,4474
44.370818622535126,5090
46.82939551806646,4721
49.287292826160524,6229
51.74451074464503,5842
54.201049471426245,3909
56.65690920448981,3240
59.112090141899785,2901
61.56659248179983,2912
64.02041642241159,2829
66.4735621620365,3169
68.92602989905402,3872
71.37781983192338,3625
73.82893215918205,2837
76.27936707944684,2073
78.72912479141326,2060
81.17820549385567,2204
83.62660938562783,2132
86.07433666566146,1848
88.5213875329681,1681
90.96776218663751,1818
93.41346082583925,2111
95.85848364982041,2686
98.30283085790859,2247
100.7465026495089,1703
103.18949922410604,1745
105.63182078126385,1353
108.07346752062438,1370
110.51443964190923,1323
112.95473734491827,1553
115.39436082953114,1572
117.83331029570547,1461
120.27158594347827,1447
122.7091879729652,1614
125.1461165843615,1435
127.58237197794062,1302
130.01795435405518,1356
132.4528639131364,1311
134.88710085569494,1259
137.32066538231982,1385
139.75355769367923,1362
142.1857779905207,1390
144.61732647366978,1138
147.04820334403132,1173
149.47840880258934,1179
151.90794305040674,1204
154.33680628862487,1334
156.76499871846443,1522
159.19252054122433,1553
161.61937195828352,1685
164.04555317109896,1793
166.47106438120693,1998
168.89590579022217,2145
171.320077599839,2337
173.7435800118302,2470
176.16641322804742,2522
178.58857745042144,2546
181.01007288096173,2574
183.43089972175687,2512
185.85105817497413,2638
188.27054844285988,2590
190.6893707277394,2613
193.10752523201643,2557
195.5250121581745,2754
197.9418317087751,2785
200.3579840864594,2675
202.7734694939469,2794
205.18828813403627,2910
207.6024402096051,2941
210.01592592360964,2887
212.42874547908548,2991
214.84089907914665,2980
217.2523869269868,2824
219.66320922587727,2986
222.0733661791695,2857
224.48285799029293,2847
226.8916848627572,3053
229.29984700014882,2991
231.7073446061355,2941
234.11417788446204,3027
236.520347038953,3107
238.92585227351185,3238
241.33069379212054,3312
243.73487179884035,3335
246.1383864978112,3215
248.541238093252,3221
250.9434267894609,3387
253.34495279081432,3393
255.74581630176783,3285
258.1460175268563,3365
260.54555667069314,3357
262.9444339379703,3342
265.3426495334594,3360
267.7402036620107,3225
270.1370965285529,3171
272.53332833809407,3045
274.9288992957214,2953
277.32380960660055,2765
279.718059475976,2802
282.1116491091717,2773
284.5045787115897,2724
286.89684848871195,2667
289.2884586460981,2724
291.67940938938807,2785
294.0697009242996,2928
296.4593334566299,2720
298.84830719225477,2687
301.23662233712923,2640
303.6242790972866,2590
306.01127767884,2578
308.39761828798066,2609
310.78330113097934,2590
313.16832641418534,2417
315.5526943440269,2532
317.9364051270112,2438
320.3194589697242,2466
322.70185607883093,2416
325.0835966610754,2483
327.4646809232805,2380
329.8451090723478,2380
332.2248813152577,2349
334.6039978590701,2322
336.9824589109231,2296
339.36026467803447,2272
341.7374153677,2224
344.113911187295,2207
346.48975234427337,2226
348.8649390461686,2325
351.2394715005918,2245
353.61334991523415,2179
355.9865744978655,2201
358.35914545633375,2236
360.73106299856715,2222
363.10232733257146,2169
365.47293866643247,2228
367.84289720831396,2169
370.2122031664593,2208
372.5808567491905,2145
374.9488581649083,2153
377.31620762209275,2149
379.6829053293021,2132
382.0489514951745,2088
384.4143463284262,2020
386.7790900378528,2084
389.14318283232853,2195
391.50662492080653,2105
393.86941651231916,2096
396.23155781597745,2097
398.5930490409713,2140
400.9538903965696,2122
403.3140820921202,2109
405.6736243370498,2030
408.03251734086336,1907
410.3907613131465,2053
412.74835646356166,2032
415.10530300185144,2024
417.4616011378372,2044
419.81725108141893,2033
422.1722530425758,2013
424.5266072313656,2071
426.880313857925,2009
429.2333731324701,2001
431.58578526529516,2010
433.9375504667738,2014
436.2886689473588,2049
438.63914091758113,2019
440.9889665880513,1960
443.33814616945835,1935
445.68667987257015,1988
448.03456790823395,1917
450.3818104873759,1901
452.72840782100013,2025
455.07436012019105,2004
457.41966759611057,1960
459.7643304600007,1933
462.10834892318155,1966
464.4517231970525,1906
466.79445349309174,1909
469.1365400228566,1939
471.4779829979826,1961
473.81878263018564,1978
476.15893913125876,1948
478.4984527130747,1985
480.8373235875855,2094
483.17555196682144,2077
485.5131380628919,2093
487.8500820879857,2148
490.1863842543697,2329
492.52204477439034,2342
494.8570638604725,2598
497.1914417251204,2847
499.52517858091653,3239
501.85827464052306,3395
504.19073011668036,3644
506.5225452222086,3724
508.85372017000566,3864
511.18425517304956,3982
513.514150444396,4385
515.8434061971808,5716
518.1720226446176,6568
520.4999999999999,6590
522.8273384766991,6254
525.1540382881666,5912
527.480099647932,5268
529.8055227696037,4104
532.1303078668694,3025
534.454455153496,2446
536.777964843328,2200
539.1008371502907,2181
541.4230722883866,2120
543.744670471698,2070
546.0656319143858,2060
548.3859568306899,1983
550.7056454349294,2061
553.0246979415016,1994
555.3431145648834,1982
557.6608955196306,1994
559.978041020377,2003
562.2945512818363,1911
564.6104265188006,2059
566.9256669461412,1979
569.2402727788082,1905
571.5542442318302,2051
573.8675815203156,2038
576.1802848594508,1939
578.4923544645015,2073
580.8037905508126,2114
583.114593333807,2025
585.4247630289875,1966
587.7342998519354,1917
590.0432040183106,2026
592.3514757438526,2002
594.6591152443794,1994
596.9661227357875,2080
599.2724984340531,1964
601.578242555231,2038
603.8833553154542,2021
606.1878369309362,2014
608.4916876179676,1970
610.7949075929192,1971
613.0974970722403,1901
615.3994562724587,2003
617.7007854101818,2073
620.0014847020951,2081
622.3015543649641,2036
624.6009946156324,2013
626.8998056710224,2031
629.1979877481361,2003
631.4955410640538,1955
633.7924658359349,2032
636.0887622810175,2066
638.3844306166192,2094
640.6794710601358,2072
642.9738838290426,2073
645.2676691408932,2155
647.5608272133207,1997
649.853358264037,2176
652.1452625108324,2073
654.4365401715764,2131
656.7271914642178,2073
659.0172166067838,2007
661.3066158173809,2122
663.5953893141935,2124
665.8835373154867,2112
668.1710600396028,2134
670.4579577049639,2085
672.7442305300709,2112
675.0298787335033,2098
677.3149025339197,2131
679.599302150058,2071
681.8830778007342,2077
684.1662297048437,2060
686.4487580813608,2077
688.7306631493387,2079
691.0119451279091,1996
693.2926042362834,2101
695.5726406937516,1987
697.8520547196814,2097
700.1308465335215,1961
702.4090163547982,2034
704.6865644031171,2082
706.9634908981619,2031
709.2397960596965,2038
711.5154801075631,2002
713.7905432616823,2042
716.0649857420548,2073
718.3388077687592,2047
720.612009561953,2002
722.8845913418733,2021
725.1565533288352,1987
727.427895743234,2010
729.6986188055427,2026
731.9687227363137,1959
734.238207756178,2029
736.5070740858458,2008
738.7753219461066,2097
741.0429515578281,2085
743.3099631419569,2091
745.5763569195191,2090
747.8421331116193,1978
750.1072919394409,2013
752.3718336242467,2053
754.6357583873777,1997
756.8990664502545,2053
759.1617580343765,2001
761.423833361321,1996
763.6852926527457,1991
765.9461361303862,2061
768.206364016058,1943
770.4659765316536,2106
772.7249738991469,2067
774.9833563405886,2018
777.2411240781092,2052
779.4982773339183,2066
781.7548163303044,2041
784.010741289634,2007
786.2660524343538,2070
788.5207499869881,2093
790.7748341701416,2049
793.0283052064964,2081
795.2811633188143,2107
797.5334087299362,2064
799.7850416627813,2013
802.0360623403484,2143
804.2864709857143,2074
806.5362678220353,2072
808.7854530725468,2038
811.0340269605625,2022
813.2819897094754,2110
815.5293415427581,2187
817.77608268396,2090
820.0222133567116,2032
822.2677337847211,2010
824.5126441917765,2024
826.7569448017433,2097
829.0006358385675,2066
831.2437175262731,2161
833.4861900889629,2052
835.7280537508192,2082
837.9693087361026,2073
840.2099552691533,2110
842.4499935743896,2146
844.689423876309,2071
846.9282463994886,2111
849.1664613685833,2095
851.4040690083276,2129
853.6410695435349,2109
855.877463199097,2074
858.1132501999847,2109
860.3484307712487,2164
862.5830051380175,2137
864.8169735254988,2124
867.0503361589791,2116
869.2830932638243,2129
871.5152450654786,2113
873.7467917894654,2095
875.9777336613873,2202
878.2080709069252,2141
880.4378037518389,2055
882.666932421968,2083
884.8954571432301,2121
887.1233781416219,2168
889.3506956432192,2132
891.5774098741766,2146
893.803521060728,2221
896.0290294291852,2122
898.2539352059397,2118
900.4782386174619,2171
902.7019398903011,2082
904.925039251085,2038
907.147536926521,2138
909.3694331433943,2130
911.59072812857,2176
913.8114221089921,2127
916.0315153116827,2188
918.2510079637437,2112
920.4699002923547,1984
922.6881925247761,2081
924.905884888345,2097
927.1229776104793,2218
929.3394709186747,2112
931.555365040506,2072
933.7706602036275,2070
935.9853566357709,2164
938.1994545647489,2236
940.4129542184515,2158
942.6258558248488,2200
944.8381596119883,2159
947.0498658079974,2094
949.2609746410825,2149
951.4714863395287,2109
953.6814011316998,2157
955.8907192460387,2130
958.0994409110671,2170
960.3075663553858,2141
962.5150958076741,2131
964.7220294966913,2123
966.928367651274,2114
969.1341105003388,2126
971.3392582728806,2081
973.5438111979742,2123
975.747769504772,1995
977.9511334225061,2073
980.153903180487,2062
982.3560790081052,2092
984.5576611348289,2074
986.7586497902058,2016
988.9590452038618,2022
991.158847605503,1985
993.3580572249133,1987
995.5566742919558,1931
997.7546990365728,1909
999.952131688785,1828
1002.1489724786926,1743
1004.3452216364743,1814
1006.5408793923874,1801
1008.7359459767691,1828
1010.9304216200343,1761
1013.1243065526781,1761
1015.3176010052733,1828
1017.510305208472,1744
1019.7024193930064,1771
1021.8939437896848,1747
1024.0848786293977,1764
1026.2752241431122,1741
1028.4649805618747,1766
1030.6541481168115,1743
1032.842727039127,1725
1035.0307175601051,1742
1037.2181199111074,1668
1039.4049343235752,1706
1041.591161029029,1693
1043.7768002590683,1771
1045.9618522453698,1714
1048.1463172196918,1778
1050.3301954138697,1751
1052.513487059818,1711
1054.69619238953,1717
1056.8783116350783,1686
1059.0598450286152,1597
1061.2407928023704,1712
1063.4211551886528,1703
1065.6009324198508,1648
1067.780124728432,1682
1069.9587323469414,1655
1072.1367555080046,1685
1074.314194444325,1664
1076.4910493886855,1647
1078.667320573947,1648
1080.843008233051,1623
1083.0181125990161,1645
1085.1926339049414,1588
1087.3665723840027,1727
1089.5399282694575,1643
1091.7127017946405,1615
1093.8848931929647,1551
1096.0565026979243,1556
1098.2275305430899,1606
1100.3979769621128,1580
1102.567842188722,1639
1104.737126456726,1606
1106.9058300000124,1596
1109.0739530525475,1611
1111.2414958483764,1569
1113.4084586216231,1578
1115.5748416064907,1541
1117.7406450372605,1619
1119.9058691482942,1622
1122.0705141740304,1584
1124.2345803489884,1552
1126.3980679077658,1574
1128.5609770850388,1523
1130.7233081155623,1600
1132.8850612341707,1522
1135.0462366757774,1604
1137.2068346753745,1613
1139.3668554680326,1542
1141.526299288901,1526
1143.68516637321,1535
1145.8434569562655,1533
1148.001171273455,1535
1150.158309560244,1572
1152.3148720521767,1537
1154.470858984876,1534
1156.626270594044,1525
1158.7811071154629,1508
1160.9353687849912,1552
1163.089055838569,1556
1165.242168512213,1493
1167.3947070420209,1565
1169.5466716641677,1505
1171.6980626149075,1543
1173.8488801305748,1542
1175.9991244475814,1576
1178.1487958024186,1498
1180.2978944316555,1532
1182.4464205719428,1557
1184.5943744600072,1565
1186.7417563326567,1506
1188.8885664267755,1584
1191.0348049793297,1523
1193.1804722273619,1543
1195.325568407995,1494
1197.4700937584303,1506
1199.614048515948,1551
1201.7574329179074,1592
1203.900247201746,1568
1206.042491604982,1480
1208.1841663652099,1599
1210.3252717201053,1552
1212.465807907422,1601
1214.6057751649923,1582
1216.7451737307279,1608
1218.8840038426192,1579
1221.0222657387353,1554
1223.1599596572241,1570
1225.2970858363137,1574
1227.4336445143094,1556
1229.5696359295966,1639
1231.705060320639,1617
1233.8399179259786,1576
1235.9742089842384,1635
1238.107933734118,1659
1240.2410924143974,1599
1242.373685263935,1657
1244.5057125216676,1587
1246.6371744266116,1587
1248.7680712178621,1619
1250.898403134593,1616
1253.028170416058,1633
1255.1573733015875,1568
1257.2860120305932,1622
1259.4140868425648,1551
1261.54159797707,1596
1263.6685456737569,1603
1265.7949301723515,1592
1267.9207517126597,1634
1270.046010534565,1632
1272.1707068780306,1660
1274.2948409830983,1654
1276.4184130898889,1602
1278.541423438603,1661
1280.6638722695184,1664
1282.785759822993,1714
1284.9070863394636,1694
1287.0278520594447,1747
1289.1480572235314,1697
1291.2677020723963,1706
1293.3867868467923,1703
1295.5053117875495,1738
1297.623277135579,1690
1299.740683131868,1738
1301.8575300174857,1815
1303.973818033578,1743
1306.0895474213703,1825
1308.2047184221678,1747
1310.3193312773528,1812
1312.4333862283888,1756
1314.5468835168163,1718
1316.659823384255,1799
1318.7722060724045,1802
1320.8840318230418,1786
1322.9953008780249,1796
1325.1060134792888,1810
1327.2161698688478,1796
1329.3257702887959,1796
1331.4348149813054,1853
1333.5433041886276,1821
1335.6512381530933,1816
1337.7586171171101,1794
1339.8654413231675,1790
1341.9717110138317,1718
1344.0774264317488,1753
1346.1825878196432,1793
1348.2871954203192,1813
1350.3912494766587,1797
1352.4947502316231,1747
1354.5976979282532,1726
1356.7000928096686,1748
1358.8019351190665,1741
1360.9032250997243,1728
1363.0039629949988,1769
1365.1041490483235,1752
1367.2037835032133,1695
1369.3028666032606,1758
1371.401398592137,1767
1373.4993797135926,1865
1375.5968102114575,1740
1377.6936903296396,1852
1379.7900203121262,1739
1381.8858004029835,1821
1383.9810308463561,1792
1386.075711886469,1752
1388.1698437676241,1777
1390.2634267342032,1814
1392.356461030667,1768
1394.4489469015557,1785
1396.5408845914872,1788
1398.6322743451592,1786
1400.7231164073469,1814
1402.813411022907,1866
1404.903158436773,1858
1406.9923588939578,1808
1409.0810126395531,1892
1411.1691199187303,1899
1413.2566809767386,1937
1415.343696058907,1900
1417.4301654106425,1925
1419.5160892774315,1888
1421.6014679048399,1849
1423.6863015385125,1886
1425.7705904241707,1918
1427.8543348076178,1962
1429.9375349347342,1990
1432.0201910514802,2025
1434.102303403894,1947
1436.1838722380944,2061
1438.2648978002767,2009
1440.3453803367174,2109
1442.4253200937692,2127
1444.5047173178677,2097
1446.5835722555234,2167
1448.6618851533285,2226
1450.739656257952,2154
1452.8168858161434,2168
1454.8935740747306,2218
1456.96972128062,2258
1459.045327680797,2282
1461.120393522327,2270
1463.1949190523528,2431
1465.2689045180973,2417
1467.3423501668608,2456
1469.415256246024,2493
1471.4876230030463,2566
1473.559450685465,2606
1475.6307395408976,2640
1477.7014898170391,2596
1479.771701761665,2674
1481.8413756226287,2685
1483.9105116478618,2729
1485.9791100853772,2651
1488.0471711832643,2825
1490.1146951896926,2788
1492.1816823529098,2842
1494.2481329212433,2788
1496.3140471430984,2906
1498.3794252669609,2924
1500.4442675413939,2948
1502.5085742150404,3027
1504.572345536622,3025
1506.6355817549388,3102
1508.6982831188702,3062
1510.7604498773744,3122
1512.8220822794883,3188
1514.8831805743293,3201
1516.9437450110909,3111
1519.003775839048,3220
1521.0632733075522,3191
1523.1222376660367,3114
1525.1806691640113,3206
1527.2385680510652,3298
1529.2959345768668,3320
1531.3527689911643,3368
1533.4090715437833,3352
1535.4648424846291,3332
1537.5200820636855,3418
1539.5747905310159,3517
1541.6289681367616,3467
1543.6826151311434,3480
1545.7357317644614,3596
1547.7883182870937,3619
1549.8403749494987,3599
1551.8919020022113,3728
1553.9428996958477,3827
1555.9933682811015,3886
1558.0433080087469,3954
1560.0927191296346,3905
1562.1416018946961,4037
1564.1899565549415,4038
1566.2377833614592,4073
1568.2850825654164,4003
1570.3318544180606,3913
1572.3780991707158,3762
1574.423817074788,3703
1576.4690083817595,3536
1578.5136733431923,3451
1580.5578122107272,3297
1582.601425236085,3140
1584.6445126710646,2991
1586.6870747675434,2903
1588.7291117774776,2723
1590.7706239529034,2677
1592.8116115459347,2573
1594.8520748087658,2578
1596.8920139936686,2455
1598.9314293529933,2453
1600.9703211391711,2276
1603.008689604711,2253
1605.0465350022005,2165
1607.0838575843068,2176
1609.1206576037753,2038
1611.1569353134305,2033
1613.1926909661765,1959
1615.2279248149953,1955
1617.2626371129481,1895
1619.2968281131757,1887
1621.3304980688963,1867
1623.3636472334088,1828
1625.39627586009,1827
1627.428384202396,1834
1629.459972513861,1782
1631.4910410480993,1744
1633.5215900588028,1739
1635.551619799744,1717
1637.5811305247717,1736
1639.6101224878166,1703
1641.6385959428862,1767
1643.6665511440683,1720
1645.693988345528,1703
1647.7209078015112,1662
1649.7473097663405,1658
1651.7731944944203,1681
1653.7985622402307,1632
1655.823413258333,1687
1657.847747803366,1624
1659.8715661300494,1698
1661.8948684931793,1690
1663.9176551476316,1661
1665.9399263483624,1641
1667.9616823504057,1644
1669.982923408873,1678
1672.0036497789574,1667
1674.0238617159293,1659
1676.043559475138,1616
1678.0627433120121,1599
1680.081413482059,1600
1682.0995702408654,1655
1684.117213844096,1601
1686.134344547495,1609
1688.1509626068864,1622
1690.1670682781705,1593
1692.182661817329,1535
1694.1977434804217,1577
1696.2123135235875,1565
1698.226372203043,1612
1700.2399197750851,1673
1702.2529564960905,1610
1704.2654826225112,1645
1706.277498410882,1583
1708.2890041178139,1601
1710.2999999999988,1700
1712.3104863142066,1571
1714.3204633172854,1589
1716.329931266163,1580
1718.3388904178469,1553
1720.3473410294214,1554
1722.3552833580516,1647
1724.3627176609807,1572
1726.3696441955308,1567
1728.3760632191033,1548
1730.3819749891782,1556
1732.3873797633146,1532
1734.3922777991502,1531
1736.3966693544012,1565
1738.4005546868639,1533
1740.4039340544127,1566
1742.406807715001,1491
1744.4091759266616,1537
1746.4110389475054,1507
1748.4123970357223,1551
1750.413250449582,1528
1752.4135994474318,1556
1754.4134442876993,1528
1756.4127852288902,1515
1758.4116225295893,1481
1760.4099564484595,1547
1762.407787244244,1473
1764.405115175764,1469
1766.4019405019203,1513
1768.3982634816916,1478
1770.3940843741357,1416
1772.3894034383907,1474
1774.3842209336717,1469
1776.378537119274,1518
1778.372352254571,1460
1780.3656665990156,1460
1782.3584804121397,1468
1784.3507939535534,1508
1786.3426074829463,1512
1788.3339212600863,1496
1790.3247355448211,1476
1792.3150505970766,1491
1794.3048666768573,1482
1796.2941840442477,1583
1798.2830029594106,1452
1800.2713236825884,1463
1802.2591464741004,1440
1804.2464715943465,1448
1806.2332993038058,1477
1808.2196298630352,1423
1810.2054635326708,1447
1812.190800573428,1447
1814.175641246101,1394
1816.1599858115628,1435
1818.1438345307652,1517
1820.127187664738,1516
1822.1100454745924,1443
1824.092408221516,1477
1826.0742761667766,1458
1828.055649571721,1402
1830.0365286977735,1487
1832.0169138064398,1444
1833.9968051593014,1444
1835.9762030180214,1422
1837.9551076443408,1442
1839.9335193000788,1495
1841.9114382471344,1406
1843.888864747485,1463
1845.8657990631878,1437
1847.842241456378,1472
1849.8181921892697,1428
1851.7936515241558,1397
1853.7686197234098,1440
1855.7430970494815,1417
1857.7170837649014,1422
1859.6905801322787,1441
1861.6635864143004,1412
1863.6361028737338,1443
1865.608129773424,1463
1867.5796673762961,1490
1869.5507159453537,1476
1871.521275743678,1491
1873.4913470344313,1433
1875.4609300808534,1430
1877.4300251462632,1534
1879.3986324940588,1454
1881.366752387717,1495
1883.3343850907936,1441
1885.3015308669228,1482
1887.268189979819,1538
1889.2343626932739,1481
1891.2000492711595,1488
1893.1652499774254,1572
1895.1299650761011,1482
1897.0941948312952,1491
1899.0579395071945,1477
1901.0211993680641,1546
1902.98397467825,1482
1904.9462657021745,1459
1906.9080727043415,1516
1908.869395949332,1534
1910.8302357018065,1499
1912.790592226504,1555
1914.7504657882428,1512
1916.7098566519212,1452
1918.6687650825133,1465
1920.6271913450764,1483
1922.5851357047422,1568
1924.5425984267245,1463
1926.499579776314,1438
1928.4560800188833,1479
1930.4120994198802,1490
1932.367638244833,1475
1934.32269675935,1547
1936.2772752291175,1463
1938.231373919899,1519
1940.1849930975404,1526
1942.1381330279637,1420
1944.0907939771696,1472
1946.0429762112412,1434
1947.9946799963363,1505
1949.9459055986945,1442
1951.896653284633,1454
1953.8469233205478,1460
1955.7967159729142,1478
1957.7460315082863,1447
1959.6948701932974,1419
1961.6432322946594,1456
1963.5911180791632,1485
1965.5385278136787,1379
1967.4854617651545,1497
1969.4319202006182,1450
1971.377903387176,1454
1973.3234115920136,1419
1975.268445082395,1467
1977.2130041256642,1414
1979.1570889892423,1415
1981.1006999406304,1412
1983.04383724741,1396
1984.986501177238,1482
1986.928691997853,1416
1988.8704099770712,1497
1990.811655382789,1423
1992.7524284829801,1415
1994.692729545698,1396
1996.6325588390755,1391
1998.5719166313224,1387
2000.5108031907307,1365
2002.4492187856677,1407
2004.387163684583,1414
2006.3246381560011,1387
2008.2616424685298,1398
2010.1981768908527,1445
2012.1342416917332,1410
2014.069837140014,1415
2016.0049635046162,1366
2017.9396210545406,1433
2019.8738100588666,1424
2021.8075307867502,1411
2023.740783507431,1391
2025.6735684902228,1401
2027.6058860045214,1380
2029.5377363198004,1382
2031.4691197056118,1449
2033.4000364315875,1358
2035.3304867674374,1357
2037.260470982952,1420
2039.189989347998,1417
2041.1190421325232,1389
2043.047629606554,1383
2044.9757520401945,1398
2046.9034097036288,1395
2048.8306028671195,1433
2050.7573318010086,1393
2052.683596775716,1393
2054.609398061742,1349
2056.5347359296647,1339
2058.4596106501403,1366
2060.384022493906,1449
2062.3079717317764,1397
2064.231458634646,1426
2066.1544834734873,1358
2068.077046519352,1400
2069.99914804337,1379
2071.9207883167524,1343
2073.8419676107865,1374
2075.7626861968406,1393
2077.6829443463607,1406
2079.6027423308715,1341
2081.522080421977,1386
2083.440958891362,1393
2085.359378010786,1399
2087.2773380520907,1382
2089.194839287196,1379
2091.111881988101,1429
2093.0284664268825,1386
2094.9445928756973,1433
2096.86026160678,1416
2098.775472892446,1384
2100.690227005088,1392
2102.604524217178,1475
2104.5183648012676,1413
2106.431749029985,1448
2108.34467717604,1418
2110.2571495122206,1382
2112.169166311393,1403
2114.080727846503,1451
2115.9918343905747,1390
2117.902486216711,1420
2119.8126835980956,1413
2121.722426807987,1398
2123.6317161197285,1445
2125.5405518067364,1429
2127.448934142509,1497
2129.356863400624,1440
2131.264339854737,1480
2133.1713637785815,1522
2135.077935445972,1481
2136.9840551308002,1438
2138.889723107037,1402
2140.7949396487334,1425
2142.699705030018,1405
2144.6040195250994,1443
2146.507883408264,1415
2148.4112969538774,1447
2150.3142604363848,1454
2152.2167741303097,1452
2154.1188383102535,1438
2156.0204532508997,1429
2157.9216192270064,1397
2159.822336513414,1486
2161.7226053850413,1467
2163.622426116884,1412
2165.5217989840185,1476
2167.4207242616,1472
2169.319202224862,1455
2171.2172331491165,1448
2173.1148173097563,1438
2175.0119549822507,1447
2176.90864644215,1460
2178.8048919650823,1438
2180.7006918267534,1466
2182.596046302952,1524
2184.4909556695407,1526
2186.3854202024645,1444
2188.279440177746,1416
2190.173015871487,1425
2192.066147559868,1467
2193.958835519149,1525
2195.851080025667,1487
2197.7428813558417,1465
2199.6342397861667,1392
2201.5251555932186,1458
2203.415629053651,1543
2205.3056604441986,1509
2207.19525004167,1511
2209.084398122958,1488
2210.9731049650327,1474
2212.861370844941,1469
2214.749196039812,1474
2216.636580826851,1479
2218.523525483344,1507
2220.410030286655,1457
2222.296095514226,1484
2224.1817214435805,1441
2226.066908352319,1467
2227.951656518121,1478
2229.835966218746,1497
2231.71983773203,1464
2233.6032713358913,1502
2235.486267308324,1506
2237.3688259274036,1459
2239.2509474712824,1496
2241.132632218193,1491
2243.013880446447,1474
2244.8946924344323,1489
2246.7750684606203,1466
2248.6550088035574,1438
2250.534513741871,1476
2252.413583554265,1478
2254.292218519526,1495
2256.170418916517,1519
2258.0481850241786,1441
2259.925517121534,1435
2261.8024154876825,1443
2263.678880401803,1519
2265.5549121431536,1472
2267.430510991071,1485
2269.305677224971,1502
2271.180411124348,1529
2273.0547129687766,1468
2274.9285830379076,1430
2276.8020216114737,1477
2278.6750289692845,1429
2280.5476053912294,1445
2282.4197511572766,1524
2284.2914665474727,1410
2286.162751841943,1523
2288.0336073208937,1598
2289.904033264608,1521
2291.774029953448,1542
2293.6435976678554,1493
2295.5127366883517,1492
2297.381447295534,1441
2299.2497297700825,1421
2301.1175843927526,1331
2302.9850114443825,1382
2304.852011205885,1385
2306.7185839582553,1344
2308.5847299825664,1305
2310.4504495599676,1276
2312.3157429716925,1285
2314.1806104990483,1306
2316.0450524234247,1351
2317.9090690262888,1293
2319.772660589186,1282
2321.635827393742,1280
2323.498569721661,1289
2325.3608878547248,1261
2327.2227820747967,1312
2329.0842526638157,1302
2330.945299903803,1299
2332.805924076857,1306
2334.6661254651535,1301
2336.525904350951,1263
2338.3852610165827,1265
2340.244195744464,1248
2342.102708817088,1257
2343.9608005170253,1271
2345.8184711269287,1310
2347.675720929526,1266
2349.532550207628,1312
2351.38895924412,1322
2353.24494832197,1290
2355.100517724223,1292
2356.955667734004,1270
2358.810398634514,1292
2360.664710709037,1295
2362.5186042409337,1346
2364.3720795136437,1310
2366.225136810686,1325
2368.0777764156583,1256
2369.929998612237,1317
2371.7818036841777,1360
2373.633191915315,1311
2375.484163589562,1321
2377.3347189909114,1295
2379.184858403434,1349
2381.03458211128,1234
2382.8838903986775,1291
2384.732783549936,1327
2386.5812618494406,1302
2388.4293255816588,1307
2390.2769750311327,1307
2392.1242104824883,1250
2393.971032220427,1307
2395.8174405297295,1326
2397.6634356952563,1323
2399.509018001947,1325
2401.3541877348193,1349
2403.1989451789705,1333
2405.043290619576,1305
2406.8872243418905,1333
2408.730746631247,1345
2410.5738577730594,1373
2412.4165580528183,1364
2414.258847756095,1342
2416.100727168537,1327
2417.9421965758734,1371
2419.783256263912,1337
2421.623906518538,1326
2423.4641476257157,1338
2425.303979871491,1330
2427.143403541984,1329
2428.9824189233977,1353
2430.821026302012,1309
2432.6592259641866,1318
2434.497018196361,1388
2436.33440328505,1345
2438.171381516851,1315
2440.00795317844,1326
2441.844118556569,1320
2443.6798779380724,1432
2445.5152316098606,1372
2447.3501798589255,1368
2449.1847229723357,1397
2451.0188612372403,1331
2452.8525949408663,1348
2454.6859243705203,1347
2456.518849813587,1338
2458.3513715575314,1389
2460.183489889895,1361
2462.015205098301,1359
2463.8465174704493,1353
2465.67742729412,1334
2467.5079348571717,1353
2469.338040447542,1357
2471.1677443532476,1373
2472.9970468623833,1428
2474.825948263123,1400
2476.6544488437207,1389
2478.482548892508,1368
2480.310248697896,1389
2482.137548548374,1360
2483.9644487325118,1391
2485.790949538956,1412
2487.617051256433,1368
2489.44275417375,1349
2491.26805857979,1339
2493.0929647635157,1381
2494.917473013971,1438
2496.741583620276,1415
2498.5652968716304,1417
2500.3886130573137,1405
2502.2115324666834,1398
2504.0340553891765,1373
2505.856182114308,1460
2507.6779129316733,1390
2509.499248130945,1400
2511.3201880018764,1399
2513.140732834298,1366
2514.9608829181198,1406
2516.780638543331,1396
2518.6,1409
2520.418967578273,1399
2522.237541568376,1394
2524.0557222606144,1404
2525.8735099453706,1450
2527.6909049131086,1471
2529.507907454368,1404
2531.32451785977,1527
2533.140736420014,1422
2534.9565634258774,1519
2536.771999168218,1441
2538.5870439379714,1499
2540.4016980261526,1477
2542.2159617238544,1507
2544.02983532225,1483
2545.8433191125914,1574
2547.656413386209,1565
2549.4691184345115,1554
2551.2814345489874,1491
2553.093362021204,1605
2554.904901142808,1535
2556.716052205523,1622
2558.526815501153,1597
2560.3371913215824,1567
2562.147179958771,1604
2563.956781704761,1608
2565.7659968516705,1680
2567.5748256916986,1669
2569.3832685171224,1613
2571.1913256202984,1688
2572.9989972936614,1633
2574.806283829725,1711
2576.613185521084,1676
2578.4197026604074,1735
2580.2258355404483,1727
2582.031584454035,1751
2583.836949694077,1671
2585.6419315535613,1790
2587.4465303255533,1697
2589.2507463032002,1782
2591.0545797797245,1770
2592.8580310484303,1739
2594.6611004026995,1702
2596.463788135992,1743
2598.266094541849,1764
2600.0680199138874,1748
2601.869564545807,1757
2603.670728731383,1743
2605.4715127644704,1722
2607.2719169390048,1722
2609.071941548998,1769
2610.8715868885433,1708
2612.670853251811,1728
2614.469740933052,1704
2616.268250226594,1787
2618.0663814268455,1658
2619.864134828292,1744
2621.6615107255006,1713
2623.458509413115,1705
2625.2551311858597,1627
2627.0513763385347,1682
2628.8472451660223,1687
2630.6427379632833,1629
2632.4378550253564,1640
2634.232596647359,1652
2636.026963124488,1640
2637.8209547520187,1684
2639.6145718253065,1566
2641.407814639785,1566
2643.200683490966,1563
2644.9931786744414,1637
2646.7853004858807,1527
2648.577049221034,1540
2650.3684251757277,1516
2652.1594286458712,1553
2653.9500599274484,1546
2655.740319316525,1542
2657.5302071092437,1542
2659.3197236018286,1524
2661.10886909058,1465
2662.8976438718782,1460
2664.686048242183,1460
2666.4740824980327,1460
2668.2617469360443,1451
2670.0490418529134,1442
2671.8359675454153,1442
2673.622524310403,1427
2675.408712444811,1436
2677.1945322456495,1445
2678.979984010009,1472
2680.76506803506,1401
2682.5497846180497,1389
2684.334134056306,1361
2686.1181166472343,1400
2687.9017326883213,1368
2689.6849824771293,1347
2691.4678663113013,1354
2693.2503844885596,1286
2695.032537306705,1348
2696.8143250636167,1339
2698.5957480572542,1368
2700.3768065856534,1377
2702.1575009469316,1326
2703.937831439283,1297
2705.717798360982,1357
2707.4974020103837,1368
2709.276642685917,1292
2711.055520686095,1345
2712.834036309506,1348
2714.612189854819,1341
2716.389981620782,1289
2718.1674119062204,1331
2719.944481010041,1335
2721.721189231226,1275
2723.4975368688415,1302
2725.273524222027,1382
2727.0491515900053,1330
2728.824419272075,1301
2730.5993275676146,1333
2732.3738767760838,1350
2734.148067197016,1283
2735.921899130031,1274
2737.6953728748194,1291
2739.468488731156,1292
2741.2412469988926,1264
2743.0136479779617,1319
2744.785691968372,1262
2746.5573792702116,1243
2748.3287101836504,1266
2750.099685008934,1248
2751.870304046388,1295
2753.640567596418,1275
2755.4104759595057,1313
2757.1800294362156,1268
2758.949228327187,1261
2760.7180729331412,1254
2762.486563554877,1246
2764.254700493272,1286
2766.022484049284,1210
2767.789914523947,1245
2769.5569922183786,1217
2771.3237174337705,1297
2773.090090471394,1290
2774.8561116326036,1334
2776.6217812188274,1309
2778.3870995315756,1321
2780.1520668724356,1274
2781.9166835430747,1268
2783.6809498452394,1208
2785.444866080754,1270
2787.2084325515225,1236
2788.971649559527,1229
2790.73451740683,1251
2792.4970363955713,1216
2794.2592068279705,1290
2796.0210290063264,1179
2797.7825032330147,1256
2799.543629810493,1272
2801.304409041296,1301
2803.0648412280366,1221
2804.8249266734088,1286
2806.5846656801846,1289
2808.344058551212,1247
2810.1031055894246,1263
2811.8618070978273,1261
2813.6201633795085,1259
2815.378174737636,1216
2817.1358414754536,1261
2818.893163896285,1179
2820.6501423035334,1315
2822.4067770006814,1212
2824.1630682912883,1259
2825.9190164789957,1237
2827.6746218675207,1259
2829.429884760661,1268
2831.184805462294,1293
2832.9393842763743,1265
2834.693621506936,1268
2836.4475174580916,1239
2838.201072434034,1262
2839.954286739034,1265
2841.707160677441,1286
2843.459694553685,1236
2845.2118886722724,1236
2846.96374333779,1314
2848.7152588549034,1181
2850.4664355283567,1244
2852.217273662973,1285
2853.9677735636546,1295
2855.7179355353833,1190
2857.4677598832186,1273
2859.217246912299,1227
2860.9663969278427,1277
2862.715210235146,1298
2864.4636871395846,1244
2866.211827946614,1270
2867.9596329617652,1253
2869.7071024906536,1253
2871.4542368389684,1272
2873.20103631248,1250
2874.947501217038,1181
2876.6936318585695,1247
2878.4394285430812,1260
2880.1848915766604,1230
2881.9300212654707,1256
2883.6748179157553,1263
2885.4192818338374,1298
2887.1634133261173,1283
2888.907212699077,1265
2890.6506802592744,1309
2892.393816313348,1305
2894.1366211680142,1241
2895.8790951300693,1265
2897.621238506388,1239
2899.363051603925,1271
2901.1045347297118,1234
2902.8456881908596,1281
2904.58651229456,1209
2906.327007348081,1262
2908.067173658772,1185
2909.8070115340597,1221
2911.5465212814497,1221
2913.285703208527,1236
2915.0245576229563,1269
2916.7630848324807,1283
2918.5012851449196,1234
2920.2391588681758,1245
2921.976706310227,1202
2923.7139277791334,1287
2925.4508235830313,1281
2927.187394030137,1263
2928.923639428745,1273
2930.6595600872306,1232
2932.395156314046,1324
2934.1304284177218,1223
2935.8653767068713,1268
2937.6000014901815,1233
2939.3343030764227,1283
2941.068281774442,1234
2942.8019378931644,1230
2944.5352717415976,1212
2946.2682836288236,1186
2948.0009738640065,1282
2949.7333427563885,1205
2951.465390615289,1223
2953.1971177501086,1248
2954.9285244703265,1229
2956.6596110855,1281
2958.3903779052657,1203
2960.1208252393385,1271
2961.8509533975125,1236
2963.5807626896617,1239
2965.3102534257378,1206
2967.0394259157715,1274
2968.768280469873,1265
2970.496817398232,1257
2972.2250370111146,1199
2973.952939618869,1256
2975.6805255319196,1245
2977.4077950607707,1232
2979.134748516006,1261
2980.861386208289,1296
2982.587708448359,1291
2984.313715547037,1246
2986.039407815222,1251
2987.764785563891,1242
2989.489849104102,1299
2991.2145987469908,1234
2992.9390348037705,1214
2994.6631575857346,1213
2996.3869674042576,1257
2998.1104645707887,1243
2999.83364939686,1211
3001.5565221940783,1257
3003.2790832741334,1197
3005.0013329487924,1221
3006.7232715298996,1185
3008.4448993293804,1242
3010.166216659239,1235
3011.887223831558,1233
3013.607921158498,1205
3015.3283089522993,1246
3017.0483875252826,1250
3018.7681571898443,1194
3020.4876182584626,1193
3022.2067710436927,1162
3023.9256158581707,1221
3025.644153014609,1212
3027.362382825801,1216
3029.0803056046193,1246
3030.797921664012,1210
3032.5152313170106,1233
3034.2322348767225,1250
3035.9489326563353,1233
3037.665324969115,1272
3039.3814121284063,1222
3041.097194447633,1192
3042.812672240299,1217
3044.5278458199855,1298
3046.2427155003525,1254
3047.9572815951406,1254
3049.671544418167,1252
3051.38550428333,1242
3053.0991615046073,1178
3054.812516396051,1189
3056.5255692717974,1221
3058.2383204460575,1224
3059.9507702331257,1194
3061.662918947372,1265
3063.3747669032446,1196
3065.0863144152736,1211
3066.7975617980674,1208
3068.508509366309,1234
3070.219157434767,1201
3071.9295063182844,1203
3073.639556331785,1227
3075.3493077902704,1215
3077.058761008821,1255
3078.7679163025964,1269
3080.476773986837,1237
3082.1853343768594,1186
3083.89359778806,1267
3085.6015645359153,1249
3087.3092349359786,1196
3089.016609303884,1252
3090.7236879553434,1248
3092.4304712061476,1273
3094.136959372166,1255
3095.843152769349,1255
3097.5490517137237,1253
3099.2546565213966,1240
3100.959967508554,1205
3102.66498499146,1210
3104.3697092864577,1217
3106.0741407099695,1194
3107.778279578498,1215
3109.482126208622,1228
3111.1856809170004,1277
3112.8889440203716,1268
3114.5919158355528,1212
3116.294596679439,1234
3117.996986869006,1267
3119.6990867213062,1245
3121.4008965534726,1289
3123.102416682717,1307
3124.803647426329,1291
3126.5045891016784,1274
3128.205242026213,1234
3129.90560651746,1261
3131.605682893025,1261
3133.3054714705922,1284
3135.0049725679282,1274
3136.7041865028714,1234
3138.4031135933465,1229
3140.101754157353,1220
3141.800108512971,1239
3143.498176978357,1233
3145.1959598717494,1232
3146.8934575114636,1243
3148.5906702158954,1192
3150.2875983035183,1202
3151.9842420928853,1199
3153.680601902627,1171
3155.376678051456,1252
3157.07247085816,1208
3158.767980641609,1239
3160.463207720748,1214
3162.158152414606,1216
3163.8528150422862,1252
3165.5471959229726,1224
3167.2412953759303,1243
3168.9351137204976,1266
3170.628651276098,1269
3172.3219083622307,1241
3174.014885298474,1203
3175.707582404485,1224
3177.4000000000005,1187
3179.092138404835,1219
3180.7839979388846,1240
3182.47557892212,1221
3184.166881674594,1237
3185.8579065164386,1249
3187.5486537678626,1192
3189.2391237491547,1210
3190.9293167806827,1225
3192.6192331828934,1232
3194.3088732763117,1188
3195.998237381542,1230
3197.687325819268,1208
3199.376138910251,1190
3201.064676975334,1180
3202.7529403354347,1171
3204.4409293115523,1173
3206.1286442247647,1185
3207.816085396229,1164
3209.5032531471825,1176
3211.190147798936,1238
3212.8767696728846,1235
3214.5631190905015,1194
3216.2491963733373,1223
3217.9350018430214,1161
3219.6205358212637,1189
3221.305798629851,1200
3222.990790590651,1135
3224.6755120256103,1195
3226.359963256751,1152
3228.0441446061795,1153
3229.7280563960758,1197
3231.411698948703,1179
3233.0950725863995,1192
3234.778177631587,1202
3236.461014406761,1210
3238.1435832345005,1234
3239.8258844374595,1214
3241.507918338374,1173
3243.1896852600576,1213
3244.8711855254023,1193
3246.552419457381,1216
3248.233387379042,1207
3249.914089613516,1169
3251.59452648401,1217
3253.274698313813,1199
3254.95460542629,1220
3256.6342481448855,1200
3258.313626793125,1188
3259.9927416946084,1175
3261.6715931730196,1188
3263.3501815521176,1167
3265.0285071557437,1177
3266.706570307815,1198
3268.3843713323286,1168
3270.0619105533615,1167
3271.739188295068,1204
3273.4162048816834,1207
3275.0929606375184,1237
3276.769455886966,1244
3278.445690954498,1176
3280.1216661646613,1170
3281.797381842087,1221
3283.4728383114807,1189
3285.1480358976296,1201
3286.8229749253996,1155
3288.4976557197333,1146
3290.172078605655,1169
3291.846243908266,1206
3293.5201519527463,1191
3295.193803064357,1189
3296.8671975684374,1169
3298.5403357904024,1183
3300.21321805575,1143
3301.8858446900567,1189
3303.558216018975,1114
3305.23033236824,1188
3306.9021940636603,1183
3308.57380143113,1211
3310.2451547966184,1173
3311.916254486174,1224
3313.5871008259246,1220
3315.2576941420766,1211
3316.9280347609147,1156
3318.5981230088046,1148
3320.2679592121895,1185
3321.9375436975924,1160
3323.606876791612,1162
3325.27595882093,1190
3326.944790112305,1171
3328.6133709925753,1216
3330.2817017886573,1182
3331.949782827547,1162
3333.617614436319,1166
3335.2851969421245,1212
3336.952530672199,1197
3338.619615953853,1212
3340.286453114475,1185
3341.9530424815357,1210
3343.619384382583,1171
3345.2854791452437,1150
3346.951327097224,1184
3348.6169285663073,1184
3350.2822838803577,1236
3351.947393367319,1217
3353.61225735521,1181
3355.2768761721345,1190
3356.9412501462693,1162
3358.605379605873,1193
3360.2692648792827,1194
3361.9329062949146,1185
3363.596304181263,1156
