CollectionTime,9/19/2024 11:50:12 AM
ExposureUsed,3
CalibratedSpectrum
-962.7078968117929,627
-959.9714848408522,633
-957.2358232597828,667
-954.5009119013725,648
-951.7667505983302,637
-949.0333391832855,700
-946.3006774887896,679
-943.5687653473143,667
-940.837602591253,651
-938.1071890529199,679
-935.3775245645503,612
-932.6486089583007,611
-929.9204420662485,646
-927.1930237203925,645
-924.4663537526524,666
-921.7404319948689,658
-919.0152582788041,683
-916.2908324361409,672
-913.5671542984834,623
-910.8442236973568,616
-908.1220404642074,632
-905.4006044304027,633
-902.679915427231,642
-899.959973285902,609
-897.2407778375464,589
-894.5223289132158,618
-891.8046263438832,628
-889.0876699604426,702
-886.3714595937089,691
-883.6559950744183,622
-880.9412762332282,633
-878.2273029007168,631
-875.5140749073835,649
-872.8015920836489,611
-870.0898542598545,606
-867.3788612662631,602
-864.6686129330585,621
-861.9591090903457,636
-859.2503495681506,596
-856.5423341964203,634
-853.8350628050229,628
-851.1285352237478,649
-848.4227512823054,626
-845.7177108103272,659
-843.0134136373656,665
-840.3098595928943,669
-837.6070485063082,632
-834.9049802069229,650
-832.2036545239757,606
-829.5030712866244,628
-826.8032303239481,609
-824.1041314649472,647
-821.4057745385428,643
-818.7081593735775,610
-816.0112857988148,630
-813.3151536429393,630
-810.6197627345566,644
-807.9251129021936,638
-805.2312039742981,673
-802.5380357792392,654
-799.8456081453069,657
-797.1539209007124,628
-794.462973873588,617
-791.772766891987,665
-789.083299783884,634
-786.3945723771743,630
-783.7065844996748,662
-781.0193359791231,646
-778.3328266431781,641
-775.6470563194197,589
-772.9620248353489,639
-770.2777320183878,653
-767.5941776958798,624
-764.9113616950891,679
-762.2292838432011,658
-759.5479439673222,636
-756.8673418944801,653
-754.1874774516235,643
-751.5083504656222,679
-748.8299607632671,642
-746.15230817127,675
-743.475392516264,660
-740.7992136248035,623
-738.1237713233636,672
-735.4490654383407,655
-732.7750957960521,662
-730.1018622227365,643
-727.4293645445534,695
-724.7576025875837,633
-722.0865761778291,709
-719.4162851412126,677
-716.7467293035781,680
-714.0779084906909,675
-711.409822528237,709
-708.7424712418238,731
-706.0758544569796,718
-703.4099719991541,736
-700.7448236937178,715
-698.0804093659622,693
-695.4167288411002,684
-692.7537819442656,657
-690.0915685005134,710
-687.4300883348199,714
-684.7693412720819,742
-682.1093271371178,745
-679.4500457546669,726
-676.7914969493897,661
-674.1336805458676,679
-671.4765963686034,712
-668.8202442420206,744
-666.1646239904642,690
-663.5097354382001,686
-660.8555784094151,695
-658.2021527282176,713
-655.5494582186366,727
-652.8974947046223,764
-650.2462620100463,714
-647.5957599587009,755
-644.9459883742998,766
-642.2969470804776,788
-639.6486359007902,782
-637.0010546587141,803
-634.3542031776476,817
-631.7080812809096,782
-629.0626887917401,793
-626.4180255333008,780
-623.7740913286734,823
-621.1308860008619,751
-618.4884093727904,738
-615.8466612673046,769
-613.2056415071715,770
-610.5653499150785,751
-607.9257863136347,763
-605.28695052537,811
-602.6488423727357,760
-600.0114616781036,790
-597.3748082637674,773
-594.7388819519412,821
-592.1036825647604,850
-589.4692099242818,805
-586.8354638524829,799
-584.2024441712624,835
-581.5701507024403,761
-578.9385832677575,848
-576.3077416888759,795
-573.6776257873787,805
-571.0482353847704,782
-568.4195703024757,805
-565.7916303618415,836
-563.164415384135,867
-560.5379251905453,806
-557.9121596021815,813
-555.2871184400748,759
-552.6628015251767,755
-550.0392086783606,818
-547.4163397204204,833
-544.794194472071,894
-542.1727727539491,868
-539.5520743866118,850
-536.9320991905377,906
-534.3128469861261,888
-531.6943175936979,909
-529.0765108334947,927
-526.4594265256793,993
-523.8430644903358,1169
-521.2274245474689,1335
-518.612506517005,1307
-515.9983102187913,1375
-513.3848354725959,1426
-510.77208209810846,1423
-508.16004991493924,1506
-505.5487387426199,1572
-502.9381484006032,1673
-500.3282787082628,1556
-497.71912948489364,1447
-495.1107005497117,1377
-492.5029917218539,1250
-489.8960028203786,1121
-487.28973366426493,1031
-484.68418407241325,967
-482.07935386364494,958
-479.47524285670266,913
-476.87185087025,993
-474.2691777228715,964
-471.66722323307334,979
-469.0659872192821,973
-466.4654694998459,1025
-463.86566989303384,1011
-461.26658821703614,932
-458.66822428996414,977
-456.07057792985,971
-453.4736489546475,940
-450.877437182231,926
-448.28194243039627,928
-445.68716451686,944
-443.09310325926003,957
-440.49975847515555,926
-437.9071299820263,932
-435.31521759727354,1016
-432.72402113821954,993
-430.13354042210767,994
-427.5437752661022,930
-424.95472548728867,960
-422.36639090267386,1019
-419.7787713291855,1085
-417.1918665836721,1053
-414.60567648290385,974
-412.0202008435715,996
-409.4354394822874,1053
-406.8513922155845,1005
-404.26805885991723,1059
-401.685439231661,1050
-399.103533147112,1072
-396.522340422488,1014
-393.9418608739278,972
-391.3620943174908,981
-388.7830405691583,991
-386.2046994448317,936
-383.6270707603344,891
-381.05015433141045,899
-378.473949973725,885
-375.8984575028645,808
-373.32367673433623,753
-370.74960748356875,686
-368.1762495659117,682
-365.60360279663576,655
-363.03166699093265,591
-360.4604419639154,550
-357.8899275306178,531
-355.32012350599507,566
-352.7510297049233,534
-350.1826459421999,572
-347.61497203254316,518
-345.04800779059235,486
-342.4817530309082,521
-339.91620756797226,595
-337.35137121618743,583
-334.7872437898774,549
-332.22382510328725,523
-329.66111497058273,521
-327.09911320585127,503
-324.53781962310075,556
-321.9772340362607,522
-319.4173562591816,495
-316.8581861056348,506
-314.2997233893127,494
-311.7419679238294,525
-309.1849195227194,571
-306.62857799943856,605
-304.0729431673641,539
-301.51801483979375,567
-298.963792829947,525
-296.41027695096386,567
-293.85746701590574,589
-291.3053628377552,589
-288.7539642294155,593
-286.2032710037115,606
-283.65328297338897,644
-281.1039999511146,676
-278.5554217494762,609
-276.007548180983,597
-273.4603790580651,646
-270.9139141930734,603
-268.3681533982807,647
-265.8230964858798,717
-263.27874326798565,731
-260.7350935566336,704
-258.1921471637804,703
-255.6499039013039,763
-253.10836358100266,858
-250.56752601459698,735
-248.02739101372765,778
-245.48795838995704,814
-242.94922795476816,814
-240.41119951956557,784
-237.8738728956746,765
-235.33724789434166,822
-232.80132432673452,820
-230.2661020039418,770
-227.73158073697357,749
-225.19776033676033,788
-222.66464061415422,871
-220.1322213799284,831
-217.60050244477725,796
-215.06948361931552,807
-212.53916471408013,1013
-210.00954553952818,976
-207.48062590603843,867
-204.9524056239104,792
-202.4248845033651,855
-199.8980623545441,912
-197.37193898751036,997
-194.84651421224817,1032
-192.32178783866232,907
-189.79775967657952,962
-187.27442953574644,1072
-184.7517972258321,1234
-182.2298625564256,1101
-179.7086253370378,904
-177.18808537710026,955
-174.66824248596583,1119
-172.14909647290835,1098
-169.6306471471229,1153
-167.11289431772548,987
-164.59583779375328,971
-162.07947738416453,1202
-159.5638128978386,1328
-157.04884414357605,1527
-154.53457093009854,1480
-152.02099306604828,1102
-149.50811035998936,1095
-146.99592262040665,1434
-144.48442965570587,1579
-141.97363127421409,1679
-139.46352728417958,1826
-136.95411749377126,1710
-134.44540171107985,1378
-131.93737974411636,1243
-129.43005140081357,1182
-126.92341648902493,1527
-124.41747481652521,2064
-121.91222619101006,2544
-119.40767042009657,2665
-116.90380731132257,2508
-114.40063667214702,2773
-111.8981583099503,3350
-109.3963720320337,4468
-106.89527764561933,6056
-104.39487495785067,8158
-101.89516377579241,10727
-99.39614390642998,16648
-96.89781515667039,21506
-94.40017733334128,22896
-91.90323024319173,19763
-89.40697369289148,16332
-86.91140748903172,9506
-84.41653143812482,6147
-81.92234534660395,8479
-79.42884902082358,14658
-76.93604226705907,19991
-74.4439248915071,24568
-71.95249670028534,27303
-69.46175749943245,23758
-66.97170709490854,18101
-64.48234529259423,13628
-61.99367189829195,11637
-59.50568671772464,11661
-57.01838955653636,9865
-54.53178022029283,12049
-52.045858514480074,12133
-49.560624244506016,14548
-47.07607721569923,17379
-44.59221723330904,19947
-42.10904410250669,21907
-39.62655762838392,21651
-37.14475761595372,20806
-34.66364387015028,24377
-32.18321619582866,29950
-29.70347439776515,30039
-27.224418280657005,28497
-24.74604764912317,35066
-22.26836230770266,51471
-19.7913620608565,65034
-17.315046712966478,65034
-14.83941606833514,65034
-12.36446993118659,65034
-9.89020810566592,65034
-7.416630395839093,65034
-4.94373660569363,65034
-2.471526539137585,65034
-6.821210263296962E-13,65034
2.47084320796705,65034
4.941003281093458,65034
7.410480415786196,65034
9.879274808531363,65034
12.347386655893956,65034
14.814816154518212,65034
17.28156350112681,65034
19.74762889252179,65034
22.21301252558385,65034
24.67771459727237,23504
27.141735304626195,8761
29.605074844762612,7923
32.06773341487792,6252
34.52971121224755,6467
36.99100843422559,5675
39.45162527824516,4194
41.91156194181792,4249
44.370818622535126,5608
46.82939551806646,4995
49.287292826160524,6369
51.74451074464503,6889
54.201049471426245,4270
56.65690920448981,3143
59.112090141899785,2756
61.56659248179983,3353
64.02041642241159,3120
66.4735621620365,3157
68.92602989905402,3604
71.37781983192338,3825
73.82893215918205,2772
76.27936707944684,1911
78.72912479141326,1875
81.17820549385567,2382
83.62660938562783,2516
86.07433666566146,1859
88.5213875329681,1739
90.96776218663751,1771
93.41346082583925,1982
95.85848364982041,2566
98.30283085790859,2374
100.7465026495089,1791
103.18949922410604,1629
105.63182078126385,1369
108.07346752062438,1341
110.51443964190923,1318
112.95473734491827,1471
115.39436082953114,1711
117.83331029570547,1558
120.27158594347827,1425
122.7091879729652,1519
125.1461165843615,1568
127.58237197794062,1408
130.01795435405518,1468
132.4528639131364,1397
134.88710085569494,1264
137.32066538231982,1368
139.75355769367923,1545
142.1857779905207,1496
144.61732647366978,1158
147.04820334403132,1225
149.47840880258934,1149
151.90794305040674,1248
154.33680628862487,1386
156.76499871846443,1511
159.19252054122433,1603
161.61937195828352,1711
164.04555317109896,1828
166.47106438120693,2098
168.89590579022217,2221
171.320077599839,2216
173.7435800118302,2362
176.16641322804742,2516
178.58857745042144,2662
181.01007288096173,2773
183.43089972175687,2636
185.85105817497413,2650
188.27054844285988,2600
190.6893707277394,2650
193.10752523201643,2661
195.5250121581745,2652
197.9418317087751,2774
200.3579840864594,2752
202.7734694939469,2739
205.18828813403627,2931
207.6024402096051,3012
210.01592592360964,2936
212.42874547908548,2913
214.84089907914665,2856
217.2523869269868,2817
219.66320922587727,2926
222.0733661791695,2767
224.48285799029293,2830
226.8916848627572,2930
229.29984700014882,3023
231.7073446061355,2902
234.11417788446204,2928
236.520347038953,3095
238.92585227351185,3136
241.33069379212054,3375
243.73487179884035,3315
246.1383864978112,3216
248.541238093252,3171
250.9434267894609,3428
253.34495279081432,3378
255.74581630176783,3399
258.1460175268563,3185
260.54555667069314,3311
262.9444339379703,3342
265.3426495334594,3323
267.7402036620107,3321
270.1370965285529,3164
272.53332833809407,2978
274.9288992957214,2928
277.32380960660055,2741
279.718059475976,2776
282.1116491091717,2843
284.5045787115897,2692
286.89684848871195,2586
289.2884586460981,2625
291.67940938938807,2676
294.0697009242996,2812
296.4593334566299,2704
298.84830719225477,2676
301.23662233712923,2646
303.6242790972866,2521
306.01127767884,2439
308.39761828798066,2490
310.78330113097934,2531
313.16832641418534,2377
315.5526943440269,2425
317.9364051270112,2375
320.3194589697242,2361
322.70185607883093,2391
325.0835966610754,2209
327.4646809232805,2248
329.8451090723478,2338
332.2248813152577,2373
334.6039978590701,2357
336.9824589109231,2273
339.36026467803447,2262
341.7374153677,2199
344.113911187295,2185
346.48975234427337,2230
348.8649390461686,2249
351.2394715005918,2246
353.61334991523415,2157
355.9865744978655,2133
358.35914545633375,2186
360.73106299856715,2177
363.10232733257146,2071
365.47293866643247,2115
367.84289720831396,2051
370.2122031664593,2038
372.5808567491905,2071
374.9488581649083,2115
377.31620762209275,2087
379.6829053293021,2102
382.0489514951745,2025
384.4143463284262,2051
386.7790900378528,1978
389.14318283232853,2063
391.50662492080653,2069
393.86941651231916,2034
396.23155781597745,2014
398.5930490409713,2130
400.9538903965696,2104
403.3140820921202,1984
405.6736243370498,1970
408.03251734086336,2006
410.3907613131465,1980
412.74835646356166,2058
415.10530300185144,2007
417.4616011378372,1932
419.81725108141893,1996
422.1722530425758,2038
424.5266072313656,2043
426.880313857925,1973
429.2333731324701,1911
431.58578526529516,1924
433.9375504667738,1943
436.2886689473588,1921
438.63914091758113,1931
440.9889665880513,1824
443.33814616945835,1938
445.68667987257015,1897
448.03456790823395,1964
450.3818104873759,2005
452.72840782100013,1842
455.07436012019105,1884
457.41966759611057,1919
459.7643304600007,1867
462.10834892318155,1873
464.4517231970525,1929
466.79445349309174,1919
469.1365400228566,1984
471.4779829979826,1907
473.81878263018564,1918
476.15893913125876,1915
478.4984527130747,1914
480.8373235875855,1942
483.17555196682144,2023
485.5131380628919,2062
487.8500820879857,2161
490.1863842543697,2226
492.52204477439034,2295
494.8570638604725,2409
497.1914417251204,2640
499.52517858091653,2850
501.85827464052306,3247
504.19073011668036,3316
506.5225452222086,3379
508.85372017000566,3497
511.18425517304956,3652
513.514150444396,4207
515.8434061971808,5352
518.1720226446176,6173
520.4999999999999,6328
522.8273384766991,6201
525.1540382881666,5642
527.480099647932,4975
529.8055227696037,4006
532.1303078668694,2946
534.454455153496,2423
536.777964843328,2197
539.1008371502907,2096
541.4230722883866,2088
543.744670471698,2043
546.0656319143858,2029
548.3859568306899,1938
550.7056454349294,1928
553.0246979415016,1986
555.3431145648834,1910
557.6608955196306,1905
559.978041020377,1878
562.2945512818363,1875
564.6104265188006,1927
566.9256669461412,1931
569.2402727788082,1899
571.5542442318302,2034
573.8675815203156,1959
576.1802848594508,1906
578.4923544645015,1917
580.8037905508126,1996
583.114593333807,1966
585.4247630289875,1954
587.7342998519354,1868
590.0432040183106,1977
592.3514757438526,2017
594.6591152443794,2006
596.9661227357875,1890
599.2724984340531,1936
601.578242555231,1894
603.8833553154542,1894
606.1878369309362,1915
608.4916876179676,1926
610.7949075929192,1941
613.0974970722403,1905
615.3994562724587,1902
617.7007854101818,1911
620.0014847020951,1974
622.3015543649641,1931
624.6009946156324,1994
626.8998056710224,1990
629.1979877481361,2058
631.4955410640538,1941
633.7924658359349,1966
636.0887622810175,1942
638.3844306166192,1959
640.6794710601358,2058
642.9738838290426,1926
645.2676691408932,2000
647.5608272133207,2031
649.853358264037,2060
652.1452625108324,1985
654.4365401715764,2021
656.7271914642178,2045
659.0172166067838,2057
661.3066158173809,2012
663.5953893141935,2067
665.8835373154867,2068
668.1710600396028,2098
670.4579577049639,2041
672.7442305300709,2094
675.0298787335033,2093
677.3149025339197,2083
679.599302150058,2037
681.8830778007342,1882
684.1662297048437,1910
686.4487580813608,2027
688.7306631493387,1994
691.0119451279091,2066
693.2926042362834,2012
695.5726406937516,2027
697.8520547196814,2023
700.1308465335215,2020
702.4090163547982,1959
704.6865644031171,1980
706.9634908981619,1984
709.2397960596965,2052
711.5154801075631,1982
713.7905432616823,1976
716.0649857420548,2087
718.3388077687592,1984
720.612009561953,2000
722.8845913418733,2000
725.1565533288352,1914
727.427895743234,1932
729.6986188055427,1894
731.9687227363137,1863
734.238207756178,1898
736.5070740858458,1909
738.7753219461066,1978
741.0429515578281,2001
743.3099631419569,1934
745.5763569195191,1951
747.8421331116193,1908
750.1072919394409,1964
752.3718336242467,2020
754.6357583873777,1885
756.8990664502545,1937
759.1617580343765,1933
761.423833361321,1990
763.6852926527457,1976
765.9461361303862,2023
768.206364016058,1954
770.4659765316536,2052
772.7249738991469,2062
774.9833563405886,1997
777.2411240781092,2024
779.4982773339183,2072
781.7548163303044,1987
784.010741289634,2029
786.2660524343538,2043
788.5207499869881,2030
790.7748341701416,2065
793.0283052064964,2034
795.2811633188143,2024
797.5334087299362,2012
799.7850416627813,1924
802.0360623403484,2051
804.2864709857143,1999
806.5362678220353,2036
808.7854530725468,2092
811.0340269605625,2035
813.2819897094754,1979
815.5293415427581,2051
817.77608268396,2013
820.0222133567116,1950
822.2677337847211,1976
824.5126441917765,1973
826.7569448017433,2016
829.0006358385675,2011
831.2437175262731,1934
833.4861900889629,1996
835.7280537508192,2055
837.9693087361026,1955
840.2099552691533,2059
842.4499935743896,2115
844.689423876309,2041
846.9282463994886,2088
849.1664613685833,2105
851.4040690083276,2088
853.6410695435349,2055
855.877463199097,2026
858.1132501999847,2021
860.3484307712487,2081
862.5830051380175,1970
864.8169735254988,2021
867.0503361589791,2009
869.2830932638243,2027
871.5152450654786,2088
873.7467917894654,2067
875.9777336613873,2061
878.2080709069252,2095
880.4378037518389,2032
882.666932421968,2041
884.8954571432301,2100
887.1233781416219,2112
889.3506956432192,2103
891.5774098741766,2107
893.803521060728,2025
896.0290294291852,2021
898.2539352059397,2089
900.4782386174619,2135
902.7019398903011,2029
904.925039251085,2129
907.147536926521,2085
909.3694331433943,2072
911.59072812857,2111
913.8114221089921,2085
916.0315153116827,2059
918.2510079637437,2124
920.4699002923547,1994
922.6881925247761,2037
924.905884888345,1991
927.1229776104793,2006
929.3394709186747,2033
931.555365040506,2078
933.7706602036275,2072
935.9853566357709,2105
938.1994545647489,2125
940.4129542184515,2141
942.6258558248488,2117
944.8381596119883,2132
947.0498658079974,2120
949.2609746410825,2073
951.4714863395287,2088
953.6814011316998,2184
955.8907192460387,2167
958.0994409110671,2132
960.3075663553858,2101
962.5150958076741,2190
964.7220294966913,2113
966.928367651274,2110
969.1341105003388,2003
971.3392582728806,1951
973.5438111979742,2011
975.747769504772,2007
977.9511334225061,2067
980.153903180487,2071
982.3560790081052,2003
984.5576611348289,2009
986.7586497902058,1948
988.9590452038618,1965
991.158847605503,1951
993.3580572249133,1896
995.5566742919558,1893
997.7546990365728,1845
999.952131688785,1798
1002.1489724786926,1771
1004.3452216364743,1764
1006.5408793923874,1740
1008.7359459767691,1750
1010.9304216200343,1794
1013.1243065526781,1735
1015.3176010052733,1718
1017.510305208472,1785
1019.7024193930064,1716
1021.8939437896848,1717
1024.0848786293977,1812
1026.2752241431122,1719
1028.4649805618747,1744
1030.6541481168115,1695
1032.842727039127,1699
1035.0307175601051,1691
1037.2181199111074,1658
1039.4049343235752,1655
1041.591161029029,1673
1043.7768002590683,1699
1045.9618522453698,1645
1048.1463172196918,1703
1050.3301954138697,1714
1052.513487059818,1687
1054.69619238953,1646
1056.8783116350783,1641
1059.0598450286152,1688
1061.2407928023704,1618
1063.4211551886528,1628
1065.6009324198508,1629
1067.780124728432,1686
1069.9587323469414,1602
1072.1367555080046,1640
1074.314194444325,1631
1076.4910493886855,1604
1078.667320573947,1611
1080.843008233051,1621
1083.0181125990161,1618
1085.1926339049414,1631
1087.3665723840027,1606
1089.5399282694575,1596
1091.7127017946405,1524
1093.8848931929647,1613
1096.0565026979243,1572
1098.2275305430899,1613
1100.3979769621128,1566
1102.567842188722,1542
1104.737126456726,1593
1106.9058300000124,1565
1109.0739530525475,1554
1111.2414958483764,1480
1113.4084586216231,1560
1115.5748416064907,1532
1117.7406450372605,1589
1119.9058691482942,1554
1122.0705141740304,1568
1124.2345803489884,1610
1126.3980679077658,1563
1128.5609770850388,1577
1130.7233081155623,1532
1132.8850612341707,1548
1135.0462366757774,1569
1137.2068346753745,1482
1139.3668554680326,1578
1141.526299288901,1545
1143.68516637321,1540
1145.8434569562655,1551
1148.001171273455,1598
1150.158309560244,1488
1152.3148720521767,1520
1154.470858984876,1599
1156.626270594044,1531
1158.7811071154629,1502
1160.9353687849912,1517
1163.089055838569,1517
1165.242168512213,1594
1167.3947070420209,1526
1169.5466716641677,1547
1171.6980626149075,1502
1173.8488801305748,1530
1175.9991244475814,1534
1178.1487958024186,1504
1180.2978944316555,1495
1182.4464205719428,1497
1184.5943744600072,1497
1186.7417563326567,1558
1188.8885664267755,1574
1191.0348049793297,1478
1193.1804722273619,1487
1195.325568407995,1587
1197.4700937584303,1534
1199.614048515948,1597
1201.7574329179074,1573
1203.900247201746,1541
1206.042491604982,1507
1208.1841663652099,1555
1210.3252717201053,1566
1212.465807907422,1592
1214.6057751649923,1587
1216.7451737307279,1473
1218.8840038426192,1538
1221.0222657387353,1618
1223.1599596572241,1607
1225.2970858363137,1595
1227.4336445143094,1582
1229.5696359295966,1535
1231.705060320639,1605
1233.8399179259786,1547
1235.9742089842384,1583
1238.107933734118,1685
1240.2410924143974,1612
1242.373685263935,1645
1244.5057125216676,1628
1246.6371744266116,1623
1248.7680712178621,1633
1250.898403134593,1666
1253.028170416058,1633
1255.1573733015875,1586
1257.2860120305932,1584
1259.4140868425648,1649
1261.54159797707,1703
1263.6685456737569,1664
1265.7949301723515,1622
1267.9207517126597,1639
1270.046010534565,1628
1272.1707068780306,1650
1274.2948409830983,1686
1276.4184130898889,1654
1278.541423438603,1694
1280.6638722695184,1680
1282.785759822993,1663
1284.9070863394636,1719
1287.0278520594447,1750
1289.1480572235314,1760
1291.2677020723963,1706
1293.3867868467923,1751
1295.5053117875495,1801
1297.623277135579,1728
1299.740683131868,1827
1301.8575300174857,1763
1303.973818033578,1719
1306.0895474213703,1860
1308.2047184221678,1817
1310.3193312773528,1797
1312.4333862283888,1808
1314.5468835168163,1796
1316.659823384255,1809
1318.7722060724045,1826
1320.8840318230418,1824
1322.9953008780249,1889
1325.1060134792888,1811
1327.2161698688478,1825
1329.3257702887959,1880
1331.4348149813054,1834
1333.5433041886276,1814
1335.6512381530933,1802
1337.7586171171101,1768
1339.8654413231675,1849
1341.9717110138317,1830
1344.0774264317488,1882
1346.1825878196432,1947
1348.2871954203192,1759
1350.3912494766587,1836
1352.4947502316231,1804
1354.5976979282532,1829
1356.7000928096686,1778
1358.8019351190665,1853
1360.9032250997243,1781
1363.0039629949988,1765
1365.1041490483235,1755
1367.2037835032133,1676
1369.3028666032606,1807
1371.401398592137,1847
1373.4993797135926,1870
1375.5968102114575,1797
1377.6936903296396,1790
1379.7900203121262,1802
1381.8858004029835,1727
1383.9810308463561,1797
1386.075711886469,1748
1388.1698437676241,1825
1390.2634267342032,1832
1392.356461030667,1815
1394.4489469015557,1821
1396.5408845914872,1847
1398.6322743451592,1809
1400.7231164073469,1819
1402.813411022907,1836
1404.903158436773,1805
1406.9923588939578,1810
1409.0810126395531,1934
1411.1691199187303,1931
1413.2566809767386,1840
1415.343696058907,1921
1417.4301654106425,1961
1419.5160892774315,1961
1421.6014679048399,1973
1423.6863015385125,1990
1425.7705904241707,2016
1427.8543348076178,1970
1429.9375349347342,2073
1432.0201910514802,1948
1434.102303403894,2027
1436.1838722380944,1997
1438.2648978002767,2102
1440.3453803367174,2117
1442.4253200937692,2044
1444.5047173178677,2212
1446.5835722555234,2263
1448.6618851533285,2280
1450.739656257952,2192
1452.8168858161434,2341
1454.8935740747306,2337
1456.96972128062,2395
1459.045327680797,2426
1461.120393522327,2433
1463.1949190523528,2507
1465.2689045180973,2436
1467.3423501668608,2461
1469.415256246024,2555
1471.4876230030463,2619
1473.559450685465,2653
1475.6307395408976,2701
1477.7014898170391,2729
1479.771701761665,2820
1481.8413756226287,2798
1483.9105116478618,2898
1485.9791100853772,2958
1488.0471711832643,2982
1490.1146951896926,3061
1492.1816823529098,3035
1494.2481329212433,3094
1496.3140471430984,3135
1498.3794252669609,3176
1500.4442675413939,3169
1502.5085742150404,3055
1504.572345536622,3232
1506.6355817549388,3175
1508.6982831188702,3279
1510.7604498773744,3350
1512.8220822794883,3201
1514.8831805743293,3347
1516.9437450110909,3382
1519.003775839048,3392
1521.0632733075522,3330
1523.1222376660367,3511
1525.1806691640113,3485
1527.2385680510652,3528
1529.2959345768668,3599
1531.3527689911643,3590
1533.4090715437833,3590
1535.4648424846291,3538
1537.5200820636855,3786
1539.5747905310159,3657
1541.6289681367616,3841
1543.6826151311434,3861
1545.7357317644614,3916
1547.7883182870937,4040
1549.8403749494987,4086
1551.8919020022113,4054
1553.9428996958477,4248
1555.9933682811015,4161
1558.0433080087469,4244
1560.0927191296346,4438
1562.1416018946961,4463
1564.1899565549415,4462
1566.2377833614592,4444
1568.2850825654164,4258
1570.3318544180606,4277
1572.3780991707158,4271
1574.423817074788,4018
1576.4690083817595,3886
1578.5136733431923,3711
1580.5578122107272,3579
1582.601425236085,3510
1584.6445126710646,3341
1586.6870747675434,3110
1588.7291117774776,2954
1590.7706239529034,2886
1592.8116115459347,2710
1594.8520748087658,2674
1596.8920139936686,2652
1598.9314293529933,2458
1600.9703211391711,2466
1603.008689604711,2365
1605.0465350022005,2251
1607.0838575843068,2209
1609.1206576037753,2116
1611.1569353134305,2070
1613.1926909661765,2071
1615.2279248149953,2085
1617.2626371129481,1978
1619.2968281131757,2037
1621.3304980688963,1872
1623.3636472334088,1845
1625.39627586009,1892
1627.428384202396,1787
1629.459972513861,1842
1631.4910410480993,1794
1633.5215900588028,1752
1635.551619799744,1726
1637.5811305247717,1691
1639.6101224878166,1693
1641.6385959428862,1662
1643.6665511440683,1718
1645.693988345528,1703
1647.7209078015112,1719
1649.7473097663405,1637
1651.7731944944203,1629
1653.7985622402307,1715
1655.823413258333,1634
1657.847747803366,1635
1659.8715661300494,1596
1661.8948684931793,1649
1663.9176551476316,1658
1665.9399263483624,1617
1667.9616823504057,1668
1669.982923408873,1633
1672.0036497789574,1657
1674.0238617159293,1589
1676.043559475138,1654
1678.0627433120121,1614
1680.081413482059,1673
1682.0995702408654,1576
1684.117213844096,1602
1686.134344547495,1627
1688.1509626068864,1643
1690.1670682781705,1666
1692.182661817329,1627
1694.1977434804217,1624
1696.2123135235875,1603
1698.226372203043,1630
1700.2399197750851,1671
1702.2529564960905,1628
1704.2654826225112,1533
1706.277498410882,1539
1708.2890041178139,1534
1710.2999999999988,1583
1712.3104863142066,1541
1714.3204633172854,1570
1716.329931266163,1604
1718.3388904178469,1597
1720.3473410294214,1483
1722.3552833580516,1579
1724.3627176609807,1592
1726.3696441955308,1534
1728.3760632191033,1570
1730.3819749891782,1517
1732.3873797633146,1510
1734.3922777991502,1558
1736.3966693544012,1534
1738.4005546868639,1534
1740.4039340544127,1514
1742.406807715001,1496
1744.4091759266616,1547
1746.4110389475054,1501
1748.4123970357223,1536
1750.413250449582,1533
1752.4135994474318,1486
1754.4134442876993,1537
1756.4127852288902,1522
1758.4116225295893,1446
1760.4099564484595,1480
1762.407787244244,1513
1764.405115175764,1470
1766.4019405019203,1502
1768.3982634816916,1453
1770.3940843741357,1483
1772.3894034383907,1451
1774.3842209336717,1451
1776.378537119274,1475
1778.372352254571,1473
1780.3656665990156,1359
1782.3584804121397,1385
1784.3507939535534,1438
1786.3426074829463,1500
1788.3339212600863,1425
1790.3247355448211,1557
1792.3150505970766,1463
1794.3048666768573,1454
1796.2941840442477,1445
1798.2830029594106,1410
1800.2713236825884,1438
1802.2591464741004,1441
1804.2464715943465,1460
1806.2332993038058,1422
1808.2196298630352,1457
1810.2054635326708,1407
1812.190800573428,1431
1814.175641246101,1416
1816.1599858115628,1398
1818.1438345307652,1421
1820.127187664738,1440
1822.1100454745924,1434
1824.092408221516,1373
1826.0742761667766,1415
1828.055649571721,1441
1830.0365286977735,1421
1832.0169138064398,1398
1833.9968051593014,1391
1835.9762030180214,1449
1837.9551076443408,1434
1839.9335193000788,1380
1841.9114382471344,1355
1843.888864747485,1414
1845.8657990631878,1379
1847.842241456378,1394
1849.8181921892697,1386
1851.7936515241558,1352
1853.7686197234098,1399
1855.7430970494815,1449
1857.7170837649014,1361
1859.6905801322787,1425
1861.6635864143004,1380
1863.6361028737338,1426
1865.608129773424,1396
1867.5796673762961,1459
1869.5507159453537,1420
1871.521275743678,1441
1873.4913470344313,1429
1875.4609300808534,1486
1877.4300251462632,1471
1879.3986324940588,1441
1881.366752387717,1396
1883.3343850907936,1477
1885.3015308669228,1428
1887.268189979819,1419
1889.2343626932739,1413
1891.2000492711595,1433
1893.1652499774254,1454
1895.1299650761011,1444
1897.0941948312952,1464
1899.0579395071945,1388
1901.0211993680641,1447
1902.98397467825,1467
1904.9462657021745,1466
1906.9080727043415,1438
1908.869395949332,1490
1910.8302357018065,1447
1912.790592226504,1471
1914.7504657882428,1423
1916.7098566519212,1442
1918.6687650825133,1454
1920.6271913450764,1476
1922.5851357047422,1442
1924.5425984267245,1418
1926.499579776314,1434
1928.4560800188833,1415
1930.4120994198802,1445
1932.367638244833,1466
1934.32269675935,1445
1936.2772752291175,1395
1938.231373919899,1394
1940.1849930975404,1375
1942.1381330279637,1406
1944.0907939771696,1420
1946.0429762112412,1423
1947.9946799963363,1379
1949.9459055986945,1420
1951.896653284633,1378
1953.8469233205478,1379
1955.7967159729142,1355
1957.7460315082863,1462
1959.6948701932974,1370
1961.6432322946594,1422
1963.5911180791632,1363
1965.5385278136787,1387
1967.4854617651545,1410
1969.4319202006182,1350
1971.377903387176,1397
1973.3234115920136,1354
1975.268445082395,1453
1977.2130041256642,1423
1979.1570889892423,1376
1981.1006999406304,1418
1983.04383724741,1386
1984.986501177238,1370
1986.928691997853,1384
1988.8704099770712,1403
1990.811655382789,1330
1992.7524284829801,1401
1994.692729545698,1386
1996.6325588390755,1336
1998.5719166313224,1349
2000.5108031907307,1318
2002.4492187856677,1381
2004.387163684583,1382
2006.3246381560011,1334
2008.2616424685298,1414
2010.1981768908527,1374
2012.1342416917332,1303
2014.069837140014,1364
2016.0049635046162,1410
2017.9396210545406,1387
2019.8738100588666,1370
2021.8075307867502,1349
2023.740783507431,1359
2025.6735684902228,1380
2027.6058860045214,1362
2029.5377363198004,1406
2031.4691197056118,1317
2033.4000364315875,1329
2035.3304867674374,1386
2037.260470982952,1335
2039.189989347998,1318
2041.1190421325232,1310
2043.047629606554,1336
2044.9757520401945,1374
2046.9034097036288,1292
2048.8306028671195,1332
2050.7573318010086,1308
2052.683596775716,1331
2054.609398061742,1351
2056.5347359296647,1308
2058.4596106501403,1373
2060.384022493906,1334
2062.3079717317764,1305
2064.231458634646,1300
2066.1544834734873,1341
2068.077046519352,1314
2069.99914804337,1319
2071.9207883167524,1363
2073.8419676107865,1220
2075.7626861968406,1306
2077.6829443463607,1352
2079.6027423308715,1298
2081.522080421977,1331
2083.440958891362,1271
2085.359378010786,1251
2087.2773380520907,1319
2089.194839287196,1319
2091.111881988101,1344
2093.0284664268825,1326
2094.9445928756973,1315
2096.86026160678,1275
2098.775472892446,1308
2100.690227005088,1350
2102.604524217178,1326
2104.5183648012676,1302
2106.431749029985,1340
2108.34467717604,1331
2110.2571495122206,1325
2112.169166311393,1332
2114.080727846503,1366
2115.9918343905747,1336
2117.902486216711,1342
2119.8126835980956,1301
2121.722426807987,1404
2123.6317161197285,1363
2125.5405518067364,1332
2127.448934142509,1389
2129.356863400624,1371
2131.264339854737,1378
2133.1713637785815,1373
2135.077935445972,1365
2136.9840551308002,1337
2138.889723107037,1393
2140.7949396487334,1348
2142.699705030018,1291
2144.6040195250994,1362
2146.507883408264,1325
2148.4112969538774,1422
2150.3142604363848,1373
2152.2167741303097,1393
2154.1188383102535,1404
2156.0204532508997,1321
2157.9216192270064,1352
2159.822336513414,1302
2161.7226053850413,1303
2163.622426116884,1319
2165.5217989840185,1323
2167.4207242616,1364
2169.319202224862,1302
2171.2172331491165,1360
2173.1148173097563,1382
2175.0119549822507,1402
2176.90864644215,1357
2178.8048919650823,1363
2180.7006918267534,1402
2182.596046302952,1391
2184.4909556695407,1445
2186.3854202024645,1401
2188.279440177746,1368
2190.173015871487,1345
2192.066147559868,1358
2193.958835519149,1367
2195.851080025667,1355
2197.7428813558417,1446
2199.6342397861667,1461
2201.5251555932186,1373
2203.415629053651,1396
2205.3056604441986,1386
2207.19525004167,1416
2209.084398122958,1440
2210.9731049650327,1400
2212.861370844941,1416
2214.749196039812,1420
2216.636580826851,1396
2218.523525483344,1429
2220.410030286655,1389
2222.296095514226,1421
2224.1817214435805,1408
2226.066908352319,1364
2227.951656518121,1372
2229.835966218746,1362
2231.71983773203,1381
2233.6032713358913,1430
2235.486267308324,1431
2237.3688259274036,1436
2239.2509474712824,1420
2241.132632218193,1376
2243.013880446447,1417
2244.8946924344323,1407
2246.7750684606203,1411
2248.6550088035574,1395
2250.534513741871,1380
2252.413583554265,1441
2254.292218519526,1403
2256.170418916517,1341
2258.0481850241786,1384
2259.925517121534,1362
2261.8024154876825,1351
2263.678880401803,1362
2265.5549121431536,1381
2267.430510991071,1434
2269.305677224971,1362
2271.180411124348,1343
2273.0547129687766,1455
2274.9285830379076,1368
2276.8020216114737,1365
2278.6750289692845,1375
2280.5476053912294,1418
2282.4197511572766,1448
2284.2914665474727,1460
2286.162751841943,1467
2288.0336073208937,1472
2289.904033264608,1423
2291.774029953448,1417
2293.6435976678554,1438
2295.5127366883517,1335
2297.381447295534,1318
2299.2497297700825,1350
2301.1175843927526,1304
2302.9850114443825,1295
2304.852011205885,1256
2306.7185839582553,1278
2308.5847299825664,1302
2310.4504495599676,1302
2312.3157429716925,1288
2314.1806104990483,1286
2316.0450524234247,1253
2317.9090690262888,1245
2319.772660589186,1273
2321.635827393742,1268
2323.498569721661,1267
2325.3608878547248,1250
2327.2227820747967,1268
2329.0842526638157,1255
2330.945299903803,1277
2332.805924076857,1303
2334.6661254651535,1223
2336.525904350951,1249
2338.3852610165827,1284
2340.244195744464,1274
2342.102708817088,1244
2343.9608005170253,1293
2345.8184711269287,1308
2347.675720929526,1240
2349.532550207628,1253
2351.38895924412,1230
2353.24494832197,1265
2355.100517724223,1289
2356.955667734004,1257
2358.810398634514,1318
2360.664710709037,1295
2362.5186042409337,1323
2364.3720795136437,1278
2366.225136810686,1282
2368.0777764156583,1273
2369.929998612237,1282
2371.7818036841777,1323
2373.633191915315,1267
2375.484163589562,1342
2377.3347189909114,1285
2379.184858403434,1279
2381.03458211128,1335
2382.8838903986775,1261
2384.732783549936,1239
2386.5812618494406,1305
2388.4293255816588,1295
2390.2769750311327,1273
2392.1242104824883,1387
2393.971032220427,1322
2395.8174405297295,1268
2397.6634356952563,1283
2399.509018001947,1304
2401.3541877348193,1311
2403.1989451789705,1304
2405.043290619576,1309
2406.8872243418905,1349
2408.730746631247,1285
2410.5738577730594,1368
2412.4165580528183,1326
2414.258847756095,1308
2416.100727168537,1321
2417.9421965758734,1285
2419.783256263912,1276
2421.623906518538,1303
2423.4641476257157,1262
2425.303979871491,1317
2427.143403541984,1286
2428.9824189233977,1427
2430.821026302012,1331
2432.6592259641866,1318
2434.497018196361,1301
2436.33440328505,1342
2438.171381516851,1328
2440.00795317844,1310
2441.844118556569,1382
2443.6798779380724,1293
2445.5152316098606,1306
2447.3501798589255,1335
2449.1847229723357,1308
2451.0188612372403,1324
2452.8525949408663,1302
2454.6859243705203,1310
2456.518849813587,1311
2458.3513715575314,1343
2460.183489889895,1344
2462.015205098301,1330
2463.8465174704493,1305
2465.67742729412,1330
2467.5079348571717,1365
2469.338040447542,1347
2471.1677443532476,1322
2472.9970468623833,1338
2474.825948263123,1304
2476.6544488437207,1342
2478.482548892508,1386
2480.310248697896,1367
2482.137548548374,1369
2483.9644487325118,1345
2485.790949538956,1342
2487.617051256433,1294
2489.44275417375,1314
2491.26805857979,1370
2493.0929647635157,1320
2494.917473013971,1443
2496.741583620276,1384
2498.5652968716304,1325
2500.3886130573137,1425
2502.2115324666834,1406
2504.0340553891765,1368
2505.856182114308,1454
2507.6779129316733,1435
2509.499248130945,1407
2511.3201880018764,1370
2513.140732834298,1422
2514.9608829181198,1438
2516.780638543331,1394
2518.6,1386
2520.418967578273,1427
2522.237541568376,1421
2524.0557222606144,1422
2525.8735099453706,1414
2527.6909049131086,1427
2529.507907454368,1456
2531.32451785977,1435
2533.140736420014,1476
2534.9565634258774,1454
2536.771999168218,1487
2538.5870439379714,1466
2540.4016980261526,1452
2542.2159617238544,1494
2544.02983532225,1502
2545.8433191125914,1468
2547.656413386209,1526
2549.4691184345115,1554
2551.2814345489874,1554
2553.093362021204,1619
2554.904901142808,1587
2556.716052205523,1633
2558.526815501153,1669
2560.3371913215824,1611
2562.147179958771,1688
2563.956781704761,1690
2565.7659968516705,1672
2567.5748256916986,1641
2569.3832685171224,1709
2571.1913256202984,1697
2572.9989972936614,1665
2574.806283829725,1663
2576.613185521084,1734
2578.4197026604074,1723
2580.2258355404483,1751
2582.031584454035,1780
2583.836949694077,1766
2585.6419315535613,1791
2587.4465303255533,1781
2589.2507463032002,1707
2591.0545797797245,1719
2592.8580310484303,1828
2594.6611004026995,1784
2596.463788135992,1779
2598.266094541849,1801
2600.0680199138874,1756
2601.869564545807,1761
2603.670728731383,1853
2605.4715127644704,1794
2607.2719169390048,1818
2609.071941548998,1751
2610.8715868885433,1805
2612.670853251811,1798
2614.469740933052,1721
2616.268250226594,1785
2618.0663814268455,1742
2619.864134828292,1774
2621.6615107255006,1782
2623.458509413115,1698
2625.2551311858597,1687
2627.0513763385347,1726
2628.8472451660223,1727
2630.6427379632833,1720
2632.4378550253564,1738
2634.232596647359,1693
2636.026963124488,1676
2637.8209547520187,1656
2639.6145718253065,1638
2641.407814639785,1629
2643.200683490966,1575
2644.9931786744414,1630
2646.7853004858807,1572
2648.577049221034,1613
2650.3684251757277,1598
2652.1594286458712,1555
2653.9500599274484,1543
2655.740319316525,1506
2657.5302071092437,1553
2659.3197236018286,1516
2661.10886909058,1512
2662.8976438718782,1473
2664.686048242183,1506
2666.4740824980327,1487
2668.2617469360443,1493
2670.0490418529134,1433
2671.8359675454153,1473
2673.622524310403,1413
2675.408712444811,1425
2677.1945322456495,1429
2678.979984010009,1436
2680.76506803506,1410
2682.5497846180497,1356
2684.334134056306,1340
2686.1181166472343,1376
2687.9017326883213,1438
2689.6849824771293,1373
2691.4678663113013,1342
2693.2503844885596,1353
2695.032537306705,1345
2696.8143250636167,1366
2698.5957480572542,1327
2700.3768065856534,1362
2702.1575009469316,1322
2703.937831439283,1316
2705.717798360982,1359
2707.4974020103837,1315
2709.276642685917,1281
2711.055520686095,1322
2712.834036309506,1256
2714.612189854819,1289
2716.389981620782,1281
2718.1674119062204,1299
2719.944481010041,1250
2721.721189231226,1257
2723.4975368688415,1283
2725.273524222027,1272
2727.0491515900053,1281
2728.824419272075,1301
2730.5993275676146,1263
2732.3738767760838,1217
2734.148067197016,1246
2735.921899130031,1219
2737.6953728748194,1265
2739.468488731156,1217
2741.2412469988926,1203
2743.0136479779617,1219
2744.785691968372,1217
2746.5573792702116,1265
2748.3287101836504,1255
2750.099685008934,1259
2751.870304046388,1234
2753.640567596418,1283
2755.4104759595057,1237
2757.1800294362156,1205
2758.949228327187,1244
2760.7180729331412,1210
2762.486563554877,1230
2764.254700493272,1216
2766.022484049284,1212
2767.789914523947,1230
2769.5569922183786,1261
2771.3237174337705,1195
2773.090090471394,1279
2774.8561116326036,1252
2776.6217812188274,1267
2778.3870995315756,1216
2780.1520668724356,1231
2781.9166835430747,1190
2783.6809498452394,1238
2785.444866080754,1201
2787.2084325515225,1234
2788.971649559527,1199
2790.73451740683,1198
2792.4970363955713,1291
2794.2592068279705,1185
2796.0210290063264,1196
2797.7825032330147,1220
2799.543629810493,1222
2801.304409041296,1217
2803.0648412280366,1224
2804.8249266734088,1187
2806.5846656801846,1210
2808.344058551212,1184
2810.1031055894246,1202
2811.8618070978273,1235
2813.6201633795085,1245
2815.378174737636,1220
2817.1358414754536,1238
2818.893163896285,1196
2820.6501423035334,1136
2822.4067770006814,1193
2824.1630682912883,1233
2825.9190164789957,1216
2827.6746218675207,1246
2829.429884760661,1216
2831.184805462294,1187
2832.9393842763743,1268
2834.693621506936,1206
2836.4475174580916,1242
2838.201072434034,1211
2839.954286739034,1160
2841.707160677441,1227
2843.459694553685,1239
2845.2118886722724,1219
2846.96374333779,1267
2848.7152588549034,1205
2850.4664355283567,1243
2852.217273662973,1225
2853.9677735636546,1242
2855.7179355353833,1254
2857.4677598832186,1286
2859.217246912299,1242
2860.9663969278427,1232
2862.715210235146,1188
2864.4636871395846,1205
2866.211827946614,1163
2867.9596329617652,1220
2869.7071024906536,1218
2871.4542368389684,1215
2873.20103631248,1207
2874.947501217038,1242
2876.6936318585695,1179
2878.4394285430812,1211
2880.1848915766604,1259
2881.9300212654707,1191
2883.6748179157553,1194
2885.4192818338374,1194
2887.1634133261173,1186
2888.907212699077,1233
2890.6506802592744,1222
2892.393816313348,1219
2894.1366211680142,1193
2895.8790951300693,1244
2897.621238506388,1208
2899.363051603925,1227
2901.1045347297118,1181
2902.8456881908596,1223
2904.58651229456,1234
2906.327007348081,1165
2908.067173658772,1156
2909.8070115340597,1210
2911.5465212814497,1196
2913.285703208527,1173
2915.0245576229563,1196
2916.7630848324807,1177
2918.5012851449196,1224
2920.2391588681758,1214
2921.976706310227,1209
2923.7139277791334,1166
2925.4508235830313,1207
2927.187394030137,1219
2928.923639428745,1188
2930.6595600872306,1184
2932.395156314046,1215
2934.1304284177218,1222
2935.8653767068713,1212
2937.6000014901815,1254
2939.3343030764227,1201
2941.068281774442,1221
2942.8019378931644,1224
2944.5352717415976,1244
2946.2682836288236,1181
2948.0009738640065,1221
2949.7333427563885,1203
2951.465390615289,1175
2953.1971177501086,1174
2954.9285244703265,1183
2956.6596110855,1227
2958.3903779052657,1212
2960.1208252393385,1174
2961.8509533975125,1192
2963.5807626896617,1150
2965.3102534257378,1209
2967.0394259157715,1189
2968.768280469873,1178
2970.496817398232,1229
2972.2250370111146,1177
2973.952939618869,1181
2975.6805255319196,1209
2977.4077950607707,1207
2979.134748516006,1214
2980.861386208289,1262
2982.587708448359,1201
2984.313715547037,1198
2986.039407815222,1172
2987.764785563891,1208
2989.489849104102,1222
2991.2145987469908,1170
2992.9390348037705,1191
2994.6631575857346,1183
2996.3869674042576,1248
2998.1104645707887,1191
2999.83364939686,1148
3001.5565221940783,1217
3003.2790832741334,1222
3005.0013329487924,1191
3006.7232715298996,1126
3008.4448993293804,1205
3010.166216659239,1236
3011.887223831558,1205
3013.607921158498,1182
3015.3283089522993,1248
3017.0483875252826,1192
3018.7681571898443,1220
3020.4876182584626,1155
3022.2067710436927,1258
3023.9256158581707,1162
3025.644153014609,1182
3027.362382825801,1212
3029.0803056046193,1175
3030.797921664012,1165
3032.5152313170106,1205
3034.2322348767225,1180
3035.9489326563353,1191
3037.665324969115,1171
3039.3814121284063,1174
3041.097194447633,1252
3042.812672240299,1174
3044.5278458199855,1183
3046.2427155003525,1201
3047.9572815951406,1209
3049.671544418167,1186
3051.38550428333,1223
3053.0991615046073,1185
3054.812516396051,1176
3056.5255692717974,1204
3058.2383204460575,1157
3059.9507702331257,1189
3061.662918947372,1244
3063.3747669032446,1172
3065.0863144152736,1193
3066.7975617980674,1216
3068.508509366309,1205
3070.219157434767,1118
3071.9295063182844,1155
3073.639556331785,1177
3075.3493077902704,1193
3077.058761008821,1201
3078.7679163025964,1189
3080.476773986837,1248
3082.1853343768594,1226
3083.89359778806,1172
3085.6015645359153,1259
3087.3092349359786,1193
3089.016609303884,1163
3090.7236879553434,1288
3092.4304712061476,1175
3094.136959372166,1179
3095.843152769349,1182
3097.5490517137237,1190
3099.2546565213966,1195
3100.959967508554,1175
3102.66498499146,1200
3104.3697092864577,1184
3106.0741407099695,1192
3107.778279578498,1152
3109.482126208622,1262
3111.1856809170004,1234
3112.8889440203716,1163
3114.5919158355528,1224
3116.294596679439,1195
3117.996986869006,1187
3119.6990867213062,1284
3121.4008965534726,1229
3123.102416682717,1207
3124.803647426329,1239
3126.5045891016784,1240
3128.205242026213,1244
3129.90560651746,1197
3131.605682893025,1199
3133.3054714705922,1198
3135.0049725679282,1228
3136.7041865028714,1213
3138.4031135933465,1204
3140.101754157353,1211
3141.800108512971,1209
3143.498176978357,1221
3145.1959598717494,1194
3146.8934575114636,1200
3148.5906702158954,1198
3150.2875983035183,1190
3151.9842420928853,1166
3153.680601902627,1218
3155.376678051456,1237
3157.07247085816,1172
3158.767980641609,1200
3160.463207720748,1178
3162.158152414606,1245
3163.8528150422862,1208
3165.5471959229726,1174
3167.2412953759303,1132
3168.9351137204976,1187
3170.628651276098,1196
3172.3219083622307,1211
3174.014885298474,1167
3175.707582404485,1179
3177.4000000000005,1171
3179.092138404835,1203
3180.7839979388846,1214
3182.47557892212,1189
3184.166881674594,1167
3185.8579065164386,1181
3187.5486537678626,1210
3189.2391237491547,1143
3190.9293167806827,1155
3192.6192331828934,1158
3194.3088732763117,1187
3195.998237381542,1148
3197.687325819268,1136
3199.376138910251,1162
3201.064676975334,1133
3202.7529403354347,1109
3204.4409293115523,1154
3206.1286442247647,1138
3207.816085396229,1181
3209.5032531471825,1152
3211.190147798936,1153
3212.8767696728846,1212
3214.5631190905015,1181
3216.2491963733373,1113
3217.9350018430214,1164
3219.6205358212637,1154
3221.305798629851,1181
3222.990790590651,1115
3224.6755120256103,1120
3226.359963256751,1167
3228.0441446061795,1133
3229.7280563960758,1148
3231.411698948703,1115
3233.0950725863995,1146
3234.778177631587,1160
3236.461014406761,1147
3238.1435832345005,1231
3239.8258844374595,1179
3241.507918338374,1126
3243.1896852600576,1158
3244.8711855254023,1141
3246.552419457381,1157
3248.233387379042,1124
3249.914089613516,1183
3251.59452648401,1132
3253.274698313813,1184
3254.95460542629,1172
3256.6342481448855,1156
3258.313626793125,1117
3259.9927416946084,1121
3261.6715931730196,1137
3263.3501815521176,1173
3265.0285071557437,1197
3266.706570307815,1157
3268.3843713323286,1160
3270.0619105533615,1184
3271.739188295068,1201
3273.4162048816834,1162
3275.0929606375184,1118
3276.769455886966,1174
3278.445690954498,1207
3280.1216661646613,1165
3281.797381842087,1128
3283.4728383114807,1110
3285.1480358976296,1152
3286.8229749253996,1150
3288.4976557197333,1131
3290.172078605655,1146
3291.846243908266,1187
3293.5201519527463,1183
3295.193803064357,1107
3296.8671975684374,1086
3298.5403357904024,1134
3300.21321805575,1152
3301.8858446900567,1127
3303.558216018975,1145
3305.23033236824,1159
3306.9021940636603,1123
3308.57380143113,1142
3310.2451547966184,1111
3311.916254486174,1199
3313.5871008259246,1127
3315.2576941420766,1149
3316.9280347609147,1121
3318.5981230088046,1115
3320.2679592121895,1151
3321.9375436975924,1150
3323.606876791612,1171
3325.27595882093,1091
3326.944790112305,1157
3328.6133709925753,1114
3330.2817017886573,1152
3331.949782827547,1132
3333.617614436319,1166
3335.2851969421245,1181
3336.952530672199,1179
3338.619615953853,1127
3340.286453114475,1149
3341.9530424815357,1139
3343.619384382583,1200
3345.2854791452437,1166
3346.951327097224,1153
3348.6169285663073,1138
3350.2822838803577,1189
3351.947393367319,1156
3353.61225735521,1154
3355.2768761721345,1154
3356.9412501462693,1158
3358.605379605873,1134
3360.2692648792827,1128
3361.9329062949146,1154
3363.596304181263,1165
