CollectionTime,9/19/2024 11:48:23 AM
ExposureUsed,3
CalibratedSpectrum
-962.7078968117929,579
-959.9714848408522,633
-957.2358232597828,669
-954.5009119013725,610
-951.7667505983302,644
-949.0333391832855,675
-946.3006774887896,653
-943.5687653473143,673
-940.837602591253,678
-938.1071890529199,637
-935.3775245645503,665
-932.6486089583007,630
-929.9204420662485,663
-927.1930237203925,660
-924.4663537526524,648
-921.7404319948689,660
-919.0152582788041,675
-916.2908324361409,643
-913.5671542984834,646
-910.8442236973568,621
-908.1220404642074,638
-905.4006044304027,622
-902.679915427231,633
-899.959973285902,638
-897.2407778375464,631
-894.5223289132158,639
-891.8046263438832,621
-889.0876699604426,644
-886.3714595937089,627
-883.6559950744183,599
-880.9412762332282,622
-878.2273029007168,628
-875.5140749073835,601
-872.8015920836489,637
-870.0898542598545,622
-867.3788612662631,586
-864.6686129330585,594
-861.9591090903457,605
-859.2503495681506,628
-856.5423341964203,599
-853.8350628050229,614
-851.1285352237478,609
-848.4227512823054,630
-845.7177108103272,627
-843.0134136373656,648
-840.3098595928943,627
-837.6070485063082,605
-834.9049802069229,628
-832.2036545239757,606
-829.5030712866244,568
-826.8032303239481,616
-824.1041314649472,642
-821.4057745385428,604
-818.7081593735775,624
-816.0112857988148,663
-813.3151536429393,619
-810.6197627345566,640
-807.9251129021936,638
-805.2312039742981,636
-802.5380357792392,650
-799.8456081453069,630
-797.1539209007124,622
-794.462973873588,606
-791.772766891987,676
-789.083299783884,675
-786.3945723771743,657
-783.7065844996748,614
-781.0193359791231,625
-778.3328266431781,607
-775.6470563194197,620
-772.9620248353489,612
-770.2777320183878,620
-767.5941776958798,643
-764.9113616950891,640
-762.2292838432011,631
-759.5479439673222,621
-756.8673418944801,621
-754.1874774516235,613
-751.5083504656222,628
-748.8299607632671,651
-746.15230817127,642
-743.475392516264,644
-740.7992136248035,659
-738.1237713233636,635
-735.4490654383407,651
-732.7750957960521,645
-730.1018622227365,669
-727.4293645445534,652
-724.7576025875837,679
-722.0865761778291,669
-719.4162851412126,693
-716.7467293035781,682
-714.0779084906909,694
-711.409822528237,697
-708.7424712418238,696
-706.0758544569796,690
-703.4099719991541,721
-700.7448236937178,697
-698.0804093659622,688
-695.4167288411002,650
-692.7537819442656,672
-690.0915685005134,716
-687.4300883348199,732
-684.7693412720819,742
-682.1093271371178,756
-679.4500457546669,714
-676.7914969493897,697
-674.1336805458676,713
-671.4765963686034,740
-668.8202442420206,734
-666.1646239904642,757
-663.5097354382001,712
-660.8555784094151,697
-658.2021527282176,710
-655.5494582186366,724
-652.8974947046223,731
-650.2462620100463,748
-647.5957599587009,745
-644.9459883742998,742
-642.2969470804776,723
-639.6486359007902,745
-637.0010546587141,807
-634.3542031776476,811
-631.7080812809096,734
-629.0626887917401,765
-626.4180255333008,774
-623.7740913286734,769
-621.1308860008619,735
-618.4884093727904,771
-615.8466612673046,748
-613.2056415071715,752
-610.5653499150785,794
-607.9257863136347,778
-605.28695052537,771
-602.6488423727357,782
-600.0114616781036,748
-597.3748082637674,741
-594.7388819519412,793
-592.1036825647604,812
-589.4692099242818,790
-586.8354638524829,763
-584.2024441712624,792
-581.5701507024403,778
-578.9385832677575,788
-576.3077416888759,754
-573.6776257873787,761
-571.0482353847704,771
-568.4195703024757,775
-565.7916303618415,745
-563.164415384135,811
-560.5379251905453,831
-557.9121596021815,828
-555.2871184400748,798
-552.6628015251767,815
-550.0392086783606,850
-547.4163397204204,864
-544.794194472071,875
-542.1727727539491,837
-539.5520743866118,832
-536.9320991905377,829
-534.3128469861261,943
-531.6943175936979,927
-529.0765108334947,891
-526.4594265256793,1026
-523.8430644903358,1197
-521.2274245474689,1382
-518.612506517005,1438
-515.9983102187913,1440
-513.3848354725959,1459
-510.77208209810846,1562
-508.16004991493924,1652
-505.5487387426199,1702
-502.9381484006032,1725
-500.3282787082628,1640
-497.71912948489364,1611
-495.1107005497117,1480
-492.5029917218539,1316
-489.8960028203786,1186
-487.28973366426493,1084
-484.68418407241325,1033
-482.07935386364494,971
-479.47524285670266,991
-476.87185087025,977
-474.2691777228715,1016
-471.66722323307334,1000
-469.0659872192821,960
-466.4654694998459,992
-463.86566989303384,972
-461.26658821703614,922
-458.66822428996414,1000
-456.07057792985,1012
-453.4736489546475,978
-450.877437182231,965
-448.28194243039627,919
-445.68716451686,913
-443.09310325926003,918
-440.49975847515555,965
-437.9071299820263,926
-435.31521759727354,954
-432.72402113821954,1004
-430.13354042210767,991
-427.5437752661022,958
-424.95472548728867,976
-422.36639090267386,966
-419.7787713291855,1008
-417.1918665836721,993
-414.60567648290385,1044
-412.0202008435715,1016
-409.4354394822874,987
-406.8513922155845,979
-404.26805885991723,983
-401.685439231661,1029
-399.103533147112,1054
-396.522340422488,1088
-393.9418608739278,1003
-391.3620943174908,985
-388.7830405691583,943
-386.2046994448317,956
-383.6270707603344,919
-381.05015433141045,883
-378.473949973725,904
-375.8984575028645,783
-373.32367673433623,750
-370.74960748356875,702
-368.1762495659117,713
-365.60360279663576,632
-363.03166699093265,603
-360.4604419639154,551
-357.8899275306178,547
-355.32012350599507,552
-352.7510297049233,533
-350.1826459421999,517
-347.61497203254316,510
-345.04800779059235,496
-342.4817530309082,519
-339.91620756797226,568
-337.35137121618743,574
-334.7872437898774,547
-332.22382510328725,514
-329.66111497058273,507
-327.09911320585127,511
-324.53781962310075,535
-321.9772340362607,491
-319.4173562591816,519
-316.8581861056348,514
-314.2997233893127,503
-311.7419679238294,523
-309.1849195227194,550
-306.62857799943856,594
-304.0729431673641,565
-301.51801483979375,524
-298.963792829947,526
-296.41027695096386,548
-293.85746701590574,608
-291.3053628377552,648
-288.7539642294155,597
-286.2032710037115,602
-283.65328297338897,634
-281.1039999511146,624
-278.5554217494762,598
-276.007548180983,611
-273.4603790580651,644
-270.9139141930734,610
-268.3681533982807,643
-265.8230964858798,704
-263.27874326798565,781
-260.7350935566336,705
-258.1921471637804,737
-255.6499039013039,810
-253.10836358100266,862
-250.56752601459698,745
-248.02739101372765,770
-245.48795838995704,819
-242.94922795476816,780
-240.41119951956557,803
-237.8738728956746,730
-235.33724789434166,782
-232.80132432673452,807
-230.2661020039418,741
-227.73158073697357,764
-225.19776033676033,781
-222.66464061415422,797
-220.1322213799284,849
-217.60050244477725,751
-215.06948361931552,811
-212.53916471408013,907
-210.00954553952818,952
-207.48062590603843,789
-204.9524056239104,737
-202.4248845033651,819
-199.8980623545441,928
-197.37193898751036,985
-194.84651421224817,1001
-192.32178783866232,901
-189.79775967657952,945
-187.27442953574644,1022
-184.7517972258321,1179
-182.2298625564256,928
-179.7086253370378,792
-177.18808537710026,903
-174.66824248596583,1120
-172.14909647290835,1130
-169.6306471471229,1150
-167.11289431772548,1012
-164.59583779375328,956
-162.07947738416453,1157
-159.5638128978386,1288
-157.04884414357605,1488
-154.53457093009854,1623
-152.02099306604828,1171
-149.50811035998936,1146
-146.99592262040665,1336
-144.48442965570587,1477
-141.97363127421409,1629
-139.46352728417958,1732
-136.95411749377126,1672
-134.44540171107985,1462
-131.93737974411636,1330
-129.43005140081357,1249
-126.92341648902493,1504
-124.41747481652521,1967
-121.91222619101006,2421
-119.40767042009657,2743
-116.90380731132257,2643
-114.40063667214702,2843
-111.8981583099503,3678
-109.3963720320337,5053
-106.89527764561933,6635
-104.39487495785067,8338
-101.89516377579241,10399
-99.39614390642998,16311
-96.89781515667039,22180
-94.40017733334128,23808
-91.90323024319173,20357
-89.40697369289148,16847
-86.91140748903172,10281
-84.41653143812482,6606
-81.92234534660395,8715
-79.42884902082358,13579
-76.93604226705907,17255
-74.4439248915071,19710
-71.95249670028534,21705
-69.46175749943245,18982
-66.97170709490854,14402
-64.48234529259423,10235
-61.99367189829195,8931
-59.50568671772464,9166
-57.01838955653636,8656
-54.53178022029283,11111
-52.045858514480074,11458
-49.560624244506016,12905
-47.07607721569923,15115
-44.59221723330904,17204
-42.10904410250669,19185
-39.62655762838392,17684
-37.14475761595372,15843
-34.66364387015028,18749
-32.18321619582866,24143
-29.70347439776515,25582
-27.224418280657005,24460
-24.74604764912317,28669
-22.26836230770266,45301
-19.7913620608565,65034
-17.315046712966478,65034
-14.83941606833514,65034
-12.36446993118659,65034
-9.89020810566592,65034
-7.416630395839093,65034
-4.94373660569363,65034
-2.471526539137585,65034
-6.821210263296962E-13,65034
2.47084320796705,65034
4.941003281093458,65034
7.410480415786196,65034
9.879274808531363,65034
12.347386655893956,65034
14.814816154518212,65034
17.28156350112681,65034
19.74762889252179,65034
22.21301252558385,65034
24.67771459727237,23650
27.141735304626195,8580
29.605074844762612,7342
32.06773341487792,5667
34.52971121224755,5427
36.99100843422559,4924
39.45162527824516,4117
41.91156194181792,4368
44.370818622535126,5132
46.82939551806646,4708
49.287292826160524,6413
51.74451074464503,6270
54.201049471426245,3876
56.65690920448981,3071
59.112090141899785,2780
61.56659248179983,3060
64.02041642241159,2960
66.4735621620365,3110
68.92602989905402,3885
71.37781983192338,3868
73.82893215918205,2966
76.27936707944684,2107
78.72912479141326,2004
81.17820549385567,2221
83.62660938562783,2294
86.07433666566146,1842
88.5213875329681,1688
90.96776218663751,1835
93.41346082583925,2059
95.85848364982041,2645
98.30283085790859,2321
100.7465026495089,1687
103.18949922410604,1713
105.63182078126385,1443
108.07346752062438,1395
110.51443964190923,1343
112.95473734491827,1553
115.39436082953114,1577
117.83331029570547,1506
120.27158594347827,1397
122.7091879729652,1450
125.1461165843615,1460
127.58237197794062,1393
130.01795435405518,1487
132.4528639131364,1366
134.88710085569494,1221
137.32066538231982,1421
139.75355769367923,1526
142.1857779905207,1464
144.61732647366978,1175
147.04820334403132,1170
149.47840880258934,1143
151.90794305040674,1164
154.33680628862487,1299
156.76499871846443,1418
159.19252054122433,1528
161.61937195828352,1718
164.04555317109896,1765
166.47106438120693,2016
168.89590579022217,2019
171.320077599839,2262
173.7435800118302,2406
176.16641322804742,2542
178.58857745042144,2435
181.01007288096173,2586
183.43089972175687,2561
185.85105817497413,2626
188.27054844285988,2613
190.6893707277394,2608
193.10752523201643,2546
195.5250121581745,2624
197.9418317087751,2673
200.3579840864594,2722
202.7734694939469,2771
205.18828813403627,2861
207.6024402096051,2869
210.01592592360964,2846
212.42874547908548,2893
214.84089907914665,2913
217.2523869269868,2865
219.66320922587727,2875
222.0733661791695,2812
224.48285799029293,2864
226.8916848627572,2955
229.29984700014882,2984
231.7073446061355,2921
234.11417788446204,2934
236.520347038953,3010
238.92585227351185,3137
241.33069379212054,3382
243.73487179884035,3363
246.1383864978112,3200
248.541238093252,3268
250.9434267894609,3298
253.34495279081432,3315
255.74581630176783,3348
258.1460175268563,3313
260.54555667069314,3406
262.9444339379703,3368
265.3426495334594,3382
267.7402036620107,3165
270.1370965285529,3229
272.53332833809407,3030
274.9288992957214,2847
277.32380960660055,2851
279.718059475976,2677
282.1116491091717,2723
284.5045787115897,2683
286.89684848871195,2650
289.2884586460981,2623
291.67940938938807,2736
294.0697009242996,2780
296.4593334566299,2702
298.84830719225477,2721
301.23662233712923,2677
303.6242790972866,2601
306.01127767884,2610
308.39761828798066,2586
310.78330113097934,2468
313.16832641418534,2532
315.5526943440269,2502
317.9364051270112,2416
320.3194589697242,2451
322.70185607883093,2486
325.0835966610754,2406
327.4646809232805,2366
329.8451090723478,2373
332.2248813152577,2340
334.6039978590701,2332
336.9824589109231,2332
339.36026467803447,2290
341.7374153677,2296
344.113911187295,2122
346.48975234427337,2205
348.8649390461686,2228
351.2394715005918,2223
353.61334991523415,2223
355.9865744978655,2210
358.35914545633375,2343
360.73106299856715,2191
363.10232733257146,2214
365.47293866643247,2219
367.84289720831396,2081
370.2122031664593,2093
372.5808567491905,2130
374.9488581649083,2095
377.31620762209275,2088
379.6829053293021,2082
382.0489514951745,2068
384.4143463284262,2150
386.7790900378528,2011
389.14318283232853,2045
391.50662492080653,2071
393.86941651231916,2035
396.23155781597745,2042
398.5930490409713,2152
400.9538903965696,2088
403.3140820921202,2006
405.6736243370498,2036
408.03251734086336,2034
410.3907613131465,2027
412.74835646356166,2015
415.10530300185144,1985
417.4616011378372,1921
419.81725108141893,1916
422.1722530425758,2062
424.5266072313656,2060
426.880313857925,2000
429.2333731324701,2030
431.58578526529516,2068
433.9375504667738,2028
436.2886689473588,1995
438.63914091758113,2007
440.9889665880513,1985
443.33814616945835,1917
445.68667987257015,1921
448.03456790823395,1961
450.3818104873759,1937
452.72840782100013,2003
455.07436012019105,1905
457.41966759611057,1957
459.7643304600007,1935
462.10834892318155,1894
464.4517231970525,1943
466.79445349309174,1930
469.1365400228566,1980
471.4779829979826,1984
473.81878263018564,2006
476.15893913125876,1946
478.4984527130747,1945
480.8373235875855,2077
483.17555196682144,2122
485.5131380628919,2106
487.8500820879857,2229
490.1863842543697,2297
492.52204477439034,2420
494.8570638604725,2545
497.1914417251204,2891
499.52517858091653,3252
501.85827464052306,3484
504.19073011668036,3601
506.5225452222086,3754
508.85372017000566,3936
511.18425517304956,4002
513.514150444396,4453
515.8434061971808,5750
518.1720226446176,6681
520.4999999999999,6760
522.8273384766991,6319
525.1540382881666,5962
527.480099647932,5198
529.8055227696037,4299
532.1303078668694,3209
534.454455153496,2438
536.777964843328,2216
539.1008371502907,2141
541.4230722883866,2161
543.744670471698,2141
546.0656319143858,2136
548.3859568306899,2064
550.7056454349294,1990
553.0246979415016,2014
555.3431145648834,1944
557.6608955196306,2034
559.978041020377,1928
562.2945512818363,1977
564.6104265188006,1986
566.9256669461412,1979
569.2402727788082,2006
571.5542442318302,1974
573.8675815203156,2065
576.1802848594508,2013
578.4923544645015,2068
580.8037905508126,2072
583.114593333807,2026
585.4247630289875,2000
587.7342998519354,1989
590.0432040183106,2010
592.3514757438526,2009
594.6591152443794,2025
596.9661227357875,1964
599.2724984340531,1999
601.578242555231,1977
603.8833553154542,2003
606.1878369309362,1981
608.4916876179676,2030
610.7949075929192,1936
613.0974970722403,1969
615.3994562724587,1907
617.7007854101818,1996
620.0014847020951,2086
622.3015543649641,2095
624.6009946156324,1957
626.8998056710224,2004
629.1979877481361,2057
631.4955410640538,1917
633.7924658359349,2035
636.0887622810175,1987
638.3844306166192,2088
640.6794710601358,2014
642.9738838290426,2001
645.2676691408932,2010
647.5608272133207,2071
649.853358264037,2078
652.1452625108324,2051
654.4365401715764,2195
656.7271914642178,2015
659.0172166067838,2137
661.3066158173809,2041
663.5953893141935,2086
665.8835373154867,2153
668.1710600396028,2082
670.4579577049639,2104
672.7442305300709,2114
675.0298787335033,2144
677.3149025339197,2070
679.599302150058,2036
681.8830778007342,2056
684.1662297048437,2048
686.4487580813608,2084
688.7306631493387,2105
691.0119451279091,2024
693.2926042362834,2052
695.5726406937516,2070
697.8520547196814,2044
700.1308465335215,2006
702.4090163547982,1981
704.6865644031171,1994
706.9634908981619,1987
709.2397960596965,2054
711.5154801075631,2071
713.7905432616823,2060
716.0649857420548,2077
718.3388077687592,2035
720.612009561953,2045
722.8845913418733,2035
725.1565533288352,2040
727.427895743234,1987
729.6986188055427,2050
731.9687227363137,1941
734.238207756178,2047
736.5070740858458,2005
738.7753219461066,1963
741.0429515578281,1997
743.3099631419569,1979
745.5763569195191,2036
747.8421331116193,2008
750.1072919394409,2017
752.3718336242467,2050
754.6357583873777,2009
756.8990664502545,1985
759.1617580343765,2087
761.423833361321,1982
763.6852926527457,2050
765.9461361303862,2034
768.206364016058,1972
770.4659765316536,2011
772.7249738991469,2033
774.9833563405886,2025
777.2411240781092,2077
779.4982773339183,2052
781.7548163303044,1976
784.010741289634,2013
786.2660524343538,2082
788.5207499869881,2023
790.7748341701416,1986
793.0283052064964,2046
795.2811633188143,2090
797.5334087299362,2063
799.7850416627813,2066
802.0360623403484,2006
804.2864709857143,2086
806.5362678220353,1997
808.7854530725468,2075
811.0340269605625,2010
813.2819897094754,2053
815.5293415427581,2097
817.77608268396,2139
820.0222133567116,2010
822.2677337847211,1991
824.5126441917765,2080
826.7569448017433,2121
829.0006358385675,2070
831.2437175262731,2074
833.4861900889629,2109
835.7280537508192,2029
837.9693087361026,2136
840.2099552691533,2025
842.4499935743896,2074
844.689423876309,2019
846.9282463994886,2134
849.1664613685833,2081
851.4040690083276,2070
853.6410695435349,2041
855.877463199097,2145
858.1132501999847,2119
860.3484307712487,2050
862.5830051380175,2118
864.8169735254988,2059
867.0503361589791,2021
869.2830932638243,2115
871.5152450654786,2093
873.7467917894654,2048
875.9777336613873,2069
878.2080709069252,2119
880.4378037518389,2042
882.666932421968,2056
884.8954571432301,2151
887.1233781416219,2177
889.3506956432192,2123
891.5774098741766,2115
893.803521060728,2131
896.0290294291852,2066
898.2539352059397,2182
900.4782386174619,2166
902.7019398903011,2140
904.925039251085,2137
907.147536926521,2101
909.3694331433943,2156
911.59072812857,2149
913.8114221089921,2081
916.0315153116827,2144
918.2510079637437,2196
920.4699002923547,2132
922.6881925247761,2066
924.905884888345,2166
927.1229776104793,2193
929.3394709186747,2137
931.555365040506,2086
933.7706602036275,2111
935.9853566357709,2213
938.1994545647489,2133
940.4129542184515,2179
942.6258558248488,2165
944.8381596119883,2186
947.0498658079974,2168
949.2609746410825,2155
951.4714863395287,2154
953.6814011316998,2163
955.8907192460387,2157
958.0994409110671,2162
960.3075663553858,2221
962.5150958076741,2209
964.7220294966913,2110
966.928367651274,2138
969.1341105003388,2086
971.3392582728806,2174
973.5438111979742,2046
975.747769504772,2081
977.9511334225061,2094
980.153903180487,2035
982.3560790081052,2047
984.5576611348289,2041
986.7586497902058,1965
988.9590452038618,1968
991.158847605503,1928
993.3580572249133,1955
995.5566742919558,1851
997.7546990365728,1931
999.952131688785,1892
1002.1489724786926,1833
1004.3452216364743,1777
1006.5408793923874,1814
1008.7359459767691,1831
1010.9304216200343,1786
1013.1243065526781,1767
1015.3176010052733,1765
1017.510305208472,1811
1019.7024193930064,1713
1021.8939437896848,1781
1024.0848786293977,1778
1026.2752241431122,1804
1028.4649805618747,1763
1030.6541481168115,1734
1032.842727039127,1733
1035.0307175601051,1694
1037.2181199111074,1695
1039.4049343235752,1690
1041.591161029029,1744
1043.7768002590683,1660
1045.9618522453698,1717
1048.1463172196918,1649
1050.3301954138697,1671
1052.513487059818,1669
1054.69619238953,1634
1056.8783116350783,1698
1059.0598450286152,1680
1061.2407928023704,1613
1063.4211551886528,1650
1065.6009324198508,1652
1067.780124728432,1686
1069.9587323469414,1684
1072.1367555080046,1679
1074.314194444325,1703
1076.4910493886855,1652
1078.667320573947,1659
1080.843008233051,1661
1083.0181125990161,1646
1085.1926339049414,1596
1087.3665723840027,1615
1089.5399282694575,1579
1091.7127017946405,1606
1093.8848931929647,1584
1096.0565026979243,1640
1098.2275305430899,1592
1100.3979769621128,1579
1102.567842188722,1567
1104.737126456726,1554
1106.9058300000124,1507
1109.0739530525475,1577
1111.2414958483764,1527
1113.4084586216231,1560
1115.5748416064907,1526
1117.7406450372605,1602
1119.9058691482942,1562
1122.0705141740304,1596
1124.2345803489884,1639
1126.3980679077658,1614
1128.5609770850388,1529
1130.7233081155623,1541
1132.8850612341707,1530
1135.0462366757774,1587
1137.2068346753745,1575
1139.3668554680326,1567
1141.526299288901,1541
1143.68516637321,1471
1145.8434569562655,1591
1148.001171273455,1526
1150.158309560244,1522
1152.3148720521767,1571
1154.470858984876,1525
1156.626270594044,1536
1158.7811071154629,1559
1160.9353687849912,1507
1163.089055838569,1555
1165.242168512213,1611
1167.3947070420209,1599
1169.5466716641677,1545
1171.6980626149075,1608
1173.8488801305748,1591
1175.9991244475814,1509
1178.1487958024186,1513
1180.2978944316555,1552
1182.4464205719428,1540
1184.5943744600072,1541
1186.7417563326567,1538
1188.8885664267755,1536
1191.0348049793297,1479
1193.1804722273619,1534
1195.325568407995,1560
1197.4700937584303,1487
1199.614048515948,1526
1201.7574329179074,1516
1203.900247201746,1538
1206.042491604982,1530
1208.1841663652099,1585
1210.3252717201053,1563
1212.465807907422,1622
1214.6057751649923,1542
1216.7451737307279,1547
1218.8840038426192,1589
1221.0222657387353,1552
1223.1599596572241,1625
1225.2970858363137,1509
1227.4336445143094,1562
1229.5696359295966,1628
1231.705060320639,1591
1233.8399179259786,1624
1235.9742089842384,1631
1238.107933734118,1606
1240.2410924143974,1563
1242.373685263935,1593
1244.5057125216676,1654
1246.6371744266116,1617
1248.7680712178621,1619
1250.898403134593,1604
1253.028170416058,1599
1255.1573733015875,1579
1257.2860120305932,1575
1259.4140868425648,1589
1261.54159797707,1592
1263.6685456737569,1651
1265.7949301723515,1623
1267.9207517126597,1667
1270.046010534565,1650
1272.1707068780306,1721
1274.2948409830983,1654
1276.4184130898889,1715
1278.541423438603,1700
1280.6638722695184,1539
1282.785759822993,1645
1284.9070863394636,1658
1287.0278520594447,1626
1289.1480572235314,1705
1291.2677020723963,1766
1293.3867868467923,1762
1295.5053117875495,1707
1297.623277135579,1694
1299.740683131868,1739
1301.8575300174857,1740
1303.973818033578,1804
1306.0895474213703,1805
1308.2047184221678,1880
1310.3193312773528,1752
1312.4333862283888,1807
1314.5468835168163,1846
1316.659823384255,1775
1318.7722060724045,1812
1320.8840318230418,1894
1322.9953008780249,1820
1325.1060134792888,1781
1327.2161698688478,1734
1329.3257702887959,1766
1331.4348149813054,1780
1333.5433041886276,1751
1335.6512381530933,1789
1337.7586171171101,1767
1339.8654413231675,1799
1341.9717110138317,1763
1344.0774264317488,1788
1346.1825878196432,1796
1348.2871954203192,1774
1350.3912494766587,1801
1352.4947502316231,1714
1354.5976979282532,1741
1356.7000928096686,1767
1358.8019351190665,1749
1360.9032250997243,1769
1363.0039629949988,1759
1365.1041490483235,1748
1367.2037835032133,1762
1369.3028666032606,1773
1371.401398592137,1794
1373.4993797135926,1790
1375.5968102114575,1808
1377.6936903296396,1760
1379.7900203121262,1730
1381.8858004029835,1776
1383.9810308463561,1794
1386.075711886469,1735
1388.1698437676241,1767
1390.2634267342032,1784
1392.356461030667,1840
1394.4489469015557,1806
1396.5408845914872,1845
1398.6322743451592,1857
1400.7231164073469,1841
1402.813411022907,1815
1404.903158436773,1830
1406.9923588939578,1835
1409.0810126395531,1841
1411.1691199187303,1831
1413.2566809767386,1885
1415.343696058907,1865
1417.4301654106425,1929
1419.5160892774315,1929
1421.6014679048399,1959
1423.6863015385125,1887
1425.7705904241707,1935
1427.8543348076178,1987
1429.9375349347342,1985
1432.0201910514802,2025
1434.102303403894,1998
1436.1838722380944,2078
1438.2648978002767,2008
1440.3453803367174,2027
1442.4253200937692,2072
1444.5047173178677,2099
1446.5835722555234,2120
1448.6618851533285,2131
1450.739656257952,2155
1452.8168858161434,2180
1454.8935740747306,2238
1456.96972128062,2213
1459.045327680797,2317
1461.120393522327,2308
1463.1949190523528,2340
1465.2689045180973,2376
1467.3423501668608,2507
1469.415256246024,2498
1471.4876230030463,2543
1473.559450685465,2527
1475.6307395408976,2656
1477.7014898170391,2665
1479.771701761665,2671
1481.8413756226287,2711
1483.9105116478618,2812
1485.9791100853772,2713
1488.0471711832643,2727
1490.1146951896926,2702
1492.1816823529098,2933
1494.2481329212433,2875
1496.3140471430984,2882
1498.3794252669609,2937
1500.4442675413939,2969
1502.5085742150404,3005
1504.572345536622,2934
1506.6355817549388,2994
1508.6982831188702,3084
1510.7604498773744,3140
1512.8220822794883,3055
1514.8831805743293,3071
1516.9437450110909,3131
1519.003775839048,3198
1521.0632733075522,3124
1523.1222376660367,3201
1525.1806691640113,3162
1527.2385680510652,3239
1529.2959345768668,3146
1531.3527689911643,3237
1533.4090715437833,3358
1535.4648424846291,3358
1537.5200820636855,3381
1539.5747905310159,3353
1541.6289681367616,3377
1543.6826151311434,3528
1545.7357317644614,3637
1547.7883182870937,3524
1549.8403749494987,3554
1551.8919020022113,3712
1553.9428996958477,3672
1555.9933682811015,3855
1558.0433080087469,3980
1560.0927191296346,3989
1562.1416018946961,3995
1564.1899565549415,4018
1566.2377833614592,4081
1568.2850825654164,3959
1570.3318544180606,3841
1572.3780991707158,3848
1574.423817074788,3713
1576.4690083817595,3634
1578.5136733431923,3542
1580.5578122107272,3330
1582.601425236085,3201
1584.6445126710646,3060
1586.6870747675434,2896
1588.7291117774776,2882
1590.7706239529034,2706
1592.8116115459347,2648
1594.8520748087658,2537
1596.8920139936686,2409
1598.9314293529933,2356
1600.9703211391711,2335
1603.008689604711,2190
1605.0465350022005,2285
1607.0838575843068,2118
1609.1206576037753,2177
1611.1569353134305,2074
1613.1926909661765,2001
1615.2279248149953,1953
1617.2626371129481,2008
1619.2968281131757,1894
1621.3304980688963,1859
1623.3636472334088,1831
1625.39627586009,1833
1627.428384202396,1813
1629.459972513861,1826
1631.4910410480993,1750
1633.5215900588028,1741
1635.551619799744,1769
1637.5811305247717,1762
1639.6101224878166,1686
1641.6385959428862,1743
1643.6665511440683,1713
1645.693988345528,1644
1647.7209078015112,1703
1649.7473097663405,1669
1651.7731944944203,1730
1653.7985622402307,1670
1655.823413258333,1643
1657.847747803366,1648
1659.8715661300494,1672
1661.8948684931793,1658
1663.9176551476316,1686
1665.9399263483624,1641
1667.9616823504057,1594
1669.982923408873,1678
1672.0036497789574,1605
1674.0238617159293,1579
1676.043559475138,1585
1678.0627433120121,1608
1680.081413482059,1647
1682.0995702408654,1659
1684.117213844096,1615
1686.134344547495,1625
1688.1509626068864,1658
1690.1670682781705,1627
1692.182661817329,1637
1694.1977434804217,1576
1696.2123135235875,1645
1698.226372203043,1631
1700.2399197750851,1681
1702.2529564960905,1631
1704.2654826225112,1613
1706.277498410882,1631
1708.2890041178139,1630
1710.2999999999988,1593
1712.3104863142066,1587
1714.3204633172854,1665
1716.329931266163,1560
1718.3388904178469,1597
1720.3473410294214,1583
1722.3552833580516,1593
1724.3627176609807,1563
1726.3696441955308,1591
1728.3760632191033,1587
1730.3819749891782,1576
1732.3873797633146,1582
1734.3922777991502,1596
1736.3966693544012,1544
1738.4005546868639,1551
1740.4039340544127,1526
1742.406807715001,1570
1744.4091759266616,1590
1746.4110389475054,1546
1748.4123970357223,1495
1750.413250449582,1536
1752.4135994474318,1510
1754.4134442876993,1513
1756.4127852288902,1509
1758.4116225295893,1506
1760.4099564484595,1515
1762.407787244244,1581
1764.405115175764,1496
1766.4019405019203,1500
1768.3982634816916,1507
1770.3940843741357,1471
1772.3894034383907,1477
1774.3842209336717,1474
1776.378537119274,1499
1778.372352254571,1489
1780.3656665990156,1475
1782.3584804121397,1471
1784.3507939535534,1506
1786.3426074829463,1434
1788.3339212600863,1468
1790.3247355448211,1486
1792.3150505970766,1503
1794.3048666768573,1460
1796.2941840442477,1538
1798.2830029594106,1430
1800.2713236825884,1482
1802.2591464741004,1471
1804.2464715943465,1475
1806.2332993038058,1448
1808.2196298630352,1467
1810.2054635326708,1456
1812.190800573428,1414
1814.175641246101,1417
1816.1599858115628,1468
1818.1438345307652,1469
1820.127187664738,1416
1822.1100454745924,1490
1824.092408221516,1502
1826.0742761667766,1480
1828.055649571721,1421
1830.0365286977735,1402
1832.0169138064398,1449
1833.9968051593014,1439
1835.9762030180214,1469
1837.9551076443408,1511
1839.9335193000788,1428
1841.9114382471344,1441
1843.888864747485,1441
1845.8657990631878,1360
1847.842241456378,1408
1849.8181921892697,1416
1851.7936515241558,1408
1853.7686197234098,1461
1855.7430970494815,1423
1857.7170837649014,1408
1859.6905801322787,1444
1861.6635864143004,1466
1863.6361028737338,1498
1865.608129773424,1473
1867.5796673762961,1481
1869.5507159453537,1472
1871.521275743678,1442
1873.4913470344313,1473
1875.4609300808534,1447
1877.4300251462632,1469
1879.3986324940588,1445
1881.366752387717,1448
1883.3343850907936,1445
1885.3015308669228,1499
1887.268189979819,1475
1889.2343626932739,1527
1891.2000492711595,1498
1893.1652499774254,1425
1895.1299650761011,1497
1897.0941948312952,1440
1899.0579395071945,1419
1901.0211993680641,1504
1902.98397467825,1464
1904.9462657021745,1536
1906.9080727043415,1495
1908.869395949332,1502
1910.8302357018065,1515
1912.790592226504,1461
1914.7504657882428,1508
1916.7098566519212,1476
1918.6687650825133,1414
1920.6271913450764,1461
1922.5851357047422,1479
1924.5425984267245,1490
1926.499579776314,1539
1928.4560800188833,1454
1930.4120994198802,1475
1932.367638244833,1456
1934.32269675935,1494
1936.2772752291175,1513
1938.231373919899,1452
1940.1849930975404,1441
1942.1381330279637,1412
1944.0907939771696,1434
1946.0429762112412,1499
1947.9946799963363,1461
1949.9459055986945,1441
1951.896653284633,1449
1953.8469233205478,1443
1955.7967159729142,1489
1957.7460315082863,1466
1959.6948701932974,1389
1961.6432322946594,1459
1963.5911180791632,1478
1965.5385278136787,1395
1967.4854617651545,1428
1969.4319202006182,1439
1971.377903387176,1446
1973.3234115920136,1441
1975.268445082395,1438
1977.2130041256642,1456
1979.1570889892423,1416
1981.1006999406304,1388
1983.04383724741,1380
1984.986501177238,1456
1986.928691997853,1406
1988.8704099770712,1425
1990.811655382789,1428
1992.7524284829801,1390
1994.692729545698,1378
1996.6325588390755,1368
1998.5719166313224,1384
2000.5108031907307,1374
2002.4492187856677,1389
2004.387163684583,1442
2006.3246381560011,1405
2008.2616424685298,1376
2010.1981768908527,1411
2012.1342416917332,1349
2014.069837140014,1373
2016.0049635046162,1325
2017.9396210545406,1413
2019.8738100588666,1390
2021.8075307867502,1363
2023.740783507431,1376
2025.6735684902228,1341
2027.6058860045214,1403
2029.5377363198004,1379
2031.4691197056118,1330
2033.4000364315875,1375
2035.3304867674374,1398
2037.260470982952,1412
2039.189989347998,1366
2041.1190421325232,1391
2043.047629606554,1358
2044.9757520401945,1347
2046.9034097036288,1398
2048.8306028671195,1390
2050.7573318010086,1414
2052.683596775716,1355
2054.609398061742,1374
2056.5347359296647,1373
2058.4596106501403,1393
2060.384022493906,1397
2062.3079717317764,1376
2064.231458634646,1434
2066.1544834734873,1412
2068.077046519352,1379
2069.99914804337,1368
2071.9207883167524,1364
2073.8419676107865,1350
2075.7626861968406,1377
2077.6829443463607,1371
2079.6027423308715,1393
2081.522080421977,1327
2083.440958891362,1395
2085.359378010786,1370
2087.2773380520907,1369
2089.194839287196,1419
2091.111881988101,1432
2093.0284664268825,1391
2094.9445928756973,1349
2096.86026160678,1347
2098.775472892446,1337
2100.690227005088,1439
2102.604524217178,1352
2104.5183648012676,1384
2106.431749029985,1343
2108.34467717604,1382
2110.2571495122206,1415
2112.169166311393,1420
2114.080727846503,1356
2115.9918343905747,1364
2117.902486216711,1390
2119.8126835980956,1414
2121.722426807987,1372
2123.6317161197285,1450
2125.5405518067364,1372
2127.448934142509,1403
2129.356863400624,1431
2131.264339854737,1421
2133.1713637785815,1411
2135.077935445972,1393
2136.9840551308002,1418
2138.889723107037,1408
2140.7949396487334,1414
2142.699705030018,1431
2144.6040195250994,1417
2146.507883408264,1426
2148.4112969538774,1373
2150.3142604363848,1392
2152.2167741303097,1419
2154.1188383102535,1452
2156.0204532508997,1446
2157.9216192270064,1401
2159.822336513414,1442
2161.7226053850413,1407
2163.622426116884,1405
2165.5217989840185,1457
2167.4207242616,1452
2169.319202224862,1471
2171.2172331491165,1395
2173.1148173097563,1441
2175.0119549822507,1424
2176.90864644215,1419
2178.8048919650823,1456
2180.7006918267534,1414
2182.596046302952,1444
2184.4909556695407,1459
2186.3854202024645,1536
2188.279440177746,1480
2190.173015871487,1434
2192.066147559868,1431
2193.958835519149,1445
2195.851080025667,1457
2197.7428813558417,1437
2199.6342397861667,1471
2201.5251555932186,1485
2203.415629053651,1431
2205.3056604441986,1454
2207.19525004167,1461
2209.084398122958,1440
2210.9731049650327,1544
2212.861370844941,1440
2214.749196039812,1437
2216.636580826851,1508
2218.523525483344,1514
2220.410030286655,1464
2222.296095514226,1475
2224.1817214435805,1465
2226.066908352319,1529
2227.951656518121,1477
2229.835966218746,1463
2231.71983773203,1442
2233.6032713358913,1424
2235.486267308324,1497
2237.3688259274036,1458
2239.2509474712824,1439
2241.132632218193,1498
2243.013880446447,1507
2244.8946924344323,1503
2246.7750684606203,1469
2248.6550088035574,1479
2250.534513741871,1443
2252.413583554265,1493
2254.292218519526,1506
2256.170418916517,1454
2258.0481850241786,1465
2259.925517121534,1417
2261.8024154876825,1506
2263.678880401803,1482
2265.5549121431536,1516
2267.430510991071,1440
2269.305677224971,1397
2271.180411124348,1397
2273.0547129687766,1410
2274.9285830379076,1398
2276.8020216114737,1460
2278.6750289692845,1440
2280.5476053912294,1514
2282.4197511572766,1471
2284.2914665474727,1470
2286.162751841943,1456
2288.0336073208937,1505
2289.904033264608,1556
2291.774029953448,1485
2293.6435976678554,1426
2295.5127366883517,1417
2297.381447295534,1491
2299.2497297700825,1404
2301.1175843927526,1356
2302.9850114443825,1317
2304.852011205885,1324
2306.7185839582553,1359
2308.5847299825664,1299
2310.4504495599676,1327
2312.3157429716925,1249
2314.1806104990483,1322
2316.0450524234247,1292
2317.9090690262888,1310
2319.772660589186,1302
2321.635827393742,1308
2323.498569721661,1338
2325.3608878547248,1322
2327.2227820747967,1256
2329.0842526638157,1310
2330.945299903803,1237
2332.805924076857,1222
2334.6661254651535,1225
2336.525904350951,1299
2338.3852610165827,1240
2340.244195744464,1336
2342.102708817088,1266
2343.9608005170253,1260
2345.8184711269287,1334
2347.675720929526,1291
2349.532550207628,1265
2351.38895924412,1276
2353.24494832197,1273
2355.100517724223,1269
2356.955667734004,1251
2358.810398634514,1299
2360.664710709037,1301
2362.5186042409337,1325
2364.3720795136437,1341
2366.225136810686,1298
2368.0777764156583,1319
2369.929998612237,1342
2371.7818036841777,1260
2373.633191915315,1234
2375.484163589562,1260
2377.3347189909114,1286
2379.184858403434,1309
2381.03458211128,1285
2382.8838903986775,1317
2384.732783549936,1305
2386.5812618494406,1232
2388.4293255816588,1260
2390.2769750311327,1288
2392.1242104824883,1286
2393.971032220427,1329
2395.8174405297295,1287
2397.6634356952563,1332
2399.509018001947,1310
2401.3541877348193,1306
2403.1989451789705,1311
2405.043290619576,1319
2406.8872243418905,1325
2408.730746631247,1280
2410.5738577730594,1339
2412.4165580528183,1272
2414.258847756095,1330
2416.100727168537,1395
2417.9421965758734,1346
2419.783256263912,1339
2421.623906518538,1414
2423.4641476257157,1274
2425.303979871491,1390
2427.143403541984,1365
2428.9824189233977,1335
2430.821026302012,1376
2432.6592259641866,1315
2434.497018196361,1350
2436.33440328505,1378
2438.171381516851,1348
2440.00795317844,1349
2441.844118556569,1321
2443.6798779380724,1316
2445.5152316098606,1302
2447.3501798589255,1352
2449.1847229723357,1302
2451.0188612372403,1369
2452.8525949408663,1331
2454.6859243705203,1327
2456.518849813587,1331
2458.3513715575314,1400
2460.183489889895,1356
2462.015205098301,1396
2463.8465174704493,1363
2465.67742729412,1370
2467.5079348571717,1354
2469.338040447542,1382
2471.1677443532476,1373
2472.9970468623833,1420
2474.825948263123,1325
2476.6544488437207,1343
2478.482548892508,1352
2480.310248697896,1410
2482.137548548374,1422
2483.9644487325118,1338
2485.790949538956,1346
2487.617051256433,1335
2489.44275417375,1356
2491.26805857979,1379
2493.0929647635157,1339
2494.917473013971,1350
2496.741583620276,1423
2498.5652968716304,1319
2500.3886130573137,1411
2502.2115324666834,1447
2504.0340553891765,1362
2505.856182114308,1380
2507.6779129316733,1427
2509.499248130945,1459
2511.3201880018764,1420
2513.140732834298,1387
2514.9608829181198,1355
2516.780638543331,1417
2518.6,1481
2520.418967578273,1426
2522.237541568376,1438
2524.0557222606144,1454
2525.8735099453706,1396
2527.6909049131086,1442
2529.507907454368,1388
2531.32451785977,1463
2533.140736420014,1501
2534.9565634258774,1511
2536.771999168218,1462
2538.5870439379714,1434
2540.4016980261526,1459
2542.2159617238544,1511
2544.02983532225,1463
2545.8433191125914,1533
2547.656413386209,1549
2549.4691184345115,1578
2551.2814345489874,1574
2553.093362021204,1603
2554.904901142808,1605
2556.716052205523,1611
2558.526815501153,1571
2560.3371913215824,1629
2562.147179958771,1618
2563.956781704761,1658
2565.7659968516705,1679
2567.5748256916986,1606
2569.3832685171224,1636
2571.1913256202984,1658
2572.9989972936614,1644
2574.806283829725,1709
2576.613185521084,1698
2578.4197026604074,1704
2580.2258355404483,1670
2582.031584454035,1675
2583.836949694077,1693
2585.6419315535613,1736
2587.4465303255533,1759
2589.2507463032002,1746
2591.0545797797245,1735
2592.8580310484303,1773
2594.6611004026995,1758
2596.463788135992,1732
2598.266094541849,1754
2600.0680199138874,1735
2601.869564545807,1751
2603.670728731383,1714
2605.4715127644704,1724
2607.2719169390048,1754
2609.071941548998,1744
2610.8715868885433,1738
2612.670853251811,1736
2614.469740933052,1758
2616.268250226594,1803
2618.0663814268455,1693
2619.864134828292,1689
2621.6615107255006,1686
2623.458509413115,1751
2625.2551311858597,1719
2627.0513763385347,1670
2628.8472451660223,1649
2630.6427379632833,1674
2632.4378550253564,1638
2634.232596647359,1617
2636.026963124488,1619
2637.8209547520187,1638
2639.6145718253065,1564
2641.407814639785,1513
2643.200683490966,1574
2644.9931786744414,1578
2646.7853004858807,1525
2648.577049221034,1497
2650.3684251757277,1519
2652.1594286458712,1535
2653.9500599274484,1487
2655.740319316525,1534
2657.5302071092437,1467
2659.3197236018286,1562
2661.10886909058,1488
2662.8976438718782,1470
2664.686048242183,1457
2666.4740824980327,1429
2668.2617469360443,1422
2670.0490418529134,1425
2671.8359675454153,1374
2673.622524310403,1427
2675.408712444811,1388
2677.1945322456495,1415
2678.979984010009,1445
2680.76506803506,1367
2682.5497846180497,1443
2684.334134056306,1336
2686.1181166472343,1414
2687.9017326883213,1407
2689.6849824771293,1377
2691.4678663113013,1369
2693.2503844885596,1400
2695.032537306705,1372
2696.8143250636167,1314
2698.5957480572542,1332
2700.3768065856534,1338
2702.1575009469316,1324
2703.937831439283,1343
2705.717798360982,1338
2707.4974020103837,1312
2709.276642685917,1339
2711.055520686095,1262
2712.834036309506,1279
2714.612189854819,1351
2716.389981620782,1333
2718.1674119062204,1250
2719.944481010041,1291
2721.721189231226,1363
2723.4975368688415,1295
2725.273524222027,1312
2727.0491515900053,1225
2728.824419272075,1291
2730.5993275676146,1316
2732.3738767760838,1302
2734.148067197016,1291
2735.921899130031,1310
2737.6953728748194,1176
2739.468488731156,1263
2741.2412469988926,1270
2743.0136479779617,1275
2744.785691968372,1271
2746.5573792702116,1253
2748.3287101836504,1254
2750.099685008934,1280
2751.870304046388,1279
2753.640567596418,1266
2755.4104759595057,1219
2757.1800294362156,1200
2758.949228327187,1245
2760.7180729331412,1217
2762.486563554877,1279
2764.254700493272,1269
2766.022484049284,1261
2767.789914523947,1267
2769.5569922183786,1284
2771.3237174337705,1293
2773.090090471394,1276
2774.8561116326036,1287
2776.6217812188274,1278
2778.3870995315756,1288
2780.1520668724356,1264
2781.9166835430747,1247
2783.6809498452394,1243
2785.444866080754,1331
2787.2084325515225,1209
2788.971649559527,1190
2790.73451740683,1278
2792.4970363955713,1243
2794.2592068279705,1236
2796.0210290063264,1204
2797.7825032330147,1236
2799.543629810493,1266
2801.304409041296,1269
2803.0648412280366,1225
2804.8249266734088,1267
2806.5846656801846,1253
2808.344058551212,1286
2810.1031055894246,1281
2811.8618070978273,1190
2813.6201633795085,1225
2815.378174737636,1290
2817.1358414754536,1266
2818.893163896285,1191
2820.6501423035334,1258
2822.4067770006814,1288
2824.1630682912883,1221
2825.9190164789957,1260
2827.6746218675207,1246
2829.429884760661,1273
2831.184805462294,1278
2832.9393842763743,1228
2834.693621506936,1231
2836.4475174580916,1273
2838.201072434034,1256
2839.954286739034,1218
2841.707160677441,1202
2843.459694553685,1239
2845.2118886722724,1343
2846.96374333779,1265
2848.7152588549034,1267
2850.4664355283567,1236
2852.217273662973,1266
2853.9677735636546,1272
2855.7179355353833,1278
2857.4677598832186,1274
2859.217246912299,1263
2860.9663969278427,1257
2862.715210235146,1242
2864.4636871395846,1214
2866.211827946614,1254
2867.9596329617652,1252
2869.7071024906536,1231
2871.4542368389684,1277
2873.20103631248,1248
2874.947501217038,1220
2876.6936318585695,1195
2878.4394285430812,1234
2880.1848915766604,1249
2881.9300212654707,1218
2883.6748179157553,1262
2885.4192818338374,1259
2887.1634133261173,1221
2888.907212699077,1237
2890.6506802592744,1224
2892.393816313348,1240
2894.1366211680142,1253
2895.8790951300693,1261
2897.621238506388,1235
2899.363051603925,1253
2901.1045347297118,1217
2902.8456881908596,1227
2904.58651229456,1262
2906.327007348081,1285
2908.067173658772,1204
2909.8070115340597,1191
2911.5465212814497,1257
2913.285703208527,1236
2915.0245576229563,1172
2916.7630848324807,1258
2918.5012851449196,1214
2920.2391588681758,1248
2921.976706310227,1219
2923.7139277791334,1236
2925.4508235830313,1242
2927.187394030137,1238
2928.923639428745,1238
2930.6595600872306,1204
2932.395156314046,1244
2934.1304284177218,1286
2935.8653767068713,1249
2937.6000014901815,1306
2939.3343030764227,1236
2941.068281774442,1227
2942.8019378931644,1221
2944.5352717415976,1227
2946.2682836288236,1239
2948.0009738640065,1232
2949.7333427563885,1203
2951.465390615289,1268
2953.1971177501086,1213
2954.9285244703265,1255
2956.6596110855,1213
2958.3903779052657,1269
2960.1208252393385,1203
2961.8509533975125,1261
2963.5807626896617,1260
2965.3102534257378,1238
2967.0394259157715,1245
2968.768280469873,1227
2970.496817398232,1184
2972.2250370111146,1288
2973.952939618869,1238
2975.6805255319196,1250
2977.4077950607707,1291
2979.134748516006,1273
2980.861386208289,1267
2982.587708448359,1229
2984.313715547037,1202
2986.039407815222,1204
2987.764785563891,1200
2989.489849104102,1176
2991.2145987469908,1172
2992.9390348037705,1227
2994.6631575857346,1210
2996.3869674042576,1185
2998.1104645707887,1236
2999.83364939686,1173
3001.5565221940783,1210
3003.2790832741334,1246
3005.0013329487924,1204
3006.7232715298996,1216
3008.4448993293804,1220
3010.166216659239,1243
3011.887223831558,1217
3013.607921158498,1237
3015.3283089522993,1229
3017.0483875252826,1182
3018.7681571898443,1257
3020.4876182584626,1243
3022.2067710436927,1211
3023.9256158581707,1241
3025.644153014609,1225
3027.362382825801,1261
3029.0803056046193,1246
3030.797921664012,1218
3032.5152313170106,1232
3034.2322348767225,1271
3035.9489326563353,1240
3037.665324969115,1226
3039.3814121284063,1260
3041.097194447633,1239
3042.812672240299,1165
3044.5278458199855,1201
3046.2427155003525,1288
3047.9572815951406,1238
3049.671544418167,1190
3051.38550428333,1238
3053.0991615046073,1238
3054.812516396051,1258
3056.5255692717974,1226
3058.2383204460575,1251
3059.9507702331257,1194
3061.662918947372,1221
3063.3747669032446,1210
3065.0863144152736,1239
3066.7975617980674,1294
3068.508509366309,1247
3070.219157434767,1215
3071.9295063182844,1229
3073.639556331785,1192
3075.3493077902704,1205
3077.058761008821,1224
3078.7679163025964,1172
3080.476773986837,1228
3082.1853343768594,1226
3083.89359778806,1170
3085.6015645359153,1251
3087.3092349359786,1248
3089.016609303884,1248
3090.7236879553434,1223
3092.4304712061476,1170
3094.136959372166,1232
3095.843152769349,1242
3097.5490517137237,1181
3099.2546565213966,1238
3100.959967508554,1178
3102.66498499146,1202
3104.3697092864577,1206
3106.0741407099695,1214
3107.778279578498,1171
3109.482126208622,1249
3111.1856809170004,1273
3112.8889440203716,1275
3114.5919158355528,1215
3116.294596679439,1221
3117.996986869006,1222
3119.6990867213062,1277
3121.4008965534726,1246
3123.102416682717,1286
3124.803647426329,1262
3126.5045891016784,1260
3128.205242026213,1266
3129.90560651746,1235
3131.605682893025,1235
3133.3054714705922,1242
3135.0049725679282,1213
3136.7041865028714,1233
3138.4031135933465,1200
3140.101754157353,1176
3141.800108512971,1187
3143.498176978357,1214
3145.1959598717494,1212
3146.8934575114636,1219
3148.5906702158954,1226
3150.2875983035183,1190
3151.9842420928853,1157
3153.680601902627,1243
3155.376678051456,1190
3157.07247085816,1193
3158.767980641609,1187
3160.463207720748,1174
3162.158152414606,1218
3163.8528150422862,1187
3165.5471959229726,1241
3167.2412953759303,1187
3168.9351137204976,1238
3170.628651276098,1232
3172.3219083622307,1218
3174.014885298474,1217
3175.707582404485,1198
3177.4000000000005,1195
3179.092138404835,1181
3180.7839979388846,1298
3182.47557892212,1246
3184.166881674594,1203
3185.8579065164386,1217
3187.5486537678626,1202
3189.2391237491547,1212
3190.9293167806827,1285
3192.6192331828934,1241
3194.3088732763117,1233
3195.998237381542,1160
3197.687325819268,1189
3199.376138910251,1187
3201.064676975334,1159
3202.7529403354347,1203
3204.4409293115523,1160
3206.1286442247647,1179
3207.816085396229,1209
3209.5032531471825,1219
3211.190147798936,1128
3212.8767696728846,1157
3214.5631190905015,1179
3216.2491963733373,1155
3217.9350018430214,1170
3219.6205358212637,1195
3221.305798629851,1176
3222.990790590651,1207
3224.6755120256103,1152
3226.359963256751,1169
3228.0441446061795,1181
3229.7280563960758,1231
3231.411698948703,1165
3233.0950725863995,1216
3234.778177631587,1143
3236.461014406761,1210
3238.1435832345005,1229
3239.8258844374595,1229
3241.507918338374,1230
3243.1896852600576,1206
3244.8711855254023,1176
3246.552419457381,1190
3248.233387379042,1218
3249.914089613516,1177
3251.59452648401,1193
3253.274698313813,1206
3254.95460542629,1157
3256.6342481448855,1181
3258.313626793125,1189
3259.9927416946084,1143
3261.6715931730196,1211
3263.3501815521176,1167
3265.0285071557437,1213
3266.706570307815,1198
3268.3843713323286,1118
3270.0619105533615,1180
3271.739188295068,1229
3273.4162048816834,1160
3275.0929606375184,1157
3276.769455886966,1237
3278.445690954498,1194
3280.1216661646613,1171
3281.797381842087,1212
3283.4728383114807,1189
3285.1480358976296,1205
3286.8229749253996,1174
3288.4976557197333,1178
3290.172078605655,1198
3291.846243908266,1150
3293.5201519527463,1225
3295.193803064357,1126
3296.8671975684374,1168
3298.5403357904024,1084
3300.21321805575,1160
3301.8858446900567,1157
3303.558216018975,1180
3305.23033236824,1144
3306.9021940636603,1143
3308.57380143113,1192
3310.2451547966184,1183
3311.916254486174,1190
3313.5871008259246,1219
3315.2576941420766,1175
3316.9280347609147,1147
3318.5981230088046,1146
3320.2679592121895,1150
3321.9375436975924,1133
3323.606876791612,1145
3325.27595882093,1179
3326.944790112305,1200
3328.6133709925753,1172
3330.2817017886573,1182
3331.949782827547,1233
3333.617614436319,1149
3335.2851969421245,1186
3336.952530672199,1163
3338.619615953853,1172
3340.286453114475,1184
3341.9530424815357,1194
3343.619384382583,1137
3345.2854791452437,1202
3346.951327097224,1151
3348.6169285663073,1175
3350.2822838803577,1181
3351.947393367319,1173
3353.61225735521,1156
3355.2768761721345,1170
3356.9412501462693,1205
3358.605379605873,1157
3360.2692648792827,1210
3361.9329062949146,1199
3363.596304181263,1171
