CollectionTime,6/26/2024 4:02:36 PM
ExposureUsed,3
CalibratedSpectrum
-962.7078968117929,606
-959.9714848408522,658
-957.2358232597828,639
-954.5009119013725,671
-951.7667505983302,634
-949.0333391832855,636
-946.3006774887896,652
-943.5687653473143,713
-940.837602591253,649
-938.1071890529199,654
-935.3775245645503,652
-932.6486089583007,687
-929.9204420662485,710
-927.1930237203925,702
-924.4663537526524,692
-921.7404319948689,672
-919.0152582788041,681
-916.2908324361409,723
-913.5671542984834,709
-910.8442236973568,670
-908.1220404642074,673
-905.4006044304027,688
-902.679915427231,682
-899.959973285902,677
-897.2407778375464,656
-894.5223289132158,675
-891.8046263438832,690
-889.0876699604426,640
-886.3714595937089,622
-883.6559950744183,626
-880.9412762332282,664
-878.2273029007168,645
-875.5140749073835,664
-872.8015920836489,619
-870.0898542598545,626
-867.3788612662631,601
-864.6686129330585,649
-861.9591090903457,622
-859.2503495681506,609
-856.5423341964203,664
-853.8350628050229,644
-851.1285352237478,668
-848.4227512823054,650
-845.7177108103272,644
-843.0134136373656,621
-840.3098595928943,622
-837.6070485063082,682
-834.9049802069229,643
-832.2036545239757,665
-829.5030712866244,661
-826.8032303239481,657
-824.1041314649472,654
-821.4057745385428,610
-818.7081593735775,649
-816.0112857988148,667
-813.3151536429393,622
-810.6197627345566,630
-807.9251129021936,642
-805.2312039742981,631
-802.5380357792392,598
-799.8456081453069,631
-797.1539209007124,626
-794.462973873588,663
-791.772766891987,666
-789.083299783884,677
-786.3945723771743,629
-783.7065844996748,622
-781.0193359791231,635
-778.3328266431781,666
-775.6470563194197,652
-772.9620248353489,663
-770.2777320183878,634
-767.5941776958798,683
-764.9113616950891,658
-762.2292838432011,676
-759.5479439673222,677
-756.8673418944801,690
-754.1874774516235,651
-751.5083504656222,681
-748.8299607632671,643
-746.15230817127,672
-743.475392516264,667
-740.7992136248035,660
-738.1237713233636,665
-735.4490654383407,663
-732.7750957960521,684
-730.1018622227365,681
-727.4293645445534,687
-724.7576025875837,672
-722.0865761778291,714
-719.4162851412126,691
-716.7467293035781,677
-714.0779084906909,709
-711.409822528237,729
-708.7424712418238,697
-706.0758544569796,709
-703.4099719991541,716
-700.7448236937178,727
-698.0804093659622,693
-695.4167288411002,720
-692.7537819442656,721
-690.0915685005134,710
-687.4300883348199,679
-684.7693412720819,738
-682.1093271371178,688
-679.4500457546669,704
-676.7914969493897,684
-674.1336805458676,722
-671.4765963686034,763
-668.8202442420206,704
-666.1646239904642,742
-663.5097354382001,755
-660.8555784094151,745
-658.2021527282176,742
-655.5494582186366,779
-652.8974947046223,732
-650.2462620100463,748
-647.5957599587009,751
-644.9459883742998,758
-642.2969470804776,798
-639.6486359007902,788
-637.0010546587141,760
-634.3542031776476,778
-631.7080812809096,760
-629.0626887917401,749
-626.4180255333008,738
-623.7740913286734,738
-621.1308860008619,729
-618.4884093727904,761
-615.8466612673046,766
-613.2056415071715,732
-610.5653499150785,731
-607.9257863136347,778
-605.28695052537,727
-602.6488423727357,730
-600.0114616781036,717
-597.3748082637674,786
-594.7388819519412,793
-592.1036825647604,761
-589.4692099242818,817
-586.8354638524829,765
-584.2024441712624,741
-581.5701507024403,737
-578.9385832677575,738
-576.3077416888759,725
-573.6776257873787,734
-571.0482353847704,773
-568.4195703024757,779
-565.7916303618415,783
-563.164415384135,798
-560.5379251905453,799
-557.9121596021815,762
-555.2871184400748,750
-552.6628015251767,791
-550.0392086783606,755
-547.4163397204204,773
-544.794194472071,791
-542.1727727539491,778
-539.5520743866118,805
-536.9320991905377,825
-534.3128469861261,890
-531.6943175936979,800
-529.0765108334947,896
-526.4594265256793,924
-523.8430644903358,1067
-521.2274245474689,1203
-518.612506517005,1343
-515.9983102187913,1393
-513.3848354725959,1482
-510.77208209810846,1525
-508.16004991493924,1663
-505.5487387426199,1722
-502.9381484006032,1796
-500.3282787082628,1830
-497.71912948489364,1778
-495.1107005497117,1808
-492.5029917218539,1622
-489.8960028203786,1430
-487.28973366426493,1277
-484.68418407241325,1099
-482.07935386364494,1062
-479.47524285670266,1011
-476.87185087025,1026
-474.2691777228715,1050
-471.66722323307334,1054
-469.0659872192821,1015
-466.4654694998459,1020
-463.86566989303384,1010
-461.26658821703614,951
-458.66822428996414,996
-456.07057792985,961
-453.4736489546475,996
-450.877437182231,949
-448.28194243039627,949
-445.68716451686,944
-443.09310325926003,962
-440.49975847515555,930
-437.9071299820263,970
-435.31521759727354,939
-432.72402113821954,962
-430.13354042210767,922
-427.5437752661022,972
-424.95472548728867,986
-422.36639090267386,1017
-419.7787713291855,1006
-417.1918665836721,1053
-414.60567648290385,1021
-412.0202008435715,993
-409.4354394822874,1012
-406.8513922155845,1004
-404.26805885991723,1077
-401.685439231661,1017
-399.103533147112,998
-396.522340422488,1046
-393.9418608739278,1039
-391.3620943174908,1052
-388.7830405691583,985
-386.2046994448317,1005
-383.6270707603344,924
-381.05015433141045,815
-378.473949973725,790
-375.8984575028645,802
-373.32367673433623,669
-370.74960748356875,667
-368.1762495659117,614
-365.60360279663576,569
-363.03166699093265,532
-360.4604419639154,543
-357.8899275306178,494
-355.32012350599507,491
-352.7510297049233,474
-350.1826459421999,464
-347.61497203254316,524
-345.04800779059235,510
-342.4817530309082,451
-339.91620756797226,460
-337.35137121618743,476
-334.7872437898774,461
-332.22382510328725,445
-329.66111497058273,498
-327.09911320585127,474
-324.53781962310075,487
-321.9772340362607,480
-319.4173562591816,534
-316.8581861056348,530
-314.2997233893127,545
-311.7419679238294,565
-309.1849195227194,545
-306.62857799943856,509
-304.0729431673641,497
-301.51801483979375,471
-298.963792829947,501
-296.41027695096386,548
-293.85746701590574,554
-291.3053628377552,542
-288.7539642294155,557
-286.2032710037115,557
-283.65328297338897,544
-281.1039999511146,567
-278.5554217494762,607
-276.007548180983,606
-273.4603790580651,522
-270.9139141930734,544
-268.3681533982807,566
-265.8230964858798,554
-263.27874326798565,543
-260.7350935566336,574
-258.1921471637804,600
-255.6499039013039,669
-253.10836358100266,663
-250.56752601459698,579
-248.02739101372765,608
-245.48795838995704,678
-242.94922795476816,625
-240.41119951956557,634
-237.8738728956746,706
-235.33724789434166,730
-232.80132432673452,714
-230.2661020039418,785
-227.73158073697357,751
-225.19776033676033,671
-222.66464061415422,700
-220.1322213799284,634
-217.60050244477725,623
-215.06948361931552,668
-212.53916471408013,654
-210.00954553952818,617
-207.48062590603843,720
-204.9524056239104,738
-202.4248845033651,754
-199.8980623545441,799
-197.37193898751036,706
-194.84651421224817,748
-192.32178783866232,783
-189.79775967657952,764
-187.27442953574644,782
-184.7517972258321,784
-182.2298625564256,727
-179.7086253370378,747
-177.18808537710026,820
-174.66824248596583,899
-172.14909647290835,942
-169.6306471471229,854
-167.11289431772548,832
-164.59583779375328,887
-162.07947738416453,866
-159.5638128978386,866
-157.04884414357605,903
-154.53457093009854,891
-152.02099306604828,899
-149.50811035998936,901
-146.99592262040665,1019
-144.48442965570587,990
-141.97363127421409,959
-139.46352728417958,958
-136.95411749377126,1034
-134.44540171107985,1202
-131.93737974411636,1049
-129.43005140081357,1053
-126.92341648902493,1144
-124.41747481652521,1270
-121.91222619101006,1257
-119.40767042009657,1162
-116.90380731132257,1096
-114.40063667214702,1170
-111.8981583099503,1387
-109.3963720320337,1423
-106.89527764561933,1204
-104.39487495785067,1345
-101.89516377579241,1452
-99.39614390642998,1414
-96.89781515667039,1334
-94.40017733334128,1498
-91.90323024319173,1485
-89.40697369289148,1327
-86.91140748903172,1298
-84.41653143812482,1482
-81.92234534660395,1543
-79.42884902082358,1692
-76.93604226705907,1693
-74.4439248915071,1684
-71.95249670028534,1590
-69.46175749943245,1778
-66.97170709490854,1839
-64.48234529259423,2118
-61.99367189829195,2231
-59.50568671772464,2215
-57.01838955653636,2328
-54.53178022029283,2358
-52.045858514480074,2625
-49.560624244506016,2976
-47.07607721569923,2968
-44.59221723330904,2738
-42.10904410250669,2278
-39.62655762838392,2761
-37.14475761595372,3684
-34.66364387015028,4172
-32.18321619582866,4619
-29.70347439776515,5629
-27.224418280657005,6121
-24.74604764912317,8272
-22.26836230770266,13229
-19.7913620608565,23308
-17.315046712966478,37778
-14.83941606833514,42992
-12.36446993118659,65038
-9.89020810566592,65038
-7.416630395839093,65038
-4.94373660569363,65038
-2.471526539137585,65038
-6.821210263296962E-13,65038
2.47084320796705,65038
4.941003281093458,65038
7.410480415786196,65038
9.879274808531363,65038
12.347386655893956,65038
14.814816154518212,65038
17.28156350112681,65038
19.74762889252179,65038
22.21301252558385,65038
24.67771459727237,42363
27.141735304626195,12825
29.605074844762612,9106
32.06773341487792,8770
34.52971121224755,6029
36.99100843422559,5274
39.45162527824516,5382
41.91156194181792,6711
44.370818622535126,8935
46.82939551806646,11631
49.287292826160524,12337
51.74451074464503,10209
54.201049471426245,8295
56.65690920448981,6221
59.112090141899785,3641
61.56659248179983,2887
64.02041642241159,2463
66.4735621620365,2502
68.92602989905402,2348
71.37781983192338,2058
73.82893215918205,1773
76.27936707944684,1879
78.72912479141326,2329
81.17820549385567,2265
83.62660938562783,2054
86.07433666566146,1851
88.5213875329681,2236
90.96776218663751,2270
93.41346082583925,2178
95.85848364982041,2023
98.30283085790859,1539
100.7465026495089,1648
103.18949922410604,2098
105.63182078126385,1937
108.07346752062438,2007
110.51443964190923,1822
112.95473734491827,1501
115.39436082953114,1585
117.83331029570547,1432
120.27158594347827,1555
122.7091879729652,1566
125.1461165843615,1260
127.58237197794062,1139
130.01795435405518,1152
132.4528639131364,1146
134.88710085569494,1227
137.32066538231982,1404
139.75355769367923,1257
142.1857779905207,1205
144.61732647366978,1174
147.04820334403132,1215
149.47840880258934,1192
151.90794305040674,1266
154.33680628862487,1359
156.76499871846443,1391
159.19252054122433,1484
161.61937195828352,1578
164.04555317109896,1568
166.47106438120693,1761
168.89590579022217,2017
171.320077599839,1987
173.7435800118302,2002
176.16641322804742,2112
178.58857745042144,2249
181.01007288096173,2238
183.43089972175687,2278
185.85105817497413,2270
188.27054844285988,2296
190.6893707277394,2185
193.10752523201643,2327
195.5250121581745,2406
197.9418317087751,2500
200.3579840864594,2376
202.7734694939469,2392
205.18828813403627,2358
207.6024402096051,2314
210.01592592360964,2335
212.42874547908548,2335
214.84089907914665,2378
217.2523869269868,2380
219.66320922587727,2524
222.0733661791695,2445
224.48285799029293,2475
226.8916848627572,2549
229.29984700014882,2559
231.7073446061355,2605
234.11417788446204,2658
236.520347038953,2670
238.92585227351185,2825
241.33069379212054,2924
243.73487179884035,2898
246.1383864978112,2832
248.541238093252,2799
250.9434267894609,2875
253.34495279081432,3002
255.74581630176783,3013
258.1460175268563,2966
260.54555667069314,3009
262.9444339379703,2946
265.3426495334594,2870
267.7402036620107,2818
270.1370965285529,2837
272.53332833809407,2648
274.9288992957214,2691
277.32380960660055,2542
279.718059475976,2511
282.1116491091717,2445
284.5045787115897,2410
286.89684848871195,2491
289.2884586460981,2522
291.67940938938807,2401
294.0697009242996,2335
296.4593334566299,2328
298.84830719225477,2437
301.23662233712923,2466
303.6242790972866,2453
306.01127767884,2390
308.39761828798066,2420
310.78330113097934,2357
313.16832641418534,2277
315.5526943440269,2293
317.9364051270112,2214
320.3194589697242,2208
322.70185607883093,2139
325.0835966610754,2098
327.4646809232805,2142
329.8451090723478,2150
332.2248813152577,2166
334.6039978590701,2180
336.9824589109231,2194
339.36026467803447,2121
341.7374153677,2099
344.113911187295,2067
346.48975234427337,2059
348.8649390461686,2091
351.2394715005918,2058
353.61334991523415,2103
355.9865744978655,2009
358.35914545633375,2005
360.73106299856715,1993
363.10232733257146,2012
365.47293866643247,1949
367.84289720831396,1935
370.2122031664593,1911
372.5808567491905,1995
374.9488581649083,1981
377.31620762209275,1897
379.6829053293021,2005
382.0489514951745,1929
384.4143463284262,1986
386.7790900378528,1899
389.14318283232853,1871
391.50662492080653,1870
393.86941651231916,1883
396.23155781597745,1917
398.5930490409713,1934
400.9538903965696,1873
403.3140820921202,1890
405.6736243370498,1888
408.03251734086336,1850
410.3907613131465,1846
412.74835646356166,1866
415.10530300185144,1906
417.4616011378372,1884
419.81725108141893,1896
422.1722530425758,1898
424.5266072313656,1921
426.880313857925,1812
429.2333731324701,1872
431.58578526529516,1820
433.9375504667738,1814
436.2886689473588,1853
438.63914091758113,1790
440.9889665880513,1851
443.33814616945835,1714
445.68667987257015,1746
448.03456790823395,1759
450.3818104873759,1764
452.72840782100013,1787
455.07436012019105,1862
457.41966759611057,1818
459.7643304600007,1732
462.10834892318155,1841
464.4517231970525,1752
466.79445349309174,1793
469.1365400228566,1762
471.4779829979826,1757
473.81878263018564,1863
476.15893913125876,1891
478.4984527130747,1759
480.8373235875855,1834
483.17555196682144,1884
485.5131380628919,1985
487.8500820879857,1985
490.1863842543697,2061
492.52204477439034,2189
494.8570638604725,2270
497.1914417251204,2592
499.52517858091653,2923
501.85827464052306,2986
504.19073011668036,3316
506.5225452222086,3423
508.85372017000566,3355
511.18425517304956,3441
513.514150444396,3368
515.8434061971808,3748
518.1720226446176,4238
520.4999999999999,4477
522.8273384766991,4712
525.1540382881666,4887
527.480099647932,4677
529.8055227696037,4107
532.1303078668694,2927
534.454455153496,2206
536.777964843328,1980
539.1008371502907,1844
541.4230722883866,1759
543.744670471698,1749
546.0656319143858,1691
548.3859568306899,1691
550.7056454349294,1693
553.0246979415016,1643
555.3431145648834,1649
557.6608955196306,1612
559.978041020377,1679
562.2945512818363,1578
564.6104265188006,1643
566.9256669461412,1590
569.2402727788082,1641
571.5542442318302,1628
573.8675815203156,1556
576.1802848594508,1640
578.4923544645015,1582
580.8037905508126,1636
583.114593333807,1584
585.4247630289875,1606
587.7342998519354,1615
590.0432040183106,1702
592.3514757438526,1528
594.6591152443794,1596
596.9661227357875,1649
599.2724984340531,1585
601.578242555231,1653
603.8833553154542,1641
606.1878369309362,1612
608.4916876179676,1707
610.7949075929192,1704
613.0974970722403,1669
615.3994562724587,1604
617.7007854101818,1721
620.0014847020951,1661
622.3015543649641,1634
624.6009946156324,1550
626.8998056710224,1649
629.1979877481361,1642
631.4955410640538,1559
633.7924658359349,1660
636.0887622810175,1604
638.3844306166192,1660
640.6794710601358,1650
642.9738838290426,1665
645.2676691408932,1640
647.5608272133207,1662
649.853358264037,1666
652.1452625108324,1688
654.4365401715764,1671
656.7271914642178,1739
659.0172166067838,1701
661.3066158173809,1702
663.5953893141935,1671
665.8835373154867,1700
668.1710600396028,1673
670.4579577049639,1746
672.7442305300709,1697
675.0298787335033,1683
677.3149025339197,1696
679.599302150058,1695
681.8830778007342,1693
684.1662297048437,1745
686.4487580813608,1644
688.7306631493387,1768
691.0119451279091,1701
693.2926042362834,1713
695.5726406937516,1715
697.8520547196814,1742
700.1308465335215,1773
702.4090163547982,1643
704.6865644031171,1737
706.9634908981619,1679
709.2397960596965,1612
711.5154801075631,1616
713.7905432616823,1680
716.0649857420548,1668
718.3388077687592,1718
720.612009561953,1658
722.8845913418733,1672
725.1565533288352,1625
727.427895743234,1662
729.6986188055427,1713
731.9687227363137,1593
734.238207756178,1730
736.5070740858458,1633
738.7753219461066,1655
741.0429515578281,1703
743.3099631419569,1685
745.5763569195191,1696
747.8421331116193,1722
750.1072919394409,1704
752.3718336242467,1680
754.6357583873777,1686
756.8990664502545,1687
759.1617580343765,1730
761.423833361321,1663
763.6852926527457,1629
765.9461361303862,1631
768.206364016058,1697
770.4659765316536,1724
772.7249738991469,1686
774.9833563405886,1655
777.2411240781092,1658
779.4982773339183,1781
781.7548163303044,1786
784.010741289634,1658
786.2660524343538,1774
788.5207499869881,1642
790.7748341701416,1726
793.0283052064964,1728
795.2811633188143,1724
797.5334087299362,1714
799.7850416627813,1698
802.0360623403484,1743
804.2864709857143,1681
806.5362678220353,1719
808.7854530725468,1714
811.0340269605625,1677
813.2819897094754,1722
815.5293415427581,1695
817.77608268396,1755
820.0222133567116,1658
822.2677337847211,1747
824.5126441917765,1725
826.7569448017433,1729
829.0006358385675,1672
831.2437175262731,1708
833.4861900889629,1705
835.7280537508192,1620
837.9693087361026,1721
840.2099552691533,1677
842.4499935743896,1728
844.689423876309,1672
846.9282463994886,1788
849.1664613685833,1682
851.4040690083276,1690
853.6410695435349,1711
855.877463199097,1744
858.1132501999847,1763
860.3484307712487,1736
862.5830051380175,1728
864.8169735254988,1734
867.0503361589791,1652
869.2830932638243,1758
871.5152450654786,1699
873.7467917894654,1712
875.9777336613873,1720
878.2080709069252,1702
880.4378037518389,1758
882.666932421968,1786
884.8954571432301,1781
887.1233781416219,1748
889.3506956432192,1818
891.5774098741766,1731
893.803521060728,1702
896.0290294291852,1717
898.2539352059397,1762
900.4782386174619,1688
902.7019398903011,1710
904.925039251085,1742
907.147536926521,1729
909.3694331433943,1757
911.59072812857,1779
913.8114221089921,1742
916.0315153116827,1791
918.2510079637437,1764
920.4699002923547,1744
922.6881925247761,1705
924.905884888345,1748
927.1229776104793,1661
929.3394709186747,1741
931.555365040506,1750
933.7706602036275,1764
935.9853566357709,1772
938.1994545647489,1760
940.4129542184515,1754
942.6258558248488,1749
944.8381596119883,1828
947.0498658079974,1736
949.2609746410825,1718
951.4714863395287,1713
953.6814011316998,1733
955.8907192460387,1712
958.0994409110671,1705
960.3075663553858,1647
962.5150958076741,1727
964.7220294966913,1707
966.928367651274,1676
969.1341105003388,1653
971.3392582728806,1679
973.5438111979742,1674
975.747769504772,1633
977.9511334225061,1740
980.153903180487,1654
982.3560790081052,1641
984.5576611348289,1624
986.7586497902058,1636
988.9590452038618,1583
991.158847605503,1601
993.3580572249133,1619
995.5566742919558,1590
997.7546990365728,1482
999.952131688785,1495
1002.1489724786926,1491
1004.3452216364743,1529
1006.5408793923874,1535
1008.7359459767691,1510
1010.9304216200343,1435
1013.1243065526781,1438
1015.3176010052733,1449
1017.510305208472,1387
1019.7024193930064,1471
1021.8939437896848,1433
1024.0848786293977,1437
1026.2752241431122,1425
1028.4649805618747,1422
1030.6541481168115,1453
1032.842727039127,1399
1035.0307175601051,1394
1037.2181199111074,1385
1039.4049343235752,1409
1041.591161029029,1344
1043.7768002590683,1422
1045.9618522453698,1428
1048.1463172196918,1366
1050.3301954138697,1426
1052.513487059818,1323
1054.69619238953,1436
1056.8783116350783,1350
1059.0598450286152,1320
1061.2407928023704,1343
1063.4211551886528,1441
1065.6009324198508,1352
1067.780124728432,1455
1069.9587323469414,1348
1072.1367555080046,1382
1074.314194444325,1389
1076.4910493886855,1293
1078.667320573947,1372
1080.843008233051,1392
1083.0181125990161,1330
1085.1926339049414,1343
1087.3665723840027,1358
1089.5399282694575,1325
1091.7127017946405,1333
1093.8848931929647,1318
1096.0565026979243,1296
1098.2275305430899,1317
1100.3979769621128,1282
1102.567842188722,1310
1104.737126456726,1288
1106.9058300000124,1213
1109.0739530525475,1294
1111.2414958483764,1273
1113.4084586216231,1276
1115.5748416064907,1303
1117.7406450372605,1323
1119.9058691482942,1278
1122.0705141740304,1320
1124.2345803489884,1290
1126.3980679077658,1263
1128.5609770850388,1305
1130.7233081155623,1278
1132.8850612341707,1308
1135.0462366757774,1258
1137.2068346753745,1292
1139.3668554680326,1242
1141.526299288901,1231
1143.68516637321,1313
1145.8434569562655,1321
1148.001171273455,1311
1150.158309560244,1304
1152.3148720521767,1230
1154.470858984876,1246
1156.626270594044,1254
1158.7811071154629,1241
1160.9353687849912,1242
1163.089055838569,1329
1165.242168512213,1283
1167.3947070420209,1234
1169.5466716641677,1236
1171.6980626149075,1265
1173.8488801305748,1282
1175.9991244475814,1267
1178.1487958024186,1271
1180.2978944316555,1328
1182.4464205719428,1243
1184.5943744600072,1253
1186.7417563326567,1303
1188.8885664267755,1268
1191.0348049793297,1260
1193.1804722273619,1228
1195.325568407995,1318
1197.4700937584303,1252
1199.614048515948,1238
1201.7574329179074,1270
1203.900247201746,1287
1206.042491604982,1272
1208.1841663652099,1339
1210.3252717201053,1247
1212.465807907422,1281
1214.6057751649923,1268
1216.7451737307279,1314
1218.8840038426192,1250
1221.0222657387353,1284
1223.1599596572241,1306
1225.2970858363137,1294
1227.4336445143094,1285
1229.5696359295966,1317
1231.705060320639,1297
1233.8399179259786,1263
1235.9742089842384,1310
1238.107933734118,1330
1240.2410924143974,1289
1242.373685263935,1313
1244.5057125216676,1338
1246.6371744266116,1360
1248.7680712178621,1354
1250.898403134593,1303
1253.028170416058,1346
1255.1573733015875,1289
1257.2860120305932,1339
1259.4140868425648,1322
1261.54159797707,1310
1263.6685456737569,1292
1265.7949301723515,1284
1267.9207517126597,1271
1270.046010534565,1282
1272.1707068780306,1311
1274.2948409830983,1348
1276.4184130898889,1298
1278.541423438603,1308
1280.6638722695184,1348
1282.785759822993,1318
1284.9070863394636,1352
1287.0278520594447,1393
1289.1480572235314,1426
1291.2677020723963,1433
1293.3867868467923,1398
1295.5053117875495,1412
1297.623277135579,1373
1299.740683131868,1396
1301.8575300174857,1417
1303.973818033578,1396
1306.0895474213703,1475
1308.2047184221678,1476
1310.3193312773528,1531
1312.4333862283888,1432
1314.5468835168163,1455
1316.659823384255,1458
1318.7722060724045,1510
1320.8840318230418,1437
1322.9953008780249,1475
1325.1060134792888,1490
1327.2161698688478,1477
1329.3257702887959,1459
1331.4348149813054,1464
1333.5433041886276,1484
1335.6512381530933,1483
1337.7586171171101,1482
1339.8654413231675,1444
1341.9717110138317,1449
1344.0774264317488,1445
1346.1825878196432,1452
1348.2871954203192,1419
1350.3912494766587,1460
1352.4947502316231,1402
1354.5976979282532,1438
1356.7000928096686,1397
1358.8019351190665,1435
1360.9032250997243,1388
1363.0039629949988,1382
1365.1041490483235,1377
1367.2037835032133,1422
1369.3028666032606,1418
1371.401398592137,1355
1373.4993797135926,1372
1375.5968102114575,1469
1377.6936903296396,1463
1379.7900203121262,1403
1381.8858004029835,1447
1383.9810308463561,1448
1386.075711886469,1417
1388.1698437676241,1377
1390.2634267342032,1462
1392.356461030667,1391
1394.4489469015557,1485
1396.5408845914872,1420
1398.6322743451592,1424
1400.7231164073469,1416
1402.813411022907,1397
1404.903158436773,1382
1406.9923588939578,1477
1409.0810126395531,1454
1411.1691199187303,1420
1413.2566809767386,1491
1415.343696058907,1406
1417.4301654106425,1402
1419.5160892774315,1404
1421.6014679048399,1458
1423.6863015385125,1430
1425.7705904241707,1450
1427.8543348076178,1480
1429.9375349347342,1497
1432.0201910514802,1478
1434.102303403894,1572
1436.1838722380944,1469
1438.2648978002767,1494
1440.3453803367174,1545
1442.4253200937692,1517
1444.5047173178677,1592
1446.5835722555234,1532
1448.6618851533285,1615
1450.739656257952,1608
1452.8168858161434,1640
1454.8935740747306,1675
1456.96972128062,1639
1459.045327680797,1620
1461.120393522327,1674
1463.1949190523528,1701
1465.2689045180973,1714
1467.3423501668608,1695
1469.415256246024,1831
1471.4876230030463,1753
1473.559450685465,1791
1475.6307395408976,1792
1477.7014898170391,1895
1479.771701761665,1871
1481.8413756226287,1926
1483.9105116478618,1886
1485.9791100853772,1945
1488.0471711832643,1905
1490.1146951896926,1909
1492.1816823529098,1960
1494.2481329212433,1977
1496.3140471430984,1964
1498.3794252669609,1991
1500.4442675413939,1949
1502.5085742150404,2047
1504.572345536622,2003
1506.6355817549388,1964
1508.6982831188702,1970
1510.7604498773744,2020
1512.8220822794883,1985
1514.8831805743293,2034
1516.9437450110909,2078
1519.003775839048,2060
1521.0632733075522,2089
1523.1222376660367,2212
1525.1806691640113,2151
1527.2385680510652,2113
1529.2959345768668,2124
1531.3527689911643,2127
1533.4090715437833,2106
1535.4648424846291,2148
1537.5200820636855,2193
1539.5747905310159,2298
1541.6289681367616,2289
1543.6826151311434,2250
1545.7357317644614,2260
1547.7883182870937,2329
1549.8403749494987,2325
1551.8919020022113,2384
1553.9428996958477,2404
1555.9933682811015,2426
1558.0433080087469,2547
1560.0927191296346,2513
1562.1416018946961,2507
1564.1899565549415,2642
1566.2377833614592,2582
1568.2850825654164,2545
1570.3318544180606,2533
1572.3780991707158,2474
1574.423817074788,2443
1576.4690083817595,2374
1578.5136733431923,2275
1580.5578122107272,2297
1582.601425236085,2163
1584.6445126710646,2122
1586.6870747675434,2078
1588.7291117774776,2012
1590.7706239529034,1931
1592.8116115459347,1892
1594.8520748087658,1853
1596.8920139936686,1766
1598.9314293529933,1760
1600.9703211391711,1744
1603.008689604711,1690
1605.0465350022005,1659
1607.0838575843068,1631
1609.1206576037753,1547
1611.1569353134305,1534
1613.1926909661765,1539
1615.2279248149953,1550
1617.2626371129481,1476
1619.2968281131757,1522
1621.3304980688963,1427
1623.3636472334088,1406
1625.39627586009,1447
1627.428384202396,1425
1629.459972513861,1379
1631.4910410480993,1349
1633.5215900588028,1372
1635.551619799744,1399
1637.5811305247717,1380
1639.6101224878166,1310
1641.6385959428862,1344
1643.6665511440683,1365
1645.693988345528,1362
1647.7209078015112,1311
1649.7473097663405,1346
1651.7731944944203,1323
1653.7985622402307,1300
1655.823413258333,1298
1657.847747803366,1265
1659.8715661300494,1295
1661.8948684931793,1327
1663.9176551476316,1297
1665.9399263483624,1222
1667.9616823504057,1286
1669.982923408873,1286
1672.0036497789574,1250
1674.0238617159293,1286
1676.043559475138,1235
1678.0627433120121,1299
1680.081413482059,1333
1682.0995702408654,1278
1684.117213844096,1283
1686.134344547495,1283
1688.1509626068864,1290
1690.1670682781705,1280
1692.182661817329,1267
1694.1977434804217,1307
1696.2123135235875,1264
1698.226372203043,1305
1700.2399197750851,1287
1702.2529564960905,1301
1704.2654826225112,1252
1706.277498410882,1261
1708.2890041178139,1252
1710.2999999999988,1331
1712.3104863142066,1326
1714.3204633172854,1283
1716.329931266163,1276
1718.3388904178469,1286
1720.3473410294214,1291
1722.3552833580516,1258
1724.3627176609807,1282
1726.3696441955308,1296
1728.3760632191033,1281
1730.3819749891782,1186
1732.3873797633146,1268
1734.3922777991502,1234
1736.3966693544012,1215
1738.4005546868639,1227
1740.4039340544127,1187
1742.406807715001,1250
1744.4091759266616,1267
1746.4110389475054,1200
1748.4123970357223,1190
1750.413250449582,1232
1752.4135994474318,1172
1754.4134442876993,1233
1756.4127852288902,1234
1758.4116225295893,1159
1760.4099564484595,1225
1762.407787244244,1214
1764.405115175764,1192
1766.4019405019203,1207
1768.3982634816916,1170
1770.3940843741357,1179
1772.3894034383907,1170
1774.3842209336717,1155
1776.378537119274,1243
1778.372352254571,1216
1780.3656665990156,1210
1782.3584804121397,1180
1784.3507939535534,1212
1786.3426074829463,1158
1788.3339212600863,1174
1790.3247355448211,1169
1792.3150505970766,1165
1794.3048666768573,1229
1796.2941840442477,1205
1798.2830029594106,1225
1800.2713236825884,1159
1802.2591464741004,1241
1804.2464715943465,1174
1806.2332993038058,1180
1808.2196298630352,1184
1810.2054635326708,1187
1812.190800573428,1183
1814.175641246101,1146
1816.1599858115628,1214
1818.1438345307652,1192
1820.127187664738,1130
1822.1100454745924,1213
1824.092408221516,1149
1826.0742761667766,1226
1828.055649571721,1181
1830.0365286977735,1167
1832.0169138064398,1151
1833.9968051593014,1161
1835.9762030180214,1174
1837.9551076443408,1184
1839.9335193000788,1193
1841.9114382471344,1188
1843.888864747485,1205
1845.8657990631878,1191
1847.842241456378,1180
1849.8181921892697,1175
1851.7936515241558,1222
1853.7686197234098,1112
1855.7430970494815,1193
1857.7170837649014,1182
1859.6905801322787,1126
1861.6635864143004,1184
1863.6361028737338,1217
1865.608129773424,1182
1867.5796673762961,1154
1869.5507159453537,1168
1871.521275743678,1188
1873.4913470344313,1199
1875.4609300808534,1194
1877.4300251462632,1200
1879.3986324940588,1130
1881.366752387717,1189
1883.3343850907936,1179
1885.3015308669228,1209
1887.268189979819,1191
1889.2343626932739,1196
1891.2000492711595,1230
1893.1652499774254,1190
1895.1299650761011,1168
1897.0941948312952,1193
1899.0579395071945,1205
1901.0211993680641,1238
1902.98397467825,1227
1904.9462657021745,1189
1906.9080727043415,1185
1908.869395949332,1174
1910.8302357018065,1186
1912.790592226504,1217
1914.7504657882428,1178
1916.7098566519212,1200
1918.6687650825133,1156
1920.6271913450764,1186
1922.5851357047422,1191
1924.5425984267245,1221
1926.499579776314,1236
1928.4560800188833,1198
1930.4120994198802,1213
1932.367638244833,1242
1934.32269675935,1261
1936.2772752291175,1163
1938.231373919899,1227
1940.1849930975404,1188
1942.1381330279637,1255
1944.0907939771696,1173
1946.0429762112412,1165
1947.9946799963363,1244
1949.9459055986945,1203
1951.896653284633,1154
1953.8469233205478,1214
1955.7967159729142,1166
1957.7460315082863,1176
1959.6948701932974,1171
1961.6432322946594,1189
1963.5911180791632,1146
1965.5385278136787,1197
1967.4854617651545,1171
1969.4319202006182,1178
1971.377903387176,1200
1973.3234115920136,1165
1975.268445082395,1201
1977.2130041256642,1183
1979.1570889892423,1181
1981.1006999406304,1169
1983.04383724741,1190
1984.986501177238,1186
1986.928691997853,1169
1988.8704099770712,1189
1990.811655382789,1190
1992.7524284829801,1152
1994.692729545698,1207
1996.6325588390755,1166
1998.5719166313224,1131
2000.5108031907307,1113
2002.4492187856677,1101
2004.387163684583,1193
2006.3246381560011,1182
2008.2616424685298,1154
2010.1981768908527,1128
2012.1342416917332,1160
2014.069837140014,1154
2016.0049635046162,1127
2017.9396210545406,1183
2019.8738100588666,1161
2021.8075307867502,1169
2023.740783507431,1139
2025.6735684902228,1159
2027.6058860045214,1107
2029.5377363198004,1149
2031.4691197056118,1156
2033.4000364315875,1134
2035.3304867674374,1147
2037.260470982952,1090
2039.189989347998,1160
2041.1190421325232,1120
2043.047629606554,1180
2044.9757520401945,1174
2046.9034097036288,1149
2048.8306028671195,1153
2050.7573318010086,1150
2052.683596775716,1109
2054.609398061742,1172
2056.5347359296647,1147
2058.4596106501403,1171
2060.384022493906,1196
2062.3079717317764,1196
2064.231458634646,1116
2066.1544834734873,1134
2068.077046519352,1153
2069.99914804337,1142
2071.9207883167524,1176
2073.8419676107865,1157
2075.7626861968406,1178
2077.6829443463607,1185
2079.6027423308715,1147
2081.522080421977,1191
2083.440958891362,1118
2085.359378010786,1171
2087.2773380520907,1157
2089.194839287196,1139
2091.111881988101,1143
2093.0284664268825,1157
2094.9445928756973,1135
2096.86026160678,1180
2098.775472892446,1118
2100.690227005088,1161
2102.604524217178,1136
2104.5183648012676,1205
2106.431749029985,1123
2108.34467717604,1138
2110.2571495122206,1139
2112.169166311393,1138
2114.080727846503,1142
2115.9918343905747,1118
2117.902486216711,1121
2119.8126835980956,1121
2121.722426807987,1215
2123.6317161197285,1197
2125.5405518067364,1190
2127.448934142509,1200
2129.356863400624,1125
2131.264339854737,1167
2133.1713637785815,1150
2135.077935445972,1124
2136.9840551308002,1149
2138.889723107037,1142
2140.7949396487334,1135
2142.699705030018,1130
2144.6040195250994,1148
2146.507883408264,1171
2148.4112969538774,1168
2150.3142604363848,1171
2152.2167741303097,1102
2154.1188383102535,1132
2156.0204532508997,1133
2157.9216192270064,1146
2159.822336513414,1114
2161.7226053850413,1124
2163.622426116884,1177
2165.5217989840185,1161
2167.4207242616,1170
2169.319202224862,1189
2171.2172331491165,1177
2173.1148173097563,1159
2175.0119549822507,1214
2176.90864644215,1149
2178.8048919650823,1153
2180.7006918267534,1175
2182.596046302952,1116
2184.4909556695407,1169
2186.3854202024645,1140
2188.279440177746,1145
2190.173015871487,1132
2192.066147559868,1094
2193.958835519149,1156
2195.851080025667,1175
2197.7428813558417,1158
2199.6342397861667,1140
2201.5251555932186,1120
2203.415629053651,1124
2205.3056604441986,1193
2207.19525004167,1191
2209.084398122958,1156
2210.9731049650327,1176
2212.861370844941,1108
2214.749196039812,1177
2216.636580826851,1124
2218.523525483344,1168
2220.410030286655,1175
2222.296095514226,1201
2224.1817214435805,1111
2226.066908352319,1125
2227.951656518121,1157
2229.835966218746,1135
2231.71983773203,1134
2233.6032713358913,1108
2235.486267308324,1180
2237.3688259274036,1148
2239.2509474712824,1152
2241.132632218193,1131
2243.013880446447,1114
2244.8946924344323,1149
2246.7750684606203,1149
2248.6550088035574,1166
2250.534513741871,1123
2252.413583554265,1140
2254.292218519526,1074
2256.170418916517,1096
2258.0481850241786,1153
2259.925517121534,1205
2261.8024154876825,1142
2263.678880401803,1153
2265.5549121431536,1129
2267.430510991071,1145
2269.305677224971,1164
2271.180411124348,1158
2273.0547129687766,1167
2274.9285830379076,1176
2276.8020216114737,1216
2278.6750289692845,1123
2280.5476053912294,1114
2282.4197511572766,1108
2284.2914665474727,1151
2286.162751841943,1110
2288.0336073208937,1145
2289.904033264608,1117
2291.774029953448,1138
2293.6435976678554,1142
2295.5127366883517,1214
2297.381447295534,1146
2299.2497297700825,1180
2301.1175843927526,1168
2302.9850114443825,1185
2304.852011205885,1146
2306.7185839582553,1194
2308.5847299825664,1158
2310.4504495599676,1153
2312.3157429716925,1171
2314.1806104990483,1177
2316.0450524234247,1154
2317.9090690262888,1130
2319.772660589186,1171
2321.635827393742,1147
2323.498569721661,1155
2325.3608878547248,1181
2327.2227820747967,1189
2329.0842526638157,1211
2330.945299903803,1221
2332.805924076857,1186
2334.6661254651535,1202
2336.525904350951,1121
2338.3852610165827,1143
2340.244195744464,1114
2342.102708817088,1160
2343.9608005170253,1188
2345.8184711269287,1101
2347.675720929526,1187
2349.532550207628,1155
2351.38895924412,1134
2353.24494832197,1174
2355.100517724223,1191
2356.955667734004,1185
2358.810398634514,1206
2360.664710709037,1195
2362.5186042409337,1180
2364.3720795136437,1151
2366.225136810686,1157
2368.0777764156583,1186
2369.929998612237,1205
2371.7818036841777,1165
2373.633191915315,1162
2375.484163589562,1182
2377.3347189909114,1221
2379.184858403434,1222
2381.03458211128,1158
2382.8838903986775,1183
2384.732783549936,1210
2386.5812618494406,1168
2388.4293255816588,1210
2390.2769750311327,1196
2392.1242104824883,1213
2393.971032220427,1178
2395.8174405297295,1204
2397.6634356952563,1229
2399.509018001947,1217
2401.3541877348193,1177
2403.1989451789705,1178
2405.043290619576,1211
2406.8872243418905,1161
2408.730746631247,1190
2410.5738577730594,1219
2412.4165580528183,1179
2414.258847756095,1206
2416.100727168537,1244
2417.9421965758734,1179
2419.783256263912,1222
2421.623906518538,1187
2423.4641476257157,1170
2425.303979871491,1153
2427.143403541984,1163
2428.9824189233977,1219
2430.821026302012,1241
2432.6592259641866,1207
2434.497018196361,1232
2436.33440328505,1253
2438.171381516851,1210
2440.00795317844,1228
2441.844118556569,1175
2443.6798779380724,1224
2445.5152316098606,1179
2447.3501798589255,1240
2449.1847229723357,1230
2451.0188612372403,1278
2452.8525949408663,1231
2454.6859243705203,1210
2456.518849813587,1216
2458.3513715575314,1174
2460.183489889895,1189
2462.015205098301,1196
2463.8465174704493,1210
2465.67742729412,1231
2467.5079348571717,1216
2469.338040447542,1203
2471.1677443532476,1195
2472.9970468623833,1180
2474.825948263123,1229
2476.6544488437207,1185
2478.482548892508,1189
2480.310248697896,1242
2482.137548548374,1170
2483.9644487325118,1134
2485.790949538956,1247
2487.617051256433,1208
2489.44275417375,1240
2491.26805857979,1166
2493.0929647635157,1158
2494.917473013971,1216
2496.741583620276,1196
2498.5652968716304,1195
2500.3886130573137,1201
2502.2115324666834,1210
2504.0340553891765,1230
2505.856182114308,1231
2507.6779129316733,1226
2509.499248130945,1221
2511.3201880018764,1210
2513.140732834298,1226
2514.9608829181198,1210
2516.780638543331,1256
2518.6,1212
2520.418967578273,1261
2522.237541568376,1210
2524.0557222606144,1263
2525.8735099453706,1204
2527.6909049131086,1244
2529.507907454368,1255
2531.32451785977,1235
2533.140736420014,1283
2534.9565634258774,1292
2536.771999168218,1323
2538.5870439379714,1300
2540.4016980261526,1265
2542.2159617238544,1319
2544.02983532225,1254
2545.8433191125914,1298
2547.656413386209,1273
2549.4691184345115,1283
2551.2814345489874,1244
2553.093362021204,1295
2554.904901142808,1286
2556.716052205523,1288
2558.526815501153,1315
2560.3371913215824,1365
2562.147179958771,1345
2563.956781704761,1331
2565.7659968516705,1341
2567.5748256916986,1350
2569.3832685171224,1340
2571.1913256202984,1331
2572.9989972936614,1342
2574.806283829725,1394
2576.613185521084,1396
2578.4197026604074,1450
2580.2258355404483,1425
2582.031584454035,1397
2583.836949694077,1393
2585.6419315535613,1388
2587.4465303255533,1365
2589.2507463032002,1409
2591.0545797797245,1354
2592.8580310484303,1382
2594.6611004026995,1315
2596.463788135992,1460
2598.266094541849,1419
2600.0680199138874,1441
2601.869564545807,1370
2603.670728731383,1420
2605.4715127644704,1412
2607.2719169390048,1362
2609.071941548998,1300
2610.8715868885433,1319
2612.670853251811,1358
2614.469740933052,1375
2616.268250226594,1372
2618.0663814268455,1384
2619.864134828292,1345
2621.6615107255006,1397
2623.458509413115,1410
2625.2551311858597,1303
2627.0513763385347,1328
2628.8472451660223,1335
2630.6427379632833,1336
2632.4378550253564,1390
2634.232596647359,1341
2636.026963124488,1327
2637.8209547520187,1314
2639.6145718253065,1318
2641.407814639785,1328
2643.200683490966,1343
2644.9931786744414,1298
2646.7853004858807,1298
2648.577049221034,1293
2650.3684251757277,1299
2652.1594286458712,1253
2653.9500599274484,1305
2655.740319316525,1356
2657.5302071092437,1254
2659.3197236018286,1265
2661.10886909058,1267
2662.8976438718782,1264
2664.686048242183,1250
2666.4740824980327,1253
2668.2617469360443,1232
2670.0490418529134,1250
2671.8359675454153,1218
2673.622524310403,1228
2675.408712444811,1223
2677.1945322456495,1245
2678.979984010009,1225
2680.76506803506,1250
2682.5497846180497,1218
2684.334134056306,1205
2686.1181166472343,1175
2687.9017326883213,1184
2689.6849824771293,1207
2691.4678663113013,1232
2693.2503844885596,1196
2695.032537306705,1173
2696.8143250636167,1175
2698.5957480572542,1191
2700.3768065856534,1186
2702.1575009469316,1221
2703.937831439283,1219
2705.717798360982,1197
2707.4974020103837,1242
2709.276642685917,1211
2711.055520686095,1155
2712.834036309506,1175
2714.612189854819,1161
2716.389981620782,1155
2718.1674119062204,1165
2719.944481010041,1249
2721.721189231226,1169
2723.4975368688415,1184
2725.273524222027,1150
2727.0491515900053,1149
2728.824419272075,1185
2730.5993275676146,1134
2732.3738767760838,1149
2734.148067197016,1170
2735.921899130031,1143
2737.6953728748194,1152
2739.468488731156,1172
2741.2412469988926,1133
2743.0136479779617,1092
2744.785691968372,1127
2746.5573792702116,1128
2748.3287101836504,1158
2750.099685008934,1154
2751.870304046388,1088
2753.640567596418,1135
2755.4104759595057,1162
2757.1800294362156,1162
2758.949228327187,1158
2760.7180729331412,1159
2762.486563554877,1151
2764.254700493272,1141
2766.022484049284,1166
2767.789914523947,1151
2769.5569922183786,1174
2771.3237174337705,1148
2773.090090471394,1153
2774.8561116326036,1144
2776.6217812188274,1179
2778.3870995315756,1131
2780.1520668724356,1157
2781.9166835430747,1188
2783.6809498452394,1177
2785.444866080754,1148
2787.2084325515225,1108
2788.971649559527,1126
2790.73451740683,1127
2792.4970363955713,1098
2794.2592068279705,1184
2796.0210290063264,1106
2797.7825032330147,1170
2799.543629810493,1168
2801.304409041296,1137
2803.0648412280366,1126
2804.8249266734088,1121
2806.5846656801846,1154
2808.344058551212,1138
2810.1031055894246,1122
2811.8618070978273,1121
2813.6201633795085,1054
2815.378174737636,1116
2817.1358414754536,1140
2818.893163896285,1191
2820.6501423035334,1195
2822.4067770006814,1167
2824.1630682912883,1153
2825.9190164789957,1114
2827.6746218675207,1090
2829.429884760661,1150
2831.184805462294,1132
2832.9393842763743,1163
2834.693621506936,1128
2836.4475174580916,1126
2838.201072434034,1122
2839.954286739034,1156
2841.707160677441,1154
2843.459694553685,1122
2845.2118886722724,1160
2846.96374333779,1133
2848.7152588549034,1151
2850.4664355283567,1088
2852.217273662973,1135
2853.9677735636546,1125
2855.7179355353833,1154
2857.4677598832186,1127
2859.217246912299,1125
2860.9663969278427,1091
2862.715210235146,1113
2864.4636871395846,1179
2866.211827946614,1153
2867.9596329617652,1109
2869.7071024906536,1150
2871.4542368389684,1154
2873.20103631248,1117
2874.947501217038,1146
2876.6936318585695,1186
2878.4394285430812,1171
2880.1848915766604,1143
2881.9300212654707,1115
2883.6748179157553,1113
2885.4192818338374,1117
2887.1634133261173,1163
2888.907212699077,1155
2890.6506802592744,1155
2892.393816313348,1118
2894.1366211680142,1120
2895.8790951300693,1116
2897.621238506388,1133
2899.363051603925,1143
2901.1045347297118,1149
2902.8456881908596,1192
2904.58651229456,1179
2906.327007348081,1112
2908.067173658772,1110
2909.8070115340597,1135
2911.5465212814497,1081
2913.285703208527,1084
2915.0245576229563,1149
2916.7630848324807,1123
2918.5012851449196,1107
2920.2391588681758,1123
2921.976706310227,1146
2923.7139277791334,1158
2925.4508235830313,1125
2927.187394030137,1132
2928.923639428745,1103
2930.6595600872306,1123
2932.395156314046,1125
2934.1304284177218,1119
2935.8653767068713,1102
2937.6000014901815,1115
2939.3343030764227,1144
2941.068281774442,1134
2942.8019378931644,1136
2944.5352717415976,1132
2946.2682836288236,1142
2948.0009738640065,1141
2949.7333427563885,1118
2951.465390615289,1176
2953.1971177501086,1128
2954.9285244703265,1138
2956.6596110855,1156
2958.3903779052657,1170
2960.1208252393385,1137
2961.8509533975125,1177
2963.5807626896617,1139
2965.3102534257378,1153
2967.0394259157715,1118
2968.768280469873,1127
2970.496817398232,1133
2972.2250370111146,1153
2973.952939618869,1094
2975.6805255319196,1101
2977.4077950607707,1135
2979.134748516006,1107
2980.861386208289,1112
2982.587708448359,1080
2984.313715547037,1137
2986.039407815222,1131
2987.764785563891,1145
2989.489849104102,1113
2991.2145987469908,1132
2992.9390348037705,1109
2994.6631575857346,1104
2996.3869674042576,1136
2998.1104645707887,1141
2999.83364939686,1140
3001.5565221940783,1120
3003.2790832741334,1152
3005.0013329487924,1121
3006.7232715298996,1114
3008.4448993293804,1139
3010.166216659239,1110
3011.887223831558,1063
3013.607921158498,1117
3015.3283089522993,1108
3017.0483875252826,1116
3018.7681571898443,1128
3020.4876182584626,1138
3022.2067710436927,1123
3023.9256158581707,1116
3025.644153014609,1120
3027.362382825801,1111
3029.0803056046193,1137
3030.797921664012,1137
3032.5152313170106,1123
3034.2322348767225,1108
3035.9489326563353,1131
3037.665324969115,1099
3039.3814121284063,1125
3041.097194447633,1093
3042.812672240299,1133
3044.5278458199855,1078
3046.2427155003525,1070
3047.9572815951406,1145
3049.671544418167,1095
3051.38550428333,1113
3053.0991615046073,1139
3054.812516396051,1119
3056.5255692717974,1071
3058.2383204460575,1123
3059.9507702331257,1133
3061.662918947372,1081
3063.3747669032446,1086
3065.0863144152736,1140
3066.7975617980674,1118
3068.508509366309,1164
3070.219157434767,1147
3071.9295063182844,1083
3073.639556331785,1138
3075.3493077902704,1132
3077.058761008821,1161
3078.7679163025964,1132
3080.476773986837,1142
3082.1853343768594,1151
3083.89359778806,1159
3085.6015645359153,1128
3087.3092349359786,1147
3089.016609303884,1136
3090.7236879553434,1118
3092.4304712061476,1114
3094.136959372166,1128
3095.843152769349,1152
3097.5490517137237,1101
3099.2546565213966,1147
3100.959967508554,1150
3102.66498499146,1109
3104.3697092864577,1124
3106.0741407099695,1125
3107.778279578498,1116
3109.482126208622,1094
3111.1856809170004,1061
3112.8889440203716,1129
3114.5919158355528,1154
3116.294596679439,1098
3117.996986869006,1191
3119.6990867213062,1147
3121.4008965534726,1161
3123.102416682717,1161
3124.803647426329,1090
3126.5045891016784,1127
3128.205242026213,1121
3129.90560651746,1107
3131.605682893025,1130
3133.3054714705922,1154
3135.0049725679282,1156
3136.7041865028714,1104
3138.4031135933465,1129
3140.101754157353,1080
3141.800108512971,1134
3143.498176978357,1144
3145.1959598717494,1116
3146.8934575114636,1099
3148.5906702158954,1136
3150.2875983035183,1072
3151.9842420928853,1114
3153.680601902627,1142
3155.376678051456,1094
3157.07247085816,1122
3158.767980641609,1219
3160.463207720748,1117
3162.158152414606,1117
3163.8528150422862,1135
3165.5471959229726,1125
3167.2412953759303,1137
3168.9351137204976,1106
3170.628651276098,1074
3172.3219083622307,1120
3174.014885298474,1124
3175.707582404485,1095
3177.4000000000005,1076
3179.092138404835,1139
3180.7839979388846,1125
3182.47557892212,1109
3184.166881674594,1126
3185.8579065164386,1110
3187.5486537678626,1142
3189.2391237491547,1155
3190.9293167806827,1114
3192.6192331828934,1124
3194.3088732763117,1111
3195.998237381542,1115
3197.687325819268,1045
3199.376138910251,1065
3201.064676975334,1132
3202.7529403354347,1149
3204.4409293115523,1098
3206.1286442247647,1085
3207.816085396229,1098
3209.5032531471825,1071
3211.190147798936,1144
3212.8767696728846,1112
3214.5631190905015,1137
3216.2491963733373,1080
3217.9350018430214,1146
3219.6205358212637,1091
3221.305798629851,1101
3222.990790590651,1059
3224.6755120256103,1103
3226.359963256751,1086
3228.0441446061795,1087
3229.7280563960758,1110
3231.411698948703,1147
3233.0950725863995,1145
3234.778177631587,1091
3236.461014406761,1120
3238.1435832345005,1110
3239.8258844374595,1098
3241.507918338374,1138
3243.1896852600576,1074
3244.8711855254023,1074
3246.552419457381,1088
3248.233387379042,1102
3249.914089613516,1144
3251.59452648401,1116
3253.274698313813,1059
3254.95460542629,1123
3256.6342481448855,1109
3258.313626793125,1073
3259.9927416946084,1056
3261.6715931730196,1091
3263.3501815521176,1089
3265.0285071557437,1122
3266.706570307815,1107
3268.3843713323286,1078
3270.0619105533615,1120
3271.739188295068,1078
3273.4162048816834,1100
3275.0929606375184,1126
3276.769455886966,1089
3278.445690954498,1083
3280.1216661646613,1183
3281.797381842087,1114
3283.4728383114807,1117
3285.1480358976296,1098
3286.8229749253996,1099
3288.4976557197333,1084
3290.172078605655,1085
3291.846243908266,1105
3293.5201519527463,1107
3295.193803064357,1103
3296.8671975684374,1067
3298.5403357904024,1122
3300.21321805575,1142
3301.8858446900567,1130
3303.558216018975,1044
3305.23033236824,1123
3306.9021940636603,1131
3308.57380143113,1067
3310.2451547966184,1094
3311.916254486174,1064
3313.5871008259246,1117
3315.2576941420766,1109
3316.9280347609147,1107
3318.5981230088046,1093
3320.2679592121895,1069
3321.9375436975924,1109
3323.606876791612,1106
3325.27595882093,1033
3326.944790112305,1050
3328.6133709925753,1083
3330.2817017886573,1131
3331.949782827547,1136
3333.617614436319,1134
3335.2851969421245,1062
3336.952530672199,1113
3338.619615953853,1066
3340.286453114475,1071
3341.9530424815357,1091
3343.619384382583,1120
3345.2854791452437,1141
3346.951327097224,1094
3348.6169285663073,1116
3350.2822838803577,1103
3351.947393367319,1120
3353.61225735521,1099
3355.2768761721345,1135
3356.9412501462693,1131
3358.605379605873,1092
3360.2692648792827,1106
3361.9329062949146,1111
3363.596304181263,1081
