CollectionTime,6/26/2024 4:04:22 PM
ExposureUsed,3
CalibratedSpectrum
-962.7078968117929,588
-959.9714848408522,636
-957.2358232597828,605
-954.5009119013725,600
-951.7667505983302,600
-949.0333391832855,624
-946.3006774887896,638
-943.5687653473143,611
-940.837602591253,597
-938.1071890529199,621
-935.3775245645503,631
-932.6486089583007,625
-929.9204420662485,639
-927.1930237203925,605
-924.4663537526524,629
-921.7404319948689,607
-919.0152582788041,632
-916.2908324361409,658
-913.5671542984834,646
-910.8442236973568,629
-908.1220404642074,663
-905.4006044304027,624
-902.679915427231,614
-899.959973285902,610
-897.2407778375464,637
-894.5223289132158,619
-891.8046263438832,584
-889.0876699604426,554
-886.3714595937089,575
-883.6559950744183,599
-880.9412762332282,567
-878.2273029007168,589
-875.5140749073835,586
-872.8015920836489,578
-870.0898542598545,574
-867.3788612662631,586
-864.6686129330585,589
-861.9591090903457,585
-859.2503495681506,582
-856.5423341964203,575
-853.8350628050229,607
-851.1285352237478,610
-848.4227512823054,609
-845.7177108103272,566
-843.0134136373656,591
-840.3098595928943,628
-837.6070485063082,601
-834.9049802069229,615
-832.2036545239757,590
-829.5030712866244,616
-826.8032303239481,602
-824.1041314649472,616
-821.4057745385428,612
-818.7081593735775,581
-816.0112857988148,546
-813.3151536429393,560
-810.6197627345566,580
-807.9251129021936,574
-805.2312039742981,597
-802.5380357792392,594
-799.8456081453069,595
-797.1539209007124,569
-794.462973873588,600
-791.772766891987,594
-789.083299783884,581
-786.3945723771743,619
-783.7065844996748,596
-781.0193359791231,593
-778.3328266431781,612
-775.6470563194197,613
-772.9620248353489,620
-770.2777320183878,589
-767.5941776958798,615
-764.9113616950891,620
-762.2292838432011,589
-759.5479439673222,575
-756.8673418944801,592
-754.1874774516235,603
-751.5083504656222,626
-748.8299607632671,623
-746.15230817127,631
-743.475392516264,624
-740.7992136248035,616
-738.1237713233636,603
-735.4490654383407,612
-732.7750957960521,654
-730.1018622227365,625
-727.4293645445534,595
-724.7576025875837,596
-722.0865761778291,610
-719.4162851412126,658
-716.7467293035781,615
-714.0779084906909,658
-711.409822528237,637
-708.7424712418238,650
-706.0758544569796,665
-703.4099719991541,642
-700.7448236937178,682
-698.0804093659622,655
-695.4167288411002,675
-692.7537819442656,632
-690.0915685005134,664
-687.4300883348199,664
-684.7693412720819,655
-682.1093271371178,680
-679.4500457546669,683
-676.7914969493897,660
-674.1336805458676,685
-671.4765963686034,706
-668.8202442420206,655
-666.1646239904642,685
-663.5097354382001,725
-660.8555784094151,706
-658.2021527282176,696
-655.5494582186366,725
-652.8974947046223,762
-650.2462620100463,702
-647.5957599587009,689
-644.9459883742998,688
-642.2969470804776,738
-639.6486359007902,715
-637.0010546587141,722
-634.3542031776476,712
-631.7080812809096,725
-629.0626887917401,698
-626.4180255333008,678
-623.7740913286734,681
-621.1308860008619,672
-618.4884093727904,695
-615.8466612673046,697
-613.2056415071715,702
-610.5653499150785,680
-607.9257863136347,686
-605.28695052537,662
-602.6488423727357,676
-600.0114616781036,700
-597.3748082637674,679
-594.7388819519412,737
-592.1036825647604,698
-589.4692099242818,715
-586.8354638524829,704
-584.2024441712624,689
-581.5701507024403,665
-578.9385832677575,680
-576.3077416888759,678
-573.6776257873787,695
-571.0482353847704,658
-568.4195703024757,743
-565.7916303618415,744
-563.164415384135,744
-560.5379251905453,706
-557.9121596021815,727
-555.2871184400748,694
-552.6628015251767,723
-550.0392086783606,731
-547.4163397204204,708
-544.794194472071,725
-542.1727727539491,733
-539.5520743866118,748
-536.9320991905377,758
-534.3128469861261,794
-531.6943175936979,774
-529.0765108334947,799
-526.4594265256793,828
-523.8430644903358,958
-521.2274245474689,1075
-518.612506517005,1163
-515.9983102187913,1218
-513.3848354725959,1346
-510.77208209810846,1399
-508.16004991493924,1544
-505.5487387426199,1606
-502.9381484006032,1623
-500.3282787082628,1654
-497.71912948489364,1591
-495.1107005497117,1615
-492.5029917218539,1414
-489.8960028203786,1237
-487.28973366426493,1107
-484.68418407241325,1006
-482.07935386364494,963
-479.47524285670266,935
-476.87185087025,914
-474.2691777228715,971
-471.66722323307334,909
-469.0659872192821,891
-466.4654694998459,893
-463.86566989303384,884
-461.26658821703614,885
-458.66822428996414,889
-456.07057792985,872
-453.4736489546475,880
-450.877437182231,885
-448.28194243039627,831
-445.68716451686,819
-443.09310325926003,848
-440.49975847515555,852
-437.9071299820263,881
-435.31521759727354,844
-432.72402113821954,833
-430.13354042210767,837
-427.5437752661022,916
-424.95472548728867,937
-422.36639090267386,909
-419.7787713291855,932
-417.1918665836721,913
-414.60567648290385,894
-412.0202008435715,944
-409.4354394822874,937
-406.8513922155845,910
-404.26805885991723,924
-401.685439231661,906
-399.103533147112,902
-396.522340422488,921
-393.9418608739278,906
-391.3620943174908,907
-388.7830405691583,914
-386.2046994448317,864
-383.6270707603344,813
-381.05015433141045,816
-378.473949973725,735
-375.8984575028645,748
-373.32367673433623,637
-370.74960748356875,645
-368.1762495659117,595
-365.60360279663576,573
-363.03166699093265,523
-360.4604419639154,524
-357.8899275306178,494
-355.32012350599507,465
-352.7510297049233,450
-350.1826459421999,471
-347.61497203254316,492
-345.04800779059235,496
-342.4817530309082,456
-339.91620756797226,455
-337.35137121618743,476
-334.7872437898774,472
-332.22382510328725,441
-329.66111497058273,475
-327.09911320585127,472
-324.53781962310075,475
-321.9772340362607,504
-319.4173562591816,476
-316.8581861056348,500
-314.2997233893127,525
-311.7419679238294,509
-309.1849195227194,501
-306.62857799943856,489
-304.0729431673641,457
-301.51801483979375,459
-298.963792829947,494
-296.41027695096386,505
-293.85746701590574,526
-291.3053628377552,507
-288.7539642294155,516
-286.2032710037115,527
-283.65328297338897,520
-281.1039999511146,588
-278.5554217494762,620
-276.007548180983,588
-273.4603790580651,560
-270.9139141930734,526
-268.3681533982807,558
-265.8230964858798,557
-263.27874326798565,528
-260.7350935566336,520
-258.1921471637804,577
-255.6499039013039,650
-253.10836358100266,623
-250.56752601459698,546
-248.02739101372765,608
-245.48795838995704,626
-242.94922795476816,637
-240.41119951956557,609
-237.8738728956746,639
-235.33724789434166,697
-232.80132432673452,778
-230.2661020039418,864
-227.73158073697357,734
-225.19776033676033,618
-222.66464061415422,607
-220.1322213799284,611
-217.60050244477725,593
-215.06948361931552,646
-212.53916471408013,635
-210.00954553952818,607
-207.48062590603843,682
-204.9524056239104,692
-202.4248845033651,655
-199.8980623545441,652
-197.37193898751036,654
-194.84651421224817,693
-192.32178783866232,678
-189.79775967657952,739
-187.27442953574644,734
-184.7517972258321,774
-182.2298625564256,728
-179.7086253370378,820
-177.18808537710026,804
-174.66824248596583,828
-172.14909647290835,862
-169.6306471471229,810
-167.11289431772548,753
-164.59583779375328,777
-162.07947738416453,826
-159.5638128978386,881
-157.04884414357605,849
-154.53457093009854,870
-152.02099306604828,864
-149.50811035998936,861
-146.99592262040665,918
-144.48442965570587,965
-141.97363127421409,864
-139.46352728417958,848
-136.95411749377126,864
-134.44540171107985,1019
-131.93737974411636,901
-129.43005140081357,930
-126.92341648902493,1054
-124.41747481652521,1083
-121.91222619101006,1000
-119.40767042009657,974
-116.90380731132257,1029
-114.40063667214702,1063
-111.8981583099503,1129
-109.3963720320337,1231
-106.89527764561933,1081
-104.39487495785067,1063
-101.89516377579241,1237
-99.39614390642998,1224
-96.89781515667039,1164
-94.40017733334128,1402
-91.90323024319173,1367
-89.40697369289148,1312
-86.91140748903172,1297
-84.41653143812482,1281
-81.92234534660395,1423
-79.42884902082358,1376
-76.93604226705907,1543
-74.4439248915071,1666
-71.95249670028534,1514
-69.46175749943245,1578
-66.97170709490854,1746
-64.48234529259423,1963
-61.99367189829195,1976
-59.50568671772464,1916
-57.01838955653636,2101
-54.53178022029283,2152
-52.045858514480074,2188
-49.560624244506016,2675
-47.07607721569923,2558
-44.59221723330904,2515
-42.10904410250669,2027
-39.62655762838392,2494
-37.14475761595372,3064
-34.66364387015028,3375
-32.18321619582866,3601
-29.70347439776515,4402
-27.224418280657005,5307
-24.74604764912317,7358
-22.26836230770266,11506
-19.7913620608565,19526
-17.315046712966478,29725
-14.83941606833514,35739
-12.36446993118659,65038
-9.89020810566592,65038
-7.416630395839093,65038
-4.94373660569363,65038
-2.471526539137585,65038
-6.821210263296962E-13,65038
2.47084320796705,65038
4.941003281093458,65038
7.410480415786196,65038
9.879274808531363,65038
12.347386655893956,65038
14.814816154518212,65038
17.28156350112681,65038
19.74762889252179,65038
22.21301252558385,65038
24.67771459727237,39330
27.141735304626195,11997
29.605074844762612,8642
32.06773341487792,8991
34.52971121224755,6308
36.99100843422559,4958
39.45162527824516,4656
41.91156194181792,5556
44.370818622535126,7203
46.82939551806646,8871
49.287292826160524,9783
51.74451074464503,8222
54.201049471426245,7020
56.65690920448981,5382
59.112090141899785,3105
61.56659248179983,2673
64.02041642241159,2308
66.4735621620365,2118
68.92602989905402,1985
71.37781983192338,1904
73.82893215918205,1618
76.27936707944684,1863
78.72912479141326,2386
81.17820549385567,2251
83.62660938562783,1910
86.07433666566146,1667
88.5213875329681,2114
90.96776218663751,1980
93.41346082583925,1984
95.85848364982041,1837
98.30283085790859,1362
100.7465026495089,1571
103.18949922410604,1663
105.63182078126385,1703
108.07346752062438,1700
110.51443964190923,1700
112.95473734491827,1405
115.39436082953114,1351
117.83331029570547,1374
120.27158594347827,1409
122.7091879729652,1531
125.1461165843615,1124
127.58237197794062,1068
130.01795435405518,1108
132.4528639131364,1063
134.88710085569494,1092
137.32066538231982,1172
139.75355769367923,1085
142.1857779905207,1120
144.61732647366978,1119
147.04820334403132,1077
149.47840880258934,1076
151.90794305040674,1245
154.33680628862487,1282
156.76499871846443,1274
159.19252054122433,1310
161.61937195828352,1516
164.04555317109896,1457
166.47106438120693,1682
168.89590579022217,1776
171.320077599839,1809
173.7435800118302,1796
176.16641322804742,1853
178.58857745042144,1999
181.01007288096173,2063
183.43089972175687,2056
185.85105817497413,2016
188.27054844285988,2149
190.6893707277394,2080
193.10752523201643,2100
195.5250121581745,2206
197.9418317087751,2278
200.3579840864594,2129
202.7734694939469,2205
205.18828813403627,2196
207.6024402096051,2228
210.01592592360964,2243
212.42874547908548,2174
214.84089907914665,2221
217.2523869269868,2255
219.66320922587727,2272
222.0733661791695,2292
224.48285799029293,2258
226.8916848627572,2326
229.29984700014882,2461
231.7073446061355,2398
234.11417788446204,2481
236.520347038953,2538
238.92585227351185,2675
241.33069379212054,2712
243.73487179884035,2746
246.1383864978112,2725
248.541238093252,2666
250.9434267894609,2712
253.34495279081432,2838
255.74581630176783,2846
258.1460175268563,2850
260.54555667069314,2947
262.9444339379703,2903
265.3426495334594,2800
267.7402036620107,2802
270.1370965285529,2575
272.53332833809407,2574
274.9288992957214,2451
277.32380960660055,2402
279.718059475976,2301
282.1116491091717,2296
284.5045787115897,2300
286.89684848871195,2336
289.2884586460981,2303
291.67940938938807,2295
294.0697009242996,2253
296.4593334566299,2266
298.84830719225477,2163
301.23662233712923,2250
303.6242790972866,2232
306.01127767884,2219
308.39761828798066,2259
310.78330113097934,2162
313.16832641418534,2141
315.5526943440269,2086
317.9364051270112,2082
320.3194589697242,2016
322.70185607883093,2022
325.0835966610754,1975
327.4646809232805,2002
329.8451090723478,2015
332.2248813152577,1963
334.6039978590701,1994
336.9824589109231,1911
339.36026467803447,1909
341.7374153677,1911
344.113911187295,1872
346.48975234427337,1870
348.8649390461686,1854
351.2394715005918,1797
353.61334991523415,1794
355.9865744978655,1796
358.35914545633375,1855
360.73106299856715,1865
363.10232733257146,1837
365.47293866643247,1837
367.84289720831396,1822
370.2122031664593,1785
372.5808567491905,1780
374.9488581649083,1814
377.31620762209275,1757
379.6829053293021,1797
382.0489514951745,1733
384.4143463284262,1832
386.7790900378528,1720
389.14318283232853,1754
391.50662492080653,1736
393.86941651231916,1784
396.23155781597745,1772
398.5930490409713,1755
400.9538903965696,1738
403.3140820921202,1703
405.6736243370498,1694
408.03251734086336,1715
410.3907613131465,1690
412.74835646356166,1691
415.10530300185144,1764
417.4616011378372,1706
419.81725108141893,1701
422.1722530425758,1763
424.5266072313656,1714
426.880313857925,1700
429.2333731324701,1677
431.58578526529516,1720
433.9375504667738,1671
436.2886689473588,1699
438.63914091758113,1626
440.9889665880513,1657
443.33814616945835,1631
445.68667987257015,1690
448.03456790823395,1612
450.3818104873759,1582
452.72840782100013,1644
455.07436012019105,1637
457.41966759611057,1657
459.7643304600007,1638
462.10834892318155,1667
464.4517231970525,1615
466.79445349309174,1655
469.1365400228566,1599
471.4779829979826,1650
473.81878263018564,1649
476.15893913125876,1654
478.4984527130747,1687
480.8373235875855,1737
483.17555196682144,1730
485.5131380628919,1705
487.8500820879857,1805
490.1863842543697,1862
492.52204477439034,1983
494.8570638604725,2027
497.1914417251204,2241
499.52517858091653,2433
501.85827464052306,2684
504.19073011668036,2880
506.5225452222086,3022
508.85372017000566,3015
511.18425517304956,3015
513.514150444396,3202
515.8434061971808,3535
518.1720226446176,3828
520.4999999999999,4083
522.8273384766991,4178
525.1540382881666,4450
527.480099647932,4239
529.8055227696037,3749
532.1303078668694,2700
534.454455153496,2100
536.777964843328,1846
539.1008371502907,1752
541.4230722883866,1654
543.744670471698,1646
546.0656319143858,1550
548.3859568306899,1538
550.7056454349294,1552
553.0246979415016,1542
555.3431145648834,1528
557.6608955196306,1480
559.978041020377,1541
562.2945512818363,1444
564.6104265188006,1532
566.9256669461412,1511
569.2402727788082,1531
571.5542442318302,1469
573.8675815203156,1508
576.1802848594508,1510
578.4923544645015,1484
580.8037905508126,1449
583.114593333807,1484
585.4247630289875,1497
587.7342998519354,1506
590.0432040183106,1512
592.3514757438526,1486
594.6591152443794,1487
596.9661227357875,1540
599.2724984340531,1476
601.578242555231,1484
603.8833553154542,1475
606.1878369309362,1535
608.4916876179676,1552
610.7949075929192,1560
613.0974970722403,1542
615.3994562724587,1481
617.7007854101818,1521
620.0014847020951,1504
622.3015543649641,1509
624.6009946156324,1508
626.8998056710224,1479
629.1979877481361,1534
631.4955410640538,1517
633.7924658359349,1528
636.0887622810175,1598
638.3844306166192,1530
640.6794710601358,1494
642.9738838290426,1554
645.2676691408932,1546
647.5608272133207,1594
649.853358264037,1611
652.1452625108324,1609
654.4365401715764,1546
656.7271914642178,1538
659.0172166067838,1567
661.3066158173809,1549
663.5953893141935,1568
665.8835373154867,1539
668.1710600396028,1559
670.4579577049639,1590
672.7442305300709,1624
675.0298787335033,1590
677.3149025339197,1579
679.599302150058,1566
681.8830778007342,1619
684.1662297048437,1575
686.4487580813608,1581
688.7306631493387,1611
691.0119451279091,1570
693.2926042362834,1595
695.5726406937516,1579
697.8520547196814,1579
700.1308465335215,1636
702.4090163547982,1605
704.6865644031171,1586
706.9634908981619,1598
709.2397960596965,1556
711.5154801075631,1539
713.7905432616823,1557
716.0649857420548,1572
718.3388077687592,1564
720.612009561953,1547
722.8845913418733,1567
725.1565533288352,1590
727.427895743234,1545
729.6986188055427,1498
731.9687227363137,1559
734.238207756178,1602
736.5070740858458,1509
738.7753219461066,1519
741.0429515578281,1562
743.3099631419569,1523
745.5763569195191,1553
747.8421331116193,1614
750.1072919394409,1503
752.3718336242467,1550
754.6357583873777,1583
756.8990664502545,1463
759.1617580343765,1575
761.423833361321,1512
763.6852926527457,1542
765.9461361303862,1557
768.206364016058,1600
770.4659765316536,1553
772.7249738991469,1583
774.9833563405886,1592
777.2411240781092,1586
779.4982773339183,1662
781.7548163303044,1592
784.010741289634,1584
786.2660524343538,1626
788.5207499869881,1615
790.7748341701416,1549
793.0283052064964,1560
795.2811633188143,1556
797.5334087299362,1618
799.7850416627813,1630
802.0360623403484,1542
804.2864709857143,1619
806.5362678220353,1552
808.7854530725468,1564
811.0340269605625,1577
813.2819897094754,1588
815.5293415427581,1637
817.77608268396,1633
820.0222133567116,1596
822.2677337847211,1607
824.5126441917765,1580
826.7569448017433,1565
829.0006358385675,1538
831.2437175262731,1564
833.4861900889629,1613
835.7280537508192,1599
837.9693087361026,1607
840.2099552691533,1590
842.4499935743896,1556
844.689423876309,1494
846.9282463994886,1550
849.1664613685833,1610
851.4040690083276,1619
853.6410695435349,1560
855.877463199097,1643
858.1132501999847,1570
860.3484307712487,1591
862.5830051380175,1585
864.8169735254988,1551
867.0503361589791,1668
869.2830932638243,1588
871.5152450654786,1619
873.7467917894654,1663
875.9777336613873,1601
878.2080709069252,1636
880.4378037518389,1676
882.666932421968,1610
884.8954571432301,1595
887.1233781416219,1648
889.3506956432192,1591
891.5774098741766,1591
893.803521060728,1629
896.0290294291852,1609
898.2539352059397,1659
900.4782386174619,1566
902.7019398903011,1648
904.925039251085,1635
907.147536926521,1609
909.3694331433943,1610
911.59072812857,1626
913.8114221089921,1592
916.0315153116827,1652
918.2510079637437,1673
920.4699002923547,1620
922.6881925247761,1630
924.905884888345,1609
927.1229776104793,1616
929.3394709186747,1590
931.555365040506,1626
933.7706602036275,1585
935.9853566357709,1647
938.1994545647489,1628
940.4129542184515,1579
942.6258558248488,1672
944.8381596119883,1659
947.0498658079974,1602
949.2609746410825,1640
951.4714863395287,1622
953.6814011316998,1604
955.8907192460387,1625
958.0994409110671,1596
960.3075663553858,1613
962.5150958076741,1626
964.7220294966913,1591
966.928367651274,1563
969.1341105003388,1517
971.3392582728806,1597
973.5438111979742,1578
975.747769504772,1591
977.9511334225061,1579
980.153903180487,1504
982.3560790081052,1532
984.5576611348289,1518
986.7586497902058,1494
988.9590452038618,1486
991.158847605503,1475
993.3580572249133,1436
995.5566742919558,1467
997.7546990365728,1399
999.952131688785,1373
1002.1489724786926,1393
1004.3452216364743,1458
1006.5408793923874,1353
1008.7359459767691,1334
1010.9304216200343,1365
1013.1243065526781,1318
1015.3176010052733,1337
1017.510305208472,1323
1019.7024193930064,1327
1021.8939437896848,1281
1024.0848786293977,1342
1026.2752241431122,1408
1028.4649805618747,1296
1030.6541481168115,1329
1032.842727039127,1291
1035.0307175601051,1297
1037.2181199111074,1369
1039.4049343235752,1337
1041.591161029029,1318
1043.7768002590683,1283
1045.9618522453698,1343
1048.1463172196918,1288
1050.3301954138697,1266
1052.513487059818,1298
1054.69619238953,1286
1056.8783116350783,1287
1059.0598450286152,1347
1061.2407928023704,1270
1063.4211551886528,1297
1065.6009324198508,1238
1067.780124728432,1287
1069.9587323469414,1303
1072.1367555080046,1283
1074.314194444325,1291
1076.4910493886855,1268
1078.667320573947,1240
1080.843008233051,1219
1083.0181125990161,1231
1085.1926339049414,1243
1087.3665723840027,1308
1089.5399282694575,1255
1091.7127017946405,1223
1093.8848931929647,1212
1096.0565026979243,1210
1098.2275305430899,1249
1100.3979769621128,1244
1102.567842188722,1281
1104.737126456726,1212
1106.9058300000124,1209
1109.0739530525475,1241
1111.2414958483764,1249
1113.4084586216231,1219
1115.5748416064907,1188
1117.7406450372605,1244
1119.9058691482942,1239
1122.0705141740304,1193
1124.2345803489884,1249
1126.3980679077658,1230
1128.5609770850388,1209
1130.7233081155623,1221
1132.8850612341707,1218
1135.0462366757774,1200
1137.2068346753745,1246
1139.3668554680326,1248
1141.526299288901,1171
1143.68516637321,1188
1145.8434569562655,1215
1148.001171273455,1181
1150.158309560244,1193
1152.3148720521767,1155
1154.470858984876,1200
1156.626270594044,1178
1158.7811071154629,1133
1160.9353687849912,1194
1163.089055838569,1213
1165.242168512213,1262
1167.3947070420209,1207
1169.5466716641677,1188
1171.6980626149075,1212
1173.8488801305748,1215
1175.9991244475814,1182
1178.1487958024186,1209
1180.2978944316555,1190
1182.4464205719428,1176
1184.5943744600072,1147
1186.7417563326567,1145
1188.8885664267755,1213
1191.0348049793297,1205
1193.1804722273619,1185
1195.325568407995,1223
1197.4700937584303,1212
1199.614048515948,1190
1201.7574329179074,1175
1203.900247201746,1196
1206.042491604982,1118
1208.1841663652099,1222
1210.3252717201053,1178
1212.465807907422,1185
1214.6057751649923,1172
1216.7451737307279,1181
1218.8840038426192,1224
1221.0222657387353,1231
1223.1599596572241,1210
1225.2970858363137,1169
1227.4336445143094,1250
1229.5696359295966,1214
1231.705060320639,1200
1233.8399179259786,1197
1235.9742089842384,1198
1238.107933734118,1223
1240.2410924143974,1254
1242.373685263935,1255
1244.5057125216676,1252
1246.6371744266116,1297
1248.7680712178621,1255
1250.898403134593,1189
1253.028170416058,1219
1255.1573733015875,1214
1257.2860120305932,1220
1259.4140868425648,1252
1261.54159797707,1218
1263.6685456737569,1258
1265.7949301723515,1253
1267.9207517126597,1264
1270.046010534565,1208
1272.1707068780306,1230
1274.2948409830983,1300
1276.4184130898889,1276
1278.541423438603,1286
1280.6638722695184,1297
1282.785759822993,1275
1284.9070863394636,1274
1287.0278520594447,1285
1289.1480572235314,1259
1291.2677020723963,1389
1293.3867868467923,1317
1295.5053117875495,1322
1297.623277135579,1327
1299.740683131868,1338
1301.8575300174857,1286
1303.973818033578,1379
1306.0895474213703,1410
1308.2047184221678,1374
1310.3193312773528,1355
1312.4333862283888,1331
1314.5468835168163,1407
1316.659823384255,1421
1318.7722060724045,1414
1320.8840318230418,1451
1322.9953008780249,1451
1325.1060134792888,1407
1327.2161698688478,1383
1329.3257702887959,1401
1331.4348149813054,1405
1333.5433041886276,1430
1335.6512381530933,1423
1337.7586171171101,1454
1339.8654413231675,1369
1341.9717110138317,1380
1344.0774264317488,1397
1346.1825878196432,1377
1348.2871954203192,1372
1350.3912494766587,1412
1352.4947502316231,1372
1354.5976979282532,1407
1356.7000928096686,1417
1358.8019351190665,1332
1360.9032250997243,1340
1363.0039629949988,1395
1365.1041490483235,1381
1367.2037835032133,1361
1369.3028666032606,1321
1371.401398592137,1316
1373.4993797135926,1351
1375.5968102114575,1319
1377.6936903296396,1330
1379.7900203121262,1342
1381.8858004029835,1307
1383.9810308463561,1325
1386.075711886469,1328
1388.1698437676241,1318
1390.2634267342032,1400
1392.356461030667,1312
1394.4489469015557,1378
1396.5408845914872,1284
1398.6322743451592,1335
1400.7231164073469,1341
1402.813411022907,1319
1404.903158436773,1358
1406.9923588939578,1422
1409.0810126395531,1366
1411.1691199187303,1395
1413.2566809767386,1351
1415.343696058907,1342
1417.4301654106425,1372
1419.5160892774315,1450
1421.6014679048399,1370
1423.6863015385125,1407
1425.7705904241707,1393
1427.8543348076178,1444
1429.9375349347342,1406
1432.0201910514802,1450
1434.102303403894,1502
1436.1838722380944,1468
1438.2648978002767,1474
1440.3453803367174,1412
1442.4253200937692,1526
1444.5047173178677,1496
1446.5835722555234,1567
1448.6618851533285,1563
1450.739656257952,1585
1452.8168858161434,1607
1454.8935740747306,1567
1456.96972128062,1602
1459.045327680797,1635
1461.120393522327,1632
1463.1949190523528,1697
1465.2689045180973,1663
1467.3423501668608,1705
1469.415256246024,1695
1471.4876230030463,1715
1473.559450685465,1800
1475.6307395408976,1709
1477.7014898170391,1774
1479.771701761665,1762
1481.8413756226287,1807
1483.9105116478618,1828
1485.9791100853772,1888
1488.0471711832643,1860
1490.1146951896926,1944
1492.1816823529098,1946
1494.2481329212433,1950
1496.3140471430984,2027
1498.3794252669609,1954
1500.4442675413939,2026
1502.5085742150404,1998
1504.572345536622,1997
1506.6355817549388,2046
1508.6982831188702,2028
1510.7604498773744,2016
1512.8220822794883,2032
1514.8831805743293,1992
1516.9437450110909,2079
1519.003775839048,2142
1521.0632733075522,2098
1523.1222376660367,2140
1525.1806691640113,2189
1527.2385680510652,2099
1529.2959345768668,2103
1531.3527689911643,2129
1533.4090715437833,2209
1535.4648424846291,2054
1537.5200820636855,2171
1539.5747905310159,2192
1541.6289681367616,2184
1543.6826151311434,2340
1545.7357317644614,2305
1547.7883182870937,2317
1549.8403749494987,2268
1551.8919020022113,2397
1553.9428996958477,2385
1555.9933682811015,2494
1558.0433080087469,2523
1560.0927191296346,2498
1562.1416018946961,2593
1564.1899565549415,2645
1566.2377833614592,2514
1568.2850825654164,2601
1570.3318544180606,2510
1572.3780991707158,2505
1574.423817074788,2489
1576.4690083817595,2495
1578.5136733431923,2363
1580.5578122107272,2271
1582.601425236085,2217
1584.6445126710646,2133
1586.6870747675434,2064
1588.7291117774776,2072
1590.7706239529034,1916
1592.8116115459347,1928
1594.8520748087658,1858
1596.8920139936686,1856
1598.9314293529933,1759
1600.9703211391711,1748
1603.008689604711,1645
1605.0465350022005,1626
1607.0838575843068,1551
1609.1206576037753,1516
1611.1569353134305,1535
1613.1926909661765,1453
1615.2279248149953,1543
1617.2626371129481,1440
1619.2968281131757,1450
1621.3304980688963,1434
1623.3636472334088,1407
1625.39627586009,1358
1627.428384202396,1482
1629.459972513861,1335
1631.4910410480993,1377
1633.5215900588028,1342
1635.551619799744,1309
1637.5811305247717,1265
1639.6101224878166,1301
1641.6385959428862,1321
1643.6665511440683,1272
1645.693988345528,1267
1647.7209078015112,1227
1649.7473097663405,1274
1651.7731944944203,1315
1653.7985622402307,1219
1655.823413258333,1254
1657.847747803366,1241
1659.8715661300494,1235
1661.8948684931793,1178
1663.9176551476316,1205
1665.9399263483624,1234
1667.9616823504057,1224
1669.982923408873,1239
1672.0036497789574,1213
1674.0238617159293,1186
1676.043559475138,1194
1678.0627433120121,1215
1680.081413482059,1265
1682.0995702408654,1220
1684.117213844096,1236
1686.134344547495,1221
1688.1509626068864,1188
1690.1670682781705,1177
1692.182661817329,1185
1694.1977434804217,1185
1696.2123135235875,1185
1698.226372203043,1194
1700.2399197750851,1197
1702.2529564960905,1204
1704.2654826225112,1197
1706.277498410882,1236
1708.2890041178139,1250
1710.2999999999988,1221
1712.3104863142066,1246
1714.3204633172854,1186
1716.329931266163,1241
1718.3388904178469,1144
1720.3473410294214,1216
1722.3552833580516,1159
1724.3627176609807,1153
1726.3696441955308,1268
1728.3760632191033,1158
1730.3819749891782,1174
1732.3873797633146,1164
1734.3922777991502,1205
1736.3966693544012,1160
1738.4005546868639,1209
1740.4039340544127,1159
1742.406807715001,1179
1744.4091759266616,1156
1746.4110389475054,1149
1748.4123970357223,1155
1750.413250449582,1106
1752.4135994474318,1174
1754.4134442876993,1154
1756.4127852288902,1150
1758.4116225295893,1154
1760.4099564484595,1142
1762.407787244244,1172
1764.405115175764,1129
1766.4019405019203,1148
1768.3982634816916,1141
1770.3940843741357,1162
1772.3894034383907,1096
1774.3842209336717,1121
1776.378537119274,1121
1778.372352254571,1135
1780.3656665990156,1159
1782.3584804121397,1116
1784.3507939535534,1131
1786.3426074829463,1143
1788.3339212600863,1092
1790.3247355448211,1124
1792.3150505970766,1127
1794.3048666768573,1101
1796.2941840442477,1100
1798.2830029594106,1134
1800.2713236825884,1069
1802.2591464741004,1119
1804.2464715943465,1067
1806.2332993038058,1109
1808.2196298630352,1085
1810.2054635326708,1077
1812.190800573428,1087
1814.175641246101,1137
1816.1599858115628,1091
1818.1438345307652,1086
1820.127187664738,1041
1822.1100454745924,1099
1824.092408221516,1103
1826.0742761667766,1165
1828.055649571721,1078
1830.0365286977735,1080
1832.0169138064398,1069
1833.9968051593014,1095
1835.9762030180214,1090
1837.9551076443408,1083
1839.9335193000788,1082
1841.9114382471344,1069
1843.888864747485,1117
1845.8657990631878,1082
1847.842241456378,1110
1849.8181921892697,1042
1851.7936515241558,1054
1853.7686197234098,1100
1855.7430970494815,1063
1857.7170837649014,1087
1859.6905801322787,1090
1861.6635864143004,1116
1863.6361028737338,1074
1865.608129773424,1096
1867.5796673762961,1113
1869.5507159453537,1031
1871.521275743678,1113
1873.4913470344313,1115
1875.4609300808534,1103
1877.4300251462632,1107
1879.3986324940588,1130
1881.366752387717,1086
1883.3343850907936,1129
1885.3015308669228,1073
1887.268189979819,1065
1889.2343626932739,1085
1891.2000492711595,1135
1893.1652499774254,1125
1895.1299650761011,1131
1897.0941948312952,1124
1899.0579395071945,1150
1901.0211993680641,1147
1902.98397467825,1144
1904.9462657021745,1141
1906.9080727043415,1091
1908.869395949332,1118
1910.8302357018065,1144
1912.790592226504,1090
1914.7504657882428,1123
1916.7098566519212,1122
1918.6687650825133,1111
1920.6271913450764,1091
1922.5851357047422,1130
1924.5425984267245,1058
1926.499579776314,1080
1928.4560800188833,1099
1930.4120994198802,1119
1932.367638244833,1140
1934.32269675935,1117
1936.2772752291175,1091
1938.231373919899,1103
1940.1849930975404,1138
1942.1381330279637,1118
1944.0907939771696,1099
1946.0429762112412,1087
1947.9946799963363,1092
1949.9459055986945,1101
1951.896653284633,1067
1953.8469233205478,1077
1955.7967159729142,1157
1957.7460315082863,1101
1959.6948701932974,1074
1961.6432322946594,1115
1963.5911180791632,1120
1965.5385278136787,1129
1967.4854617651545,1084
1969.4319202006182,1084
1971.377903387176,1103
1973.3234115920136,1109
1975.268445082395,1125
1977.2130041256642,1121
1979.1570889892423,1074
1981.1006999406304,1078
1983.04383724741,1098
1984.986501177238,1079
1986.928691997853,1073
1988.8704099770712,1102
1990.811655382789,1073
1992.7524284829801,1085
1994.692729545698,1082
1996.6325588390755,1074
1998.5719166313224,1082
2000.5108031907307,1107
2002.4492187856677,1089
2004.387163684583,1110
2006.3246381560011,1056
2008.2616424685298,1066
2010.1981768908527,1066
2012.1342416917332,1071
2014.069837140014,1127
2016.0049635046162,1046
2017.9396210545406,1066
2019.8738100588666,1130
2021.8075307867502,1071
2023.740783507431,1089
2025.6735684902228,1067
2027.6058860045214,1047
2029.5377363198004,1125
2031.4691197056118,1082
2033.4000364315875,1089
2035.3304867674374,1052
2037.260470982952,1058
2039.189989347998,1089
2041.1190421325232,1093
2043.047629606554,1037
2044.9757520401945,1064
2046.9034097036288,1075
2048.8306028671195,1033
2050.7573318010086,1082
2052.683596775716,1102
2054.609398061742,1053
2056.5347359296647,1074
2058.4596106501403,1051
2060.384022493906,1058
2062.3079717317764,1081
2064.231458634646,1063
2066.1544834734873,1063
2068.077046519352,1076
2069.99914804337,1069
2071.9207883167524,1098
2073.8419676107865,1091
2075.7626861968406,1088
2077.6829443463607,1030
2079.6027423308715,1036
2081.522080421977,1097
2083.440958891362,1057
2085.359378010786,1069
2087.2773380520907,1035
2089.194839287196,1127
2091.111881988101,1068
2093.0284664268825,1083
2094.9445928756973,1061
2096.86026160678,1057
2098.775472892446,1098
2100.690227005088,1046
2102.604524217178,1086
2104.5183648012676,1087
2106.431749029985,1113
2108.34467717604,1045
2110.2571495122206,1082
2112.169166311393,1068
2114.080727846503,1024
2115.9918343905747,1058
2117.902486216711,1064
2119.8126835980956,1071
2121.722426807987,1092
2123.6317161197285,1064
2125.5405518067364,1048
2127.448934142509,1043
2129.356863400624,1043
2131.264339854737,1073
2133.1713637785815,1078
2135.077935445972,1060
2136.9840551308002,1088
2138.889723107037,1071
2140.7949396487334,1085
2142.699705030018,1084
2144.6040195250994,1072
2146.507883408264,1045
2148.4112969538774,1059
2150.3142604363848,1090
2152.2167741303097,1056
2154.1188383102535,1104
2156.0204532508997,1095
2157.9216192270064,1052
2159.822336513414,1062
2161.7226053850413,1101
2163.622426116884,1083
2165.5217989840185,1053
2167.4207242616,1077
2169.319202224862,1078
2171.2172331491165,1078
2173.1148173097563,1095
2175.0119549822507,1109
2176.90864644215,1046
2178.8048919650823,1069
2180.7006918267534,1023
2182.596046302952,1082
2184.4909556695407,1085
2186.3854202024645,1105
2188.279440177746,1067
2190.173015871487,1054
2192.066147559868,1087
2193.958835519149,1106
2195.851080025667,1086
2197.7428813558417,1070
2199.6342397861667,1035
2201.5251555932186,1013
2203.415629053651,1055
2205.3056604441986,1058
2207.19525004167,1075
2209.084398122958,1041
2210.9731049650327,1045
2212.861370844941,1059
2214.749196039812,1043
2216.636580826851,1065
2218.523525483344,1069
2220.410030286655,1063
2222.296095514226,1069
2224.1817214435805,1065
2226.066908352319,1072
2227.951656518121,1108
2229.835966218746,1084
2231.71983773203,1067
2233.6032713358913,1092
2235.486267308324,1083
2237.3688259274036,1078
2239.2509474712824,1124
2241.132632218193,1063
2243.013880446447,1055
2244.8946924344323,1038
2246.7750684606203,1062
2248.6550088035574,1068
2250.534513741871,1075
2252.413583554265,1076
2254.292218519526,1066
2256.170418916517,1086
2258.0481850241786,1079
2259.925517121534,1074
2261.8024154876825,1101
2263.678880401803,1071
2265.5549121431536,1056
2267.430510991071,1070
2269.305677224971,1056
2271.180411124348,1086
2273.0547129687766,1039
2274.9285830379076,1069
2276.8020216114737,1063
2278.6750289692845,1057
2280.5476053912294,1093
2282.4197511572766,1081
2284.2914665474727,1079
2286.162751841943,1104
2288.0336073208937,1088
2289.904033264608,1040
2291.774029953448,1069
2293.6435976678554,1097
2295.5127366883517,1061
2297.381447295534,1128
2299.2497297700825,1131
2301.1175843927526,1060
2302.9850114443825,1087
2304.852011205885,1087
2306.7185839582553,1063
2308.5847299825664,1053
2310.4504495599676,1073
2312.3157429716925,1046
2314.1806104990483,1060
2316.0450524234247,1094
2317.9090690262888,1066
2319.772660589186,1097
2321.635827393742,1071
2323.498569721661,1140
2325.3608878547248,1066
2327.2227820747967,1080
2329.0842526638157,1113
2330.945299903803,1080
2332.805924076857,1096
2334.6661254651535,1086
2336.525904350951,1090
2338.3852610165827,1052
2340.244195744464,1073
2342.102708817088,1082
2343.9608005170253,1098
2345.8184711269287,1078
2347.675720929526,1082
2349.532550207628,1083
2351.38895924412,1047
2353.24494832197,1109
2355.100517724223,1106
2356.955667734004,1084
2358.810398634514,1110
2360.664710709037,1090
2362.5186042409337,1130
2364.3720795136437,1082
2366.225136810686,1131
2368.0777764156583,1108
2369.929998612237,1122
2371.7818036841777,1086
2373.633191915315,1154
2375.484163589562,1097
2377.3347189909114,1114
2379.184858403434,1082
2381.03458211128,1131
2382.8838903986775,1087
2384.732783549936,1082
2386.5812618494406,1166
2388.4293255816588,1074
2390.2769750311327,1145
2392.1242104824883,1134
2393.971032220427,1155
2395.8174405297295,1067
2397.6634356952563,1143
2399.509018001947,1122
2401.3541877348193,1134
2403.1989451789705,1150
2405.043290619576,1121
2406.8872243418905,1090
2408.730746631247,1134
2410.5738577730594,1147
2412.4165580528183,1126
2414.258847756095,1110
2416.100727168537,1130
2417.9421965758734,1136
2419.783256263912,1139
2421.623906518538,1106
2423.4641476257157,1151
2425.303979871491,1134
2427.143403541984,1135
2428.9824189233977,1096
2430.821026302012,1162
2432.6592259641866,1131
2434.497018196361,1144
2436.33440328505,1145
2438.171381516851,1177
2440.00795317844,1203
2441.844118556569,1133
2443.6798779380724,1179
2445.5152316098606,1152
2447.3501798589255,1145
2449.1847229723357,1159
2451.0188612372403,1147
2452.8525949408663,1115
2454.6859243705203,1120
2456.518849813587,1085
2458.3513715575314,1119
2460.183489889895,1162
2462.015205098301,1158
2463.8465174704493,1143
2465.67742729412,1090
2467.5079348571717,1178
2469.338040447542,1095
2471.1677443532476,1122
2472.9970468623833,1107
2474.825948263123,1107
2476.6544488437207,1046
2478.482548892508,1154
2480.310248697896,1085
2482.137548548374,1114
2483.9644487325118,1125
2485.790949538956,1133
2487.617051256433,1177
2489.44275417375,1123
2491.26805857979,1135
2493.0929647635157,1133
2494.917473013971,1177
2496.741583620276,1118
2498.5652968716304,1172
2500.3886130573137,1200
2502.2115324666834,1185
2504.0340553891765,1194
2505.856182114308,1141
2507.6779129316733,1188
2509.499248130945,1187
2511.3201880018764,1120
2513.140732834298,1178
2514.9608829181198,1179
2516.780638543331,1175
2518.6,1189
2520.418967578273,1140
2522.237541568376,1171
2524.0557222606144,1192
2525.8735099453706,1175
2527.6909049131086,1191
2529.507907454368,1192
2531.32451785977,1162
2533.140736420014,1153
2534.9565634258774,1202
2536.771999168218,1239
2538.5870439379714,1241
2540.4016980261526,1196
2542.2159617238544,1200
2544.02983532225,1232
2545.8433191125914,1291
2547.656413386209,1199
2549.4691184345115,1199
2551.2814345489874,1239
2553.093362021204,1262
2554.904901142808,1259
2556.716052205523,1245
2558.526815501153,1274
2560.3371913215824,1306
2562.147179958771,1326
2563.956781704761,1307
2565.7659968516705,1319
2567.5748256916986,1334
2569.3832685171224,1254
2571.1913256202984,1311
2572.9989972936614,1313
2574.806283829725,1361
2576.613185521084,1339
2578.4197026604074,1335
2580.2258355404483,1373
2582.031584454035,1314
2583.836949694077,1327
2585.6419315535613,1367
2587.4465303255533,1361
2589.2507463032002,1349
2591.0545797797245,1361
2592.8580310484303,1333
2594.6611004026995,1306
2596.463788135992,1388
2598.266094541849,1346
2600.0680199138874,1370
2601.869564545807,1308
2603.670728731383,1367
2605.4715127644704,1362
2607.2719169390048,1319
2609.071941548998,1357
2610.8715868885433,1344
2612.670853251811,1394
2614.469740933052,1316
2616.268250226594,1323
2618.0663814268455,1339
2619.864134828292,1379
2621.6615107255006,1321
2623.458509413115,1379
2625.2551311858597,1333
2627.0513763385347,1349
2628.8472451660223,1334
2630.6427379632833,1280
2632.4378550253564,1332
2634.232596647359,1337
2636.026963124488,1295
2637.8209547520187,1292
2639.6145718253065,1266
2641.407814639785,1289
2643.200683490966,1281
2644.9931786744414,1274
2646.7853004858807,1242
2648.577049221034,1242
2650.3684251757277,1254
2652.1594286458712,1242
2653.9500599274484,1223
2655.740319316525,1195
2657.5302071092437,1240
2659.3197236018286,1183
2661.10886909058,1222
2662.8976438718782,1211
2664.686048242183,1182
2666.4740824980327,1201
2668.2617469360443,1237
2670.0490418529134,1206
2671.8359675454153,1202
2673.622524310403,1179
2675.408712444811,1169
2677.1945322456495,1154
2678.979984010009,1202
2680.76506803506,1142
2682.5497846180497,1176
2684.334134056306,1149
2686.1181166472343,1137
2687.9017326883213,1174
2689.6849824771293,1100
2691.4678663113013,1158
2693.2503844885596,1101
2695.032537306705,1108
2696.8143250636167,1146
2698.5957480572542,1101
2700.3768065856534,1108
2702.1575009469316,1171
2703.937831439283,1104
2705.717798360982,1144
2707.4974020103837,1126
2709.276642685917,1108
2711.055520686095,1093
2712.834036309506,1111
2714.612189854819,1109
2716.389981620782,1101
2718.1674119062204,1110
2719.944481010041,1131
2721.721189231226,1073
2723.4975368688415,1111
2725.273524222027,1131
2727.0491515900053,1122
2728.824419272075,1057
2730.5993275676146,1109
2732.3738767760838,1051
2734.148067197016,1082
2735.921899130031,1079
2737.6953728748194,1041
2739.468488731156,1076
2741.2412469988926,1097
2743.0136479779617,1083
2744.785691968372,1059
2746.5573792702116,1082
2748.3287101836504,1046
2750.099685008934,1110
2751.870304046388,1126
2753.640567596418,1082
2755.4104759595057,1080
2757.1800294362156,1063
2758.949228327187,1046
2760.7180729331412,1068
2762.486563554877,1108
2764.254700493272,1100
2766.022484049284,1005
2767.789914523947,1091
2769.5569922183786,1037
2771.3237174337705,1061
2773.090090471394,1075
2774.8561116326036,1095
2776.6217812188274,1053
2778.3870995315756,1094
2780.1520668724356,1054
2781.9166835430747,1048
2783.6809498452394,1119
2785.444866080754,1070
2787.2084325515225,1097
2788.971649559527,1081
2790.73451740683,1037
2792.4970363955713,1071
2794.2592068279705,1081
2796.0210290063264,1076
2797.7825032330147,1037
2799.543629810493,1071
2801.304409041296,1089
2803.0648412280366,1066
2804.8249266734088,1030
2806.5846656801846,1057
2808.344058551212,1102
2810.1031055894246,1039
2811.8618070978273,1075
2813.6201633795085,1059
2815.378174737636,1051
2817.1358414754536,1074
2818.893163896285,1078
2820.6501423035334,1056
2822.4067770006814,1024
2824.1630682912883,1007
2825.9190164789957,1038
2827.6746218675207,1090
2829.429884760661,1138
2831.184805462294,1044
2832.9393842763743,1066
2834.693621506936,1058
2836.4475174580916,1055
2838.201072434034,1056
2839.954286739034,1074
2841.707160677441,1062
2843.459694553685,1056
2845.2118886722724,1049
2846.96374333779,1096
2848.7152588549034,1085
2850.4664355283567,1033
2852.217273662973,1100
2853.9677735636546,1097
2855.7179355353833,1086
2857.4677598832186,1040
2859.217246912299,1055
2860.9663969278427,1022
2862.715210235146,1028
2864.4636871395846,1061
2866.211827946614,1044
2867.9596329617652,1046
2869.7071024906536,1069
2871.4542368389684,1024
2873.20103631248,1019
2874.947501217038,1059
2876.6936318585695,1088
2878.4394285430812,1072
2880.1848915766604,1091
2881.9300212654707,1058
2883.6748179157553,1077
2885.4192818338374,1064
2887.1634133261173,1091
2888.907212699077,1040
2890.6506802592744,1089
2892.393816313348,1035
2894.1366211680142,1054
2895.8790951300693,1046
2897.621238506388,1048
2899.363051603925,1067
2901.1045347297118,1061
2902.8456881908596,1104
2904.58651229456,1078
2906.327007348081,1082
2908.067173658772,1038
2909.8070115340597,1038
2911.5465212814497,1010
2913.285703208527,1023
2915.0245576229563,1004
2916.7630848324807,1058
2918.5012851449196,1065
2920.2391588681758,1051
2921.976706310227,1059
2923.7139277791334,1019
2925.4508235830313,1080
2927.187394030137,1027
2928.923639428745,1109
2930.6595600872306,1062
2932.395156314046,1065
2934.1304284177218,1058
2935.8653767068713,1070
2937.6000014901815,1069
2939.3343030764227,1058
2941.068281774442,1019
2942.8019378931644,1036
2944.5352717415976,1074
2946.2682836288236,1073
2948.0009738640065,1076
2949.7333427563885,1077
2951.465390615289,1046
2953.1971177501086,1081
2954.9285244703265,1066
2956.6596110855,1061
2958.3903779052657,1043
2960.1208252393385,1035
2961.8509533975125,1019
2963.5807626896617,1031
2965.3102534257378,1078
2967.0394259157715,1052
2968.768280469873,1059
2970.496817398232,1048
2972.2250370111146,1102
2973.952939618869,1033
2975.6805255319196,1071
2977.4077950607707,1015
2979.134748516006,1074
2980.861386208289,1050
2982.587708448359,1063
2984.313715547037,1094
2986.039407815222,1011
2987.764785563891,1090
2989.489849104102,1059
2991.2145987469908,1074
2992.9390348037705,1053
2994.6631575857346,1000
2996.3869674042576,1033
2998.1104645707887,1073
2999.83364939686,1045
3001.5565221940783,1069
3003.2790832741334,1020
3005.0013329487924,1050
3006.7232715298996,1024
3008.4448993293804,1054
3010.166216659239,1012
3011.887223831558,1036
3013.607921158498,1000
3015.3283089522993,1010
3017.0483875252826,1074
3018.7681571898443,1031
3020.4876182584626,1079
3022.2067710436927,1071
3023.9256158581707,1051
3025.644153014609,988
3027.362382825801,1028
3029.0803056046193,1057
3030.797921664012,1043
3032.5152313170106,1052
3034.2322348767225,1009
3035.9489326563353,1022
3037.665324969115,1025
3039.3814121284063,1095
3041.097194447633,1063
3042.812672240299,1071
3044.5278458199855,1058
3046.2427155003525,1096
3047.9572815951406,1036
3049.671544418167,1030
3051.38550428333,1061
3053.0991615046073,1065
3054.812516396051,1037
3056.5255692717974,1015
3058.2383204460575,1020
3059.9507702331257,1022
3061.662918947372,1077
3063.3747669032446,1041
3065.0863144152736,1028
3066.7975617980674,1048
3068.508509366309,1077
3070.219157434767,1043
3071.9295063182844,1072
3073.639556331785,1067
3075.3493077902704,1028
3077.058761008821,1044
3078.7679163025964,1119
3080.476773986837,1014
3082.1853343768594,1021
3083.89359778806,1069
3085.6015645359153,1069
3087.3092349359786,1093
3089.016609303884,1049
3090.7236879553434,1044
3092.4304712061476,1054
3094.136959372166,1043
3095.843152769349,1059
3097.5490517137237,1031
3099.2546565213966,1046
3100.959967508554,1021
3102.66498499146,1049
3104.3697092864577,1058
3106.0741407099695,1116
3107.778279578498,1072
3109.482126208622,1055
3111.1856809170004,1042
3112.8889440203716,1066
3114.5919158355528,1051
3116.294596679439,1035
3117.996986869006,1042
3119.6990867213062,1083
3121.4008965534726,1107
3123.102416682717,1075
3124.803647426329,1048
3126.5045891016784,1032
3128.205242026213,1059
3129.90560651746,1105
3131.605682893025,1064
3133.3054714705922,1091
3135.0049725679282,1060
3136.7041865028714,1056
3138.4031135933465,1067
3140.101754157353,1082
3141.800108512971,1083
3143.498176978357,1058
3145.1959598717494,1038
3146.8934575114636,1062
3148.5906702158954,1044
3150.2875983035183,1076
3151.9842420928853,982
3153.680601902627,1114
3155.376678051456,1046
3157.07247085816,1018
3158.767980641609,992
3160.463207720748,1059
3162.158152414606,1036
3163.8528150422862,1043
3165.5471959229726,1012
3167.2412953759303,1082
3168.9351137204976,1066
3170.628651276098,1036
3172.3219083622307,1063
3174.014885298474,1092
3175.707582404485,1075
3177.4000000000005,1027
3179.092138404835,1031
3180.7839979388846,1068
3182.47557892212,1050
3184.166881674594,1064
3185.8579065164386,1042
3187.5486537678626,1103
3189.2391237491547,1040
3190.9293167806827,1018
3192.6192331828934,1082
3194.3088732763117,1056
3195.998237381542,1040
3197.687325819268,1047
3199.376138910251,1036
3201.064676975334,1038
3202.7529403354347,1045
3204.4409293115523,1024
3206.1286442247647,1057
3207.816085396229,1046
3209.5032531471825,1008
3211.190147798936,1041
3212.8767696728846,1019
3214.5631190905015,1013
3216.2491963733373,1032
3217.9350018430214,1059
3219.6205358212637,994
3221.305798629851,1034
3222.990790590651,1023
3224.6755120256103,1019
3226.359963256751,1027
3228.0441446061795,1058
3229.7280563960758,1051
3231.411698948703,1053
3233.0950725863995,1055
3234.778177631587,1026
3236.461014406761,1039
3238.1435832345005,986
3239.8258844374595,1034
3241.507918338374,1005
3243.1896852600576,1067
3244.8711855254023,1066
3246.552419457381,1020
3248.233387379042,994
3249.914089613516,1042
3251.59452648401,1014
3253.274698313813,1037
3254.95460542629,1055
3256.6342481448855,1005
3258.313626793125,985
3259.9927416946084,1013
3261.6715931730196,994
3263.3501815521176,996
3265.0285071557437,1016
3266.706570307815,1011
3268.3843713323286,1061
3270.0619105533615,1006
3271.739188295068,1008
3273.4162048816834,1035
3275.0929606375184,1058
3276.769455886966,1028
3278.445690954498,1026
3280.1216661646613,1036
3281.797381842087,1069
3283.4728383114807,1022
3285.1480358976296,1032
3286.8229749253996,1074
3288.4976557197333,1011
3290.172078605655,1060
3291.846243908266,1012
3293.5201519527463,1026
3295.193803064357,1005
3296.8671975684374,1013
3298.5403357904024,974
3300.21321805575,1052
3301.8858446900567,986
3303.558216018975,1014
3305.23033236824,1016
3306.9021940636603,1040
3308.57380143113,1039
3310.2451547966184,1046
3311.916254486174,1050
3313.5871008259246,1042
3315.2576941420766,1046
3316.9280347609147,999
3318.5981230088046,1018
3320.2679592121895,1034
3321.9375436975924,1036
3323.606876791612,1013
3325.27595882093,981
3326.944790112305,990
3328.6133709925753,989
3330.2817017886573,985
3331.949782827547,1040
3333.617614436319,996
3335.2851969421245,1058
3336.952530672199,1041
3338.619615953853,1059
3340.286453114475,1019
3341.9530424815357,996
3343.619384382583,1042
3345.2854791452437,1003
3346.951327097224,1036
3348.6169285663073,1019
3350.2822838803577,969
3351.947393367319,1053
3353.61225735521,1004
3355.2768761721345,1002
3356.9412501462693,1015
3358.605379605873,1030
3360.2692648792827,1023
3361.9329062949146,1065
3363.596304181263,1080
