CollectionTime,6/26/2024 4:03:13 PM
ExposureUsed,3
CalibratedSpectrum
-962.7078968117929,572
-959.9714848408522,644
-957.2358232597828,581
-954.5009119013725,633
-951.7667505983302,624
-949.0333391832855,638
-946.3006774887896,646
-943.5687653473143,637
-940.837602591253,607
-938.1071890529199,644
-935.3775245645503,624
-932.6486089583007,647
-929.9204420662485,638
-927.1930237203925,642
-924.4663537526524,631
-921.7404319948689,609
-919.0152582788041,606
-916.2908324361409,643
-913.5671542984834,658
-910.8442236973568,637
-908.1220404642074,632
-905.4006044304027,611
-902.679915427231,635
-899.959973285902,634
-897.2407778375464,651
-894.5223289132158,643
-891.8046263438832,594
-889.0876699604426,580
-886.3714595937089,572
-883.6559950744183,597
-880.9412762332282,597
-878.2273029007168,574
-875.5140749073835,586
-872.8015920836489,599
-870.0898542598545,573
-867.3788612662631,595
-864.6686129330585,594
-861.9591090903457,554
-859.2503495681506,588
-856.5423341964203,584
-853.8350628050229,602
-851.1285352237478,598
-848.4227512823054,628
-845.7177108103272,592
-843.0134136373656,591
-840.3098595928943,636
-837.6070485063082,605
-834.9049802069229,629
-832.2036545239757,601
-829.5030712866244,627
-826.8032303239481,592
-824.1041314649472,581
-821.4057745385428,588
-818.7081593735775,576
-816.0112857988148,591
-813.3151536429393,598
-810.6197627345566,611
-807.9251129021936,575
-805.2312039742981,602
-802.5380357792392,622
-799.8456081453069,594
-797.1539209007124,598
-794.462973873588,625
-791.772766891987,593
-789.083299783884,585
-786.3945723771743,617
-783.7065844996748,614
-781.0193359791231,598
-778.3328266431781,639
-775.6470563194197,652
-772.9620248353489,665
-770.2777320183878,620
-767.5941776958798,621
-764.9113616950891,637
-762.2292838432011,641
-759.5479439673222,594
-756.8673418944801,625
-754.1874774516235,608
-751.5083504656222,606
-748.8299607632671,616
-746.15230817127,620
-743.475392516264,603
-740.7992136248035,665
-738.1237713233636,622
-735.4490654383407,635
-732.7750957960521,652
-730.1018622227365,648
-727.4293645445534,621
-724.7576025875837,599
-722.0865761778291,636
-719.4162851412126,649
-716.7467293035781,625
-714.0779084906909,619
-711.409822528237,655
-708.7424712418238,630
-706.0758544569796,634
-703.4099719991541,662
-700.7448236937178,700
-698.0804093659622,701
-695.4167288411002,682
-692.7537819442656,629
-690.0915685005134,699
-687.4300883348199,704
-684.7693412720819,633
-682.1093271371178,655
-679.4500457546669,650
-676.7914969493897,656
-674.1336805458676,636
-671.4765963686034,701
-668.8202442420206,664
-666.1646239904642,675
-663.5097354382001,678
-660.8555784094151,642
-658.2021527282176,666
-655.5494582186366,698
-652.8974947046223,686
-650.2462620100463,742
-647.5957599587009,677
-644.9459883742998,707
-642.2969470804776,728
-639.6486359007902,758
-637.0010546587141,730
-634.3542031776476,706
-631.7080812809096,733
-629.0626887917401,688
-626.4180255333008,710
-623.7740913286734,691
-621.1308860008619,657
-618.4884093727904,681
-615.8466612673046,690
-613.2056415071715,677
-610.5653499150785,698
-607.9257863136347,727
-605.28695052537,665
-602.6488423727357,705
-600.0114616781036,687
-597.3748082637674,695
-594.7388819519412,737
-592.1036825647604,672
-589.4692099242818,730
-586.8354638524829,704
-584.2024441712624,719
-581.5701507024403,716
-578.9385832677575,693
-576.3077416888759,721
-573.6776257873787,718
-571.0482353847704,718
-568.4195703024757,722
-565.7916303618415,760
-563.164415384135,721
-560.5379251905453,707
-557.9121596021815,710
-555.2871184400748,730
-552.6628015251767,722
-550.0392086783606,735
-547.4163397204204,719
-544.794194472071,764
-542.1727727539491,758
-539.5520743866118,711
-536.9320991905377,757
-534.3128469861261,824
-531.6943175936979,841
-529.0765108334947,796
-526.4594265256793,850
-523.8430644903358,950
-521.2274245474689,1112
-518.612506517005,1155
-515.9983102187913,1232
-513.3848354725959,1382
-510.77208209810846,1483
-508.16004991493924,1548
-505.5487387426199,1647
-502.9381484006032,1661
-500.3282787082628,1708
-497.71912948489364,1746
-495.1107005497117,1690
-492.5029917218539,1418
-489.8960028203786,1299
-487.28973366426493,1161
-484.68418407241325,1032
-482.07935386364494,946
-479.47524285670266,899
-476.87185087025,971
-474.2691777228715,976
-471.66722323307334,966
-469.0659872192821,957
-466.4654694998459,881
-463.86566989303384,911
-461.26658821703614,857
-458.66822428996414,925
-456.07057792985,887
-453.4736489546475,932
-450.877437182231,930
-448.28194243039627,918
-445.68716451686,873
-443.09310325926003,838
-440.49975847515555,837
-437.9071299820263,859
-435.31521759727354,896
-432.72402113821954,899
-430.13354042210767,877
-427.5437752661022,926
-424.95472548728867,925
-422.36639090267386,909
-419.7787713291855,956
-417.1918665836721,966
-414.60567648290385,933
-412.0202008435715,942
-409.4354394822874,895
-406.8513922155845,933
-404.26805885991723,964
-401.685439231661,985
-399.103533147112,937
-396.522340422488,961
-393.9418608739278,933
-391.3620943174908,915
-388.7830405691583,906
-386.2046994448317,934
-383.6270707603344,867
-381.05015433141045,830
-378.473949973725,801
-375.8984575028645,802
-373.32367673433623,711
-370.74960748356875,701
-368.1762495659117,652
-365.60360279663576,651
-363.03166699093265,580
-360.4604419639154,559
-357.8899275306178,538
-355.32012350599507,506
-352.7510297049233,477
-350.1826459421999,505
-347.61497203254316,496
-345.04800779059235,539
-342.4817530309082,518
-339.91620756797226,461
-337.35137121618743,482
-334.7872437898774,503
-332.22382510328725,486
-329.66111497058273,498
-327.09911320585127,514
-324.53781962310075,525
-321.9772340362607,520
-319.4173562591816,504
-316.8581861056348,502
-314.2997233893127,532
-311.7419679238294,516
-309.1849195227194,534
-306.62857799943856,523
-304.0729431673641,510
-301.51801483979375,495
-298.963792829947,492
-296.41027695096386,553
-293.85746701590574,550
-291.3053628377552,548
-288.7539642294155,525
-286.2032710037115,573
-283.65328297338897,568
-281.1039999511146,605
-278.5554217494762,649
-276.007548180983,612
-273.4603790580651,607
-270.9139141930734,540
-268.3681533982807,571
-265.8230964858798,599
-263.27874326798565,568
-260.7350935566336,580
-258.1921471637804,631
-255.6499039013039,682
-253.10836358100266,634
-250.56752601459698,613
-248.02739101372765,625
-245.48795838995704,622
-242.94922795476816,634
-240.41119951956557,649
-237.8738728956746,663
-235.33724789434166,677
-232.80132432673452,770
-230.2661020039418,904
-227.73158073697357,860
-225.19776033676033,708
-222.66464061415422,673
-220.1322213799284,695
-217.60050244477725,682
-215.06948361931552,692
-212.53916471408013,699
-210.00954553952818,713
-207.48062590603843,795
-204.9524056239104,829
-202.4248845033651,767
-199.8980623545441,770
-197.37193898751036,747
-194.84651421224817,784
-192.32178783866232,781
-189.79775967657952,815
-187.27442953574644,853
-184.7517972258321,780
-182.2298625564256,778
-179.7086253370378,923
-177.18808537710026,842
-174.66824248596583,874
-172.14909647290835,980
-169.6306471471229,963
-167.11289431772548,820
-164.59583779375328,863
-162.07947738416453,859
-159.5638128978386,960
-157.04884414357605,993
-154.53457093009854,941
-152.02099306604828,916
-149.50811035998936,986
-146.99592262040665,953
-144.48442965570587,949
-141.97363127421409,957
-139.46352728417958,962
-136.95411749377126,956
-134.44540171107985,1060
-131.93737974411636,1084
-129.43005140081357,1106
-126.92341648902493,1159
-124.41747481652521,1136
-121.91222619101006,1040
-119.40767042009657,1052
-116.90380731132257,1173
-114.40063667214702,1301
-111.8981583099503,1295
-109.3963720320337,1289
-106.89527764561933,1176
-104.39487495785067,1166
-101.89516377579241,1247
-99.39614390642998,1257
-96.89781515667039,1285
-94.40017733334128,1431
-91.90323024319173,1552
-89.40697369289148,1599
-86.91140748903172,1533
-84.41653143812482,1396
-81.92234534660395,1478
-79.42884902082358,1535
-76.93604226705907,1610
-74.4439248915071,1619
-71.95249670028534,1518
-69.46175749943245,1833
-66.97170709490854,1971
-64.48234529259423,2166
-61.99367189829195,2164
-59.50568671772464,2050
-57.01838955653636,2338
-54.53178022029283,2430
-52.045858514480074,2490
-49.560624244506016,2939
-47.07607721569923,2806
-44.59221723330904,2801
-42.10904410250669,2479
-39.62655762838392,2938
-37.14475761595372,3829
-34.66364387015028,4147
-32.18321619582866,4296
-29.70347439776515,4898
-27.224418280657005,5730
-24.74604764912317,8260
-22.26836230770266,12695
-19.7913620608565,20997
-17.315046712966478,32461
-14.83941606833514,37555
-12.36446993118659,59625
-9.89020810566592,65038
-7.416630395839093,65038
-4.94373660569363,65038
-2.471526539137585,65038
-6.821210263296962E-13,65038
2.47084320796705,65038
4.941003281093458,65038
7.410480415786196,65038
9.879274808531363,65038
12.347386655893956,65038
14.814816154518212,65038
17.28156350112681,65038
19.74762889252179,65038
22.21301252558385,65038
24.67771459727237,44085
27.141735304626195,17048
29.605074844762612,12004
32.06773341487792,10937
34.52971121224755,7977
36.99100843422559,6660
39.45162527824516,5927
41.91156194181792,6639
44.370818622535126,8743
46.82939551806646,10783
49.287292826160524,11365
51.74451074464503,9836
54.201049471426245,8367
56.65690920448981,6079
59.112090141899785,3181
61.56659248179983,2546
64.02041642241159,2569
66.4735621620365,2788
68.92602989905402,2426
71.37781983192338,2425
73.82893215918205,1998
76.27936707944684,1993
78.72912479141326,2681
81.17820549385567,2697
83.62660938562783,2477
86.07433666566146,1948
88.5213875329681,2322
90.96776218663751,2288
93.41346082583925,1992
95.85848364982041,2019
98.30283085790859,1656
100.7465026495089,1832
103.18949922410604,1886
105.63182078126385,1738
108.07346752062438,1876
110.51443964190923,1817
112.95473734491827,1528
115.39436082953114,1472
117.83331029570547,1586
120.27158594347827,1500
122.7091879729652,1611
125.1461165843615,1383
127.58237197794062,1218
130.01795435405518,1098
132.4528639131364,1240
134.88710085569494,1294
137.32066538231982,1263
139.75355769367923,1193
142.1857779905207,1364
144.61732647366978,1313
147.04820334403132,1222
149.47840880258934,1243
151.90794305040674,1432
154.33680628862487,1495
156.76499871846443,1350
159.19252054122433,1426
161.61937195828352,1586
164.04555317109896,1564
166.47106438120693,1669
168.89590579022217,1896
171.320077599839,1874
173.7435800118302,1977
176.16641322804742,1901
178.58857745042144,1939
181.01007288096173,2133
183.43089972175687,2217
185.85105817497413,2208
188.27054844285988,2189
190.6893707277394,2229
193.10752523201643,2130
195.5250121581745,2346
197.9418317087751,2280
200.3579840864594,2219
202.7734694939469,2316
205.18828813403627,2350
207.6024402096051,2246
210.01592592360964,2380
212.42874547908548,2352
214.84089907914665,2271
217.2523869269868,2326
219.66320922587727,2414
222.0733661791695,2393
224.48285799029293,2307
226.8916848627572,2374
229.29984700014882,2484
231.7073446061355,2512
234.11417788446204,2567
236.520347038953,2562
238.92585227351185,2635
241.33069379212054,2763
243.73487179884035,2770
246.1383864978112,2677
248.541238093252,2678
250.9434267894609,2744
253.34495279081432,3018
255.74581630176783,2954
258.1460175268563,3015
260.54555667069314,3036
262.9444339379703,2893
265.3426495334594,2866
267.7402036620107,2842
270.1370965285529,2666
272.53332833809407,2582
274.9288992957214,2575
277.32380960660055,2464
279.718059475976,2397
282.1116491091717,2363
284.5045787115897,2339
286.89684848871195,2352
289.2884586460981,2288
291.67940938938807,2303
294.0697009242996,2312
296.4593334566299,2298
298.84830719225477,2307
301.23662233712923,2282
303.6242790972866,2277
306.01127767884,2241
308.39761828798066,2220
310.78330113097934,2219
313.16832641418534,2103
315.5526943440269,2170
317.9364051270112,2089
320.3194589697242,2037
322.70185607883093,2039
325.0835966610754,2011
327.4646809232805,2061
329.8451090723478,1977
332.2248813152577,2079
334.6039978590701,2005
336.9824589109231,1990
339.36026467803447,1995
341.7374153677,1961
344.113911187295,1891
346.48975234427337,1832
348.8649390461686,1874
351.2394715005918,1922
353.61334991523415,1914
355.9865744978655,1873
358.35914545633375,1910
360.73106299856715,1938
363.10232733257146,1843
365.47293866643247,1798
367.84289720831396,1818
370.2122031664593,1807
372.5808567491905,1836
374.9488581649083,1781
377.31620762209275,1827
379.6829053293021,1781
382.0489514951745,1810
384.4143463284262,1912
386.7790900378528,1830
389.14318283232853,1701
391.50662492080653,1795
393.86941651231916,1743
396.23155781597745,1743
398.5930490409713,1793
400.9538903965696,1775
403.3140820921202,1787
405.6736243370498,1788
408.03251734086336,1704
410.3907613131465,1745
412.74835646356166,1665
415.10530300185144,1826
417.4616011378372,1777
419.81725108141893,1757
422.1722530425758,1767
424.5266072313656,1768
426.880313857925,1749
429.2333731324701,1698
431.58578526529516,1743
433.9375504667738,1689
436.2886689473588,1757
438.63914091758113,1719
440.9889665880513,1666
443.33814616945835,1670
445.68667987257015,1673
448.03456790823395,1663
450.3818104873759,1617
452.72840782100013,1663
455.07436012019105,1638
457.41966759611057,1671
459.7643304600007,1727
462.10834892318155,1709
464.4517231970525,1669
466.79445349309174,1651
469.1365400228566,1680
471.4779829979826,1767
473.81878263018564,1736
476.15893913125876,1726
478.4984527130747,1687
480.8373235875855,1762
483.17555196682144,1857
485.5131380628919,1800
487.8500820879857,1862
490.1863842543697,1958
492.52204477439034,1975
494.8570638604725,2082
497.1914417251204,2263
499.52517858091653,2551
501.85827464052306,2841
504.19073011668036,3091
506.5225452222086,3157
508.85372017000566,3182
511.18425517304956,3122
513.514150444396,3205
515.8434061971808,3622
518.1720226446176,4024
520.4999999999999,4200
522.8273384766991,4414
525.1540382881666,4490
527.480099647932,4529
529.8055227696037,3922
532.1303078668694,2796
534.454455153496,2051
536.777964843328,1859
539.1008371502907,1744
541.4230722883866,1626
543.744670471698,1628
546.0656319143858,1605
548.3859568306899,1633
550.7056454349294,1673
553.0246979415016,1609
555.3431145648834,1576
557.6608955196306,1539
559.978041020377,1554
562.2945512818363,1531
564.6104265188006,1542
566.9256669461412,1481
569.2402727788082,1513
571.5542442318302,1530
573.8675815203156,1543
576.1802848594508,1465
578.4923544645015,1473
580.8037905508126,1550
583.114593333807,1602
585.4247630289875,1620
587.7342998519354,1519
590.0432040183106,1590
592.3514757438526,1565
594.6591152443794,1606
596.9661227357875,1542
599.2724984340531,1520
601.578242555231,1578
603.8833553154542,1573
606.1878369309362,1602
608.4916876179676,1546
610.7949075929192,1569
613.0974970722403,1544
615.3994562724587,1582
617.7007854101818,1590
620.0014847020951,1568
622.3015543649641,1492
624.6009946156324,1520
626.8998056710224,1559
629.1979877481361,1581
631.4955410640538,1557
633.7924658359349,1554
636.0887622810175,1570
638.3844306166192,1563
640.6794710601358,1517
642.9738838290426,1561
645.2676691408932,1578
647.5608272133207,1605
649.853358264037,1565
652.1452625108324,1613
654.4365401715764,1566
656.7271914642178,1611
659.0172166067838,1670
661.3066158173809,1541
663.5953893141935,1610
665.8835373154867,1577
668.1710600396028,1650
670.4579577049639,1609
672.7442305300709,1612
675.0298787335033,1543
677.3149025339197,1605
679.599302150058,1599
681.8830778007342,1634
684.1662297048437,1546
686.4487580813608,1600
688.7306631493387,1631
691.0119451279091,1635
693.2926042362834,1575
695.5726406937516,1603
697.8520547196814,1586
700.1308465335215,1625
702.4090163547982,1607
704.6865644031171,1593
706.9634908981619,1568
709.2397960596965,1577
711.5154801075631,1547
713.7905432616823,1519
716.0649857420548,1580
718.3388077687592,1585
720.612009561953,1554
722.8845913418733,1643
725.1565533288352,1513
727.427895743234,1564
729.6986188055427,1605
731.9687227363137,1632
734.238207756178,1571
736.5070740858458,1564
738.7753219461066,1575
741.0429515578281,1607
743.3099631419569,1577
745.5763569195191,1631
747.8421331116193,1531
750.1072919394409,1595
752.3718336242467,1598
754.6357583873777,1598
756.8990664502545,1549
759.1617580343765,1627
761.423833361321,1599
763.6852926527457,1576
765.9461361303862,1580
768.206364016058,1561
770.4659765316536,1609
772.7249738991469,1641
774.9833563405886,1570
777.2411240781092,1622
779.4982773339183,1604
781.7548163303044,1627
784.010741289634,1661
786.2660524343538,1721
788.5207499869881,1681
790.7748341701416,1663
793.0283052064964,1618
795.2811633188143,1699
797.5334087299362,1586
799.7850416627813,1643
802.0360623403484,1656
804.2864709857143,1640
806.5362678220353,1600
808.7854530725468,1598
811.0340269605625,1663
813.2819897094754,1652
815.5293415427581,1622
817.77608268396,1681
820.0222133567116,1620
822.2677337847211,1598
824.5126441917765,1630
826.7569448017433,1577
829.0006358385675,1599
831.2437175262731,1608
833.4861900889629,1634
835.7280537508192,1622
837.9693087361026,1593
840.2099552691533,1635
842.4499935743896,1614
844.689423876309,1597
846.9282463994886,1559
849.1664613685833,1595
851.4040690083276,1630
853.6410695435349,1589
855.877463199097,1573
858.1132501999847,1626
860.3484307712487,1611
862.5830051380175,1591
864.8169735254988,1594
867.0503361589791,1658
869.2830932638243,1618
871.5152450654786,1647
873.7467917894654,1612
875.9777336613873,1678
878.2080709069252,1681
880.4378037518389,1647
882.666932421968,1697
884.8954571432301,1705
887.1233781416219,1668
889.3506956432192,1636
891.5774098741766,1624
893.803521060728,1605
896.0290294291852,1618
898.2539352059397,1625
900.4782386174619,1617
902.7019398903011,1648
904.925039251085,1634
907.147536926521,1627
909.3694331433943,1687
911.59072812857,1664
913.8114221089921,1669
916.0315153116827,1645
918.2510079637437,1639
920.4699002923547,1651
922.6881925247761,1638
924.905884888345,1680
927.1229776104793,1662
929.3394709186747,1638
931.555365040506,1580
933.7706602036275,1705
935.9853566357709,1703
938.1994545647489,1687
940.4129542184515,1668
942.6258558248488,1716
944.8381596119883,1627
947.0498658079974,1615
949.2609746410825,1649
951.4714863395287,1565
953.6814011316998,1610
955.8907192460387,1611
958.0994409110671,1631
960.3075663553858,1644
962.5150958076741,1649
964.7220294966913,1639
966.928367651274,1592
969.1341105003388,1571
971.3392582728806,1573
973.5438111979742,1604
975.747769504772,1624
977.9511334225061,1575
980.153903180487,1539
982.3560790081052,1556
984.5576611348289,1561
986.7586497902058,1523
988.9590452038618,1526
991.158847605503,1510
993.3580572249133,1461
995.5566742919558,1446
997.7546990365728,1400
999.952131688785,1432
1002.1489724786926,1476
1004.3452216364743,1473
1006.5408793923874,1434
1008.7359459767691,1400
1010.9304216200343,1403
1013.1243065526781,1392
1015.3176010052733,1420
1017.510305208472,1325
1019.7024193930064,1334
1021.8939437896848,1342
1024.0848786293977,1350
1026.2752241431122,1331
1028.4649805618747,1313
1030.6541481168115,1363
1032.842727039127,1347
1035.0307175601051,1373
1037.2181199111074,1297
1039.4049343235752,1326
1041.591161029029,1346
1043.7768002590683,1351
1045.9618522453698,1314
1048.1463172196918,1400
1050.3301954138697,1326
1052.513487059818,1264
1054.69619238953,1298
1056.8783116350783,1305
1059.0598450286152,1328
1061.2407928023704,1307
1063.4211551886528,1287
1065.6009324198508,1328
1067.780124728432,1293
1069.9587323469414,1229
1072.1367555080046,1320
1074.314194444325,1259
1076.4910493886855,1307
1078.667320573947,1301
1080.843008233051,1263
1083.0181125990161,1303
1085.1926339049414,1261
1087.3665723840027,1258
1089.5399282694575,1272
1091.7127017946405,1264
1093.8848931929647,1208
1096.0565026979243,1290
1098.2275305430899,1242
1100.3979769621128,1230
1102.567842188722,1231
1104.737126456726,1169
1106.9058300000124,1242
1109.0739530525475,1262
1111.2414958483764,1266
1113.4084586216231,1219
1115.5748416064907,1200
1117.7406450372605,1273
1119.9058691482942,1216
1122.0705141740304,1212
1124.2345803489884,1243
1126.3980679077658,1216
1128.5609770850388,1246
1130.7233081155623,1225
1132.8850612341707,1175
1135.0462366757774,1196
1137.2068346753745,1274
1139.3668554680326,1196
1141.526299288901,1249
1143.68516637321,1206
1145.8434569562655,1179
1148.001171273455,1212
1150.158309560244,1211
1152.3148720521767,1158
1154.470858984876,1245
1156.626270594044,1157
1158.7811071154629,1179
1160.9353687849912,1177
1163.089055838569,1195
1165.242168512213,1295
1167.3947070420209,1242
1169.5466716641677,1189
1171.6980626149075,1202
1173.8488801305748,1205
1175.9991244475814,1186
1178.1487958024186,1231
1180.2978944316555,1259
1182.4464205719428,1233
1184.5943744600072,1185
1186.7417563326567,1222
1188.8885664267755,1218
1191.0348049793297,1191
1193.1804722273619,1200
1195.325568407995,1220
1197.4700937584303,1201
1199.614048515948,1221
1201.7574329179074,1203
1203.900247201746,1177
1206.042491604982,1218
1208.1841663652099,1235
1210.3252717201053,1149
1212.465807907422,1171
1214.6057751649923,1163
1216.7451737307279,1221
1218.8840038426192,1251
1221.0222657387353,1199
1223.1599596572241,1255
1225.2970858363137,1215
1227.4336445143094,1219
1229.5696359295966,1247
1231.705060320639,1241
1233.8399179259786,1160
1235.9742089842384,1257
1238.107933734118,1234
1240.2410924143974,1210
1242.373685263935,1258
1244.5057125216676,1282
1246.6371744266116,1218
1248.7680712178621,1224
1250.898403134593,1242
1253.028170416058,1274
1255.1573733015875,1245
1257.2860120305932,1277
1259.4140868425648,1221
1261.54159797707,1267
1263.6685456737569,1240
1265.7949301723515,1303
1267.9207517126597,1262
1270.046010534565,1229
1272.1707068780306,1269
1274.2948409830983,1279
1276.4184130898889,1309
1278.541423438603,1290
1280.6638722695184,1284
1282.785759822993,1282
1284.9070863394636,1282
1287.0278520594447,1330
1289.1480572235314,1354
1291.2677020723963,1343
1293.3867868467923,1350
1295.5053117875495,1415
1297.623277135579,1351
1299.740683131868,1380
1301.8575300174857,1447
1303.973818033578,1380
1306.0895474213703,1398
1308.2047184221678,1361
1310.3193312773528,1402
1312.4333862283888,1361
1314.5468835168163,1369
1316.659823384255,1430
1318.7722060724045,1442
1320.8840318230418,1401
1322.9953008780249,1360
1325.1060134792888,1384
1327.2161698688478,1422
1329.3257702887959,1411
1331.4348149813054,1419
1333.5433041886276,1413
1335.6512381530933,1380
1337.7586171171101,1416
1339.8654413231675,1434
1341.9717110138317,1392
1344.0774264317488,1419
1346.1825878196432,1425
1348.2871954203192,1414
1350.3912494766587,1368
1352.4947502316231,1346
1354.5976979282532,1382
1356.7000928096686,1354
1358.8019351190665,1311
1360.9032250997243,1357
1363.0039629949988,1405
1365.1041490483235,1361
1367.2037835032133,1329
1369.3028666032606,1307
1371.401398592137,1302
1373.4993797135926,1377
1375.5968102114575,1350
1377.6936903296396,1402
1379.7900203121262,1339
1381.8858004029835,1448
1383.9810308463561,1356
1386.075711886469,1342
1388.1698437676241,1362
1390.2634267342032,1306
1392.356461030667,1405
1394.4489469015557,1374
1396.5408845914872,1373
1398.6322743451592,1338
1400.7231164073469,1352
1402.813411022907,1410
1404.903158436773,1304
1406.9923588939578,1388
1409.0810126395531,1387
1411.1691199187303,1405
1413.2566809767386,1368
1415.343696058907,1368
1417.4301654106425,1354
1419.5160892774315,1416
1421.6014679048399,1373
1423.6863015385125,1363
1425.7705904241707,1370
1427.8543348076178,1394
1429.9375349347342,1366
1432.0201910514802,1411
1434.102303403894,1485
1436.1838722380944,1508
1438.2648978002767,1438
1440.3453803367174,1483
1442.4253200937692,1554
1444.5047173178677,1515
1446.5835722555234,1551
1448.6618851533285,1521
1450.739656257952,1576
1452.8168858161434,1573
1454.8935740747306,1628
1456.96972128062,1600
1459.045327680797,1594
1461.120393522327,1557
1463.1949190523528,1656
1465.2689045180973,1685
1467.3423501668608,1659
1469.415256246024,1641
1471.4876230030463,1720
1473.559450685465,1700
1475.6307395408976,1727
1477.7014898170391,1819
1479.771701761665,1812
1481.8413756226287,1828
1483.9105116478618,1821
1485.9791100853772,1812
1488.0471711832643,1875
1490.1146951896926,1908
1492.1816823529098,1939
1494.2481329212433,1921
1496.3140471430984,1979
1498.3794252669609,1956
1500.4442675413939,2015
1502.5085742150404,1959
1504.572345536622,1983
1506.6355817549388,2002
1508.6982831188702,1939
1510.7604498773744,2038
1512.8220822794883,1939
1514.8831805743293,2028
1516.9437450110909,2091
1519.003775839048,2052
1521.0632733075522,2046
1523.1222376660367,2071
1525.1806691640113,2068
1527.2385680510652,2087
1529.2959345768668,2068
1531.3527689911643,2136
1533.4090715437833,2143
1535.4648424846291,2073
1537.5200820636855,2140
1539.5747905310159,2245
1541.6289681367616,2177
1543.6826151311434,2176
1545.7357317644614,2262
1547.7883182870937,2316
1549.8403749494987,2357
1551.8919020022113,2320
1553.9428996958477,2361
1555.9933682811015,2378
1558.0433080087469,2335
1560.0927191296346,2488
1562.1416018946961,2531
1564.1899565549415,2472
1566.2377833614592,2503
1568.2850825654164,2583
1570.3318544180606,2565
1572.3780991707158,2477
1574.423817074788,2473
1576.4690083817595,2429
1578.5136733431923,2362
1580.5578122107272,2313
1582.601425236085,2253
1584.6445126710646,2131
1586.6870747675434,2080
1588.7291117774776,1969
1590.7706239529034,1983
1592.8116115459347,1802
1594.8520748087658,1861
1596.8920139936686,1749
1598.9314293529933,1754
1600.9703211391711,1688
1603.008689604711,1632
1605.0465350022005,1603
1607.0838575843068,1619
1609.1206576037753,1549
1611.1569353134305,1482
1613.1926909661765,1579
1615.2279248149953,1411
1617.2626371129481,1480
1619.2968281131757,1481
1621.3304980688963,1374
1623.3636472334088,1429
1625.39627586009,1345
1627.428384202396,1409
1629.459972513861,1354
1631.4910410480993,1391
1633.5215900588028,1345
1635.551619799744,1287
1637.5811305247717,1329
1639.6101224878166,1333
1641.6385959428862,1318
1643.6665511440683,1316
1645.693988345528,1275
1647.7209078015112,1301
1649.7473097663405,1243
1651.7731944944203,1242
1653.7985622402307,1324
1655.823413258333,1238
1657.847747803366,1324
1659.8715661300494,1264
1661.8948684931793,1223
1663.9176551476316,1269
1665.9399263483624,1232
1667.9616823504057,1219
1669.982923408873,1208
1672.0036497789574,1194
1674.0238617159293,1249
1676.043559475138,1231
1678.0627433120121,1237
1680.081413482059,1285
1682.0995702408654,1263
1684.117213844096,1204
1686.134344547495,1218
1688.1509626068864,1198
1690.1670682781705,1197
1692.182661817329,1221
1694.1977434804217,1170
1696.2123135235875,1238
1698.226372203043,1167
1700.2399197750851,1170
1702.2529564960905,1158
1704.2654826225112,1233
1706.277498410882,1205
1708.2890041178139,1243
1710.2999999999988,1196
1712.3104863142066,1247
1714.3204633172854,1205
1716.329931266163,1238
1718.3388904178469,1229
1720.3473410294214,1221
1722.3552833580516,1211
1724.3627176609807,1173
1726.3696441955308,1182
1728.3760632191033,1182
1730.3819749891782,1179
1732.3873797633146,1161
1734.3922777991502,1165
1736.3966693544012,1187
1738.4005546868639,1189
1740.4039340544127,1182
1742.406807715001,1176
1744.4091759266616,1173
1746.4110389475054,1188
1748.4123970357223,1169
1750.413250449582,1179
1752.4135994474318,1161
1754.4134442876993,1179
1756.4127852288902,1182
1758.4116225295893,1138
1760.4099564484595,1171
1762.407787244244,1185
1764.405115175764,1143
1766.4019405019203,1167
1768.3982634816916,1137
1770.3940843741357,1145
1772.3894034383907,1150
1774.3842209336717,1094
1776.378537119274,1135
1778.372352254571,1147
1780.3656665990156,1201
1782.3584804121397,1127
1784.3507939535534,1148
1786.3426074829463,1188
1788.3339212600863,1149
1790.3247355448211,1128
1792.3150505970766,1145
1794.3048666768573,1102
1796.2941840442477,1100
1798.2830029594106,1136
1800.2713236825884,1061
1802.2591464741004,1138
1804.2464715943465,1132
1806.2332993038058,1093
1808.2196298630352,1107
1810.2054635326708,1113
1812.190800573428,1096
1814.175641246101,1124
1816.1599858115628,1062
1818.1438345307652,1145
1820.127187664738,1119
1822.1100454745924,1100
1824.092408221516,1103
1826.0742761667766,1120
1828.055649571721,1148
1830.0365286977735,1140
1832.0169138064398,1091
1833.9968051593014,1136
1835.9762030180214,1111
1837.9551076443408,1089
1839.9335193000788,1119
1841.9114382471344,1093
1843.888864747485,1124
1845.8657990631878,1158
1847.842241456378,1087
1849.8181921892697,1136
1851.7936515241558,1111
1853.7686197234098,1096
1855.7430970494815,1059
1857.7170837649014,1113
1859.6905801322787,1103
1861.6635864143004,1092
1863.6361028737338,1132
1865.608129773424,1147
1867.5796673762961,1063
1869.5507159453537,1137
1871.521275743678,1107
1873.4913470344313,1160
1875.4609300808534,1089
1877.4300251462632,1130
1879.3986324940588,1136
1881.366752387717,1146
1883.3343850907936,1148
1885.3015308669228,1102
1887.268189979819,1107
1889.2343626932739,1129
1891.2000492711595,1163
1893.1652499774254,1164
1895.1299650761011,1119
1897.0941948312952,1156
1899.0579395071945,1099
1901.0211993680641,1154
1902.98397467825,1194
1904.9462657021745,1146
1906.9080727043415,1181
1908.869395949332,1142
1910.8302357018065,1092
1912.790592226504,1127
1914.7504657882428,1149
1916.7098566519212,1179
1918.6687650825133,1123
1920.6271913450764,1123
1922.5851357047422,1120
1924.5425984267245,1131
1926.499579776314,1111
1928.4560800188833,1140
1930.4120994198802,1145
1932.367638244833,1116
1934.32269675935,1164
1936.2772752291175,1144
1938.231373919899,1178
1940.1849930975404,1147
1942.1381330279637,1143
1944.0907939771696,1152
1946.0429762112412,1161
1947.9946799963363,1109
1949.9459055986945,1122
1951.896653284633,1142
1953.8469233205478,1135
1955.7967159729142,1132
1957.7460315082863,1130
1959.6948701932974,1132
1961.6432322946594,1105
1963.5911180791632,1125
1965.5385278136787,1127
1967.4854617651545,1136
1969.4319202006182,1094
1971.377903387176,1132
1973.3234115920136,1107
1975.268445082395,1098
1977.2130041256642,1082
1979.1570889892423,1066
1981.1006999406304,1098
1983.04383724741,1130
1984.986501177238,1123
1986.928691997853,1087
1988.8704099770712,1119
1990.811655382789,1098
1992.7524284829801,1126
1994.692729545698,1095
1996.6325588390755,1101
1998.5719166313224,1106
2000.5108031907307,1093
2002.4492187856677,1114
2004.387163684583,1048
2006.3246381560011,1100
2008.2616424685298,1104
2010.1981768908527,1113
2012.1342416917332,1136
2014.069837140014,1085
2016.0049635046162,1099
2017.9396210545406,1081
2019.8738100588666,1086
2021.8075307867502,1108
2023.740783507431,1072
2025.6735684902228,1097
2027.6058860045214,1056
2029.5377363198004,1090
2031.4691197056118,1126
2033.4000364315875,1107
2035.3304867674374,1105
2037.260470982952,1092
2039.189989347998,1112
2041.1190421325232,1105
2043.047629606554,1065
2044.9757520401945,1067
2046.9034097036288,1067
2048.8306028671195,1049
2050.7573318010086,1073
2052.683596775716,1129
2054.609398061742,1126
2056.5347359296647,1073
2058.4596106501403,1062
2060.384022493906,1081
2062.3079717317764,1076
2064.231458634646,1114
2066.1544834734873,1076
2068.077046519352,1115
2069.99914804337,1106
2071.9207883167524,1149
2073.8419676107865,1111
2075.7626861968406,1075
2077.6829443463607,1096
2079.6027423308715,1072
2081.522080421977,1102
2083.440958891362,1062
2085.359378010786,1135
2087.2773380520907,1068
2089.194839287196,1066
2091.111881988101,1095
2093.0284664268825,1122
2094.9445928756973,1111
2096.86026160678,1084
2098.775472892446,1082
2100.690227005088,1076
2102.604524217178,1071
2104.5183648012676,1124
2106.431749029985,1114
2108.34467717604,1098
2110.2571495122206,1072
2112.169166311393,1089
2114.080727846503,1051
2115.9918343905747,1049
2117.902486216711,1086
2119.8126835980956,1050
2121.722426807987,1060
2123.6317161197285,1080
2125.5405518067364,1083
2127.448934142509,1086
2129.356863400624,1092
2131.264339854737,1124
2133.1713637785815,1138
2135.077935445972,1065
2136.9840551308002,1102
2138.889723107037,1125
2140.7949396487334,1062
2142.699705030018,1080
2144.6040195250994,1094
2146.507883408264,1086
2148.4112969538774,1060
2150.3142604363848,1106
2152.2167741303097,1071
2154.1188383102535,1066
2156.0204532508997,1069
2157.9216192270064,1078
2159.822336513414,1063
2161.7226053850413,1091
2163.622426116884,1076
2165.5217989840185,1083
2167.4207242616,1110
2169.319202224862,1067
2171.2172331491165,1122
2173.1148173097563,1079
2175.0119549822507,1089
2176.90864644215,1095
2178.8048919650823,1112
2180.7006918267534,1099
2182.596046302952,1073
2184.4909556695407,1085
2186.3854202024645,1107
2188.279440177746,1057
2190.173015871487,1086
2192.066147559868,1086
2193.958835519149,1118
2195.851080025667,1089
2197.7428813558417,1066
2199.6342397861667,1088
2201.5251555932186,1085
2203.415629053651,1094
2205.3056604441986,1090
2207.19525004167,1100
2209.084398122958,1116
2210.9731049650327,1078
2212.861370844941,1092
2214.749196039812,1065
2216.636580826851,1114
2218.523525483344,1107
2220.410030286655,1099
2222.296095514226,1083
2224.1817214435805,1092
2226.066908352319,1061
2227.951656518121,1058
2229.835966218746,1091
2231.71983773203,1091
2233.6032713358913,1135
2235.486267308324,1063
2237.3688259274036,1102
2239.2509474712824,1094
2241.132632218193,1074
2243.013880446447,1091
2244.8946924344323,1085
2246.7750684606203,1077
2248.6550088035574,1045
2250.534513741871,1146
2252.413583554265,1067
2254.292218519526,1090
2256.170418916517,1049
2258.0481850241786,1074
2259.925517121534,1069
2261.8024154876825,1097
2263.678880401803,1100
2265.5549121431536,1047
2267.430510991071,1103
2269.305677224971,1055
2271.180411124348,1066
2273.0547129687766,1134
2274.9285830379076,1111
2276.8020216114737,1113
2278.6750289692845,1072
2280.5476053912294,1113
2282.4197511572766,1114
2284.2914665474727,1113
2286.162751841943,1088
2288.0336073208937,1077
2289.904033264608,1086
2291.774029953448,1075
2293.6435976678554,1071
2295.5127366883517,1103
2297.381447295534,1075
2299.2497297700825,1108
2301.1175843927526,1072
2302.9850114443825,1111
2304.852011205885,1099
2306.7185839582553,1092
2308.5847299825664,1088
2310.4504495599676,1099
2312.3157429716925,1065
2314.1806104990483,1172
2316.0450524234247,1083
2317.9090690262888,1114
2319.772660589186,1090
2321.635827393742,1101
2323.498569721661,1111
2325.3608878547248,1106
2327.2227820747967,1157
2329.0842526638157,1112
2330.945299903803,1060
2332.805924076857,1149
2334.6661254651535,1050
2336.525904350951,1070
2338.3852610165827,1103
2340.244195744464,1083
2342.102708817088,1082
2343.9608005170253,1132
2345.8184711269287,1108
2347.675720929526,1127
2349.532550207628,1122
2351.38895924412,1099
2353.24494832197,1081
2355.100517724223,1070
2356.955667734004,1074
2358.810398634514,1077
2360.664710709037,1132
2362.5186042409337,1135
2364.3720795136437,1120
2366.225136810686,1140
2368.0777764156583,1121
2369.929998612237,1118
2371.7818036841777,1067
2373.633191915315,1096
2375.484163589562,1117
2377.3347189909114,1125
2379.184858403434,1075
2381.03458211128,1114
2382.8838903986775,1168
2384.732783549936,1083
2386.5812618494406,1104
2388.4293255816588,1090
2390.2769750311327,1071
2392.1242104824883,1144
2393.971032220427,1146
2395.8174405297295,1186
2397.6634356952563,1093
2399.509018001947,1129
2401.3541877348193,1114
2403.1989451789705,1141
2405.043290619576,1145
2406.8872243418905,1144
2408.730746631247,1145
2410.5738577730594,1098
2412.4165580528183,1130
2414.258847756095,1159
2416.100727168537,1153
2417.9421965758734,1195
2419.783256263912,1145
2421.623906518538,1153
2423.4641476257157,1165
2425.303979871491,1134
2427.143403541984,1181
2428.9824189233977,1165
2430.821026302012,1172
2432.6592259641866,1129
2434.497018196361,1195
2436.33440328505,1129
2438.171381516851,1172
2440.00795317844,1133
2441.844118556569,1177
2443.6798779380724,1167
2445.5152316098606,1147
2447.3501798589255,1074
2449.1847229723357,1194
2451.0188612372403,1132
2452.8525949408663,1118
2454.6859243705203,1108
2456.518849813587,1186
2458.3513715575314,1139
2460.183489889895,1148
2462.015205098301,1152
2463.8465174704493,1125
2465.67742729412,1141
2467.5079348571717,1167
2469.338040447542,1164
2471.1677443532476,1156
2472.9970468623833,1183
2474.825948263123,1141
2476.6544488437207,1106
2478.482548892508,1101
2480.310248697896,1177
2482.137548548374,1156
2483.9644487325118,1164
2485.790949538956,1173
2487.617051256433,1148
2489.44275417375,1145
2491.26805857979,1134
2493.0929647635157,1211
2494.917473013971,1142
2496.741583620276,1169
2498.5652968716304,1175
2500.3886130573137,1140
2502.2115324666834,1198
2504.0340553891765,1146
2505.856182114308,1147
2507.6779129316733,1159
2509.499248130945,1194
2511.3201880018764,1174
2513.140732834298,1179
2514.9608829181198,1153
2516.780638543331,1151
2518.6,1152
2520.418967578273,1154
2522.237541568376,1170
2524.0557222606144,1174
2525.8735099453706,1170
2527.6909049131086,1168
2529.507907454368,1202
2531.32451785977,1190
2533.140736420014,1256
2534.9565634258774,1225
2536.771999168218,1213
2538.5870439379714,1197
2540.4016980261526,1213
2542.2159617238544,1202
2544.02983532225,1245
2545.8433191125914,1259
2547.656413386209,1240
2549.4691184345115,1278
2551.2814345489874,1240
2553.093362021204,1247
2554.904901142808,1256
2556.716052205523,1247
2558.526815501153,1270
2560.3371913215824,1275
2562.147179958771,1326
2563.956781704761,1284
2565.7659968516705,1332
2567.5748256916986,1263
2569.3832685171224,1358
2571.1913256202984,1313
2572.9989972936614,1313
2574.806283829725,1307
2576.613185521084,1283
2578.4197026604074,1293
2580.2258355404483,1281
2582.031584454035,1328
2583.836949694077,1357
2585.6419315535613,1372
2587.4465303255533,1276
2589.2507463032002,1414
2591.0545797797245,1330
2592.8580310484303,1361
2594.6611004026995,1349
2596.463788135992,1318
2598.266094541849,1352
2600.0680199138874,1292
2601.869564545807,1384
2603.670728731383,1386
2605.4715127644704,1339
2607.2719169390048,1380
2609.071941548998,1283
2610.8715868885433,1345
2612.670853251811,1319
2614.469740933052,1338
2616.268250226594,1346
2618.0663814268455,1356
2619.864134828292,1314
2621.6615107255006,1362
2623.458509413115,1332
2625.2551311858597,1337
2627.0513763385347,1331
2628.8472451660223,1318
2630.6427379632833,1262
2632.4378550253564,1289
2634.232596647359,1305
2636.026963124488,1302
2637.8209547520187,1191
2639.6145718253065,1295
2641.407814639785,1273
2643.200683490966,1272
2644.9931786744414,1279
2646.7853004858807,1263
2648.577049221034,1231
2650.3684251757277,1215
2652.1594286458712,1293
2653.9500599274484,1276
2655.740319316525,1212
2657.5302071092437,1267
2659.3197236018286,1299
2661.10886909058,1219
2662.8976438718782,1210
2664.686048242183,1179
2666.4740824980327,1263
2668.2617469360443,1222
2670.0490418529134,1201
2671.8359675454153,1232
2673.622524310403,1204
2675.408712444811,1179
2677.1945322456495,1188
2678.979984010009,1190
2680.76506803506,1200
2682.5497846180497,1189
2684.334134056306,1186
2686.1181166472343,1241
2687.9017326883213,1147
2689.6849824771293,1161
2691.4678663113013,1136
2693.2503844885596,1153
2695.032537306705,1125
2696.8143250636167,1155
2698.5957480572542,1140
2700.3768065856534,1131
2702.1575009469316,1223
2703.937831439283,1109
2705.717798360982,1104
2707.4974020103837,1155
2709.276642685917,1102
2711.055520686095,1116
2712.834036309506,1162
2714.612189854819,1110
2716.389981620782,1106
2718.1674119062204,1136
2719.944481010041,1124
2721.721189231226,1096
2723.4975368688415,1136
2725.273524222027,1082
2727.0491515900053,1095
2728.824419272075,1118
2730.5993275676146,1174
2732.3738767760838,1100
2734.148067197016,1077
2735.921899130031,1128
2737.6953728748194,1112
2739.468488731156,1076
2741.2412469988926,1125
2743.0136479779617,1091
2744.785691968372,1131
2746.5573792702116,1074
2748.3287101836504,1114
2750.099685008934,1104
2751.870304046388,1113
2753.640567596418,1087
2755.4104759595057,1048
2757.1800294362156,1064
2758.949228327187,1105
2760.7180729331412,1105
2762.486563554877,1082
2764.254700493272,1101
2766.022484049284,1099
2767.789914523947,1064
2769.5569922183786,1109
2771.3237174337705,1086
2773.090090471394,1090
2774.8561116326036,1094
2776.6217812188274,1099
2778.3870995315756,1096
2780.1520668724356,1077
2781.9166835430747,1064
2783.6809498452394,1054
2785.444866080754,1086
2787.2084325515225,1077
2788.971649559527,1073
2790.73451740683,1058
2792.4970363955713,1118
2794.2592068279705,1079
2796.0210290063264,1089
2797.7825032330147,1095
2799.543629810493,1085
2801.304409041296,1066
2803.0648412280366,1067
2804.8249266734088,1071
2806.5846656801846,1106
2808.344058551212,1093
2810.1031055894246,1106
2811.8618070978273,1067
2813.6201633795085,1094
2815.378174737636,1098
2817.1358414754536,1085
2818.893163896285,1062
2820.6501423035334,1078
2822.4067770006814,1110
2824.1630682912883,1113
2825.9190164789957,1135
2827.6746218675207,1077
2829.429884760661,1095
2831.184805462294,1064
2832.9393842763743,1083
2834.693621506936,1090
2836.4475174580916,1153
2838.201072434034,1092
2839.954286739034,1119
2841.707160677441,1080
2843.459694553685,1093
2845.2118886722724,1028
2846.96374333779,1131
2848.7152588549034,1104
2850.4664355283567,1060
2852.217273662973,1063
2853.9677735636546,1093
2855.7179355353833,1049
2857.4677598832186,1052
2859.217246912299,1055
2860.9663969278427,1073
2862.715210235146,1080
2864.4636871395846,1103
2866.211827946614,1107
2867.9596329617652,1076
2869.7071024906536,1052
2871.4542368389684,1021
2873.20103631248,1064
2874.947501217038,1094
2876.6936318585695,1083
2878.4394285430812,1064
2880.1848915766604,1068
2881.9300212654707,1152
2883.6748179157553,1066
2885.4192818338374,1115
2887.1634133261173,1083
2888.907212699077,1053
2890.6506802592744,1069
2892.393816313348,990
2894.1366211680142,1044
2895.8790951300693,1124
2897.621238506388,1100
2899.363051603925,1085
2901.1045347297118,1075
2902.8456881908596,1071
2904.58651229456,1092
2906.327007348081,1064
2908.067173658772,1075
2909.8070115340597,1047
2911.5465212814497,1096
2913.285703208527,1089
2915.0245576229563,1010
2916.7630848324807,1078
2918.5012851449196,1053
2920.2391588681758,1039
2921.976706310227,1076
2923.7139277791334,1087
2925.4508235830313,1057
2927.187394030137,1071
2928.923639428745,1039
2930.6595600872306,1053
2932.395156314046,1100
2934.1304284177218,1090
2935.8653767068713,1077
2937.6000014901815,1088
2939.3343030764227,1127
2941.068281774442,1094
2942.8019378931644,1094
2944.5352717415976,1058
2946.2682836288236,1087
2948.0009738640065,1083
2949.7333427563885,1102
2951.465390615289,1046
2953.1971177501086,1015
2954.9285244703265,1049
2956.6596110855,1063
2958.3903779052657,1069
2960.1208252393385,1086
2961.8509533975125,1046
2963.5807626896617,1104
2965.3102534257378,1037
2967.0394259157715,1094
2968.768280469873,1082
2970.496817398232,1081
2972.2250370111146,1099
2973.952939618869,1033
2975.6805255319196,1103
2977.4077950607707,1073
2979.134748516006,1098
2980.861386208289,1079
2982.587708448359,1065
2984.313715547037,1078
2986.039407815222,1088
2987.764785563891,1061
2989.489849104102,1049
2991.2145987469908,1106
2992.9390348037705,1085
2994.6631575857346,1055
2996.3869674042576,1078
2998.1104645707887,1078
2999.83364939686,1062
3001.5565221940783,1037
3003.2790832741334,1067
3005.0013329487924,1041
3006.7232715298996,1022
3008.4448993293804,1084
3010.166216659239,1113
3011.887223831558,1090
3013.607921158498,1077
3015.3283089522993,1011
3017.0483875252826,1072
3018.7681571898443,1024
3020.4876182584626,1041
3022.2067710436927,1077
3023.9256158581707,1017
3025.644153014609,1021
3027.362382825801,1072
3029.0803056046193,1082
3030.797921664012,1037
3032.5152313170106,1094
3034.2322348767225,1062
3035.9489326563353,1032
3037.665324969115,1020
3039.3814121284063,1074
3041.097194447633,1072
3042.812672240299,1070
3044.5278458199855,995
3046.2427155003525,1099
3047.9572815951406,1062
3049.671544418167,1126
3051.38550428333,1032
3053.0991615046073,1051
3054.812516396051,1058
3056.5255692717974,1083
3058.2383204460575,1062
3059.9507702331257,1105
3061.662918947372,1105
3063.3747669032446,1062
3065.0863144152736,1072
3066.7975617980674,1065
3068.508509366309,1084
3070.219157434767,1082
3071.9295063182844,1046
3073.639556331785,1031
3075.3493077902704,1046
3077.058761008821,1082
3078.7679163025964,1038
3080.476773986837,1054
3082.1853343768594,1026
3083.89359778806,1064
3085.6015645359153,1070
3087.3092349359786,1058
3089.016609303884,1110
3090.7236879553434,1018
3092.4304712061476,1043
3094.136959372166,1122
3095.843152769349,1031
3097.5490517137237,1012
3099.2546565213966,1021
3100.959967508554,1019
3102.66498499146,1058
3104.3697092864577,1040
3106.0741407099695,1050
3107.778279578498,1063
3109.482126208622,1067
3111.1856809170004,1042
3112.8889440203716,1047
3114.5919158355528,1091
3116.294596679439,1089
3117.996986869006,1032
3119.6990867213062,1150
3121.4008965534726,1088
3123.102416682717,1033
3124.803647426329,1059
3126.5045891016784,1094
3128.205242026213,1065
3129.90560651746,1081
3131.605682893025,1077
3133.3054714705922,1042
3135.0049725679282,1081
3136.7041865028714,1110
3138.4031135933465,1065
3140.101754157353,1055
3141.800108512971,1088
3143.498176978357,1067
3145.1959598717494,1069
3146.8934575114636,1031
3148.5906702158954,1019
3150.2875983035183,1067
3151.9842420928853,1043
3153.680601902627,1049
3155.376678051456,1055
3157.07247085816,1045
3158.767980641609,1067
3160.463207720748,1108
3162.158152414606,1064
3163.8528150422862,1024
3165.5471959229726,1033
3167.2412953759303,1016
3168.9351137204976,1035
3170.628651276098,1044
3172.3219083622307,1057
3174.014885298474,1075
3175.707582404485,1077
3177.4000000000005,1066
3179.092138404835,1052
3180.7839979388846,1104
3182.47557892212,1024
3184.166881674594,1066
3185.8579065164386,1050
3187.5486537678626,1025
3189.2391237491547,1060
3190.9293167806827,1045
3192.6192331828934,1029
3194.3088732763117,1051
3195.998237381542,1045
3197.687325819268,1036
3199.376138910251,1050
3201.064676975334,1006
3202.7529403354347,1080
3204.4409293115523,1074
3206.1286442247647,1095
3207.816085396229,1065
3209.5032531471825,1063
3211.190147798936,1067
3212.8767696728846,1047
3214.5631190905015,1055
3216.2491963733373,1056
3217.9350018430214,1027
3219.6205358212637,1064
3221.305798629851,1057
3222.990790590651,1039
3224.6755120256103,987
3226.359963256751,1005
3228.0441446061795,1030
3229.7280563960758,1007
3231.411698948703,1023
3233.0950725863995,1036
3234.778177631587,1037
3236.461014406761,1030
3238.1435832345005,1038
3239.8258844374595,1063
3241.507918338374,1045
3243.1896852600576,1078
3244.8711855254023,1068
3246.552419457381,1026
3248.233387379042,1037
3249.914089613516,1000
3251.59452648401,1033
3253.274698313813,1041
3254.95460542629,1046
3256.6342481448855,1067
3258.313626793125,1003
3259.9927416946084,1034
3261.6715931730196,1082
3263.3501815521176,1000
3265.0285071557437,1010
3266.706570307815,1063
3268.3843713323286,1040
3270.0619105533615,1020
3271.739188295068,1034
3273.4162048816834,1092
3275.0929606375184,1046
3276.769455886966,1073
3278.445690954498,1072
3280.1216661646613,1042
3281.797381842087,1028
3283.4728383114807,1043
3285.1480358976296,1046
3286.8229749253996,1019
3288.4976557197333,1095
3290.172078605655,1063
3291.846243908266,1023
3293.5201519527463,1069
3295.193803064357,989
3296.8671975684374,1022
3298.5403357904024,1002
3300.21321805575,1019
3301.8858446900567,1029
3303.558216018975,1071
3305.23033236824,996
3306.9021940636603,1085
3308.57380143113,988
3310.2451547966184,1061
3311.916254486174,1107
3313.5871008259246,1021
3315.2576941420766,1018
3316.9280347609147,975
3318.5981230088046,1002
3320.2679592121895,1030
3321.9375436975924,1035
3323.606876791612,1023
3325.27595882093,1054
3326.944790112305,1022
3328.6133709925753,1042
3330.2817017886573,1015
3331.949782827547,978
3333.617614436319,1052
3335.2851969421245,1022
3336.952530672199,1030
3338.619615953853,1074
3340.286453114475,1019
3341.9530424815357,1024
3343.619384382583,1054
3345.2854791452437,1055
3346.951327097224,1052
3348.6169285663073,1030
3350.2822838803577,1055
3351.947393367319,1033
3353.61225735521,1077
3355.2768761721345,1026
3356.9412501462693,1013
3358.605379605873,996
3360.2692648792827,1054
3361.9329062949146,958
3363.596304181263,950
