CollectionTime,6/26/2024 4:05:14 PM
ExposureUsed,3
CalibratedSpectrum
-962.7078968117929,3429
-959.9714848408522,3725
-957.2358232597828,3539
-954.5009119013725,3628
-951.7667505983302,3691
-949.0333391832855,3561
-946.3006774887896,3709
-943.5687653473143,3604
-940.837602591253,3699
-938.1071890529199,3686
-935.3775245645503,3592
-932.6486089583007,3694
-929.9204420662485,3737
-927.1930237203925,3710
-924.4663537526524,3607
-921.7404319948689,3708
-919.0152582788041,3731
-916.2908324361409,3810
-913.5671542984834,3649
-910.8442236973568,3688
-908.1220404642074,3629
-905.4006044304027,3739
-902.679915427231,3612
-899.959973285902,3671
-897.2407778375464,3727
-894.5223289132158,3734
-891.8046263438832,3627
-889.0876699604426,3669
-886.3714595937089,3654
-883.6559950744183,3689
-880.9412762332282,3687
-878.2273029007168,3677
-875.5140749073835,3683
-872.8015920836489,3727
-870.0898542598545,3709
-867.3788612662631,3659
-864.6686129330585,3660
-861.9591090903457,3650
-859.2503495681506,3776
-856.5423341964203,3709
-853.8350628050229,3740
-851.1285352237478,3734
-848.4227512823054,3815
-845.7177108103272,3718
-843.0134136373656,3743
-840.3098595928943,3702
-837.6070485063082,3763
-834.9049802069229,3645
-832.2036545239757,3694
-829.5030712866244,3662
-826.8032303239481,3746
-824.1041314649472,3741
-821.4057745385428,3694
-818.7081593735775,3651
-816.0112857988148,3856
-813.3151536429393,3796
-810.6197627345566,3721
-807.9251129021936,3736
-805.2312039742981,3802
-802.5380357792392,3806
-799.8456081453069,3768
-797.1539209007124,3795
-794.462973873588,3840
-791.772766891987,3729
-789.083299783884,3836
-786.3945723771743,3762
-783.7065844996748,3774
-781.0193359791231,3814
-778.3328266431781,3864
-775.6470563194197,3634
-772.9620248353489,3768
-770.2777320183878,3727
-767.5941776958798,3829
-764.9113616950891,3810
-762.2292838432011,3787
-759.5479439673222,3846
-756.8673418944801,3787
-754.1874774516235,3840
-751.5083504656222,3757
-748.8299607632671,3889
-746.15230817127,3835
-743.475392516264,3788
-740.7992136248035,3775
-738.1237713233636,3850
-735.4490654383407,3746
-732.7750957960521,3800
-730.1018622227365,3843
-727.4293645445534,3884
-724.7576025875837,3916
-722.0865761778291,3890
-719.4162851412126,3937
-716.7467293035781,3882
-714.0779084906909,3895
-711.409822528237,3938
-708.7424712418238,3884
-706.0758544569796,3892
-703.4099719991541,3841
-700.7448236937178,3883
-698.0804093659622,3864
-695.4167288411002,4004
-692.7537819442656,3926
-690.0915685005134,3800
-687.4300883348199,3840
-684.7693412720819,3857
-682.1093271371178,3876
-679.4500457546669,3935
-676.7914969493897,3823
-674.1336805458676,3863
-671.4765963686034,3905
-668.8202442420206,3936
-666.1646239904642,3911
-663.5097354382001,3920
-660.8555784094151,3935
-658.2021527282176,3873
-655.5494582186366,3940
-652.8974947046223,3964
-650.2462620100463,3899
-647.5957599587009,3880
-644.9459883742998,4083
-642.2969470804776,3944
-639.6486359007902,4057
-637.0010546587141,4028
-634.3542031776476,3972
-631.7080812809096,3968
-629.0626887917401,4029
-626.4180255333008,4081
-623.7740913286734,3964
-621.1308860008619,3951
-618.4884093727904,4169
-615.8466612673046,4057
-613.2056415071715,3917
-610.5653499150785,4000
-607.9257863136347,3970
-605.28695052537,4093
-602.6488423727357,4050
-600.0114616781036,3989
-597.3748082637674,4062
-594.7388819519412,4061
-592.1036825647604,4027
-589.4692099242818,4080
-586.8354638524829,4130
-584.2024441712624,4049
-581.5701507024403,4009
-578.9385832677575,4108
-576.3077416888759,4083
-573.6776257873787,4143
-571.0482353847704,4073
-568.4195703024757,4113
-565.7916303618415,4095
-563.164415384135,4053
-560.5379251905453,4123
-557.9121596021815,4171
-555.2871184400748,4108
-552.6628015251767,4107
-550.0392086783606,4154
-547.4163397204204,4111
-544.794194472071,4051
-542.1727727539491,4107
-539.5520743866118,4107
-536.9320991905377,4065
-534.3128469861261,4142
-531.6943175936979,4254
-529.0765108334947,4184
-526.4594265256793,4193
-523.8430644903358,4317
-521.2274245474689,4450
-518.612506517005,4409
-515.9983102187913,4590
-513.3848354725959,4812
-510.77208209810846,4903
-508.16004991493924,4907
-505.5487387426199,4867
-502.9381484006032,5021
-500.3282787082628,5076
-497.71912948489364,5090
-495.1107005497117,4955
-492.5029917218539,4869
-489.8960028203786,4584
-487.28973366426493,4556
-484.68418407241325,4375
-482.07935386364494,4383
-479.47524285670266,4346
-476.87185087025,4368
-474.2691777228715,4467
-471.66722323307334,4366
-469.0659872192821,4406
-466.4654694998459,4367
-463.86566989303384,4297
-461.26658821703614,4416
-458.66822428996414,4263
-456.07057792985,4296
-453.4736489546475,4351
-450.877437182231,4262
-448.28194243039627,4325
-445.68716451686,4278
-443.09310325926003,4310
-440.49975847515555,4193
-437.9071299820263,4070
-435.31521759727354,4172
-432.72402113821954,4278
-430.13354042210767,4232
-427.5437752661022,4245
-424.95472548728867,4087
-422.36639090267386,4275
-419.7787713291855,4348
-417.1918665836721,4327
-414.60567648290385,4340
-412.0202008435715,4315
-409.4354394822874,4185
-406.8513922155845,4257
-404.26805885991723,4367
-401.685439231661,4388
-399.103533147112,4294
-396.522340422488,4189
-393.9418608739278,4133
-391.3620943174908,3989
-388.7830405691583,3875
-386.2046994448317,3629
-383.6270707603344,3303
-381.05015433141045,3029
-378.473949973725,2801
-375.8984575028645,2564
-373.32367673433623,2150
-370.74960748356875,1917
-368.1762495659117,1637
-365.60360279663576,1462
-363.03166699093265,1163
-360.4604419639154,1012
-357.8899275306178,867
-355.32012350599507,719
-352.7510297049233,673
-350.1826459421999,596
-347.61497203254316,570
-345.04800779059235,556
-342.4817530309082,518
-339.91620756797226,483
-337.35137121618743,497
-334.7872437898774,490
-332.22382510328725,512
-329.66111497058273,543
-327.09911320585127,527
-324.53781962310075,535
-321.9772340362607,525
-319.4173562591816,514
-316.8581861056348,530
-314.2997233893127,553
-311.7419679238294,579
-309.1849195227194,573
-306.62857799943856,521
-304.0729431673641,496
-301.51801483979375,512
-298.963792829947,495
-296.41027695096386,506
-293.85746701590574,555
-291.3053628377552,562
-288.7539642294155,530
-286.2032710037115,508
-283.65328297338897,549
-281.1039999511146,562
-278.5554217494762,599
-276.007548180983,552
-273.4603790580651,582
-270.9139141930734,555
-268.3681533982807,568
-265.8230964858798,573
-263.27874326798565,574
-260.7350935566336,593
-258.1921471637804,682
-255.6499039013039,695
-253.10836358100266,658
-250.56752601459698,582
-248.02739101372765,621
-245.48795838995704,625
-242.94922795476816,628
-240.41119951956557,649
-237.8738728956746,695
-235.33724789434166,715
-232.80132432673452,730
-230.2661020039418,863
-227.73158073697357,836
-225.19776033676033,766
-222.66464061415422,717
-220.1322213799284,664
-217.60050244477725,705
-215.06948361931552,721
-212.53916471408013,692
-210.00954553952818,685
-207.48062590603843,670
-204.9524056239104,756
-202.4248845033651,813
-199.8980623545441,714
-197.37193898751036,693
-194.84651421224817,812
-192.32178783866232,818
-189.79775967657952,773
-187.27442953574644,810
-184.7517972258321,815
-182.2298625564256,737
-179.7086253370378,771
-177.18808537710026,764
-174.66824248596583,883
-172.14909647290835,956
-169.6306471471229,924
-167.11289431772548,815
-164.59583779375328,785
-162.07947738416453,811
-159.5638128978386,783
-157.04884414357605,911
-154.53457093009854,921
-152.02099306604828,884
-149.50811035998936,947
-146.99592262040665,1018
-144.48442965570587,956
-141.97363127421409,918
-139.46352728417958,978
-136.95411749377126,850
-134.44540171107985,993
-131.93737974411636,1107
-129.43005140081357,1152
-126.92341648902493,1102
-124.41747481652521,1155
-121.91222619101006,1072
-119.40767042009657,1089
-116.90380731132257,1071
-114.40063667214702,1270
-111.8981583099503,1232
-109.3963720320337,1235
-106.89527764561933,1289
-104.39487495785067,1183
-101.89516377579241,1257
-99.39614390642998,1213
-96.89781515667039,1303
-94.40017733334128,1453
-91.90323024319173,1486
-89.40697369289148,1470
-86.91140748903172,1444
-84.41653143812482,1427
-81.92234534660395,1427
-79.42884902082358,1451
-76.93604226705907,1394
-74.4439248915071,1479
-71.95249670028534,1447
-69.46175749943245,1730
-66.97170709490854,1786
-64.48234529259423,2174
-61.99367189829195,2338
-59.50568671772464,2166
-57.01838955653636,2408
-54.53178022029283,2584
-52.045858514480074,2546
-49.560624244506016,2726
-47.07607721569923,2538
-44.59221723330904,2679
-42.10904410250669,2470
-39.62655762838392,2676
-37.14475761595372,3741
-34.66364387015028,4262
-32.18321619582866,4368
-29.70347439776515,5101
-27.224418280657005,5703
-24.74604764912317,7984
-22.26836230770266,13333
-19.7913620608565,22456
-17.315046712966478,33919
-14.83941606833514,37585
-12.36446993118659,65038
-9.89020810566592,65038
-7.416630395839093,65038
-4.94373660569363,65038
-2.471526539137585,65038
-6.821210263296962E-13,65038
2.47084320796705,65038
4.941003281093458,65038
7.410480415786196,65038
9.879274808531363,65038
12.347386655893956,65038
14.814816154518212,65038
17.28156350112681,65038
19.74762889252179,65038
22.21301252558385,65038
24.67771459727237,65038
27.141735304626195,25727
29.605074844762612,14959
32.06773341487792,13234
34.52971121224755,10055
36.99100843422559,7666
39.45162527824516,5586
41.91156194181792,5335
44.370818622535126,6745
46.82939551806646,7868
49.287292826160524,9103
51.74451074464503,9206
54.201049471426245,8840
56.65690920448981,6760
59.112090141899785,3600
61.56659248179983,2851
64.02041642241159,2885
66.4735621620365,2825
68.92602989905402,2301
71.37781983192338,2101
73.82893215918205,1819
76.27936707944684,1644
78.72912479141326,2213
81.17820549385567,2545
83.62660938562783,2499
86.07433666566146,2028
88.5213875329681,2128
90.96776218663751,2309
93.41346082583925,1823
95.85848364982041,1723
98.30283085790859,1548
100.7465026495089,1653
103.18949922410604,1742
105.63182078126385,1801
108.07346752062438,1844
110.51443964190923,1579
112.95473734491827,1426
115.39436082953114,1383
117.83331029570547,1555
120.27158594347827,1535
122.7091879729652,1532
125.1461165843615,1305
127.58237197794062,1176
130.01795435405518,1020
132.4528639131364,1166
134.88710085569494,1331
137.32066538231982,1294
139.75355769367923,1263
142.1857779905207,1353
144.61732647366978,1490
147.04820334403132,1372
149.47840880258934,1459
151.90794305040674,1797
154.33680628862487,2136
156.76499871846443,2168
159.19252054122433,2379
161.61937195828352,2697
164.04555317109896,2856
166.47106438120693,3274
168.89590579022217,3689
171.320077599839,3881
173.7435800118302,4170
176.16641322804742,4416
178.58857745042144,4599
181.01007288096173,4634
183.43089972175687,4951
185.85105817497413,5446
188.27054844285988,5262
190.6893707277394,5452
193.10752523201643,5549
195.5250121581745,5878
197.9418317087751,6103
200.3579840864594,5955
202.7734694939469,5988
205.18828813403627,6047
207.6024402096051,6121
210.01592592360964,6187
212.42874547908548,6284
214.84089907914665,6027
217.2523869269868,6262
219.66320922587727,6229
222.0733661791695,6258
224.48285799029293,6322
226.8916848627572,6473
229.29984700014882,6507
231.7073446061355,6505
234.11417788446204,6519
236.520347038953,6510
238.92585227351185,6762
241.33069379212054,6850
243.73487179884035,6826
246.1383864978112,6871
248.541238093252,6674
250.9434267894609,6842
253.34495279081432,6713
255.74581630176783,6937
258.1460175268563,7022
260.54555667069314,7075
262.9444339379703,7006
265.3426495334594,6791
267.7402036620107,6721
270.1370965285529,6610
272.53332833809407,6645
274.9288992957214,6581
277.32380960660055,6566
279.718059475976,6500
282.1116491091717,6276
284.5045787115897,6335
286.89684848871195,6397
289.2884586460981,6469
291.67940938938807,6359
294.0697009242996,6446
296.4593334566299,6418
298.84830719225477,6461
301.23662233712923,6376
303.6242790972866,6366
306.01127767884,6459
308.39761828798066,6473
310.78330113097934,6467
313.16832641418534,6278
315.5526943440269,6381
317.9364051270112,6341
320.3194589697242,6327
322.70185607883093,6145
325.0835966610754,6149
327.4646809232805,6255
329.8451090723478,6210
332.2248813152577,6330
334.6039978590701,6114
336.9824589109231,6258
339.36026467803447,6099
341.7374153677,6059
344.113911187295,6066
346.48975234427337,6115
348.8649390461686,6184
351.2394715005918,6123
353.61334991523415,6231
355.9865744978655,6032
358.35914545633375,6108
360.73106299856715,6190
363.10232733257146,6109
365.47293866643247,6027
367.84289720831396,6123
370.2122031664593,6148
372.5808567491905,6009
374.9488581649083,6066
377.31620762209275,6082
379.6829053293021,6137
382.0489514951745,6047
384.4143463284262,6011
386.7790900378528,6127
389.14318283232853,6071
391.50662492080653,6049
393.86941651231916,6046
396.23155781597745,6123
398.5930490409713,6029
400.9538903965696,5926
403.3140820921202,5865
405.6736243370498,6037
408.03251734086336,5944
410.3907613131465,5975
412.74835646356166,5965
415.10530300185144,6116
417.4616011378372,6177
419.81725108141893,6095
422.1722530425758,6110
424.5266072313656,6076
426.880313857925,6178
429.2333731324701,6163
431.58578526529516,6040
433.9375504667738,6159
436.2886689473588,6133
438.63914091758113,6159
440.9889665880513,5979
443.33814616945835,5988
445.68667987257015,6109
448.03456790823395,6249
450.3818104873759,6134
452.72840782100013,6017
455.07436012019105,6075
457.41966759611057,6074
459.7643304600007,6015
462.10834892318155,5946
464.4517231970525,5961
466.79445349309174,6050
469.1365400228566,5814
471.4779829979826,6003
473.81878263018564,6066
476.15893913125876,6059
478.4984527130747,6076
480.8373235875855,6073
483.17555196682144,6077
485.5131380628919,6023
487.8500820879857,6229
490.1863842543697,6138
492.52204477439034,6245
494.8570638604725,6463
497.1914417251204,6602
499.52517858091653,6789
501.85827464052306,7005
504.19073011668036,7044
506.5225452222086,7253
508.85372017000566,7327
511.18425517304956,7440
513.514150444396,7495
515.8434061971808,7739
518.1720226446176,8144
520.4999999999999,8518
522.8273384766991,8661
525.1540382881666,8734
527.480099647932,8746
529.8055227696037,8177
532.1303078668694,6980
534.454455153496,6372
536.777964843328,6255
539.1008371502907,5974
541.4230722883866,5923
543.744670471698,5922
546.0656319143858,6100
548.3859568306899,5981
550.7056454349294,6006
553.0246979415016,5932
555.3431145648834,5964
557.6608955196306,5897
559.978041020377,6046
562.2945512818363,5961
564.6104265188006,5865
566.9256669461412,5994
569.2402727788082,5935
571.5542442318302,5920
573.8675815203156,6017
576.1802848594508,5942
578.4923544645015,5983
580.8037905508126,5970
583.114593333807,6002
585.4247630289875,6129
587.7342998519354,5974
590.0432040183106,5980
592.3514757438526,6084
594.6591152443794,5901
596.9661227357875,5974
599.2724984340531,5965
601.578242555231,6111
603.8833553154542,6019
606.1878369309362,6018
608.4916876179676,6014
610.7949075929192,6021
613.0974970722403,6111
615.3994562724587,6044
617.7007854101818,6043
620.0014847020951,6017
622.3015543649641,5961
624.6009946156324,5899
626.8998056710224,6083
629.1979877481361,6027
631.4955410640538,6098
633.7924658359349,6069
636.0887622810175,6022
638.3844306166192,6193
640.6794710601358,6045
642.9738838290426,6081
645.2676691408932,6076
647.5608272133207,6007
649.853358264037,5959
652.1452625108324,6214
654.4365401715764,6121
656.7271914642178,6210
659.0172166067838,6190
661.3066158173809,6076
663.5953893141935,6132
665.8835373154867,6078
668.1710600396028,6042
670.4579577049639,6258
672.7442305300709,6154
675.0298787335033,6106
677.3149025339197,6242
679.599302150058,6162
681.8830778007342,6234
684.1662297048437,6175
686.4487580813608,6068
688.7306631493387,6113
691.0119451279091,6242
693.2926042362834,6147
695.5726406937516,6154
697.8520547196814,6050
700.1308465335215,6305
702.4090163547982,6224
704.6865644031171,6143
706.9634908981619,6205
709.2397960596965,6136
711.5154801075631,6128
713.7905432616823,6142
716.0649857420548,6067
718.3388077687592,6189
720.612009561953,6141
722.8845913418733,6112
725.1565533288352,6175
727.427895743234,6160
729.6986188055427,6311
731.9687227363137,6237
734.238207756178,6237
736.5070740858458,6171
738.7753219461066,6188
741.0429515578281,6139
743.3099631419569,6146
745.5763569195191,6181
747.8421331116193,6192
750.1072919394409,6110
752.3718336242467,6197
754.6357583873777,6113
756.8990664502545,6204
759.1617580343765,6225
761.423833361321,6170
763.6852926527457,6111
765.9461361303862,6255
768.206364016058,6191
770.4659765316536,6230
772.7249738991469,6158
774.9833563405886,6150
777.2411240781092,6087
779.4982773339183,6205
781.7548163303044,6165
784.010741289634,6226
786.2660524343538,6283
788.5207499869881,6201
790.7748341701416,6224
793.0283052064964,6159
795.2811633188143,6159
797.5334087299362,6305
799.7850416627813,6133
802.0360623403484,6281
804.2864709857143,6139
806.5362678220353,6165
808.7854530725468,6376
811.0340269605625,6315
813.2819897094754,6242
815.5293415427581,6175
817.77608268396,6199
820.0222133567116,6287
822.2677337847211,6283
824.5126441917765,6362
826.7569448017433,6340
829.0006358385675,6192
831.2437175262731,6129
833.4861900889629,6377
835.7280537508192,6193
837.9693087361026,6178
840.2099552691533,6145
842.4499935743896,6294
844.689423876309,6262
846.9282463994886,6136
849.1664613685833,6162
851.4040690083276,6231
853.6410695435349,6205
855.877463199097,6151
858.1132501999847,6237
860.3484307712487,6281
862.5830051380175,6084
864.8169735254988,6307
867.0503361589791,6127
869.2830932638243,6277
871.5152450654786,6267
873.7467917894654,6338
875.9777336613873,6317
878.2080709069252,6374
880.4378037518389,6391
882.666932421968,6220
884.8954571432301,6224
887.1233781416219,6251
889.3506956432192,6326
891.5774098741766,6284
893.803521060728,6429
896.0290294291852,6288
898.2539352059397,6145
900.4782386174619,6221
902.7019398903011,6292
904.925039251085,6278
907.147536926521,6384
909.3694331433943,6338
911.59072812857,6273
913.8114221089921,6233
916.0315153116827,6426
918.2510079637437,6253
920.4699002923547,6124
922.6881925247761,6169
924.905884888345,6166
927.1229776104793,6044
929.3394709186747,6134
931.555365040506,6272
933.7706602036275,6138
935.9853566357709,6266
938.1994545647489,6231
940.4129542184515,6266
942.6258558248488,6354
944.8381596119883,6190
947.0498658079974,6245
949.2609746410825,6358
951.4714863395287,6300
953.6814011316998,6341
955.8907192460387,6273
958.0994409110671,6392
960.3075663553858,6258
962.5150958076741,6182
964.7220294966913,6330
966.928367651274,6276
969.1341105003388,6315
971.3392582728806,6209
973.5438111979742,6248
975.747769504772,6141
977.9511334225061,6182
980.153903180487,6352
982.3560790081052,6166
984.5576611348289,6238
986.7586497902058,6294
988.9590452038618,6257
991.158847605503,6174
993.3580572249133,6159
995.5566742919558,6131
997.7546990365728,5993
999.952131688785,6146
1002.1489724786926,6068
1004.3452216364743,6118
1006.5408793923874,6096
1008.7359459767691,6139
1010.9304216200343,6092
1013.1243065526781,6001
1015.3176010052733,6130
1017.510305208472,6129
1019.7024193930064,5980
1021.8939437896848,5847
1024.0848786293977,6145
1026.2752241431122,6035
1028.4649805618747,5977
1030.6541481168115,5949
1032.842727039127,6031
1035.0307175601051,5976
1037.2181199111074,6036
1039.4049343235752,6061
1041.591161029029,5930
1043.7768002590683,6145
1045.9618522453698,6107
1048.1463172196918,6022
1050.3301954138697,6033
1052.513487059818,6049
1054.69619238953,6028
1056.8783116350783,6086
1059.0598450286152,5938
1061.2407928023704,5982
1063.4211551886528,5964
1065.6009324198508,5994
1067.780124728432,5945
1069.9587323469414,6125
1072.1367555080046,6030
1074.314194444325,5943
1076.4910493886855,5909
1078.667320573947,5984
1080.843008233051,5971
1083.0181125990161,5925
1085.1926339049414,5986
1087.3665723840027,5970
1089.5399282694575,5854
1091.7127017946405,5958
1093.8848931929647,5911
1096.0565026979243,5980
1098.2275305430899,5952
1100.3979769621128,5817
1102.567842188722,5940
1104.737126456726,5857
1106.9058300000124,5966
1109.0739530525475,5972
1111.2414958483764,5998
1113.4084586216231,5963
1115.5748416064907,5942
1117.7406450372605,6077
1119.9058691482942,5912
1122.0705141740304,6062
1124.2345803489884,6110
1126.3980679077658,5974
1128.5609770850388,5948
1130.7233081155623,5926
1132.8850612341707,5914
1135.0462366757774,5998
1137.2068346753745,5902
1139.3668554680326,6096
1141.526299288901,5928
1143.68516637321,6088
1145.8434569562655,6048
1148.001171273455,6031
1150.158309560244,5964
1152.3148720521767,6010
1154.470858984876,5915
1156.626270594044,5933
1158.7811071154629,5925
1160.9353687849912,5969
1163.089055838569,5960
1165.242168512213,6018
1167.3947070420209,5962
1169.5466716641677,5847
1171.6980626149075,5834
1173.8488801305748,5814
1175.9991244475814,5937
1178.1487958024186,5901
1180.2978944316555,5909
1182.4464205719428,5867
1184.5943744600072,5944
1186.7417563326567,5822
1188.8885664267755,5988
1191.0348049793297,5999
1193.1804722273619,5989
1195.325568407995,5922
1197.4700937584303,5854
1199.614048515948,5982
1201.7574329179074,5945
1203.900247201746,5829
1206.042491604982,5826
1208.1841663652099,5962
1210.3252717201053,5997
1212.465807907422,5770
1214.6057751649923,5930
1216.7451737307279,6027
1218.8840038426192,5962
1221.0222657387353,6069
1223.1599596572241,5978
1225.2970858363137,5991
1227.4336445143094,6093
1229.5696359295966,5933
1231.705060320639,6013
1233.8399179259786,5987
1235.9742089842384,5886
1238.107933734118,6070
1240.2410924143974,5893
1242.373685263935,5986
1244.5057125216676,6091
1246.6371744266116,6031
1248.7680712178621,5994
1250.898403134593,6041
1253.028170416058,6104
1255.1573733015875,6049
1257.2860120305932,5930
1259.4140868425648,5923
1261.54159797707,6037
1263.6685456737569,5984
1265.7949301723515,5847
1267.9207517126597,6014
1270.046010534565,6131
1272.1707068780306,5961
1274.2948409830983,6012
1276.4184130898889,5991
1278.541423438603,6022
1280.6638722695184,6057
1282.785759822993,6044
1284.9070863394636,6185
1287.0278520594447,6049
1289.1480572235314,6198
1291.2677020723963,6117
1293.3867868467923,6068
1295.5053117875495,6111
1297.623277135579,6178
1299.740683131868,6198
1301.8575300174857,6164
1303.973818033578,6225
1306.0895474213703,6094
1308.2047184221678,6234
1310.3193312773528,6298
1312.4333862283888,6100
1314.5468835168163,6183
1316.659823384255,6229
1318.7722060724045,6221
1320.8840318230418,6279
1322.9953008780249,6183
1325.1060134792888,6115
1327.2161698688478,6268
1329.3257702887959,6377
1331.4348149813054,6189
1333.5433041886276,6291
1335.6512381530933,6185
1337.7586171171101,6123
1339.8654413231675,6119
1341.9717110138317,6158
1344.0774264317488,6176
1346.1825878196432,6004
1348.2871954203192,6120
1350.3912494766587,6019
1352.4947502316231,5969
1354.5976979282532,6075
1356.7000928096686,6060
1358.8019351190665,6173
1360.9032250997243,6068
1363.0039629949988,6140
1365.1041490483235,6130
1367.2037835032133,5989
1369.3028666032606,6253
1371.401398592137,6071
1373.4993797135926,6105
1375.5968102114575,6175
1377.6936903296396,6187
1379.7900203121262,6157
1381.8858004029835,6300
1383.9810308463561,6103
1386.075711886469,6121
1388.1698437676241,6244
1390.2634267342032,6153
1392.356461030667,6187
1394.4489469015557,6064
1396.5408845914872,6066
1398.6322743451592,6108
1400.7231164073469,6237
1402.813411022907,6125
1404.903158436773,6120
1406.9923588939578,6043
1409.0810126395531,6020
1411.1691199187303,6137
1413.2566809767386,6117
1415.343696058907,6170
1417.4301654106425,6054
1419.5160892774315,6074
1421.6014679048399,6053
1423.6863015385125,6118
1425.7705904241707,6182
1427.8543348076178,6216
1429.9375349347342,6178
1432.0201910514802,6134
1434.102303403894,6206
1436.1838722380944,6179
1438.2648978002767,6302
1440.3453803367174,6137
1442.4253200937692,6202
1444.5047173178677,6206
1446.5835722555234,6142
1448.6618851533285,6343
1450.739656257952,6201
1452.8168858161434,6206
1454.8935740747306,6259
1456.96972128062,6259
1459.045327680797,6385
1461.120393522327,6358
1463.1949190523528,6389
1465.2689045180973,6408
1467.3423501668608,6308
1469.415256246024,6372
1471.4876230030463,6495
1473.559450685465,6433
1475.6307395408976,6311
1477.7014898170391,6558
1479.771701761665,6439
1481.8413756226287,6463
1483.9105116478618,6527
1485.9791100853772,6587
1488.0471711832643,6617
1490.1146951896926,6791
1492.1816823529098,6521
1494.2481329212433,6550
1496.3140471430984,6763
1498.3794252669609,6618
1500.4442675413939,6659
1502.5085742150404,6577
1504.572345536622,6662
1506.6355817549388,6693
1508.6982831188702,6637
1510.7604498773744,6514
1512.8220822794883,6708
1514.8831805743293,6747
1516.9437450110909,6689
1519.003775839048,6681
1521.0632733075522,6760
1523.1222376660367,6807
1525.1806691640113,6791
1527.2385680510652,6774
1529.2959345768668,6745
1531.3527689911643,6778
1533.4090715437833,6799
1535.4648424846291,6994
1537.5200820636855,6959
1539.5747905310159,6957
1541.6289681367616,6794
1543.6826151311434,7035
1545.7357317644614,7049
1547.7883182870937,7015
1549.8403749494987,7046
1551.8919020022113,6978
1553.9428996958477,7033
1555.9933682811015,7146
1558.0433080087469,7199
1560.0927191296346,7242
1562.1416018946961,7365
1564.1899565549415,7313
1566.2377833614592,7153
1568.2850825654164,7261
1570.3318544180606,7331
1572.3780991707158,7328
1574.423817074788,7337
1576.4690083817595,7162
1578.5136733431923,7133
1580.5578122107272,6942
1582.601425236085,6906
1584.6445126710646,7027
1586.6870747675434,6749
1588.7291117774776,6619
1590.7706239529034,6597
1592.8116115459347,6568
1594.8520748087658,6522
1596.8920139936686,6583
1598.9314293529933,6458
1600.9703211391711,6273
1603.008689604711,6276
1605.0465350022005,6273
1607.0838575843068,6317
1609.1206576037753,6253
1611.1569353134305,6264
1613.1926909661765,6135
1615.2279248149953,6111
1617.2626371129481,6115
1619.2968281131757,6230
1621.3304980688963,6298
1623.3636472334088,6139
1625.39627586009,6108
1627.428384202396,6189
1629.459972513861,6056
1631.4910410480993,6119
1633.5215900588028,6008
1635.551619799744,5858
1637.5811305247717,5782
1639.6101224878166,5975
1641.6385959428862,6041
1643.6665511440683,5973
1645.693988345528,5974
1647.7209078015112,5976
1649.7473097663405,5910
1651.7731944944203,6038
1653.7985622402307,5976
1655.823413258333,5925
1657.847747803366,5879
1659.8715661300494,5905
1661.8948684931793,5959
1663.9176551476316,5955
1665.9399263483624,5994
1667.9616823504057,5938
1669.982923408873,6060
1672.0036497789574,5866
1674.0238617159293,5848
1676.043559475138,5863
1678.0627433120121,5858
1680.081413482059,5885
1682.0995702408654,5877
1684.117213844096,6004
1686.134344547495,5842
1688.1509626068864,5712
1690.1670682781705,5943
1692.182661817329,5863
1694.1977434804217,5806
1696.2123135235875,5792
1698.226372203043,5947
1700.2399197750851,5885
1702.2529564960905,5849
1704.2654826225112,5874
1706.277498410882,5795
1708.2890041178139,5878
1710.2999999999988,5859
1712.3104863142066,5828
1714.3204633172854,5741
1716.329931266163,5944
1718.3388904178469,5848
1720.3473410294214,5899
1722.3552833580516,5902
1724.3627176609807,5860
1726.3696441955308,5907
1728.3760632191033,5878
1730.3819749891782,5847
1732.3873797633146,5865
1734.3922777991502,5735
1736.3966693544012,5778
1738.4005546868639,5680
1740.4039340544127,5812
1742.406807715001,5792
1744.4091759266616,5873
1746.4110389475054,5819
1748.4123970357223,5819
1750.413250449582,5896
1752.4135994474318,5831
1754.4134442876993,5803
1756.4127852288902,5893
1758.4116225295893,5758
1760.4099564484595,5757
1762.407787244244,5704
1764.405115175764,5810
1766.4019405019203,5784
1768.3982634816916,5765
1770.3940843741357,5740
1772.3894034383907,5827
1774.3842209336717,5900
1776.378537119274,5771
1778.372352254571,5762
1780.3656665990156,5858
1782.3584804121397,5807
1784.3507939535534,5799
1786.3426074829463,5781
1788.3339212600863,5930
1790.3247355448211,5843
1792.3150505970766,5803
1794.3048666768573,5773
1796.2941840442477,5746
1798.2830029594106,5802
1800.2713236825884,5936
1802.2591464741004,5751
1804.2464715943465,5825
1806.2332993038058,5747
1808.2196298630352,5748
1810.2054635326708,5757
1812.190800573428,5792
1814.175641246101,5887
1816.1599858115628,5853
1818.1438345307652,5726
1820.127187664738,5770
1822.1100454745924,5894
1824.092408221516,5880
1826.0742761667766,5749
1828.055649571721,5797
1830.0365286977735,5743
1832.0169138064398,5795
1833.9968051593014,5728
1835.9762030180214,5811
1837.9551076443408,5901
1839.9335193000788,5846
1841.9114382471344,5818
1843.888864747485,5890
1845.8657990631878,5770
1847.842241456378,5834
1849.8181921892697,5630
1851.7936515241558,5667
1853.7686197234098,5816
1855.7430970494815,5767
1857.7170837649014,5610
1859.6905801322787,5733
1861.6635864143004,5876
1863.6361028737338,5760
1865.608129773424,5818
1867.5796673762961,5898
1869.5507159453537,5812
1871.521275743678,5776
1873.4913470344313,5760
1875.4609300808534,5821
1877.4300251462632,5907
1879.3986324940588,5908
1881.366752387717,5868
1883.3343850907936,5822
1885.3015308669228,5922
1887.268189979819,5840
1889.2343626932739,5838
1891.2000492711595,5871
1893.1652499774254,5817
1895.1299650761011,5863
1897.0941948312952,5799
1899.0579395071945,5763
1901.0211993680641,5919
1902.98397467825,5889
1904.9462657021745,5779
1906.9080727043415,5836
1908.869395949332,5862
1910.8302357018065,5744
1912.790592226504,5850
1914.7504657882428,5717
1916.7098566519212,5838
1918.6687650825133,5924
1920.6271913450764,5813
1922.5851357047422,5804
1924.5425984267245,5716
1926.499579776314,5748
1928.4560800188833,5804
1930.4120994198802,5760
1932.367638244833,5896
1934.32269675935,5871
1936.2772752291175,5972
1938.231373919899,5709
1940.1849930975404,5854
1942.1381330279637,5839
1944.0907939771696,5762
1946.0429762112412,5891
1947.9946799963363,5853
1949.9459055986945,5834
1951.896653284633,5738
1953.8469233205478,5843
1955.7967159729142,5830
1957.7460315082863,5788
1959.6948701932974,5919
1961.6432322946594,5801
1963.5911180791632,5775
1965.5385278136787,5811
1967.4854617651545,5888
1969.4319202006182,5916
1971.377903387176,5803
1973.3234115920136,5766
1975.268445082395,5882
1977.2130041256642,5770
1979.1570889892423,5892
1981.1006999406304,5747
1983.04383724741,5783
1984.986501177238,5953
1986.928691997853,5882
1988.8704099770712,5852
1990.811655382789,5887
1992.7524284829801,5720
1994.692729545698,5718
1996.6325588390755,5775
1998.5719166313224,5759
2000.5108031907307,5905
2002.4492187856677,5821
2004.387163684583,5930
2006.3246381560011,5778
2008.2616424685298,5650
2010.1981768908527,5729
2012.1342416917332,5730
2014.069837140014,5814
2016.0049635046162,5795
2017.9396210545406,5850
2019.8738100588666,5855
2021.8075307867502,5771
2023.740783507431,5810
2025.6735684902228,5677
2027.6058860045214,5729
2029.5377363198004,5716
2031.4691197056118,5812
2033.4000364315875,5785
2035.3304867674374,5733
2037.260470982952,5639
2039.189989347998,5820
2041.1190421325232,5743
2043.047629606554,5772
2044.9757520401945,5677
2046.9034097036288,5815
2048.8306028671195,5781
2050.7573318010086,5822
2052.683596775716,5701
2054.609398061742,5745
2056.5347359296647,5929
2058.4596106501403,5819
2060.384022493906,5847
2062.3079717317764,5837
2064.231458634646,5816
2066.1544834734873,5934
2068.077046519352,5761
2069.99914804337,5706
2071.9207883167524,5712
2073.8419676107865,5782
2075.7626861968406,5870
2077.6829443463607,5863
2079.6027423308715,5679
2081.522080421977,5827
2083.440958891362,5663
2085.359378010786,5719
2087.2773380520907,5717
2089.194839287196,5853
2091.111881988101,5679
2093.0284664268825,5670
2094.9445928756973,5795
2096.86026160678,5822
2098.775472892446,5764
2100.690227005088,5660
2102.604524217178,5649
2104.5183648012676,5647
2106.431749029985,5703
2108.34467717604,5968
2110.2571495122206,5829
2112.169166311393,5768
2114.080727846503,5666
2115.9918343905747,5791
2117.902486216711,5770
2119.8126835980956,5856
2121.722426807987,5790
2123.6317161197285,5774
2125.5405518067364,5738
2127.448934142509,5774
2129.356863400624,5726
2131.264339854737,5792
2133.1713637785815,5610
2135.077935445972,5654
2136.9840551308002,5711
2138.889723107037,5795
2140.7949396487334,5790
2142.699705030018,5926
2144.6040195250994,5847
2146.507883408264,5807
2148.4112969538774,5741
2150.3142604363848,5901
2152.2167741303097,5815
2154.1188383102535,5778
2156.0204532508997,5590
2157.9216192270064,5794
2159.822336513414,5775
2161.7226053850413,5777
2163.622426116884,5810
2165.5217989840185,5674
2167.4207242616,5784
2169.319202224862,5848
2171.2172331491165,5649
2173.1148173097563,5675
2175.0119549822507,5681
2176.90864644215,5691
2178.8048919650823,5738
2180.7006918267534,5794
2182.596046302952,5723
2184.4909556695407,5782
2186.3854202024645,5732
2188.279440177746,5796
2190.173015871487,5674
2192.066147559868,5671
2193.958835519149,5711
2195.851080025667,5730
2197.7428813558417,5620
2199.6342397861667,5727
2201.5251555932186,5879
2203.415629053651,5758
2205.3056604441986,5631
2207.19525004167,5633
2209.084398122958,5741
2210.9731049650327,5656
2212.861370844941,5579
2214.749196039812,5675
2216.636580826851,5708
2218.523525483344,5758
2220.410030286655,5707
2222.296095514226,5679
2224.1817214435805,5634
2226.066908352319,5630
2227.951656518121,5815
2229.835966218746,5664
2231.71983773203,5741
2233.6032713358913,5709
2235.486267308324,5772
2237.3688259274036,5914
2239.2509474712824,5830
2241.132632218193,5784
2243.013880446447,5657
2244.8946924344323,5842
2246.7750684606203,5780
2248.6550088035574,5828
2250.534513741871,5710
2252.413583554265,5678
2254.292218519526,5685
2256.170418916517,5732
2258.0481850241786,5789
2259.925517121534,5617
2261.8024154876825,5771
2263.678880401803,5793
2265.5549121431536,5733
2267.430510991071,5677
2269.305677224971,5626
2271.180411124348,5683
2273.0547129687766,5656
2274.9285830379076,5608
2276.8020216114737,5743
2278.6750289692845,5684
2280.5476053912294,5678
2282.4197511572766,5880
2284.2914665474727,5749
2286.162751841943,5657
2288.0336073208937,5697
2289.904033264608,5665
2291.774029953448,5770
2293.6435976678554,5607
2295.5127366883517,5736
2297.381447295534,5730
2299.2497297700825,5721
2301.1175843927526,5636
2302.9850114443825,5856
2304.852011205885,5860
2306.7185839582553,5795
2308.5847299825664,5786
2310.4504495599676,5866
2312.3157429716925,5689
2314.1806104990483,5786
2316.0450524234247,5779
2317.9090690262888,5810
2319.772660589186,5887
2321.635827393742,5751
2323.498569721661,5842
2325.3608878547248,5858
2327.2227820747967,5708
2329.0842526638157,5829
2330.945299903803,5784
2332.805924076857,5705
2334.6661254651535,5796
2336.525904350951,5718
2338.3852610165827,5720
2340.244195744464,5614
2342.102708817088,5718
2343.9608005170253,5735
2345.8184711269287,5833
2347.675720929526,5760
2349.532550207628,5772
2351.38895924412,5920
2353.24494832197,5772
2355.100517724223,5751
2356.955667734004,5858
2358.810398634514,5734
2360.664710709037,5795
2362.5186042409337,5778
2364.3720795136437,5761
2366.225136810686,5770
2368.0777764156583,5805
2369.929998612237,5694
2371.7818036841777,5711
2373.633191915315,5761
2375.484163589562,5834
2377.3347189909114,5788
2379.184858403434,5720
2381.03458211128,5764
2382.8838903986775,5921
2384.732783549936,5841
2386.5812618494406,5803
2388.4293255816588,5918
2390.2769750311327,5792
2392.1242104824883,5790
2393.971032220427,5699
2395.8174405297295,5753
2397.6634356952563,5827
2399.509018001947,5803
2401.3541877348193,5778
2403.1989451789705,5839
2405.043290619576,5746
2406.8872243418905,5779
2408.730746631247,5635
2410.5738577730594,5744
2412.4165580528183,5673
2414.258847756095,5743
2416.100727168537,5779
2417.9421965758734,5787
2419.783256263912,5782
2421.623906518538,5748
2423.4641476257157,5875
2425.303979871491,5687
2427.143403541984,5844
2428.9824189233977,5690
2430.821026302012,5778
2432.6592259641866,5721
2434.497018196361,5817
2436.33440328505,5860
2438.171381516851,5933
2440.00795317844,5791
2441.844118556569,5800
2443.6798779380724,5681
2445.5152316098606,5789
2447.3501798589255,5930
2449.1847229723357,5831
2451.0188612372403,5651
2452.8525949408663,5722
2454.6859243705203,5632
2456.518849813587,5727
2458.3513715575314,5795
2460.183489889895,5712
2462.015205098301,5788
2463.8465174704493,5895
2465.67742729412,5829
2467.5079348571717,5821
2469.338040447542,5746
2471.1677443532476,5643
2472.9970468623833,5682
2474.825948263123,5764
2476.6544488437207,5732
2478.482548892508,5737
2480.310248697896,5812
2482.137548548374,5814
2483.9644487325118,5945
2485.790949538956,5779
2487.617051256433,5795
2489.44275417375,5840
2491.26805857979,5672
2493.0929647635157,5844
2494.917473013971,5821
2496.741583620276,5775
2498.5652968716304,5778
2500.3886130573137,5799
2502.2115324666834,5789
2504.0340553891765,5758
2505.856182114308,5757
2507.6779129316733,5785
2509.499248130945,5822
2511.3201880018764,5758
2513.140732834298,5794
2514.9608829181198,5849
2516.780638543331,5798
2518.6,5867
2520.418967578273,5817
2522.237541568376,5892
2524.0557222606144,5750
2525.8735099453706,5700
2527.6909049131086,5689
2529.507907454368,5810
2531.32451785977,5839
2533.140736420014,5850
2534.9565634258774,5748
2536.771999168218,5774
2538.5870439379714,5976
2540.4016980261526,5772
2542.2159617238544,5812
2544.02983532225,5857
2545.8433191125914,5856
2547.656413386209,5839
2549.4691184345115,5934
2551.2814345489874,5812
2553.093362021204,5984
2554.904901142808,5918
2556.716052205523,5875
2558.526815501153,5873
2560.3371913215824,5892
2562.147179958771,5856
2563.956781704761,5764
2565.7659968516705,5873
2567.5748256916986,5878
2569.3832685171224,5861
2571.1913256202984,5960
2572.9989972936614,5832
2574.806283829725,5819
2576.613185521084,5934
2578.4197026604074,5832
2580.2258355404483,5861
2582.031584454035,5935
2583.836949694077,5848
2585.6419315535613,5903
2587.4465303255533,5858
2589.2507463032002,5794
2591.0545797797245,5981
2592.8580310484303,5870
2594.6611004026995,5820
2596.463788135992,5914
2598.266094541849,5902
2600.0680199138874,5800
2601.869564545807,5729
2603.670728731383,5995
2605.4715127644704,5991
2607.2719169390048,5945
2609.071941548998,5860
2610.8715868885433,5813
2612.670853251811,5830
2614.469740933052,5952
2616.268250226594,5783
2618.0663814268455,5964
2619.864134828292,5887
2621.6615107255006,5855
2623.458509413115,5862
2625.2551311858597,5846
2627.0513763385347,5879
2628.8472451660223,5825
2630.6427379632833,5856
2632.4378550253564,5887
2634.232596647359,5807
2636.026963124488,5970
2637.8209547520187,5881
2639.6145718253065,5834
2641.407814639785,5793
2643.200683490966,5717
2644.9931786744414,5861
2646.7853004858807,5731
2648.577049221034,5834
2650.3684251757277,5828
2652.1594286458712,5743
2653.9500599274484,5824
2655.740319316525,5725
2657.5302071092437,5722
2659.3197236018286,5701
2661.10886909058,5662
2662.8976438718782,5687
2664.686048242183,5588
2666.4740824980327,5768
2668.2617469360443,5689
2670.0490418529134,5743
2671.8359675454153,5647
2673.622524310403,5689
2675.408712444811,5691
2677.1945322456495,5695
2678.979984010009,5899
2680.76506803506,5659
2682.5497846180497,5669
2684.334134056306,5614
2686.1181166472343,5618
2687.9017326883213,5646
2689.6849824771293,5560
2691.4678663113013,5554
2693.2503844885596,5674
2695.032537306705,5773
2696.8143250636167,5608
2698.5957480572542,5564
2700.3768065856534,5576
2702.1575009469316,5598
2703.937831439283,5688
2705.717798360982,5490
2707.4974020103837,5496
2709.276642685917,5704
2711.055520686095,5556
2712.834036309506,5710
2714.612189854819,5476
2716.389981620782,5750
2718.1674119062204,5670
2719.944481010041,5426
2721.721189231226,5678
2723.4975368688415,5625
2725.273524222027,5771
2727.0491515900053,5619
2728.824419272075,5608
2730.5993275676146,5631
2732.3738767760838,5567
2734.148067197016,5625
2735.921899130031,5529
2737.6953728748194,5593
2739.468488731156,5644
2741.2412469988926,5578
2743.0136479779617,5559
2744.785691968372,5404
2746.5573792702116,5587
2748.3287101836504,5597
2750.099685008934,5454
2751.870304046388,5619
2753.640567596418,5569
2755.4104759595057,5504
2757.1800294362156,5599
2758.949228327187,5538
2760.7180729331412,5643
2762.486563554877,5578
2764.254700493272,5536
2766.022484049284,5529
2767.789914523947,5535
2769.5569922183786,5565
2771.3237174337705,5574
2773.090090471394,5421
2774.8561116326036,5480
2776.6217812188274,5513
2778.3870995315756,5583
2780.1520668724356,5430
2781.9166835430747,5580
2783.6809498452394,5605
2785.444866080754,5595
2787.2084325515225,5658
2788.971649559527,5414
2790.73451740683,5618
2792.4970363955713,5609
2794.2592068279705,5589
2796.0210290063264,5527
2797.7825032330147,5601
2799.543629810493,5612
2801.304409041296,5575
2803.0648412280366,5630
2804.8249266734088,5667
2806.5846656801846,5515
2808.344058551212,5564
2810.1031055894246,5624
2811.8618070978273,5528
2813.6201633795085,5689
2815.378174737636,5679
2817.1358414754536,5638
2818.893163896285,5544
2820.6501423035334,5465
2822.4067770006814,5582
2824.1630682912883,5554
2825.9190164789957,5509
2827.6746218675207,5539
2829.429884760661,5534
2831.184805462294,5541
2832.9393842763743,5623
2834.693621506936,5592
2836.4475174580916,5586
2838.201072434034,5502
2839.954286739034,5499
2841.707160677441,5592
2843.459694553685,5520
2845.2118886722724,5521
2846.96374333779,5508
2848.7152588549034,5586
2850.4664355283567,5555
2852.217273662973,5553
2853.9677735636546,5470
2855.7179355353833,5527
2857.4677598832186,5491
2859.217246912299,5657
2860.9663969278427,5534
2862.715210235146,5593
2864.4636871395846,5579
2866.211827946614,5424
2867.9596329617652,5702
2869.7071024906536,5540
2871.4542368389684,5542
2873.20103631248,5566
2874.947501217038,5542
2876.6936318585695,5581
2878.4394285430812,5559
2880.1848915766604,5610
2881.9300212654707,5599
2883.6748179157553,5536
2885.4192818338374,5604
2887.1634133261173,5555
2888.907212699077,5675
2890.6506802592744,5605
2892.393816313348,5527
2894.1366211680142,5516
2895.8790951300693,5537
2897.621238506388,5559
2899.363051603925,5451
2901.1045347297118,5609
2902.8456881908596,5551
2904.58651229456,5541
2906.327007348081,5509
2908.067173658772,5522
2909.8070115340597,5589
2911.5465212814497,5572
2913.285703208527,5553
2915.0245576229563,5554
2916.7630848324807,5438
2918.5012851449196,5463
2920.2391588681758,5398
2921.976706310227,5461
2923.7139277791334,5521
2925.4508235830313,5492
2927.187394030137,5537
2928.923639428745,5412
2930.6595600872306,5427
2932.395156314046,5439
2934.1304284177218,5487
2935.8653767068713,5570
2937.6000014901815,5460
2939.3343030764227,5604
2941.068281774442,5576
2942.8019378931644,5656
2944.5352717415976,5542
2946.2682836288236,5518
2948.0009738640065,5570
2949.7333427563885,5578
2951.465390615289,5293
2953.1971177501086,5411
2954.9285244703265,5391
2956.6596110855,5343
2958.3903779052657,5377
2960.1208252393385,5447
2961.8509533975125,5356
2963.5807626896617,5581
2965.3102534257378,5533
2967.0394259157715,5492
2968.768280469873,5502
2970.496817398232,5556
2972.2250370111146,5533
2973.952939618869,5513
2975.6805255319196,5396
2977.4077950607707,5590
2979.134748516006,5590
2980.861386208289,5573
2982.587708448359,5462
2984.313715547037,5589
2986.039407815222,5564
2987.764785563891,5573
2989.489849104102,5623
2991.2145987469908,5481
2992.9390348037705,5408
2994.6631575857346,5526
2996.3869674042576,5481
2998.1104645707887,5509
2999.83364939686,5497
3001.5565221940783,5490
3003.2790832741334,5516
3005.0013329487924,5690
3006.7232715298996,5469
3008.4448993293804,5330
3010.166216659239,5443
3011.887223831558,5445
3013.607921158498,5432
3015.3283089522993,5598
3017.0483875252826,5439
3018.7681571898443,5401
3020.4876182584626,5611
3022.2067710436927,5446
3023.9256158581707,5453
3025.644153014609,5464
3027.362382825801,5409
3029.0803056046193,5436
3030.797921664012,5428
3032.5152313170106,5453
3034.2322348767225,5566
3035.9489326563353,5450
3037.665324969115,5453
3039.3814121284063,5450
3041.097194447633,5467
3042.812672240299,5447
3044.5278458199855,5516
3046.2427155003525,5558
3047.9572815951406,5392
3049.671544418167,5492
3051.38550428333,5492
3053.0991615046073,5517
3054.812516396051,5501
3056.5255692717974,5427
3058.2383204460575,5542
3059.9507702331257,5437
3061.662918947372,5518
3063.3747669032446,5502
3065.0863144152736,5490
3066.7975617980674,5560
3068.508509366309,5650
3070.219157434767,5548
3071.9295063182844,5438
3073.639556331785,5547
3075.3493077902704,5523
3077.058761008821,5460
3078.7679163025964,5320
3080.476773986837,5557
3082.1853343768594,5430
3083.89359778806,5384
3085.6015645359153,5580
3087.3092349359786,5571
3089.016609303884,5462
3090.7236879553434,5473
3092.4304712061476,5467
3094.136959372166,5426
3095.843152769349,5354
3097.5490517137237,5329
3099.2546565213966,5349
3100.959967508554,5359
3102.66498499146,5489
3104.3697092864577,5433
3106.0741407099695,5594
3107.778279578498,5622
3109.482126208622,5406
3111.1856809170004,5448
3112.8889440203716,5439
3114.5919158355528,5488
3116.294596679439,5497
3117.996986869006,5568
3119.6990867213062,5350
3121.4008965534726,5515
3123.102416682717,5520
3124.803647426329,5617
3126.5045891016784,5562
3128.205242026213,5487
3129.90560651746,5638
3131.605682893025,5515
3133.3054714705922,5580
3135.0049725679282,5432
3136.7041865028714,5562
3138.4031135933465,5458
3140.101754157353,5447
3141.800108512971,5516
3143.498176978357,5412
3145.1959598717494,5396
3146.8934575114636,5485
3148.5906702158954,5443
3150.2875983035183,5401
3151.9842420928853,5431
3153.680601902627,5490
3155.376678051456,5399
3157.07247085816,5539
3158.767980641609,5430
3160.463207720748,5432
3162.158152414606,5382
3163.8528150422862,5400
3165.5471959229726,5541
3167.2412953759303,5389
3168.9351137204976,5553
3170.628651276098,5419
3172.3219083622307,5522
3174.014885298474,5508
3175.707582404485,5427
3177.4000000000005,5536
3179.092138404835,5607
3180.7839979388846,5501
3182.47557892212,5540
3184.166881674594,5464
3185.8579065164386,5446
3187.5486537678626,5570
3189.2391237491547,5638
3190.9293167806827,5420
3192.6192331828934,5348
3194.3088732763117,5475
3195.998237381542,5437
3197.687325819268,5529
3199.376138910251,5481
3201.064676975334,5492
3202.7529403354347,5401
3204.4409293115523,5612
3206.1286442247647,5428
3207.816085396229,5417
3209.5032531471825,5319
3211.190147798936,5441
3212.8767696728846,5401
3214.5631190905015,5360
3216.2491963733373,5281
3217.9350018430214,5429
3219.6205358212637,5302
3221.305798629851,5370
3222.990790590651,5269
3224.6755120256103,5282
3226.359963256751,5212
3228.0441446061795,5381
3229.7280563960758,5374
3231.411698948703,5403
3233.0950725863995,5376
3234.778177631587,5539
3236.461014406761,5463
3238.1435832345005,5561
3239.8258844374595,5485
3241.507918338374,5528
3243.1896852600576,5456
3244.8711855254023,5506
3246.552419457381,5549
3248.233387379042,5463
3249.914089613516,5618
3251.59452648401,5364
3253.274698313813,5495
3254.95460542629,5413
3256.6342481448855,5462
3258.313626793125,5399
3259.9927416946084,5396
3261.6715931730196,5271
3263.3501815521176,5228
3265.0285071557437,5492
3266.706570307815,5232
3268.3843713323286,5506
3270.0619105533615,5312
3271.739188295068,5382
3273.4162048816834,5373
3275.0929606375184,5360
3276.769455886966,5375
3278.445690954498,5533
3280.1216661646613,5450
3281.797381842087,5416
3283.4728383114807,5458
3285.1480358976296,5428
3286.8229749253996,5419
3288.4976557197333,5419
3290.172078605655,5311
3291.846243908266,5357
3293.5201519527463,5230
3295.193803064357,5450
3296.8671975684374,5264
3298.5403357904024,5441
3300.21321805575,5425
3301.8858446900567,5304
3303.558216018975,5459
3305.23033236824,5397
3306.9021940636603,5407
3308.57380143113,5456
3310.2451547966184,5472
3311.916254486174,5354
3313.5871008259246,5446
3315.2576941420766,5429
3316.9280347609147,5384
3318.5981230088046,5293
3320.2679592121895,5226
3321.9375436975924,5293
3323.606876791612,5214
3325.27595882093,5270
3326.944790112305,5287
3328.6133709925753,5281
3330.2817017886573,5336
3331.949782827547,5212
3333.617614436319,5253
3335.2851969421245,5207
3336.952530672199,5468
3338.619615953853,5552
3340.286453114475,5435
3341.9530424815357,5410
3343.619384382583,5386
3345.2854791452437,5411
3346.951327097224,5512
3348.6169285663073,5462
3350.2822838803577,5529
3351.947393367319,5458
3353.61225735521,5358
3355.2768761721345,5463
3356.9412501462693,5357
3358.605379605873,5330
3360.2692648792827,5333
3361.9329062949146,5488
3363.596304181263,5478
