CollectionTime,6/26/2024 4:05:18 PM
ExposureUsed,3
CalibratedSpectrum
-962.7078968117929,2404
-959.9714848408522,2628
-957.2358232597828,2531
-954.5009119013725,2529
-951.7667505983302,2471
-949.0333391832855,2589
-946.3006774887896,2588
-943.5687653473143,2497
-940.837602591253,2583
-938.1071890529199,2543
-935.3775245645503,2542
-932.6486089583007,2602
-929.9204420662485,2526
-927.1930237203925,2547
-924.4663537526524,2563
-921.7404319948689,2553
-919.0152582788041,2649
-916.2908324361409,2541
-913.5671542984834,2615
-910.8442236973568,2628
-908.1220404642074,2616
-905.4006044304027,2498
-902.679915427231,2560
-899.959973285902,2602
-897.2407778375464,2609
-894.5223289132158,2496
-891.8046263438832,2589
-889.0876699604426,2556
-886.3714595937089,2563
-883.6559950744183,2568
-880.9412762332282,2478
-878.2273029007168,2551
-875.5140749073835,2522
-872.8015920836489,2560
-870.0898542598545,2613
-867.3788612662631,2581
-864.6686129330585,2578
-861.9591090903457,2613
-859.2503495681506,2587
-856.5423341964203,2518
-853.8350628050229,2546
-851.1285352237478,2613
-848.4227512823054,2585
-845.7177108103272,2602
-843.0134136373656,2601
-840.3098595928943,2553
-837.6070485063082,2732
-834.9049802069229,2622
-832.2036545239757,2650
-829.5030712866244,2629
-826.8032303239481,2623
-824.1041314649472,2564
-821.4057745385428,2712
-818.7081593735775,2674
-816.0112857988148,2746
-813.3151536429393,2681
-810.6197627345566,2739
-807.9251129021936,2587
-805.2312039742981,2664
-802.5380357792392,2582
-799.8456081453069,2718
-797.1539209007124,2734
-794.462973873588,2707
-791.772766891987,2665
-789.083299783884,2696
-786.3945723771743,2746
-783.7065844996748,2648
-781.0193359791231,2580
-778.3328266431781,2672
-775.6470563194197,2597
-772.9620248353489,2684
-770.2777320183878,2579
-767.5941776958798,2673
-764.9113616950891,2775
-762.2292838432011,2689
-759.5479439673222,2573
-756.8673418944801,2777
-754.1874774516235,2762
-751.5083504656222,2665
-748.8299607632671,2662
-746.15230817127,2755
-743.475392516264,2734
-740.7992136248035,2752
-738.1237713233636,2762
-735.4490654383407,2747
-732.7750957960521,2771
-730.1018622227365,2820
-727.4293645445534,2807
-724.7576025875837,2715
-722.0865761778291,2788
-719.4162851412126,2825
-716.7467293035781,2880
-714.0779084906909,2719
-711.409822528237,2776
-708.7424712418238,2799
-706.0758544569796,2652
-703.4099719991541,2768
-700.7448236937178,2720
-698.0804093659622,2834
-695.4167288411002,2736
-692.7537819442656,2777
-690.0915685005134,2816
-687.4300883348199,2737
-684.7693412720819,2809
-682.1093271371178,2852
-679.4500457546669,2823
-676.7914969493897,2807
-674.1336805458676,2786
-671.4765963686034,2866
-668.8202442420206,2884
-666.1646239904642,2900
-663.5097354382001,2856
-660.8555784094151,2801
-658.2021527282176,2844
-655.5494582186366,2925
-652.8974947046223,2872
-650.2462620100463,2918
-647.5957599587009,2831
-644.9459883742998,3015
-642.2969470804776,2886
-639.6486359007902,2931
-637.0010546587141,2940
-634.3542031776476,2896
-631.7080812809096,2918
-629.0626887917401,2926
-626.4180255333008,2940
-623.7740913286734,2920
-621.1308860008619,2959
-618.4884093727904,2950
-615.8466612673046,2885
-613.2056415071715,2937
-610.5653499150785,2906
-607.9257863136347,2916
-605.28695052537,2932
-602.6488423727357,2900
-600.0114616781036,2870
-597.3748082637674,2957
-594.7388819519412,2962
-592.1036825647604,2948
-589.4692099242818,2947
-586.8354638524829,2905
-584.2024441712624,2916
-581.5701507024403,2853
-578.9385832677575,2922
-576.3077416888759,3006
-573.6776257873787,2992
-571.0482353847704,2919
-568.4195703024757,3006
-565.7916303618415,2971
-563.164415384135,3041
-560.5379251905453,3040
-557.9121596021815,3040
-555.2871184400748,2975
-552.6628015251767,2906
-550.0392086783606,2935
-547.4163397204204,3069
-544.794194472071,2978
-542.1727727539491,3090
-539.5520743866118,3061
-536.9320991905377,3071
-534.3128469861261,3149
-531.6943175936979,3136
-529.0765108334947,3042
-526.4594265256793,3076
-523.8430644903358,3215
-521.2274245474689,3400
-518.612506517005,3586
-515.9983102187913,3461
-513.3848354725959,3613
-510.77208209810846,3739
-508.16004991493924,3802
-505.5487387426199,3838
-502.9381484006032,3827
-500.3282787082628,3903
-497.71912948489364,3875
-495.1107005497117,3737
-492.5029917218539,3761
-489.8960028203786,3540
-487.28973366426493,3402
-484.68418407241325,3279
-482.07935386364494,3362
-479.47524285670266,3255
-476.87185087025,3244
-474.2691777228715,3353
-471.66722323307334,3301
-469.0659872192821,3208
-466.4654694998459,3385
-463.86566989303384,3255
-461.26658821703614,3216
-458.66822428996414,3170
-456.07057792985,3222
-453.4736489546475,3292
-450.877437182231,3343
-448.28194243039627,3216
-445.68716451686,3260
-443.09310325926003,3232
-440.49975847515555,3140
-437.9071299820263,3013
-435.31521759727354,3144
-432.72402113821954,3149
-430.13354042210767,3265
-427.5437752661022,3231
-424.95472548728867,3186
-422.36639090267386,3188
-419.7787713291855,3190
-417.1918665836721,3185
-414.60567648290385,3271
-412.0202008435715,3272
-409.4354394822874,3262
-406.8513922155845,3171
-404.26805885991723,3264
-401.685439231661,3379
-399.103533147112,3259
-396.522340422488,3157
-393.9418608739278,3052
-391.3620943174908,3070
-388.7830405691583,2930
-386.2046994448317,2790
-383.6270707603344,2674
-381.05015433141045,2484
-378.473949973725,2259
-375.8984575028645,2042
-373.32367673433623,1836
-370.74960748356875,1646
-368.1762495659117,1443
-365.60360279663576,1238
-363.03166699093265,1034
-360.4604419639154,940
-357.8899275306178,786
-355.32012350599507,717
-352.7510297049233,602
-350.1826459421999,569
-347.61497203254316,566
-345.04800779059235,578
-342.4817530309082,518
-339.91620756797226,502
-337.35137121618743,493
-334.7872437898774,512
-332.22382510328725,512
-329.66111497058273,564
-327.09911320585127,578
-324.53781962310075,536
-321.9772340362607,540
-319.4173562591816,536
-316.8581861056348,543
-314.2997233893127,594
-311.7419679238294,601
-309.1849195227194,599
-306.62857799943856,515
-304.0729431673641,484
-301.51801483979375,503
-298.963792829947,497
-296.41027695096386,562
-293.85746701590574,552
-291.3053628377552,533
-288.7539642294155,500
-286.2032710037115,519
-283.65328297338897,562
-281.1039999511146,595
-278.5554217494762,610
-276.007548180983,571
-273.4603790580651,590
-270.9139141930734,549
-268.3681533982807,575
-265.8230964858798,594
-263.27874326798565,594
-260.7350935566336,638
-258.1921471637804,752
-255.6499039013039,728
-253.10836358100266,676
-250.56752601459698,620
-248.02739101372765,709
-245.48795838995704,619
-242.94922795476816,636
-240.41119951956557,709
-237.8738728956746,760
-235.33724789434166,751
-232.80132432673452,822
-230.2661020039418,907
-227.73158073697357,943
-225.19776033676033,773
-222.66464061415422,753
-220.1322213799284,724
-217.60050244477725,717
-215.06948361931552,710
-212.53916471408013,649
-210.00954553952818,707
-207.48062590603843,723
-204.9524056239104,887
-202.4248845033651,830
-199.8980623545441,715
-197.37193898751036,747
-194.84651421224817,824
-192.32178783866232,853
-189.79775967657952,776
-187.27442953574644,872
-184.7517972258321,886
-182.2298625564256,791
-179.7086253370378,849
-177.18808537710026,820
-174.66824248596583,930
-172.14909647290835,954
-169.6306471471229,930
-167.11289431772548,840
-164.59583779375328,871
-162.07947738416453,862
-159.5638128978386,847
-157.04884414357605,996
-154.53457093009854,1078
-152.02099306604828,944
-149.50811035998936,1046
-146.99592262040665,1126
-144.48442965570587,1001
-141.97363127421409,935
-139.46352728417958,1031
-136.95411749377126,928
-134.44540171107985,1075
-131.93737974411636,1163
-129.43005140081357,1250
-126.92341648902493,1197
-124.41747481652521,1218
-121.91222619101006,1154
-119.40767042009657,1113
-116.90380731132257,1207
-114.40063667214702,1355
-111.8981583099503,1351
-109.3963720320337,1394
-106.89527764561933,1270
-104.39487495785067,1315
-101.89516377579241,1278
-99.39614390642998,1302
-96.89781515667039,1340
-94.40017733334128,1555
-91.90323024319173,1631
-89.40697369289148,1534
-86.91140748903172,1497
-84.41653143812482,1423
-81.92234534660395,1435
-79.42884902082358,1438
-76.93604226705907,1495
-74.4439248915071,1599
-71.95249670028534,1505
-69.46175749943245,1726
-66.97170709490854,1894
-64.48234529259423,2384
-61.99367189829195,2528
-59.50568671772464,2170
-57.01838955653636,2551
-54.53178022029283,2688
-52.045858514480074,2709
-49.560624244506016,2830
-47.07607721569923,2661
-44.59221723330904,2673
-42.10904410250669,2417
-39.62655762838392,2659
-37.14475761595372,3823
-34.66364387015028,4524
-32.18321619582866,4502
-29.70347439776515,5411
-27.224418280657005,5812
-24.74604764912317,8209
-22.26836230770266,13398
-19.7913620608565,22139
-17.315046712966478,34752
-14.83941606833514,39296
-12.36446993118659,65038
-9.89020810566592,65038
-7.416630395839093,65038
-4.94373660569363,65038
-2.471526539137585,65038
-6.821210263296962E-13,65038
2.47084320796705,65038
4.941003281093458,65038
7.410480415786196,65038
9.879274808531363,65038
12.347386655893956,65038
14.814816154518212,65038
17.28156350112681,65038
19.74762889252179,65038
22.21301252558385,65038
24.67771459727237,65038
27.141735304626195,40422
29.605074844762612,18175
32.06773341487792,15756
34.52971121224755,11777
36.99100843422559,8316
39.45162527824516,6018
41.91156194181792,5811
44.370818622535126,7070
46.82939551806646,8464
49.287292826160524,10063
51.74451074464503,10132
54.201049471426245,9915
56.65690920448981,7384
59.112090141899785,3723
61.56659248179983,2820
64.02041642241159,3123
66.4735621620365,3029
68.92602989905402,2507
71.37781983192338,2254
73.82893215918205,1868
76.27936707944684,1738
78.72912479141326,2275
81.17820549385567,2674
83.62660938562783,2456
86.07433666566146,2101
88.5213875329681,2225
90.96776218663751,2365
93.41346082583925,1981
95.85848364982041,1794
98.30283085790859,1604
100.7465026495089,1651
103.18949922410604,1724
105.63182078126385,1862
108.07346752062438,1967
110.51443964190923,1687
112.95473734491827,1532
115.39436082953114,1395
117.83331029570547,1479
120.27158594347827,1674
122.7091879729652,1620
125.1461165843615,1359
127.58237197794062,1112
130.01795435405518,1079
132.4528639131364,1144
134.88710085569494,1370
137.32066538231982,1262
139.75355769367923,1250
142.1857779905207,1363
144.61732647366978,1466
147.04820334403132,1383
149.47840880258934,1363
151.90794305040674,1695
154.33680628862487,1969
156.76499871846443,1973
159.19252054122433,2175
161.61937195828352,2365
164.04555317109896,2516
166.47106438120693,2779
168.89590579022217,3204
171.320077599839,3382
173.7435800118302,3597
176.16641322804742,3759
178.58857745042144,3762
181.01007288096173,4039
183.43089972175687,4310
185.85105817497413,4630
188.27054844285988,4522
190.6893707277394,4758
193.10752523201643,4764
195.5250121581745,5038
197.9418317087751,5131
200.3579840864594,5194
202.7734694939469,5246
205.18828813403627,5203
207.6024402096051,5198
210.01592592360964,5273
212.42874547908548,5315
214.84089907914665,5344
217.2523869269868,5386
219.66320922587727,5340
222.0733661791695,5399
224.48285799029293,5456
226.8916848627572,5442
229.29984700014882,5415
231.7073446061355,5508
234.11417788446204,5654
236.520347038953,5628
238.92585227351185,5948
241.33069379212054,5864
243.73487179884035,5809
246.1383864978112,5907
248.541238093252,5795
250.9434267894609,5995
253.34495279081432,5903
255.74581630176783,5847
258.1460175268563,6083
260.54555667069314,6028
262.9444339379703,5930
265.3426495334594,5776
267.7402036620107,5968
270.1370965285529,5639
272.53332833809407,5727
274.9288992957214,5633
277.32380960660055,5532
279.718059475976,5427
282.1116491091717,5367
284.5045787115897,5468
286.89684848871195,5632
289.2884586460981,5457
291.67940938938807,5474
294.0697009242996,5346
296.4593334566299,5430
298.84830719225477,5349
301.23662233712923,5448
303.6242790972866,5380
306.01127767884,5408
308.39761828798066,5542
310.78330113097934,5474
313.16832641418534,5303
315.5526943440269,5477
317.9364051270112,5386
320.3194589697242,5326
322.70185607883093,5312
325.0835966610754,5258
327.4646809232805,5130
329.8451090723478,5315
332.2248813152577,5179
334.6039978590701,5251
336.9824589109231,5143
339.36026467803447,5122
341.7374153677,5121
344.113911187295,5052
346.48975234427337,5144
348.8649390461686,5158
351.2394715005918,5192
353.61334991523415,5242
355.9865744978655,5160
358.35914545633375,5233
360.73106299856715,5130
363.10232733257146,5136
365.47293866643247,5158
367.84289720831396,5258
370.2122031664593,5121
372.5808567491905,5110
374.9488581649083,5172
377.31620762209275,5237
379.6829053293021,5085
382.0489514951745,5213
384.4143463284262,5139
386.7790900378528,5058
389.14318283232853,5147
391.50662492080653,5073
393.86941651231916,4989
396.23155781597745,5063
398.5930490409713,5064
400.9538903965696,5125
403.3140820921202,5012
405.6736243370498,4999
408.03251734086336,5020
410.3907613131465,5077
412.74835646356166,5030
415.10530300185144,5045
417.4616011378372,5050
419.81725108141893,4996
422.1722530425758,5143
424.5266072313656,5203
426.880313857925,5114
429.2333731324701,5143
431.58578526529516,5046
433.9375504667738,5141
436.2886689473588,5152
438.63914091758113,5089
440.9889665880513,5053
443.33814616945835,5056
445.68667987257015,5176
448.03456790823395,5048
450.3818104873759,5082
452.72840782100013,5116
455.07436012019105,5156
457.41966759611057,5201
459.7643304600007,5075
462.10834892318155,4974
464.4517231970525,5050
466.79445349309174,5022
469.1365400228566,5084
471.4779829979826,5185
473.81878263018564,5093
476.15893913125876,5074
478.4984527130747,5145
480.8373235875855,5137
483.17555196682144,5143
485.5131380628919,5078
487.8500820879857,5157
490.1863842543697,5235
492.52204477439034,5345
494.8570638604725,5438
497.1914417251204,5551
499.52517858091653,5879
501.85827464052306,6038
504.19073011668036,6165
506.5225452222086,6246
508.85372017000566,6352
511.18425517304956,6390
513.514150444396,6677
515.8434061971808,6695
518.1720226446176,7173
520.4999999999999,7510
522.8273384766991,7619
525.1540382881666,7716
527.480099647932,7743
529.8055227696037,7052
532.1303078668694,5970
534.454455153496,5440
536.777964843328,5095
539.1008371502907,5051
541.4230722883866,5068
543.744670471698,4966
546.0656319143858,5028
548.3859568306899,5031
550.7056454349294,5117
553.0246979415016,5063
555.3431145648834,4903
557.6608955196306,5038
559.978041020377,5013
562.2945512818363,4953
564.6104265188006,4949
566.9256669461412,4984
569.2402727788082,5009
571.5542442318302,4990
573.8675815203156,5018
576.1802848594508,5091
578.4923544645015,4942
580.8037905508126,5126
583.114593333807,4868
585.4247630289875,4953
587.7342998519354,5014
590.0432040183106,5113
592.3514757438526,5151
594.6591152443794,5079
596.9661227357875,5096
599.2724984340531,5084
601.578242555231,5018
603.8833553154542,5028
606.1878369309362,5049
608.4916876179676,5088
610.7949075929192,5154
613.0974970722403,5024
615.3994562724587,5083
617.7007854101818,5060
620.0014847020951,5201
622.3015543649641,5075
624.6009946156324,4984
626.8998056710224,5076
629.1979877481361,5015
631.4955410640538,5045
633.7924658359349,5037
636.0887622810175,5034
638.3844306166192,5161
640.6794710601358,5141
642.9738838290426,5107
645.2676691408932,5086
647.5608272133207,5148
649.853358264037,5100
652.1452625108324,5238
654.4365401715764,5182
656.7271914642178,5192
659.0172166067838,5156
661.3066158173809,5067
663.5953893141935,5099
665.8835373154867,5227
668.1710600396028,5265
670.4579577049639,5352
672.7442305300709,5368
675.0298787335033,5281
677.3149025339197,5184
679.599302150058,5253
681.8830778007342,5267
684.1662297048437,5261
686.4487580813608,5232
688.7306631493387,5234
691.0119451279091,5137
693.2926042362834,5252
695.5726406937516,5241
697.8520547196814,5197
700.1308465335215,5246
702.4090163547982,5297
704.6865644031171,5259
706.9634908981619,5178
709.2397960596965,5077
711.5154801075631,5257
713.7905432616823,5182
716.0649857420548,5271
718.3388077687592,5193
720.612009561953,5198
722.8845913418733,5196
725.1565533288352,5247
727.427895743234,5168
729.6986188055427,5157
731.9687227363137,5138
734.238207756178,5158
736.5070740858458,5261
738.7753219461066,5206
741.0429515578281,5202
743.3099631419569,5219
745.5763569195191,5171
747.8421331116193,5346
750.1072919394409,5071
752.3718336242467,5086
754.6357583873777,5167
756.8990664502545,5132
759.1617580343765,5219
761.423833361321,5231
763.6852926527457,5271
765.9461361303862,5113
768.206364016058,5295
770.4659765316536,5178
772.7249738991469,5099
774.9833563405886,5290
777.2411240781092,5181
779.4982773339183,5158
781.7548163303044,5247
784.010741289634,5208
786.2660524343538,5357
788.5207499869881,5311
790.7748341701416,5291
793.0283052064964,5172
795.2811633188143,5138
797.5334087299362,5335
799.7850416627813,5140
802.0360623403484,5221
804.2864709857143,5300
806.5362678220353,5215
808.7854530725468,5291
811.0340269605625,5219
813.2819897094754,5410
815.5293415427581,5379
817.77608268396,5352
820.0222133567116,5336
822.2677337847211,5260
824.5126441917765,5162
826.7569448017433,5317
829.0006358385675,5238
831.2437175262731,5411
833.4861900889629,5366
835.7280537508192,5316
837.9693087361026,5384
840.2099552691533,5263
842.4499935743896,5270
844.689423876309,5238
846.9282463994886,5314
849.1664613685833,5297
851.4040690083276,5351
853.6410695435349,5242
855.877463199097,5260
858.1132501999847,5152
860.3484307712487,5198
862.5830051380175,5352
864.8169735254988,5272
867.0503361589791,5419
869.2830932638243,5341
871.5152450654786,5278
873.7467917894654,5360
875.9777336613873,5334
878.2080709069252,5339
880.4378037518389,5320
882.666932421968,5388
884.8954571432301,5230
887.1233781416219,5359
889.3506956432192,5301
891.5774098741766,5271
893.803521060728,5388
896.0290294291852,5386
898.2539352059397,5352
900.4782386174619,5300
902.7019398903011,5261
904.925039251085,5266
907.147536926521,5315
909.3694331433943,5331
911.59072812857,5450
913.8114221089921,5380
916.0315153116827,5261
918.2510079637437,5308
920.4699002923547,5343
922.6881925247761,5246
924.905884888345,5276
927.1229776104793,5247
929.3394709186747,5354
931.555365040506,5194
933.7706602036275,5259
935.9853566357709,5268
938.1994545647489,5241
940.4129542184515,5247
942.6258558248488,5342
944.8381596119883,5258
947.0498658079974,5310
949.2609746410825,5275
951.4714863395287,5282
953.6814011316998,5317
955.8907192460387,5345
958.0994409110671,5227
960.3075663553858,5420
962.5150958076741,5309
964.7220294966913,5315
966.928367651274,5292
969.1341105003388,5315
971.3392582728806,5291
973.5438111979742,5286
975.747769504772,5230
977.9511334225061,5096
980.153903180487,5287
982.3560790081052,5317
984.5576611348289,5282
986.7586497902058,5315
988.9590452038618,5283
991.158847605503,5246
993.3580572249133,5272
995.5566742919558,5111
997.7546990365728,5175
999.952131688785,5075
1002.1489724786926,5082
1004.3452216364743,5095
1006.5408793923874,5058
1008.7359459767691,5003
1010.9304216200343,5041
1013.1243065526781,5102
1015.3176010052733,5012
1017.510305208472,5006
1019.7024193930064,5022
1021.8939437896848,5037
1024.0848786293977,5049
1026.2752241431122,4895
1028.4649805618747,5060
1030.6541481168115,5054
1032.842727039127,5013
1035.0307175601051,4941
1037.2181199111074,5042
1039.4049343235752,5068
1041.591161029029,5044
1043.7768002590683,5084
1045.9618522453698,5133
1048.1463172196918,5007
1050.3301954138697,5151
1052.513487059818,5091
1054.69619238953,5041
1056.8783116350783,5067
1059.0598450286152,5242
1061.2407928023704,5101
1063.4211551886528,5139
1065.6009324198508,5098
1067.780124728432,5019
1069.9587323469414,5081
1072.1367555080046,5086
1074.314194444325,5003
1076.4910493886855,5089
1078.667320573947,5092
1080.843008233051,4979
1083.0181125990161,4963
1085.1926339049414,5022
1087.3665723840027,4955
1089.5399282694575,4937
1091.7127017946405,4969
1093.8848931929647,5041
1096.0565026979243,4978
1098.2275305430899,4998
1100.3979769621128,4964
1102.567842188722,4933
1104.737126456726,4937
1106.9058300000124,4962
1109.0739530525475,4983
1111.2414958483764,4968
1113.4084586216231,5034
1115.5748416064907,5007
1117.7406450372605,5103
1119.9058691482942,5145
1122.0705141740304,5043
1124.2345803489884,5018
1126.3980679077658,4943
1128.5609770850388,5085
1130.7233081155623,5012
1132.8850612341707,5070
1135.0462366757774,5077
1137.2068346753745,5126
1139.3668554680326,4946
1141.526299288901,5012
1143.68516637321,4976
1145.8434569562655,5148
1148.001171273455,4903
1150.158309560244,5056
1152.3148720521767,4912
1154.470858984876,5040
1156.626270594044,4911
1158.7811071154629,4948
1160.9353687849912,4952
1163.089055838569,4978
1165.242168512213,5112
1167.3947070420209,5009
1169.5466716641677,5031
1171.6980626149075,5042
1173.8488801305748,4839
1175.9991244475814,5012
1178.1487958024186,5123
1180.2978944316555,4935
1182.4464205719428,4830
1184.5943744600072,5000
1186.7417563326567,4924
1188.8885664267755,4936
1191.0348049793297,4857
1193.1804722273619,4889
1195.325568407995,4943
1197.4700937584303,5047
1199.614048515948,4905
1201.7574329179074,4977
1203.900247201746,4884
1206.042491604982,4909
1208.1841663652099,4930
1210.3252717201053,4930
1212.465807907422,4965
1214.6057751649923,4858
1216.7451737307279,5021
1218.8840038426192,4953
1221.0222657387353,5021
1223.1599596572241,5041
1225.2970858363137,4967
1227.4336445143094,5037
1229.5696359295966,4949
1231.705060320639,4934
1233.8399179259786,4996
1235.9742089842384,5046
1238.107933734118,4982
1240.2410924143974,4965
1242.373685263935,4974
1244.5057125216676,5137
1246.6371744266116,4972
1248.7680712178621,5175
1250.898403134593,5030
1253.028170416058,5090
1255.1573733015875,5110
1257.2860120305932,5052
1259.4140868425648,4950
1261.54159797707,5008
1263.6685456737569,5089
1265.7949301723515,4984
1267.9207517126597,4934
1270.046010534565,4996
1272.1707068780306,5005
1274.2948409830983,5101
1276.4184130898889,4973
1278.541423438603,5065
1280.6638722695184,5130
1282.785759822993,5164
1284.9070863394636,5100
1287.0278520594447,5118
1289.1480572235314,5287
1291.2677020723963,5145
1293.3867868467923,5193
1295.5053117875495,5134
1297.623277135579,5212
1299.740683131868,5262
1301.8575300174857,5175
1303.973818033578,5263
1306.0895474213703,5298
1308.2047184221678,5196
1310.3193312773528,5216
1312.4333862283888,5216
1314.5468835168163,5191
1316.659823384255,5145
1318.7722060724045,5194
1320.8840318230418,5252
1322.9953008780249,5257
1325.1060134792888,5247
1327.2161698688478,5154
1329.3257702887959,5265
1331.4348149813054,5259
1333.5433041886276,5180
1335.6512381530933,5197
1337.7586171171101,5196
1339.8654413231675,5171
1341.9717110138317,5212
1344.0774264317488,5094
1346.1825878196432,5097
1348.2871954203192,5126
1350.3912494766587,5052
1352.4947502316231,5058
1354.5976979282532,5051
1356.7000928096686,5197
1358.8019351190665,5110
1360.9032250997243,5054
1363.0039629949988,5155
1365.1041490483235,5157
1367.2037835032133,5189
1369.3028666032606,5223
1371.401398592137,5168
1373.4993797135926,5109
1375.5968102114575,5090
1377.6936903296396,5097
1379.7900203121262,5221
1381.8858004029835,5238
1383.9810308463561,5158
1386.075711886469,5216
1388.1698437676241,5174
1390.2634267342032,5133
1392.356461030667,5163
1394.4489469015557,5197
1396.5408845914872,5296
1398.6322743451592,5166
1400.7231164073469,5265
1402.813411022907,5233
1404.903158436773,5242
1406.9923588939578,5157
1409.0810126395531,5243
1411.1691199187303,5231
1413.2566809767386,5125
1415.343696058907,5162
1417.4301654106425,5267
1419.5160892774315,5235
1421.6014679048399,5098
1423.6863015385125,5247
1425.7705904241707,5091
1427.8543348076178,5168
1429.9375349347342,5149
1432.0201910514802,5186
1434.102303403894,5154
1436.1838722380944,5145
1438.2648978002767,5183
1440.3453803367174,5207
1442.4253200937692,5305
1444.5047173178677,5211
1446.5835722555234,5280
1448.6618851533285,5297
1450.739656257952,5271
1452.8168858161434,5238
1454.8935740747306,5190
1456.96972128062,5248
1459.045327680797,5299
1461.120393522327,5307
1463.1949190523528,5538
1465.2689045180973,5282
1467.3423501668608,5395
1469.415256246024,5402
1471.4876230030463,5442
1473.559450685465,5439
1475.6307395408976,5528
1477.7014898170391,5529
1479.771701761665,5633
1481.8413756226287,5593
1483.9105116478618,5609
1485.9791100853772,5687
1488.0471711832643,5581
1490.1146951896926,5708
1492.1816823529098,5629
1494.2481329212433,5809
1496.3140471430984,5797
1498.3794252669609,5686
1500.4442675413939,5733
1502.5085742150404,5791
1504.572345536622,5702
1506.6355817549388,5709
1508.6982831188702,5657
1510.7604498773744,5764
1512.8220822794883,5744
1514.8831805743293,5672
1516.9437450110909,5859
1519.003775839048,5563
1521.0632733075522,5675
1523.1222376660367,5819
1525.1806691640113,5704
1527.2385680510652,5900
1529.2959345768668,5798
1531.3527689911643,5926
1533.4090715437833,5853
1535.4648424846291,6001
1537.5200820636855,5818
1539.5747905310159,5899
1541.6289681367616,5962
1543.6826151311434,5956
1545.7357317644614,6112
1547.7883182870937,6038
1549.8403749494987,6134
1551.8919020022113,5994
1553.9428996958477,6144
1555.9933682811015,6106
1558.0433080087469,6266
1560.0927191296346,6313
1562.1416018946961,6303
1564.1899565549415,6351
1566.2377833614592,6272
1568.2850825654164,6457
1570.3318544180606,6302
1572.3780991707158,6226
1574.423817074788,6139
1576.4690083817595,6092
1578.5136733431923,6176
1580.5578122107272,6148
1582.601425236085,5983
1584.6445126710646,5951
1586.6870747675434,5850
1588.7291117774776,5734
1590.7706239529034,5719
1592.8116115459347,5593
1594.8520748087658,5647
1596.8920139936686,5463
1598.9314293529933,5506
1600.9703211391711,5379
1603.008689604711,5356
1605.0465350022005,5428
1607.0838575843068,5508
1609.1206576037753,5280
1611.1569353134305,5295
1613.1926909661765,5157
1615.2279248149953,5147
1617.2626371129481,5260
1619.2968281131757,5196
1621.3304980688963,5136
1623.3636472334088,5125
1625.39627586009,5134
1627.428384202396,5113
1629.459972513861,5029
1631.4910410480993,5043
1633.5215900588028,5156
1635.551619799744,5131
1637.5811305247717,5134
1639.6101224878166,5210
1641.6385959428862,5066
1643.6665511440683,4967
1645.693988345528,5124
1647.7209078015112,4957
1649.7473097663405,5043
1651.7731944944203,5010
1653.7985622402307,5005
1655.823413258333,5050
1657.847747803366,4960
1659.8715661300494,4960
1661.8948684931793,4990
1663.9176551476316,4957
1665.9399263483624,5068
1667.9616823504057,5139
1669.982923408873,4934
1672.0036497789574,5007
1674.0238617159293,4826
1676.043559475138,4851
1678.0627433120121,4901
1680.081413482059,4804
1682.0995702408654,4892
1684.117213844096,4909
1686.134344547495,5089
1688.1509626068864,5012
1690.1670682781705,4834
1692.182661817329,4926
1694.1977434804217,4912
1696.2123135235875,4934
1698.226372203043,4945
1700.2399197750851,4873
1702.2529564960905,4941
1704.2654826225112,4973
1706.277498410882,4951
1708.2890041178139,5011
1710.2999999999988,5049
1712.3104863142066,5034
1714.3204633172854,4902
1716.329931266163,4925
1718.3388904178469,5040
1720.3473410294214,4888
1722.3552833580516,5014
1724.3627176609807,5017
1726.3696441955308,4950
1728.3760632191033,4817
1730.3819749891782,5001
1732.3873797633146,4930
1734.3922777991502,4910
1736.3966693544012,4905
1738.4005546868639,5097
1740.4039340544127,4968
1742.406807715001,4958
1744.4091759266616,4790
1746.4110389475054,4950
1748.4123970357223,4898
1750.413250449582,4892
1752.4135994474318,4935
1754.4134442876993,4843
1756.4127852288902,4866
1758.4116225295893,4934
1760.4099564484595,4853
1762.407787244244,4936
1764.405115175764,4974
1766.4019405019203,4925
1768.3982634816916,4882
1770.3940843741357,4794
1772.3894034383907,4892
1774.3842209336717,4936
1776.378537119274,4771
1778.372352254571,4880
1780.3656665990156,4855
1782.3584804121397,4893
1784.3507939535534,4813
1786.3426074829463,4890
1788.3339212600863,5016
1790.3247355448211,4938
1792.3150505970766,4966
1794.3048666768573,4879
1796.2941840442477,4929
1798.2830029594106,4924
1800.2713236825884,4979
1802.2591464741004,4803
1804.2464715943465,4931
1806.2332993038058,4786
1808.2196298630352,4993
1810.2054635326708,4840
1812.190800573428,4963
1814.175641246101,4938
1816.1599858115628,4783
1818.1438345307652,4799
1820.127187664738,4900
1822.1100454745924,4894
1824.092408221516,4798
1826.0742761667766,4905
1828.055649571721,4942
1830.0365286977735,4960
1832.0169138064398,4803
1833.9968051593014,4854
1835.9762030180214,4991
1837.9551076443408,4818
1839.9335193000788,4952
1841.9114382471344,4926
1843.888864747485,4877
1845.8657990631878,4965
1847.842241456378,4889
1849.8181921892697,4868
1851.7936515241558,4987
1853.7686197234098,4770
1855.7430970494815,4777
1857.7170837649014,4784
1859.6905801322787,4934
1861.6635864143004,4857
1863.6361028737338,4913
1865.608129773424,4846
1867.5796673762961,5005
1869.5507159453537,4870
1871.521275743678,4968
1873.4913470344313,4875
1875.4609300808534,4930
1877.4300251462632,4819
1879.3986324940588,4922
1881.366752387717,4862
1883.3343850907936,4871
1885.3015308669228,4901
1887.268189979819,4835
1889.2343626932739,4920
1891.2000492711595,4855
1893.1652499774254,4845
1895.1299650761011,4935
1897.0941948312952,4810
1899.0579395071945,4844
1901.0211993680641,5000
1902.98397467825,4982
1904.9462657021745,5019
1906.9080727043415,4949
1908.869395949332,5053
1910.8302357018065,4963
1912.790592226504,5059
1914.7504657882428,4955
1916.7098566519212,4904
1918.6687650825133,4936
1920.6271913450764,4803
1922.5851357047422,4961
1924.5425984267245,4957
1926.499579776314,4965
1928.4560800188833,4909
1930.4120994198802,5023
1932.367638244833,4849
1934.32269675935,4821
1936.2772752291175,4873
1938.231373919899,4905
1940.1849930975404,4929
1942.1381330279637,4962
1944.0907939771696,4954
1946.0429762112412,4902
1947.9946799963363,4850
1949.9459055986945,4892
1951.896653284633,4948
1953.8469233205478,4984
1955.7967159729142,4864
1957.7460315082863,4811
1959.6948701932974,4928
1961.6432322946594,4968
1963.5911180791632,4931
1965.5385278136787,4868
1967.4854617651545,4832
1969.4319202006182,5043
1971.377903387176,4788
1973.3234115920136,4907
1975.268445082395,5052
1977.2130041256642,4936
1979.1570889892423,4856
1981.1006999406304,4973
1983.04383724741,4831
1984.986501177238,4850
1986.928691997853,4905
1988.8704099770712,4859
1990.811655382789,4918
1992.7524284829801,4977
1994.692729545698,4893
1996.6325588390755,4871
1998.5719166313224,4939
2000.5108031907307,4919
2002.4492187856677,4777
2004.387163684583,4882
2006.3246381560011,4971
2008.2616424685298,4862
2010.1981768908527,4844
2012.1342416917332,4884
2014.069837140014,5003
2016.0049635046162,4929
2017.9396210545406,4885
2019.8738100588666,4751
2021.8075307867502,4823
2023.740783507431,4824
2025.6735684902228,4757
2027.6058860045214,4909
2029.5377363198004,4915
2031.4691197056118,4901
2033.4000364315875,4908
2035.3304867674374,4801
2037.260470982952,4929
2039.189989347998,4831
2041.1190421325232,4868
2043.047629606554,5000
2044.9757520401945,4967
2046.9034097036288,4886
2048.8306028671195,4952
2050.7573318010086,4949
2052.683596775716,4793
2054.609398061742,4962
2056.5347359296647,4891
2058.4596106501403,4917
2060.384022493906,4987
2062.3079717317764,4927
2064.231458634646,4950
2066.1544834734873,4995
2068.077046519352,4840
2069.99914804337,4928
2071.9207883167524,5049
2073.8419676107865,4946
2075.7626861968406,4830
2077.6829443463607,4869
2079.6027423308715,4969
2081.522080421977,4843
2083.440958891362,5003
2085.359378010786,4909
2087.2773380520907,4862
2089.194839287196,4781
2091.111881988101,4945
2093.0284664268825,4893
2094.9445928756973,4893
2096.86026160678,4898
2098.775472892446,4855
2100.690227005088,4879
2102.604524217178,4827
2104.5183648012676,4890
2106.431749029985,4939
2108.34467717604,4879
2110.2571495122206,4959
2112.169166311393,4979
2114.080727846503,4868
2115.9918343905747,4814
2117.902486216711,4965
2119.8126835980956,4998
2121.722426807987,4836
2123.6317161197285,4888
2125.5405518067364,4954
2127.448934142509,4917
2129.356863400624,5022
2131.264339854737,5003
2133.1713637785815,4860
2135.077935445972,5015
2136.9840551308002,4952
2138.889723107037,4880
2140.7949396487334,4919
2142.699705030018,4865
2144.6040195250994,4883
2146.507883408264,4817
2148.4112969538774,4932
2150.3142604363848,4842
2152.2167741303097,4971
2154.1188383102535,5075
2156.0204532508997,4909
2157.9216192270064,4956
2159.822336513414,4844
2161.7226053850413,4970
2163.622426116884,4915
2165.5217989840185,5040
2167.4207242616,5070
2169.319202224862,4858
2171.2172331491165,5034
2173.1148173097563,4933
2175.0119549822507,4902
2176.90864644215,4916
2178.8048919650823,4925
2180.7006918267534,4926
2182.596046302952,4995
2184.4909556695407,4851
2186.3854202024645,4902
2188.279440177746,4977
2190.173015871487,5012
2192.066147559868,4868
2193.958835519149,4868
2195.851080025667,4904
2197.7428813558417,4932
2199.6342397861667,4908
2201.5251555932186,4921
2203.415629053651,4915
2205.3056604441986,4972
2207.19525004167,4805
2209.084398122958,4937
2210.9731049650327,4948
2212.861370844941,4901
2214.749196039812,4951
2216.636580826851,5006
2218.523525483344,4851
2220.410030286655,4852
2222.296095514226,4962
2224.1817214435805,5033
2226.066908352319,4882
2227.951656518121,4977
2229.835966218746,4985
2231.71983773203,4946
2233.6032713358913,4943
2235.486267308324,4977
2237.3688259274036,5038
2239.2509474712824,4956
2241.132632218193,4881
2243.013880446447,4898
2244.8946924344323,5065
2246.7750684606203,5083
2248.6550088035574,4978
2250.534513741871,4960
2252.413583554265,4934
2254.292218519526,4928
2256.170418916517,4883
2258.0481850241786,4854
2259.925517121534,4911
2261.8024154876825,4931
2263.678880401803,4899
2265.5549121431536,5010
2267.430510991071,4869
2269.305677224971,4797
2271.180411124348,4970
2273.0547129687766,4936
2274.9285830379076,4881
2276.8020216114737,4884
2278.6750289692845,5013
2280.5476053912294,4930
2282.4197511572766,4883
2284.2914665474727,4907
2286.162751841943,5013
2288.0336073208937,4927
2289.904033264608,5035
2291.774029953448,4937
2293.6435976678554,5100
2295.5127366883517,5015
2297.381447295534,5078
2299.2497297700825,5016
2301.1175843927526,4990
2302.9850114443825,4968
2304.852011205885,5028
2306.7185839582553,5102
2308.5847299825664,5002
2310.4504495599676,4895
2312.3157429716925,4928
2314.1806104990483,4957
2316.0450524234247,4996
2317.9090690262888,4978
2319.772660589186,5010
2321.635827393742,5002
2323.498569721661,5007
2325.3608878547248,4902
2327.2227820747967,5081
2329.0842526638157,5053
2330.945299903803,5139
2332.805924076857,5021
2334.6661254651535,4942
2336.525904350951,5018
2338.3852610165827,5112
2340.244195744464,5068
2342.102708817088,5084
2343.9608005170253,4982
2345.8184711269287,5063
2347.675720929526,5036
2349.532550207628,5031
2351.38895924412,5024
2353.24494832197,4964
2355.100517724223,5098
2356.955667734004,4957
2358.810398634514,4984
2360.664710709037,4995
2362.5186042409337,5090
2364.3720795136437,5071
2366.225136810686,5097
2368.0777764156583,5057
2369.929998612237,5081
2371.7818036841777,5121
2373.633191915315,5087
2375.484163589562,5086
2377.3347189909114,5063
2379.184858403434,4959
2381.03458211128,5048
2382.8838903986775,5138
2384.732783549936,4941
2386.5812618494406,5008
2388.4293255816588,5032
2390.2769750311327,5157
2392.1242104824883,5146
2393.971032220427,5029
2395.8174405297295,5161
2397.6634356952563,5164
2399.509018001947,5186
2401.3541877348193,4981
2403.1989451789705,5089
2405.043290619576,5065
2406.8872243418905,5081
2408.730746631247,5098
2410.5738577730594,5294
2412.4165580528183,5106
2414.258847756095,5199
2416.100727168537,5108
2417.9421965758734,5154
2419.783256263912,5158
2421.623906518538,5121
2423.4641476257157,4970
2425.303979871491,5083
2427.143403541984,5088
2428.9824189233977,4981
2430.821026302012,5111
2432.6592259641866,5212
2434.497018196361,5121
2436.33440328505,5153
2438.171381516851,5111
2440.00795317844,5078
2441.844118556569,5131
2443.6798779380724,5108
2445.5152316098606,4993
2447.3501798589255,5090
2449.1847229723357,5058
2451.0188612372403,5042
2452.8525949408663,5253
2454.6859243705203,5055
2456.518849813587,5121
2458.3513715575314,4956
2460.183489889895,5100
2462.015205098301,5039
2463.8465174704493,5222
2465.67742729412,5103
2467.5079348571717,5090
2469.338040447542,5113
2471.1677443532476,5072
2472.9970468623833,5217
2474.825948263123,5042
2476.6544488437207,5026
2478.482548892508,4975
2480.310248697896,5089
2482.137548548374,5096
2483.9644487325118,5074
2485.790949538956,5136
2487.617051256433,5027
2489.44275417375,5130
2491.26805857979,5212
2493.0929647635157,5159
2494.917473013971,5113
2496.741583620276,5086
2498.5652968716304,5256
2500.3886130573137,5126
2502.2115324666834,5202
2504.0340553891765,5129
2505.856182114308,5136
2507.6779129316733,5204
2509.499248130945,5258
2511.3201880018764,5153
2513.140732834298,5135
2514.9608829181198,5134
2516.780638543331,5070
2518.6,5157
2520.418967578273,5170
2522.237541568376,5144
2524.0557222606144,5090
2525.8735099453706,5131
2527.6909049131086,5078
2529.507907454368,5077
2531.32451785977,5095
2533.140736420014,5201
2534.9565634258774,5108
2536.771999168218,5298
2538.5870439379714,5156
2540.4016980261526,5310
2542.2159617238544,5217
2544.02983532225,5287
2545.8433191125914,5293
2547.656413386209,5225
2549.4691184345115,5135
2551.2814345489874,5112
2553.093362021204,5253
2554.904901142808,5293
2556.716052205523,5269
2558.526815501153,5361
2560.3371913215824,5337
2562.147179958771,5361
2563.956781704761,5252
2565.7659968516705,5171
2567.5748256916986,5301
2569.3832685171224,5118
2571.1913256202984,5304
2572.9989972936614,5178
2574.806283829725,5197
2576.613185521084,5326
2578.4197026604074,5400
2580.2258355404483,5254
2582.031584454035,5313
2583.836949694077,5338
2585.6419315535613,5405
2587.4465303255533,5176
2589.2507463032002,5185
2591.0545797797245,5252
2592.8580310484303,5445
2594.6611004026995,5303
2596.463788135992,5368
2598.266094541849,5374
2600.0680199138874,5374
2601.869564545807,5250
2603.670728731383,5298
2605.4715127644704,5308
2607.2719169390048,5509
2609.071941548998,5357
2610.8715868885433,5270
2612.670853251811,5394
2614.469740933052,5403
2616.268250226594,5347
2618.0663814268455,5447
2619.864134828292,5375
2621.6615107255006,5333
2623.458509413115,5326
2625.2551311858597,5230
2627.0513763385347,5249
2628.8472451660223,5272
2630.6427379632833,5204
2632.4378550253564,5293
2634.232596647359,5383
2636.026963124488,5280
2637.8209547520187,5372
2639.6145718253065,5250
2641.407814639785,5173
2643.200683490966,5243
2644.9931786744414,5214
2646.7853004858807,5182
2648.577049221034,5239
2650.3684251757277,5291
2652.1594286458712,5282
2653.9500599274484,5215
2655.740319316525,5091
2657.5302071092437,5258
2659.3197236018286,5224
2661.10886909058,5307
2662.8976438718782,5206
2664.686048242183,5147
2666.4740824980327,5200
2668.2617469360443,5133
2670.0490418529134,5194
2671.8359675454153,5350
2673.622524310403,5196
2675.408712444811,5186
2677.1945322456495,5150
2678.979984010009,5139
2680.76506803506,5133
2682.5497846180497,5292
2684.334134056306,5119
2686.1181166472343,5206
2687.9017326883213,5264
2689.6849824771293,5181
2691.4678663113013,5219
2693.2503844885596,5132
2695.032537306705,5175
2696.8143250636167,5108
2698.5957480572542,5190
2700.3768065856534,5045
2702.1575009469316,5096
2703.937831439283,5008
2705.717798360982,5231
2707.4974020103837,5143
2709.276642685917,5143
2711.055520686095,5103
2712.834036309506,5122
2714.612189854819,5091
2716.389981620782,5064
2718.1674119062204,5013
2719.944481010041,5085
2721.721189231226,5100
2723.4975368688415,5134
2725.273524222027,5016
2727.0491515900053,5092
2728.824419272075,5118
2730.5993275676146,5142
2732.3738767760838,5070
2734.148067197016,5126
2735.921899130031,5201
2737.6953728748194,4995
2739.468488731156,5131
2741.2412469988926,5025
2743.0136479779617,5248
2744.785691968372,5206
2746.5573792702116,5120
2748.3287101836504,5162
2750.099685008934,5058
2751.870304046388,5006
2753.640567596418,4992
2755.4104759595057,5181
2757.1800294362156,5102
2758.949228327187,5133
2760.7180729331412,5103
2762.486563554877,5123
2764.254700493272,5184
2766.022484049284,5141
2767.789914523947,5039
2769.5569922183786,5151
2771.3237174337705,4936
2773.090090471394,5023
2774.8561116326036,5013
2776.6217812188274,4928
2778.3870995315756,5153
2780.1520668724356,4973
2781.9166835430747,5046
2783.6809498452394,5255
2785.444866080754,5194
2787.2084325515225,4996
2788.971649559527,5114
2790.73451740683,5190
2792.4970363955713,5025
2794.2592068279705,5156
2796.0210290063264,5097
2797.7825032330147,5171
2799.543629810493,5031
2801.304409041296,5145
2803.0648412280366,5107
2804.8249266734088,5048
2806.5846656801846,5050
2808.344058551212,5130
2810.1031055894246,5052
2811.8618070978273,5186
2813.6201633795085,5082
2815.378174737636,5171
2817.1358414754536,5224
2818.893163896285,5227
2820.6501423035334,5010
2822.4067770006814,5010
2824.1630682912883,5003
2825.9190164789957,5052
2827.6746218675207,5168
2829.429884760661,5021
2831.184805462294,5034
2832.9393842763743,5203
2834.693621506936,5104
2836.4475174580916,5132
2838.201072434034,5123
2839.954286739034,5168
2841.707160677441,5100
2843.459694553685,5057
2845.2118886722724,5035
2846.96374333779,5103
2848.7152588549034,5154
2850.4664355283567,5040
2852.217273662973,5112
2853.9677735636546,5168
2855.7179355353833,5040
2857.4677598832186,5073
2859.217246912299,5134
2860.9663969278427,5135
2862.715210235146,5172
2864.4636871395846,5013
2866.211827946614,5036
2867.9596329617652,5008
2869.7071024906536,5009
2871.4542368389684,5082
2873.20103631248,5149
2874.947501217038,5049
2876.6936318585695,5177
2878.4394285430812,5143
2880.1848915766604,5172
2881.9300212654707,5301
2883.6748179157553,5143
2885.4192818338374,5070
2887.1634133261173,4966
2888.907212699077,5075
2890.6506802592744,5124
2892.393816313348,5156
2894.1366211680142,5050
2895.8790951300693,5129
2897.621238506388,5215
2899.363051603925,5062
2901.1045347297118,5148
2902.8456881908596,5106
2904.58651229456,5149
2906.327007348081,5119
2908.067173658772,5048
2909.8070115340597,5055
2911.5465212814497,5060
2913.285703208527,5099
2915.0245576229563,4999
2916.7630848324807,4978
2918.5012851449196,5028
2920.2391588681758,5076
2921.976706310227,5090
2923.7139277791334,5122
2925.4508235830313,4987
2927.187394030137,5139
2928.923639428745,5074
2930.6595600872306,5195
2932.395156314046,5041
2934.1304284177218,5007
2935.8653767068713,5230
2937.6000014901815,5221
2939.3343030764227,5169
2941.068281774442,5182
2942.8019378931644,5161
2944.5352717415976,5129
2946.2682836288236,5138
2948.0009738640065,5120
2949.7333427563885,5029
2951.465390615289,5042
2953.1971177501086,4950
2954.9285244703265,5070
2956.6596110855,5151
2958.3903779052657,5127
2960.1208252393385,4960
2961.8509533975125,5031
2963.5807626896617,5020
2965.3102534257378,5084
2967.0394259157715,4940
2968.768280469873,5111
2970.496817398232,4982
2972.2250370111146,5087
2973.952939618869,5100
2975.6805255319196,5141
2977.4077950607707,5110
2979.134748516006,5060
2980.861386208289,5020
2982.587708448359,5097
2984.313715547037,5118
2986.039407815222,5121
2987.764785563891,5032
2989.489849104102,5126
2991.2145987469908,5152
2992.9390348037705,5136
2994.6631575857346,5168
2996.3869674042576,5124
2998.1104645707887,5175
2999.83364939686,5139
3001.5565221940783,5186
3003.2790832741334,5118
3005.0013329487924,5144
3006.7232715298996,5164
3008.4448993293804,5143
3010.166216659239,5097
3011.887223831558,5179
3013.607921158498,5022
3015.3283089522993,4875
3017.0483875252826,5156
3018.7681571898443,5196
3020.4876182584626,5052
3022.2067710436927,5135
3023.9256158581707,5046
3025.644153014609,5157
3027.362382825801,5138
3029.0803056046193,5158
3030.797921664012,5074
3032.5152313170106,5110
3034.2322348767225,5132
3035.9489326563353,5060
3037.665324969115,5192
3039.3814121284063,5145
3041.097194447633,5156
3042.812672240299,5070
3044.5278458199855,5083
3046.2427155003525,5132
3047.9572815951406,5115
3049.671544418167,4988
3051.38550428333,5184
3053.0991615046073,5173
3054.812516396051,5013
3056.5255692717974,5035
3058.2383204460575,5137
3059.9507702331257,5198
3061.662918947372,5071
3063.3747669032446,5143
3065.0863144152736,5141
3066.7975617980674,5122
3068.508509366309,5169
3070.219157434767,5092
3071.9295063182844,5169
3073.639556331785,5093
3075.3493077902704,5154
3077.058761008821,5117
3078.7679163025964,5141
3080.476773986837,5188
3082.1853343768594,5195
3083.89359778806,5134
3085.6015645359153,5076
3087.3092349359786,5004
3089.016609303884,5128
3090.7236879553434,5034
3092.4304712061476,4948
3094.136959372166,5018
3095.843152769349,5098
3097.5490517137237,5038
3099.2546565213966,5056
3100.959967508554,5050
3102.66498499146,5077
3104.3697092864577,5061
3106.0741407099695,5065
3107.778279578498,5100
3109.482126208622,5135
3111.1856809170004,5109
3112.8889440203716,5134
3114.5919158355528,5232
3116.294596679439,5122
3117.996986869006,5146
3119.6990867213062,5140
3121.4008965534726,5067
3123.102416682717,5223
3124.803647426329,5147
3126.5045891016784,5145
3128.205242026213,5259
3129.90560651746,5212
3131.605682893025,5118
3133.3054714705922,5070
3135.0049725679282,5236
3136.7041865028714,5133
3138.4031135933465,5153
3140.101754157353,4979
3141.800108512971,5338
3143.498176978357,5086
3145.1959598717494,5032
3146.8934575114636,5114
3148.5906702158954,5163
3150.2875983035183,5069
3151.9842420928853,4955
3153.680601902627,5098
3155.376678051456,5014
3157.07247085816,5018
3158.767980641609,4903
3160.463207720748,5028
3162.158152414606,5093
3163.8528150422862,5062
3165.5471959229726,5095
3167.2412953759303,5171
3168.9351137204976,5172
3170.628651276098,5202
3172.3219083622307,5223
3174.014885298474,5055
3175.707582404485,5218
3177.4000000000005,5202
3179.092138404835,5225
3180.7839979388846,5208
3182.47557892212,5114
3184.166881674594,5150
3185.8579065164386,5194
3187.5486537678626,5171
3189.2391237491547,5226
3190.9293167806827,5071
3192.6192331828934,5235
3194.3088732763117,5128
3195.998237381542,5028
3197.687325819268,5166
3199.376138910251,5026
3201.064676975334,5124
3202.7529403354347,5039
3204.4409293115523,5130
3206.1286442247647,5175
3207.816085396229,5196
3209.5032531471825,5065
3211.190147798936,5036
3212.8767696728846,5034
3214.5631190905015,4998
3216.2491963733373,5097
3217.9350018430214,4915
3219.6205358212637,5052
3221.305798629851,5064
3222.990790590651,5056
3224.6755120256103,4960
3226.359963256751,4965
3228.0441446061795,4950
3229.7280563960758,4988
3231.411698948703,5094
3233.0950725863995,5146
3234.778177631587,5131
3236.461014406761,5081
3238.1435832345005,5148
3239.8258844374595,5134
3241.507918338374,5087
3243.1896852600576,5176
3244.8711855254023,5045
3246.552419457381,5208
3248.233387379042,5209
3249.914089613516,5111
3251.59452648401,5106
3253.274698313813,5092
3254.95460542629,5170
3256.6342481448855,5067
3258.313626793125,4900
3259.9927416946084,4889
3261.6715931730196,4924
3263.3501815521176,4918
3265.0285071557437,5076
3266.706570307815,5007
3268.3843713323286,5034
3270.0619105533615,5099
3271.739188295068,5107
3273.4162048816834,4970
3275.0929606375184,4982
3276.769455886966,5066
3278.445690954498,5139
3280.1216661646613,5179
3281.797381842087,5182
3283.4728383114807,5113
3285.1480358976296,5176
3286.8229749253996,5140
3288.4976557197333,5125
3290.172078605655,5055
3291.846243908266,5126
3293.5201519527463,5188
3295.193803064357,4934
3296.8671975684374,4998
3298.5403357904024,4981
3300.21321805575,5006
3301.8858446900567,5078
3303.558216018975,4953
3305.23033236824,5015
3306.9021940636603,4971
3308.57380143113,5140
3310.2451547966184,5048
3311.916254486174,5069
3313.5871008259246,4958
3315.2576941420766,4925
3316.9280347609147,4938
3318.5981230088046,5051
3320.2679592121895,4890
3321.9375436975924,5071
3323.606876791612,4967
3325.27595882093,4985
3326.944790112305,5001
3328.6133709925753,4898
3330.2817017886573,4958
3331.949782827547,4936
3333.617614436319,5083
3335.2851969421245,5099
3336.952530672199,5085
3338.619615953853,5082
3340.286453114475,5258
3341.9530424815357,5113
3343.619384382583,5098
3345.2854791452437,5195
3346.951327097224,5061
3348.6169285663073,5233
3350.2822838803577,5188
3351.947393367319,5165
3353.61225735521,5077
3355.2768761721345,4991
3356.9412501462693,5093
3358.605379605873,5234
3360.2692648792827,5054
3361.9329062949146,5035
3363.596304181263,5051
