CollectionTime,6/26/2024 4:02:03 PM
ExposureUsed,3
CalibratedSpectrum
-962.7078968117929,611
-959.9714848408522,655
-957.2358232597828,626
-954.5009119013725,604
-951.7667505983302,639
-949.0333391832855,632
-946.3006774887896,650
-943.5687653473143,605
-940.837602591253,647
-938.1071890529199,615
-935.3775245645503,596
-932.6486089583007,637
-929.9204420662485,649
-927.1930237203925,630
-924.4663537526524,605
-921.7404319948689,650
-919.0152582788041,640
-916.2908324361409,640
-913.5671542984834,669
-910.8442236973568,702
-908.1220404642074,667
-905.4006044304027,661
-902.679915427231,645
-899.959973285902,678
-897.2407778375464,670
-894.5223289132158,626
-891.8046263438832,610
-889.0876699604426,599
-886.3714595937089,605
-883.6559950744183,592
-880.9412762332282,589
-878.2273029007168,651
-875.5140749073835,610
-872.8015920836489,628
-870.0898542598545,621
-867.3788612662631,610
-864.6686129330585,594
-861.9591090903457,589
-859.2503495681506,608
-856.5423341964203,592
-853.8350628050229,617
-851.1285352237478,633
-848.4227512823054,614
-845.7177108103272,588
-843.0134136373656,618
-840.3098595928943,597
-837.6070485063082,600
-834.9049802069229,618
-832.2036545239757,634
-829.5030712866244,614
-826.8032303239481,617
-824.1041314649472,633
-821.4057745385428,633
-818.7081593735775,620
-816.0112857988148,609
-813.3151536429393,581
-810.6197627345566,598
-807.9251129021936,596
-805.2312039742981,584
-802.5380357792392,616
-799.8456081453069,625
-797.1539209007124,582
-794.462973873588,592
-791.772766891987,636
-789.083299783884,649
-786.3945723771743,628
-783.7065844996748,605
-781.0193359791231,634
-778.3328266431781,629
-775.6470563194197,640
-772.9620248353489,644
-770.2777320183878,620
-767.5941776958798,651
-764.9113616950891,630
-762.2292838432011,637
-759.5479439673222,605
-756.8673418944801,637
-754.1874774516235,626
-751.5083504656222,640
-748.8299607632671,638
-746.15230817127,615
-743.475392516264,639
-740.7992136248035,661
-738.1237713233636,636
-735.4490654383407,632
-732.7750957960521,659
-730.1018622227365,661
-727.4293645445534,594
-724.7576025875837,599
-722.0865761778291,637
-719.4162851412126,676
-716.7467293035781,648
-714.0779084906909,651
-711.409822528237,659
-708.7424712418238,633
-706.0758544569796,639
-703.4099719991541,657
-700.7448236937178,693
-698.0804093659622,730
-695.4167288411002,659
-692.7537819442656,665
-690.0915685005134,680
-687.4300883348199,702
-684.7693412720819,677
-682.1093271371178,659
-679.4500457546669,671
-676.7914969493897,645
-674.1336805458676,693
-671.4765963686034,709
-668.8202442420206,700
-666.1646239904642,692
-663.5097354382001,694
-660.8555784094151,686
-658.2021527282176,706
-655.5494582186366,719
-652.8974947046223,684
-650.2462620100463,733
-647.5957599587009,718
-644.9459883742998,725
-642.2969470804776,716
-639.6486359007902,712
-637.0010546587141,754
-634.3542031776476,748
-631.7080812809096,745
-629.0626887917401,752
-626.4180255333008,713
-623.7740913286734,714
-621.1308860008619,662
-618.4884093727904,736
-615.8466612673046,702
-613.2056415071715,690
-610.5653499150785,730
-607.9257863136347,727
-605.28695052537,703
-602.6488423727357,694
-600.0114616781036,686
-597.3748082637674,730
-594.7388819519412,748
-592.1036825647604,761
-589.4692099242818,730
-586.8354638524829,730
-584.2024441712624,711
-581.5701507024403,668
-578.9385832677575,699
-576.3077416888759,703
-573.6776257873787,749
-571.0482353847704,730
-568.4195703024757,738
-565.7916303618415,801
-563.164415384135,717
-560.5379251905453,733
-557.9121596021815,735
-555.2871184400748,728
-552.6628015251767,757
-550.0392086783606,758
-547.4163397204204,743
-544.794194472071,764
-542.1727727539491,762
-539.5520743866118,743
-536.9320991905377,766
-534.3128469861261,824
-531.6943175936979,836
-529.0765108334947,827
-526.4594265256793,902
-523.8430644903358,995
-521.2274245474689,1131
-518.612506517005,1210
-515.9983102187913,1337
-513.3848354725959,1477
-510.77208209810846,1518
-508.16004991493924,1681
-505.5487387426199,1713
-502.9381484006032,1883
-500.3282787082628,1847
-497.71912948489364,1846
-495.1107005497117,1742
-492.5029917218539,1631
-489.8960028203786,1441
-487.28973366426493,1215
-484.68418407241325,1087
-482.07935386364494,948
-479.47524285670266,979
-476.87185087025,934
-474.2691777228715,1053
-471.66722323307334,970
-469.0659872192821,994
-466.4654694998459,948
-463.86566989303384,904
-461.26658821703614,912
-458.66822428996414,906
-456.07057792985,928
-453.4736489546475,907
-450.877437182231,899
-448.28194243039627,888
-445.68716451686,922
-443.09310325926003,886
-440.49975847515555,906
-437.9071299820263,883
-435.31521759727354,885
-432.72402113821954,901
-430.13354042210767,945
-427.5437752661022,930
-424.95472548728867,969
-422.36639090267386,928
-419.7787713291855,926
-417.1918665836721,952
-414.60567648290385,956
-412.0202008435715,985
-409.4354394822874,922
-406.8513922155845,929
-404.26805885991723,970
-401.685439231661,1034
-399.103533147112,958
-396.522340422488,955
-393.9418608739278,927
-391.3620943174908,972
-388.7830405691583,939
-386.2046994448317,935
-383.6270707603344,911
-381.05015433141045,847
-378.473949973725,824
-375.8984575028645,809
-373.32367673433623,743
-370.74960748356875,706
-368.1762495659117,692
-365.60360279663576,628
-363.03166699093265,589
-360.4604419639154,566
-357.8899275306178,526
-355.32012350599507,506
-352.7510297049233,494
-350.1826459421999,501
-347.61497203254316,495
-345.04800779059235,541
-342.4817530309082,507
-339.91620756797226,479
-337.35137121618743,495
-334.7872437898774,495
-332.22382510328725,510
-329.66111497058273,526
-327.09911320585127,533
-324.53781962310075,566
-321.9772340362607,510
-319.4173562591816,506
-316.8581861056348,569
-314.2997233893127,564
-311.7419679238294,552
-309.1849195227194,524
-306.62857799943856,525
-304.0729431673641,511
-301.51801483979375,511
-298.963792829947,542
-296.41027695096386,559
-293.85746701590574,548
-291.3053628377552,583
-288.7539642294155,550
-286.2032710037115,567
-283.65328297338897,569
-281.1039999511146,593
-278.5554217494762,681
-276.007548180983,637
-273.4603790580651,635
-270.9139141930734,562
-268.3681533982807,616
-265.8230964858798,623
-263.27874326798565,600
-260.7350935566336,586
-258.1921471637804,663
-255.6499039013039,707
-253.10836358100266,681
-250.56752601459698,651
-248.02739101372765,664
-245.48795838995704,675
-242.94922795476816,681
-240.41119951956557,665
-237.8738728956746,722
-235.33724789434166,768
-232.80132432673452,861
-230.2661020039418,987
-227.73158073697357,931
-225.19776033676033,754
-222.66464061415422,753
-220.1322213799284,764
-217.60050244477725,753
-215.06948361931552,779
-212.53916471408013,767
-210.00954553952818,766
-207.48062590603843,758
-204.9524056239104,790
-202.4248845033651,817
-199.8980623545441,797
-197.37193898751036,771
-194.84651421224817,796
-192.32178783866232,801
-189.79775967657952,811
-187.27442953574644,870
-184.7517972258321,861
-182.2298625564256,839
-179.7086253370378,958
-177.18808537710026,918
-174.66824248596583,930
-172.14909647290835,968
-169.6306471471229,987
-167.11289431772548,915
-164.59583779375328,829
-162.07947738416453,877
-159.5638128978386,956
-157.04884414357605,1017
-154.53457093009854,1067
-152.02099306604828,994
-149.50811035998936,979
-146.99592262040665,1037
-144.48442965570587,976
-141.97363127421409,954
-139.46352728417958,1021
-136.95411749377126,1002
-134.44540171107985,1103
-131.93737974411636,1121
-129.43005140081357,1164
-126.92341648902493,1202
-124.41747481652521,1215
-121.91222619101006,1075
-119.40767042009657,1120
-116.90380731132257,1195
-114.40063667214702,1290
-111.8981583099503,1339
-109.3963720320337,1400
-106.89527764561933,1279
-104.39487495785067,1301
-101.89516377579241,1375
-99.39614390642998,1343
-96.89781515667039,1370
-94.40017733334128,1627
-91.90323024319173,1665
-89.40697369289148,1744
-86.91140748903172,1687
-84.41653143812482,1477
-81.92234534660395,1585
-79.42884902082358,1658
-76.93604226705907,1727
-74.4439248915071,1814
-71.95249670028534,1679
-69.46175749943245,1959
-66.97170709490854,2158
-64.48234529259423,2361
-61.99367189829195,2258
-59.50568671772464,2180
-57.01838955653636,2622
-54.53178022029283,2655
-52.045858514480074,2659
-49.560624244506016,3139
-47.07607721569923,3012
-44.59221723330904,3009
-42.10904410250669,2688
-39.62655762838392,3267
-37.14475761595372,4170
-34.66364387015028,4290
-32.18321619582866,4658
-29.70347439776515,5283
-27.224418280657005,6296
-24.74604764912317,9491
-22.26836230770266,14272
-19.7913620608565,23541
-17.315046712966478,36363
-14.83941606833514,41283
-12.36446993118659,65038
-9.89020810566592,65038
-7.416630395839093,65038
-4.94373660569363,65038
-2.471526539137585,65038
-6.821210263296962E-13,65038
2.47084320796705,65038
4.941003281093458,65038
7.410480415786196,65038
9.879274808531363,65038
12.347386655893956,65038
14.814816154518212,65038
17.28156350112681,65038
19.74762889252179,65038
22.21301252558385,65038
24.67771459727237,65038
27.141735304626195,32290
29.605074844762612,13937
32.06773341487792,11889
34.52971121224755,8674
36.99100843422559,6764
39.45162527824516,5741
41.91156194181792,6561
44.370818622535126,9515
46.82939551806646,12420
49.287292826160524,13205
51.74451074464503,11087
54.201049471426245,9433
56.65690920448981,6738
59.112090141899785,3485
61.56659248179983,2839
64.02041642241159,2786
66.4735621620365,2733
68.92602989905402,2490
71.37781983192338,2590
73.82893215918205,2116
76.27936707944684,2260
78.72912479141326,2869
81.17820549385567,2853
83.62660938562783,2570
86.07433666566146,2045
88.5213875329681,2344
90.96776218663751,2454
93.41346082583925,2161
95.85848364982041,2081
98.30283085790859,1768
100.7465026495089,1796
103.18949922410604,1901
105.63182078126385,1811
108.07346752062438,1878
110.51443964190923,1836
112.95473734491827,1544
115.39436082953114,1465
117.83331029570547,1563
120.27158594347827,1603
122.7091879729652,1782
125.1461165843615,1389
127.58237197794062,1277
130.01795435405518,1225
132.4528639131364,1290
134.88710085569494,1236
137.32066538231982,1253
139.75355769367923,1266
142.1857779905207,1414
144.61732647366978,1312
147.04820334403132,1263
149.47840880258934,1282
151.90794305040674,1499
154.33680628862487,1483
156.76499871846443,1349
159.19252054122433,1399
161.61937195828352,1651
164.04555317109896,1665
166.47106438120693,1805
168.89590579022217,1977
171.320077599839,1959
173.7435800118302,2007
176.16641322804742,2054
178.58857745042144,2076
181.01007288096173,2227
183.43089972175687,2329
185.85105817497413,2395
188.27054844285988,2242
190.6893707277394,2247
193.10752523201643,2311
195.5250121581745,2391
197.9418317087751,2423
200.3579840864594,2299
202.7734694939469,2334
205.18828813403627,2345
207.6024402096051,2350
210.01592592360964,2357
212.42874547908548,2400
214.84089907914665,2376
217.2523869269868,2333
219.66320922587727,2479
222.0733661791695,2527
224.48285799029293,2428
226.8916848627572,2523
229.29984700014882,2504
231.7073446061355,2502
234.11417788446204,2563
236.520347038953,2644
238.92585227351185,2775
241.33069379212054,2763
243.73487179884035,2931
246.1383864978112,2871
248.541238093252,2810
250.9434267894609,2982
253.34495279081432,2854
255.74581630176783,2987
258.1460175268563,3162
260.54555667069314,3043
262.9444339379703,3024
265.3426495334594,2853
267.7402036620107,2881
270.1370965285529,2842
272.53332833809407,2632
274.9288992957214,2530
277.32380960660055,2469
279.718059475976,2483
282.1116491091717,2454
284.5045787115897,2497
286.89684848871195,2448
289.2884586460981,2424
291.67940938938807,2336
294.0697009242996,2424
296.4593334566299,2420
298.84830719225477,2418
301.23662233712923,2386
303.6242790972866,2326
306.01127767884,2407
308.39761828798066,2395
310.78330113097934,2292
313.16832641418534,2283
315.5526943440269,2234
317.9364051270112,2174
320.3194589697242,2126
322.70185607883093,2146
325.0835966610754,2142
327.4646809232805,2138
329.8451090723478,2090
332.2248813152577,2181
334.6039978590701,2125
336.9824589109231,2009
339.36026467803447,2039
341.7374153677,2005
344.113911187295,1918
346.48975234427337,1940
348.8649390461686,1962
351.2394715005918,1941
353.61334991523415,1962
355.9865744978655,1942
358.35914545633375,1998
360.73106299856715,1979
363.10232733257146,1985
365.47293866643247,1884
367.84289720831396,1960
370.2122031664593,1892
372.5808567491905,1835
374.9488581649083,1926
377.31620762209275,1840
379.6829053293021,1915
382.0489514951745,1843
384.4143463284262,1868
386.7790900378528,1802
389.14318283232853,1868
391.50662492080653,1898
393.86941651231916,1823
396.23155781597745,1834
398.5930490409713,1834
400.9538903965696,1826
403.3140820921202,1814
405.6736243370498,1771
408.03251734086336,1741
410.3907613131465,1780
412.74835646356166,1730
415.10530300185144,1759
417.4616011378372,1839
419.81725108141893,1742
422.1722530425758,1825
424.5266072313656,1814
426.880313857925,1762
429.2333731324701,1747
431.58578526529516,1810
433.9375504667738,1744
436.2886689473588,1771
438.63914091758113,1735
440.9889665880513,1761
443.33814616945835,1689
445.68667987257015,1705
448.03456790823395,1744
450.3818104873759,1740
452.72840782100013,1762
455.07436012019105,1745
457.41966759611057,1748
459.7643304600007,1732
462.10834892318155,1726
464.4517231970525,1737
466.79445349309174,1761
469.1365400228566,1787
471.4779829979826,1793
473.81878263018564,1806
476.15893913125876,1791
478.4984527130747,1783
480.8373235875855,1785
483.17555196682144,1838
485.5131380628919,1903
487.8500820879857,1927
490.1863842543697,1950
492.52204477439034,2145
494.8570638604725,2265
497.1914417251204,2462
499.52517858091653,2866
501.85827464052306,3030
504.19073011668036,3302
506.5225452222086,3414
508.85372017000566,3508
511.18425517304956,3457
513.514150444396,3580
515.8434061971808,3904
518.1720226446176,4225
520.4999999999999,4521
522.8273384766991,4680
525.1540382881666,4820
527.480099647932,4675
529.8055227696037,4020
532.1303078668694,2955
534.454455153496,2219
536.777964843328,1887
539.1008371502907,1796
541.4230722883866,1798
543.744670471698,1704
546.0656319143858,1708
548.3859568306899,1683
550.7056454349294,1630
553.0246979415016,1607
555.3431145648834,1656
557.6608955196306,1536
559.978041020377,1597
562.2945512818363,1514
564.6104265188006,1526
566.9256669461412,1573
569.2402727788082,1605
571.5542442318302,1521
573.8675815203156,1544
576.1802848594508,1538
578.4923544645015,1536
580.8037905508126,1633
583.114593333807,1520
585.4247630289875,1570
587.7342998519354,1579
590.0432040183106,1594
592.3514757438526,1591
594.6591152443794,1603
596.9661227357875,1563
599.2724984340531,1533
601.578242555231,1601
603.8833553154542,1632
606.1878369309362,1619
608.4916876179676,1591
610.7949075929192,1634
613.0974970722403,1663
615.3994562724587,1589
617.7007854101818,1583
620.0014847020951,1671
622.3015543649641,1603
624.6009946156324,1643
626.8998056710224,1591
629.1979877481361,1621
631.4955410640538,1559
633.7924658359349,1596
636.0887622810175,1573
638.3844306166192,1654
640.6794710601358,1641
642.9738838290426,1720
645.2676691408932,1628
647.5608272133207,1618
649.853358264037,1556
652.1452625108324,1613
654.4365401715764,1702
656.7271914642178,1642
659.0172166067838,1723
661.3066158173809,1727
663.5953893141935,1615
665.8835373154867,1721
668.1710600396028,1642
670.4579577049639,1714
672.7442305300709,1675
675.0298787335033,1657
677.3149025339197,1696
679.599302150058,1664
681.8830778007342,1679
684.1662297048437,1655
686.4487580813608,1678
688.7306631493387,1693
691.0119451279091,1657
693.2926042362834,1667
695.5726406937516,1584
697.8520547196814,1611
700.1308465335215,1652
702.4090163547982,1640
704.6865644031171,1621
706.9634908981619,1674
709.2397960596965,1656
711.5154801075631,1623
713.7905432616823,1574
716.0649857420548,1604
718.3388077687592,1617
720.612009561953,1632
722.8845913418733,1597
725.1565533288352,1623
727.427895743234,1674
729.6986188055427,1614
731.9687227363137,1608
734.238207756178,1648
736.5070740858458,1661
738.7753219461066,1626
741.0429515578281,1631
743.3099631419569,1615
745.5763569195191,1633
747.8421331116193,1599
750.1072919394409,1647
752.3718336242467,1647
754.6357583873777,1559
756.8990664502545,1596
759.1617580343765,1629
761.423833361321,1613
763.6852926527457,1580
765.9461361303862,1618
768.206364016058,1639
770.4659765316536,1640
772.7249738991469,1627
774.9833563405886,1626
777.2411240781092,1642
779.4982773339183,1671
781.7548163303044,1682
784.010741289634,1703
786.2660524343538,1722
788.5207499869881,1731
790.7748341701416,1670
793.0283052064964,1644
795.2811633188143,1688
797.5334087299362,1634
799.7850416627813,1674
802.0360623403484,1733
804.2864709857143,1647
806.5362678220353,1636
808.7854530725468,1695
811.0340269605625,1648
813.2819897094754,1656
815.5293415427581,1653
817.77608268396,1651
820.0222133567116,1599
822.2677337847211,1659
824.5126441917765,1697
826.7569448017433,1603
829.0006358385675,1671
831.2437175262731,1669
833.4861900889629,1685
835.7280537508192,1711
837.9693087361026,1703
840.2099552691533,1702
842.4499935743896,1703
844.689423876309,1669
846.9282463994886,1636
849.1664613685833,1686
851.4040690083276,1636
853.6410695435349,1693
855.877463199097,1656
858.1132501999847,1713
860.3484307712487,1627
862.5830051380175,1707
864.8169735254988,1693
867.0503361589791,1654
869.2830932638243,1715
871.5152450654786,1602
873.7467917894654,1688
875.9777336613873,1706
878.2080709069252,1728
880.4378037518389,1724
882.666932421968,1701
884.8954571432301,1713
887.1233781416219,1697
889.3506956432192,1651
891.5774098741766,1710
893.803521060728,1722
896.0290294291852,1758
898.2539352059397,1711
900.4782386174619,1717
902.7019398903011,1646
904.925039251085,1756
907.147536926521,1721
909.3694331433943,1658
911.59072812857,1687
913.8114221089921,1648
916.0315153116827,1691
918.2510079637437,1745
920.4699002923547,1678
922.6881925247761,1675
924.905884888345,1664
927.1229776104793,1717
929.3394709186747,1663
931.555365040506,1747
933.7706602036275,1731
935.9853566357709,1708
938.1994545647489,1672
940.4129542184515,1678
942.6258558248488,1788
944.8381596119883,1710
947.0498658079974,1759
949.2609746410825,1749
951.4714863395287,1690
953.6814011316998,1682
955.8907192460387,1751
958.0994409110671,1726
960.3075663553858,1695
962.5150958076741,1715
964.7220294966913,1661
966.928367651274,1614
969.1341105003388,1667
971.3392582728806,1700
973.5438111979742,1663
975.747769504772,1666
977.9511334225061,1592
980.153903180487,1652
982.3560790081052,1652
984.5576611348289,1621
986.7586497902058,1619
988.9590452038618,1605
991.158847605503,1572
993.3580572249133,1506
995.5566742919558,1546
997.7546990365728,1539
999.952131688785,1503
1002.1489724786926,1462
1004.3452216364743,1481
1006.5408793923874,1421
1008.7359459767691,1455
1010.9304216200343,1515
1013.1243065526781,1485
1015.3176010052733,1417
1017.510305208472,1411
1019.7024193930064,1372
1021.8939437896848,1399
1024.0848786293977,1379
1026.2752241431122,1346
1028.4649805618747,1333
1030.6541481168115,1386
1032.842727039127,1318
1035.0307175601051,1388
1037.2181199111074,1367
1039.4049343235752,1376
1041.591161029029,1371
1043.7768002590683,1344
1045.9618522453698,1344
1048.1463172196918,1317
1050.3301954138697,1381
1052.513487059818,1328
1054.69619238953,1408
1056.8783116350783,1322
1059.0598450286152,1307
1061.2407928023704,1355
1063.4211551886528,1266
1065.6009324198508,1342
1067.780124728432,1386
1069.9587323469414,1286
1072.1367555080046,1301
1074.314194444325,1317
1076.4910493886855,1323
1078.667320573947,1293
1080.843008233051,1319
1083.0181125990161,1322
1085.1926339049414,1314
1087.3665723840027,1330
1089.5399282694575,1275
1091.7127017946405,1311
1093.8848931929647,1358
1096.0565026979243,1282
1098.2275305430899,1304
1100.3979769621128,1280
1102.567842188722,1280
1104.737126456726,1267
1106.9058300000124,1232
1109.0739530525475,1258
1111.2414958483764,1252
1113.4084586216231,1323
1115.5748416064907,1244
1117.7406450372605,1258
1119.9058691482942,1232
1122.0705141740304,1225
1124.2345803489884,1233
1126.3980679077658,1219
1128.5609770850388,1222
1130.7233081155623,1216
1132.8850612341707,1275
1135.0462366757774,1254
1137.2068346753745,1246
1139.3668554680326,1247
1141.526299288901,1217
1143.68516637321,1229
1145.8434569562655,1208
1148.001171273455,1208
1150.158309560244,1205
1152.3148720521767,1246
1154.470858984876,1182
1156.626270594044,1210
1158.7811071154629,1198
1160.9353687849912,1278
1163.089055838569,1269
1165.242168512213,1267
1167.3947070420209,1219
1169.5466716641677,1242
1171.6980626149075,1227
1173.8488801305748,1268
1175.9991244475814,1299
1178.1487958024186,1236
1180.2978944316555,1244
1182.4464205719428,1270
1184.5943744600072,1219
1186.7417563326567,1208
1188.8885664267755,1203
1191.0348049793297,1233
1193.1804722273619,1276
1195.325568407995,1242
1197.4700937584303,1247
1199.614048515948,1184
1201.7574329179074,1200
1203.900247201746,1239
1206.042491604982,1233
1208.1841663652099,1200
1210.3252717201053,1190
1212.465807907422,1208
1214.6057751649923,1274
1216.7451737307279,1301
1218.8840038426192,1256
1221.0222657387353,1215
1223.1599596572241,1265
1225.2970858363137,1276
1227.4336445143094,1226
1229.5696359295966,1206
1231.705060320639,1265
1233.8399179259786,1254
1235.9742089842384,1220
1238.107933734118,1219
1240.2410924143974,1236
1242.373685263935,1278
1244.5057125216676,1264
1246.6371744266116,1253
1248.7680712178621,1250
1250.898403134593,1231
1253.028170416058,1216
1255.1573733015875,1243
1257.2860120305932,1251
1259.4140868425648,1282
1261.54159797707,1266
1263.6685456737569,1313
1265.7949301723515,1292
1267.9207517126597,1328
1270.046010534565,1263
1272.1707068780306,1301
1274.2948409830983,1297
1276.4184130898889,1333
1278.541423438603,1317
1280.6638722695184,1381
1282.785759822993,1281
1284.9070863394636,1323
1287.0278520594447,1346
1289.1480572235314,1335
1291.2677020723963,1318
1293.3867868467923,1321
1295.5053117875495,1350
1297.623277135579,1368
1299.740683131868,1416
1301.8575300174857,1343
1303.973818033578,1445
1306.0895474213703,1386
1308.2047184221678,1385
1310.3193312773528,1376
1312.4333862283888,1441
1314.5468835168163,1447
1316.659823384255,1418
1318.7722060724045,1463
1320.8840318230418,1415
1322.9953008780249,1429
1325.1060134792888,1390
1327.2161698688478,1410
1329.3257702887959,1401
1331.4348149813054,1436
1333.5433041886276,1393
1335.6512381530933,1417
1337.7586171171101,1444
1339.8654413231675,1430
1341.9717110138317,1353
1344.0774264317488,1362
1346.1825878196432,1441
1348.2871954203192,1391
1350.3912494766587,1382
1352.4947502316231,1421
1354.5976979282532,1375
1356.7000928096686,1359
1358.8019351190665,1348
1360.9032250997243,1392
1363.0039629949988,1426
1365.1041490483235,1384
1367.2037835032133,1403
1369.3028666032606,1336
1371.401398592137,1390
1373.4993797135926,1419
1375.5968102114575,1344
1377.6936903296396,1373
1379.7900203121262,1421
1381.8858004029835,1375
1383.9810308463561,1391
1386.075711886469,1420
1388.1698437676241,1409
1390.2634267342032,1373
1392.356461030667,1405
1394.4489469015557,1315
1396.5408845914872,1394
1398.6322743451592,1321
1400.7231164073469,1384
1402.813411022907,1424
1404.903158436773,1352
1406.9923588939578,1423
1409.0810126395531,1367
1411.1691199187303,1395
1413.2566809767386,1409
1415.343696058907,1416
1417.4301654106425,1432
1419.5160892774315,1392
1421.6014679048399,1427
1423.6863015385125,1402
1425.7705904241707,1447
1427.8543348076178,1423
1429.9375349347342,1419
1432.0201910514802,1466
1434.102303403894,1466
1436.1838722380944,1506
1438.2648978002767,1432
1440.3453803367174,1504
1442.4253200937692,1497
1444.5047173178677,1500
1446.5835722555234,1504
1448.6618851533285,1577
1450.739656257952,1552
1452.8168858161434,1557
1454.8935740747306,1607
1456.96972128062,1553
1459.045327680797,1565
1461.120393522327,1577
1463.1949190523528,1563
1465.2689045180973,1662
1467.3423501668608,1756
1469.415256246024,1709
1471.4876230030463,1748
1473.559450685465,1725
1475.6307395408976,1750
1477.7014898170391,1770
1479.771701761665,1763
1481.8413756226287,1823
1483.9105116478618,1834
1485.9791100853772,1808
1488.0471711832643,1820
1490.1146951896926,1836
1492.1816823529098,1985
1494.2481329212433,1956
1496.3140471430984,1928
1498.3794252669609,2036
1500.4442675413939,1925
1502.5085742150404,1931
1504.572345536622,2039
1506.6355817549388,1997
1508.6982831188702,1986
1510.7604498773744,1995
1512.8220822794883,2023
1514.8831805743293,1922
1516.9437450110909,2011
1519.003775839048,1949
1521.0632733075522,2013
1523.1222376660367,2024
1525.1806691640113,1961
1527.2385680510652,1983
1529.2959345768668,2131
1531.3527689911643,1959
1533.4090715437833,2027
1535.4648424846291,2099
1537.5200820636855,2074
1539.5747905310159,2159
1541.6289681367616,2066
1543.6826151311434,2156
1545.7357317644614,2172
1547.7883182870937,2212
1549.8403749494987,2259
1551.8919020022113,2271
1553.9428996958477,2335
1555.9933682811015,2382
1558.0433080087469,2448
1560.0927191296346,2390
1562.1416018946961,2414
1564.1899565549415,2362
1566.2377833614592,2471
1568.2850825654164,2505
1570.3318544180606,2511
1572.3780991707158,2439
1574.423817074788,2411
1576.4690083817595,2392
1578.5136733431923,2267
1580.5578122107272,2266
1582.601425236085,2183
1584.6445126710646,2130
1586.6870747675434,2074
1588.7291117774776,1982
1590.7706239529034,1879
1592.8116115459347,1825
1594.8520748087658,1855
1596.8920139936686,1743
1598.9314293529933,1751
1600.9703211391711,1680
1603.008689604711,1628
1605.0465350022005,1580
1607.0838575843068,1611
1609.1206576037753,1560
1611.1569353134305,1483
1613.1926909661765,1527
1615.2279248149953,1484
1617.2626371129481,1452
1619.2968281131757,1407
1621.3304980688963,1417
1623.3636472334088,1423
1625.39627586009,1444
1627.428384202396,1363
1629.459972513861,1352
1631.4910410480993,1353
1633.5215900588028,1335
1635.551619799744,1344
1637.5811305247717,1334
1639.6101224878166,1272
1641.6385959428862,1302
1643.6665511440683,1313
1645.693988345528,1290
1647.7209078015112,1239
1649.7473097663405,1307
1651.7731944944203,1305
1653.7985622402307,1319
1655.823413258333,1254
1657.847747803366,1207
1659.8715661300494,1241
1661.8948684931793,1248
1663.9176551476316,1285
1665.9399263483624,1250
1667.9616823504057,1287
1669.982923408873,1287
1672.0036497789574,1265
1674.0238617159293,1209
1676.043559475138,1241
1678.0627433120121,1243
1680.081413482059,1263
1682.0995702408654,1281
1684.117213844096,1235
1686.134344547495,1233
1688.1509626068864,1264
1690.1670682781705,1238
1692.182661817329,1253
1694.1977434804217,1193
1696.2123135235875,1228
1698.226372203043,1219
1700.2399197750851,1182
1702.2529564960905,1284
1704.2654826225112,1217
1706.277498410882,1206
1708.2890041178139,1289
1710.2999999999988,1264
1712.3104863142066,1251
1714.3204633172854,1250
1716.329931266163,1199
1718.3388904178469,1197
1720.3473410294214,1201
1722.3552833580516,1261
1724.3627176609807,1193
1726.3696441955308,1226
1728.3760632191033,1175
1730.3819749891782,1207
1732.3873797633146,1228
1734.3922777991502,1173
1736.3966693544012,1155
1738.4005546868639,1190
1740.4039340544127,1210
1742.406807715001,1213
1744.4091759266616,1168
1746.4110389475054,1182
1748.4123970357223,1176
1750.413250449582,1198
1752.4135994474318,1190
1754.4134442876993,1163
1756.4127852288902,1175
1758.4116225295893,1116
1760.4099564484595,1165
1762.407787244244,1173
1764.405115175764,1158
1766.4019405019203,1197
1768.3982634816916,1162
1770.3940843741357,1166
1772.3894034383907,1172
1774.3842209336717,1155
1776.378537119274,1132
1778.372352254571,1148
1780.3656665990156,1185
1782.3584804121397,1154
1784.3507939535534,1200
1786.3426074829463,1158
1788.3339212600863,1082
1790.3247355448211,1121
1792.3150505970766,1145
1794.3048666768573,1150
1796.2941840442477,1154
1798.2830029594106,1195
1800.2713236825884,1162
1802.2591464741004,1118
1804.2464715943465,1134
1806.2332993038058,1193
1808.2196298630352,1157
1810.2054635326708,1110
1812.190800573428,1134
1814.175641246101,1129
1816.1599858115628,1150
1818.1438345307652,1126
1820.127187664738,1178
1822.1100454745924,1141
1824.092408221516,1180
1826.0742761667766,1141
1828.055649571721,1098
1830.0365286977735,1106
1832.0169138064398,1119
1833.9968051593014,1126
1835.9762030180214,1145
1837.9551076443408,1129
1839.9335193000788,1153
1841.9114382471344,1150
1843.888864747485,1102
1845.8657990631878,1136
1847.842241456378,1115
1849.8181921892697,1129
1851.7936515241558,1116
1853.7686197234098,1131
1855.7430970494815,1126
1857.7170837649014,1185
1859.6905801322787,1129
1861.6635864143004,1110
1863.6361028737338,1138
1865.608129773424,1133
1867.5796673762961,1182
1869.5507159453537,1144
1871.521275743678,1133
1873.4913470344313,1145
1875.4609300808534,1180
1877.4300251462632,1121
1879.3986324940588,1153
1881.366752387717,1163
1883.3343850907936,1185
1885.3015308669228,1131
1887.268189979819,1126
1889.2343626932739,1195
1891.2000492711595,1169
1893.1652499774254,1176
1895.1299650761011,1158
1897.0941948312952,1230
1899.0579395071945,1163
1901.0211993680641,1119
1902.98397467825,1260
1904.9462657021745,1166
1906.9080727043415,1246
1908.869395949332,1155
1910.8302357018065,1200
1912.790592226504,1207
1914.7504657882428,1181
1916.7098566519212,1147
1918.6687650825133,1191
1920.6271913450764,1160
1922.5851357047422,1163
1924.5425984267245,1139
1926.499579776314,1121
1928.4560800188833,1178
1930.4120994198802,1146
1932.367638244833,1112
1934.32269675935,1149
1936.2772752291175,1202
1938.231373919899,1182
1940.1849930975404,1167
1942.1381330279637,1171
1944.0907939771696,1133
1946.0429762112412,1131
1947.9946799963363,1118
1949.9459055986945,1150
1951.896653284633,1187
1953.8469233205478,1111
1955.7967159729142,1131
1957.7460315082863,1113
1959.6948701932974,1193
1961.6432322946594,1101
1963.5911180791632,1148
1965.5385278136787,1176
1967.4854617651545,1152
1969.4319202006182,1166
1971.377903387176,1118
1973.3234115920136,1159
1975.268445082395,1121
1977.2130041256642,1180
1979.1570889892423,1111
1981.1006999406304,1090
1983.04383724741,1088
1984.986501177238,1169
1986.928691997853,1153
1988.8704099770712,1168
1990.811655382789,1115
1992.7524284829801,1107
1994.692729545698,1135
1996.6325588390755,1092
1998.5719166313224,1101
2000.5108031907307,1112
2002.4492187856677,1137
2004.387163684583,1153
2006.3246381560011,1110
2008.2616424685298,1104
2010.1981768908527,1146
2012.1342416917332,1077
2014.069837140014,1098
2016.0049635046162,1149
2017.9396210545406,1109
2019.8738100588666,1138
2021.8075307867502,1139
2023.740783507431,1130
2025.6735684902228,1086
2027.6058860045214,1125
2029.5377363198004,1154
2031.4691197056118,1094
2033.4000364315875,1094
2035.3304867674374,1100
2037.260470982952,1161
2039.189989347998,1078
2041.1190421325232,1095
2043.047629606554,1154
2044.9757520401945,1111
2046.9034097036288,1103
2048.8306028671195,1093
2050.7573318010086,1142
2052.683596775716,1064
2054.609398061742,1116
2056.5347359296647,1123
2058.4596106501403,1184
2060.384022493906,1141
2062.3079717317764,1102
2064.231458634646,1107
2066.1544834734873,1108
2068.077046519352,1136
2069.99914804337,1124
2071.9207883167524,1098
2073.8419676107865,1127
2075.7626861968406,1110
2077.6829443463607,1096
2079.6027423308715,1093
2081.522080421977,1125
2083.440958891362,1086
2085.359378010786,1098
2087.2773380520907,1135
2089.194839287196,1141
2091.111881988101,1060
2093.0284664268825,1102
2094.9445928756973,1136
2096.86026160678,1112
2098.775472892446,1080
2100.690227005088,1126
2102.604524217178,1128
2104.5183648012676,1111
2106.431749029985,1095
2108.34467717604,1095
2110.2571495122206,1080
2112.169166311393,1094
2114.080727846503,1103
2115.9918343905747,1159
2117.902486216711,1150
2119.8126835980956,1122
2121.722426807987,1133
2123.6317161197285,1122
2125.5405518067364,1162
2127.448934142509,1156
2129.356863400624,1074
2131.264339854737,1095
2133.1713637785815,1108
2135.077935445972,1121
2136.9840551308002,1054
2138.889723107037,1108
2140.7949396487334,1112
2142.699705030018,1108
2144.6040195250994,1104
2146.507883408264,1137
2148.4112969538774,1149
2150.3142604363848,1088
2152.2167741303097,1096
2154.1188383102535,1171
2156.0204532508997,1122
2157.9216192270064,1132
2159.822336513414,1143
2161.7226053850413,1073
2163.622426116884,1106
2165.5217989840185,1119
2167.4207242616,1154
2169.319202224862,1104
2171.2172331491165,1084
2173.1148173097563,1136
2175.0119549822507,1068
2176.90864644215,1153
2178.8048919650823,1134
2180.7006918267534,1165
2182.596046302952,1105
2184.4909556695407,1119
2186.3854202024645,1125
2188.279440177746,1114
2190.173015871487,1138
2192.066147559868,1089
2193.958835519149,1091
2195.851080025667,1107
2197.7428813558417,1157
2199.6342397861667,1121
2201.5251555932186,1134
2203.415629053651,1130
2205.3056604441986,1141
2207.19525004167,1087
2209.084398122958,1155
2210.9731049650327,1133
2212.861370844941,1117
2214.749196039812,1128
2216.636580826851,1122
2218.523525483344,1101
2220.410030286655,1150
2222.296095514226,1049
2224.1817214435805,1084
2226.066908352319,1130
2227.951656518121,1162
2229.835966218746,1122
2231.71983773203,1076
2233.6032713358913,1156
2235.486267308324,1128
2237.3688259274036,1098
2239.2509474712824,1116
2241.132632218193,1140
2243.013880446447,1087
2244.8946924344323,1117
2246.7750684606203,1123
2248.6550088035574,1162
2250.534513741871,1092
2252.413583554265,1150
2254.292218519526,1133
2256.170418916517,1133
2258.0481850241786,1085
2259.925517121534,1098
2261.8024154876825,1104
2263.678880401803,1143
2265.5549121431536,1084
2267.430510991071,1139
2269.305677224971,1087
2271.180411124348,1103
2273.0547129687766,1135
2274.9285830379076,1101
2276.8020216114737,1092
2278.6750289692845,1088
2280.5476053912294,1077
2282.4197511572766,1095
2284.2914665474727,1111
2286.162751841943,1122
2288.0336073208937,1093
2289.904033264608,1113
2291.774029953448,1103
2293.6435976678554,1105
2295.5127366883517,1083
2297.381447295534,1085
2299.2497297700825,1062
2301.1175843927526,1125
2302.9850114443825,1141
2304.852011205885,1131
2306.7185839582553,1145
2308.5847299825664,1078
2310.4504495599676,1168
2312.3157429716925,1143
2314.1806104990483,1086
2316.0450524234247,1122
2317.9090690262888,1150
2319.772660589186,1159
2321.635827393742,1137
2323.498569721661,1095
2325.3608878547248,1125
2327.2227820747967,1156
2329.0842526638157,1186
2330.945299903803,1142
2332.805924076857,1158
2334.6661254651535,1131
2336.525904350951,1142
2338.3852610165827,1173
2340.244195744464,1142
2342.102708817088,1084
2343.9608005170253,1142
2345.8184711269287,1121
2347.675720929526,1184
2349.532550207628,1138
2351.38895924412,1164
2353.24494832197,1162
2355.100517724223,1114
2356.955667734004,1146
2358.810398634514,1187
2360.664710709037,1126
2362.5186042409337,1147
2364.3720795136437,1121
2366.225136810686,1172
2368.0777764156583,1182
2369.929998612237,1180
2371.7818036841777,1165
2373.633191915315,1121
2375.484163589562,1118
2377.3347189909114,1173
2379.184858403434,1128
2381.03458211128,1131
2382.8838903986775,1155
2384.732783549936,1122
2386.5812618494406,1107
2388.4293255816588,1128
2390.2769750311327,1154
2392.1242104824883,1147
2393.971032220427,1144
2395.8174405297295,1136
2397.6634356952563,1171
2399.509018001947,1130
2401.3541877348193,1198
2403.1989451789705,1197
2405.043290619576,1165
2406.8872243418905,1144
2408.730746631247,1178
2410.5738577730594,1181
2412.4165580528183,1212
2414.258847756095,1177
2416.100727168537,1134
2417.9421965758734,1194
2419.783256263912,1204
2421.623906518538,1153
2423.4641476257157,1138
2425.303979871491,1236
2427.143403541984,1238
2428.9824189233977,1185
2430.821026302012,1149
2432.6592259641866,1173
2434.497018196361,1192
2436.33440328505,1135
2438.171381516851,1171
2440.00795317844,1212
2441.844118556569,1179
2443.6798779380724,1211
2445.5152316098606,1201
2447.3501798589255,1144
2449.1847229723357,1170
2451.0188612372403,1150
2452.8525949408663,1171
2454.6859243705203,1163
2456.518849813587,1154
2458.3513715575314,1170
2460.183489889895,1191
2462.015205098301,1181
2463.8465174704493,1149
2465.67742729412,1212
2467.5079348571717,1177
2469.338040447542,1200
2471.1677443532476,1204
2472.9970468623833,1146
2474.825948263123,1179
2476.6544488437207,1185
2478.482548892508,1157
2480.310248697896,1173
2482.137548548374,1218
2483.9644487325118,1180
2485.790949538956,1151
2487.617051256433,1195
2489.44275417375,1222
2491.26805857979,1169
2493.0929647635157,1179
2494.917473013971,1226
2496.741583620276,1141
2498.5652968716304,1187
2500.3886130573137,1169
2502.2115324666834,1155
2504.0340553891765,1179
2505.856182114308,1171
2507.6779129316733,1151
2509.499248130945,1162
2511.3201880018764,1219
2513.140732834298,1174
2514.9608829181198,1205
2516.780638543331,1181
2518.6,1199
2520.418967578273,1233
2522.237541568376,1213
2524.0557222606144,1209
2525.8735099453706,1206
2527.6909049131086,1188
2529.507907454368,1181
2531.32451785977,1214
2533.140736420014,1236
2534.9565634258774,1241
2536.771999168218,1194
2538.5870439379714,1233
2540.4016980261526,1187
2542.2159617238544,1253
2544.02983532225,1221
2545.8433191125914,1247
2547.656413386209,1243
2549.4691184345115,1222
2551.2814345489874,1317
2553.093362021204,1304
2554.904901142808,1272
2556.716052205523,1271
2558.526815501153,1270
2560.3371913215824,1285
2562.147179958771,1281
2563.956781704761,1300
2565.7659968516705,1313
2567.5748256916986,1298
2569.3832685171224,1277
2571.1913256202984,1296
2572.9989972936614,1302
2574.806283829725,1355
2576.613185521084,1354
2578.4197026604074,1356
2580.2258355404483,1367
2582.031584454035,1367
2583.836949694077,1401
2585.6419315535613,1407
2587.4465303255533,1419
2589.2507463032002,1348
2591.0545797797245,1310
2592.8580310484303,1374
2594.6611004026995,1368
2596.463788135992,1398
2598.266094541849,1333
2600.0680199138874,1336
2601.869564545807,1369
2603.670728731383,1442
2605.4715127644704,1306
2607.2719169390048,1338
2609.071941548998,1366
2610.8715868885433,1298
2612.670853251811,1383
2614.469740933052,1327
2616.268250226594,1366
2618.0663814268455,1333
2619.864134828292,1329
2621.6615107255006,1298
2623.458509413115,1317
2625.2551311858597,1322
2627.0513763385347,1316
2628.8472451660223,1316
2630.6427379632833,1322
2632.4378550253564,1314
2634.232596647359,1282
2636.026963124488,1337
2637.8209547520187,1313
2639.6145718253065,1287
2641.407814639785,1284
2643.200683490966,1254
2644.9931786744414,1306
2646.7853004858807,1268
2648.577049221034,1248
2650.3684251757277,1269
2652.1594286458712,1263
2653.9500599274484,1268
2655.740319316525,1250
2657.5302071092437,1228
2659.3197236018286,1232
2661.10886909058,1232
2662.8976438718782,1250
2664.686048242183,1238
2666.4740824980327,1190
2668.2617469360443,1202
2670.0490418529134,1255
2671.8359675454153,1215
2673.622524310403,1260
2675.408712444811,1182
2677.1945322456495,1209
2678.979984010009,1202
2680.76506803506,1214
2682.5497846180497,1199
2684.334134056306,1192
2686.1181166472343,1152
2687.9017326883213,1176
2689.6849824771293,1138
2691.4678663113013,1196
2693.2503844885596,1200
2695.032537306705,1209
2696.8143250636167,1150
2698.5957480572542,1114
2700.3768065856534,1193
2702.1575009469316,1125
2703.937831439283,1118
2705.717798360982,1179
2707.4974020103837,1166
2709.276642685917,1194
2711.055520686095,1146
2712.834036309506,1107
2714.612189854819,1122
2716.389981620782,1144
2718.1674119062204,1113
2719.944481010041,1125
2721.721189231226,1139
2723.4975368688415,1126
2725.273524222027,1086
2727.0491515900053,1083
2728.824419272075,1091
2730.5993275676146,1155
2732.3738767760838,1125
2734.148067197016,1102
2735.921899130031,1075
2737.6953728748194,1122
2739.468488731156,1156
2741.2412469988926,1104
2743.0136479779617,1137
2744.785691968372,1115
2746.5573792702116,1086
2748.3287101836504,1094
2750.099685008934,1106
2751.870304046388,1131
2753.640567596418,1139
2755.4104759595057,1091
2757.1800294362156,1069
2758.949228327187,1110
2760.7180729331412,1141
2762.486563554877,1128
2764.254700493272,1079
2766.022484049284,1087
2767.789914523947,1096
2769.5569922183786,1126
2771.3237174337705,1091
2773.090090471394,1116
2774.8561116326036,1105
2776.6217812188274,1129
2778.3870995315756,1138
2780.1520668724356,1097
2781.9166835430747,1154
2783.6809498452394,1133
2785.444866080754,1110
2787.2084325515225,1146
2788.971649559527,1113
2790.73451740683,1115
2792.4970363955713,1136
2794.2592068279705,1048
2796.0210290063264,1151
2797.7825032330147,1128
2799.543629810493,1117
2801.304409041296,1123
2803.0648412280366,1068
2804.8249266734088,1117
2806.5846656801846,1124
2808.344058551212,1044
2810.1031055894246,1131
2811.8618070978273,1129
2813.6201633795085,1093
2815.378174737636,1093
2817.1358414754536,1153
2818.893163896285,1049
2820.6501423035334,1109
2822.4067770006814,1069
2824.1630682912883,1095
2825.9190164789957,1104
2827.6746218675207,1089
2829.429884760661,1098
2831.184805462294,1095
2832.9393842763743,1111
2834.693621506936,1094
2836.4475174580916,1106
2838.201072434034,1114
2839.954286739034,1124
2841.707160677441,1084
2843.459694553685,1082
2845.2118886722724,1090
2846.96374333779,1117
2848.7152588549034,1127
2850.4664355283567,1122
2852.217273662973,1094
2853.9677735636546,1098
2855.7179355353833,1079
2857.4677598832186,1089
2859.217246912299,1145
2860.9663969278427,1101
2862.715210235146,1075
2864.4636871395846,1080
2866.211827946614,1076
2867.9596329617652,1090
2869.7071024906536,1055
2871.4542368389684,1078
2873.20103631248,1105
2874.947501217038,1110
2876.6936318585695,1093
2878.4394285430812,1098
2880.1848915766604,1099
2881.9300212654707,1113
2883.6748179157553,1136
2885.4192818338374,1146
2887.1634133261173,1092
2888.907212699077,1074
2890.6506802592744,1119
2892.393816313348,1090
2894.1366211680142,1071
2895.8790951300693,1081
2897.621238506388,1110
2899.363051603925,1113
2901.1045347297118,1130
2902.8456881908596,1119
2904.58651229456,1129
2906.327007348081,1118
2908.067173658772,1139
2909.8070115340597,1132
2911.5465212814497,1081
2913.285703208527,1049
2915.0245576229563,1085
2916.7630848324807,1122
2918.5012851449196,1107
2920.2391588681758,1087
2921.976706310227,1051
2923.7139277791334,1093
2925.4508235830313,1126
2927.187394030137,1051
2928.923639428745,1102
2930.6595600872306,1061
2932.395156314046,1111
2934.1304284177218,1122
2935.8653767068713,1092
2937.6000014901815,1109
2939.3343030764227,1063
2941.068281774442,1089
2942.8019378931644,1095
2944.5352717415976,1022
2946.2682836288236,1111
2948.0009738640065,1100
2949.7333427563885,1139
2951.465390615289,1107
2953.1971177501086,1089
2954.9285244703265,1097
2956.6596110855,1173
2958.3903779052657,1128
2960.1208252393385,1062
2961.8509533975125,1112
2963.5807626896617,1104
2965.3102534257378,1070
2967.0394259157715,1082
2968.768280469873,1096
2970.496817398232,1101
2972.2250370111146,1079
2973.952939618869,1088
2975.6805255319196,1078
2977.4077950607707,1124
2979.134748516006,1117
2980.861386208289,1135
2982.587708448359,1119
2984.313715547037,1085
2986.039407815222,1098
2987.764785563891,1138
2989.489849104102,1063
2991.2145987469908,1066
2992.9390348037705,1087
2994.6631575857346,1142
2996.3869674042576,1075
2998.1104645707887,1079
2999.83364939686,1073
3001.5565221940783,1038
3003.2790832741334,1081
3005.0013329487924,1113
3006.7232715298996,1110
3008.4448993293804,1078
3010.166216659239,1088
3011.887223831558,1083
3013.607921158498,1058
3015.3283089522993,1059
3017.0483875252826,1079
3018.7681571898443,1099
3020.4876182584626,1077
3022.2067710436927,1148
3023.9256158581707,1077
3025.644153014609,1086
3027.362382825801,1113
3029.0803056046193,1092
3030.797921664012,1069
3032.5152313170106,1100
3034.2322348767225,1064
3035.9489326563353,1091
3037.665324969115,1065
3039.3814121284063,1089
3041.097194447633,1116
3042.812672240299,1094
3044.5278458199855,1069
3046.2427155003525,1076
3047.9572815951406,1101
3049.671544418167,1089
3051.38550428333,1042
3053.0991615046073,1033
3054.812516396051,1102
3056.5255692717974,1071
3058.2383204460575,1094
3059.9507702331257,1076
3061.662918947372,1064
3063.3747669032446,1062
3065.0863144152736,1101
3066.7975617980674,1062
3068.508509366309,1060
3070.219157434767,1091
3071.9295063182844,1105
3073.639556331785,1049
3075.3493077902704,1086
3077.058761008821,1062
3078.7679163025964,1056
3080.476773986837,1077
3082.1853343768594,1110
3083.89359778806,1055
3085.6015645359153,1030
3087.3092349359786,1070
3089.016609303884,1106
3090.7236879553434,1078
3092.4304712061476,1080
3094.136959372166,1080
3095.843152769349,1118
3097.5490517137237,1065
3099.2546565213966,1089
3100.959967508554,1101
3102.66498499146,1090
3104.3697092864577,1053
3106.0741407099695,1135
3107.778279578498,1052
3109.482126208622,1110
3111.1856809170004,1114
3112.8889440203716,1074
3114.5919158355528,1095
3116.294596679439,1066
3117.996986869006,1121
3119.6990867213062,1131
3121.4008965534726,1076
3123.102416682717,1105
3124.803647426329,1111
3126.5045891016784,1111
3128.205242026213,1083
3129.90560651746,1052
3131.605682893025,1092
3133.3054714705922,1075
3135.0049725679282,1086
3136.7041865028714,1107
3138.4031135933465,1073
3140.101754157353,1028
3141.800108512971,1110
3143.498176978357,1084
3145.1959598717494,1105
3146.8934575114636,1104
3148.5906702158954,1119
3150.2875983035183,1032
3151.9842420928853,1075
3153.680601902627,1092
3155.376678051456,1089
3157.07247085816,1074
3158.767980641609,1042
3160.463207720748,1042
3162.158152414606,1111
3163.8528150422862,1026
3165.5471959229726,1076
3167.2412953759303,1083
3168.9351137204976,1081
3170.628651276098,1016
3172.3219083622307,1098
3174.014885298474,1067
3175.707582404485,1080
3177.4000000000005,1081
3179.092138404835,1097
3180.7839979388846,1104
3182.47557892212,1090
3184.166881674594,1086
3185.8579065164386,1072
3187.5486537678626,1091
3189.2391237491547,1092
3190.9293167806827,1091
3192.6192331828934,1077
3194.3088732763117,1088
3195.998237381542,1029
3197.687325819268,1061
3199.376138910251,1069
3201.064676975334,1097
3202.7529403354347,1070
3204.4409293115523,1052
3206.1286442247647,1068
3207.816085396229,1039
3209.5032531471825,1049
3211.190147798936,1063
3212.8767696728846,1100
3214.5631190905015,1098
3216.2491963733373,1107
3217.9350018430214,1078
3219.6205358212637,1068
3221.305798629851,1046
3222.990790590651,1090
3224.6755120256103,1078
3226.359963256751,1019
3228.0441446061795,1059
3229.7280563960758,1082
3231.411698948703,1091
3233.0950725863995,1089
3234.778177631587,1091
3236.461014406761,1064
3238.1435832345005,1049
3239.8258844374595,1043
3241.507918338374,1031
3243.1896852600576,1083
3244.8711855254023,1066
3246.552419457381,1071
3248.233387379042,1060
3249.914089613516,1090
3251.59452648401,1012
3253.274698313813,1024
3254.95460542629,1017
3256.6342481448855,1052
3258.313626793125,1038
3259.9927416946084,1059
3261.6715931730196,1057
3263.3501815521176,1070
3265.0285071557437,1050
3266.706570307815,1053
3268.3843713323286,1073
3270.0619105533615,1069
3271.739188295068,1034
3273.4162048816834,1072
3275.0929606375184,1052
3276.769455886966,1054
3278.445690954498,1093
3280.1216661646613,1066
3281.797381842087,1121
3283.4728383114807,1073
3285.1480358976296,1071
3286.8229749253996,1027
3288.4976557197333,1081
3290.172078605655,1073
3291.846243908266,1019
3293.5201519527463,1049
3295.193803064357,1031
3296.8671975684374,1045
3298.5403357904024,1021
3300.21321805575,1026
3301.8858446900567,1051
3303.558216018975,1075
3305.23033236824,1064
3306.9021940636603,1108
3308.57380143113,1057
3310.2451547966184,1042
3311.916254486174,1037
3313.5871008259246,1019
3315.2576941420766,1066
3316.9280347609147,1101
3318.5981230088046,1040
3320.2679592121895,1073
3321.9375436975924,1105
3323.606876791612,1028
3325.27595882093,1099
3326.944790112305,1039
3328.6133709925753,1051
3330.2817017886573,1025
3331.949782827547,1010
3333.617614436319,1046
3335.2851969421245,1082
3336.952530672199,1040
3338.619615953853,1057
3340.286453114475,1068
3341.9530424815357,1135
3343.619384382583,1082
3345.2854791452437,1101
3346.951327097224,1052
3348.6169285663073,1065
3350.2822838803577,1082
3351.947393367319,1133
3353.61225735521,1089
3355.2768761721345,1064
3356.9412501462693,1081
3358.605379605873,1072
3360.2692648792827,1035
3361.9329062949146,1068
3363.596304181263,1067
