CollectionTime,6/26/2024 4:05:38 PM
ExposureUsed,3
CalibratedSpectrum
-962.7078968117929,1358
-959.9714848408522,1458
-957.2358232597828,1423
-954.5009119013725,1393
-951.7667505983302,1440
-949.0333391832855,1424
-946.3006774887896,1456
-943.5687653473143,1444
-940.837602591253,1416
-938.1071890529199,1412
-935.3775245645503,1396
-932.6486089583007,1428
-929.9204420662485,1478
-927.1930237203925,1470
-924.4663537526524,1473
-921.7404319948689,1461
-919.0152582788041,1520
-916.2908324361409,1513
-913.5671542984834,1493
-910.8442236973568,1438
-908.1220404642074,1433
-905.4006044304027,1375
-902.679915427231,1471
-899.959973285902,1443
-897.2407778375464,1459
-894.5223289132158,1451
-891.8046263438832,1398
-889.0876699604426,1445
-886.3714595937089,1485
-883.6559950744183,1443
-880.9412762332282,1453
-878.2273029007168,1431
-875.5140749073835,1469
-872.8015920836489,1457
-870.0898542598545,1441
-867.3788612662631,1401
-864.6686129330585,1454
-861.9591090903457,1404
-859.2503495681506,1415
-856.5423341964203,1443
-853.8350628050229,1399
-851.1285352237478,1438
-848.4227512823054,1492
-845.7177108103272,1467
-843.0134136373656,1522
-840.3098595928943,1470
-837.6070485063082,1499
-834.9049802069229,1586
-832.2036545239757,1473
-829.5030712866244,1479
-826.8032303239481,1481
-824.1041314649472,1455
-821.4057745385428,1440
-818.7081593735775,1526
-816.0112857988148,1419
-813.3151536429393,1513
-810.6197627345566,1459
-807.9251129021936,1426
-805.2312039742981,1445
-802.5380357792392,1442
-799.8456081453069,1509
-797.1539209007124,1471
-794.462973873588,1514
-791.772766891987,1462
-789.083299783884,1492
-786.3945723771743,1492
-783.7065844996748,1513
-781.0193359791231,1500
-778.3328266431781,1508
-775.6470563194197,1542
-772.9620248353489,1578
-770.2777320183878,1550
-767.5941776958798,1524
-764.9113616950891,1470
-762.2292838432011,1537
-759.5479439673222,1506
-756.8673418944801,1506
-754.1874774516235,1529
-751.5083504656222,1530
-748.8299607632671,1513
-746.15230817127,1542
-743.475392516264,1576
-740.7992136248035,1461
-738.1237713233636,1459
-735.4490654383407,1489
-732.7750957960521,1551
-730.1018622227365,1591
-727.4293645445534,1486
-724.7576025875837,1537
-722.0865761778291,1516
-719.4162851412126,1531
-716.7467293035781,1559
-714.0779084906909,1596
-711.409822528237,1569
-708.7424712418238,1542
-706.0758544569796,1521
-703.4099719991541,1567
-700.7448236937178,1568
-698.0804093659622,1570
-695.4167288411002,1597
-692.7537819442656,1606
-690.0915685005134,1608
-687.4300883348199,1660
-684.7693412720819,1592
-682.1093271371178,1545
-679.4500457546669,1614
-676.7914969493897,1560
-674.1336805458676,1591
-671.4765963686034,1617
-668.8202442420206,1665
-666.1646239904642,1640
-663.5097354382001,1636
-660.8555784094151,1626
-658.2021527282176,1666
-655.5494582186366,1675
-652.8974947046223,1685
-650.2462620100463,1660
-647.5957599587009,1634
-644.9459883742998,1764
-642.2969470804776,1732
-639.6486359007902,1712
-637.0010546587141,1603
-634.3542031776476,1666
-631.7080812809096,1638
-629.0626887917401,1599
-626.4180255333008,1584
-623.7740913286734,1701
-621.1308860008619,1656
-618.4884093727904,1633
-615.8466612673046,1711
-613.2056415071715,1676
-610.5653499150785,1672
-607.9257863136347,1662
-605.28695052537,1613
-602.6488423727357,1621
-600.0114616781036,1634
-597.3748082637674,1714
-594.7388819519412,1748
-592.1036825647604,1752
-589.4692099242818,1726
-586.8354638524829,1723
-584.2024441712624,1665
-581.5701507024403,1652
-578.9385832677575,1673
-576.3077416888759,1660
-573.6776257873787,1715
-571.0482353847704,1772
-568.4195703024757,1702
-565.7916303618415,1721
-563.164415384135,1740
-560.5379251905453,1842
-557.9121596021815,1751
-555.2871184400748,1785
-552.6628015251767,1699
-550.0392086783606,1690
-547.4163397204204,1691
-544.794194472071,1735
-542.1727727539491,1709
-539.5520743866118,1778
-536.9320991905377,1793
-534.3128469861261,1827
-531.6943175936979,1955
-529.0765108334947,1804
-526.4594265256793,1889
-523.8430644903358,2004
-521.2274245474689,2055
-518.612506517005,2105
-515.9983102187913,2197
-513.3848354725959,2385
-510.77208209810846,2400
-508.16004991493924,2414
-505.5487387426199,2570
-502.9381484006032,2544
-500.3282787082628,2627
-497.71912948489364,2600
-495.1107005497117,2603
-492.5029917218539,2427
-489.8960028203786,2318
-487.28973366426493,2158
-484.68418407241325,2034
-482.07935386364494,1985
-479.47524285670266,1935
-476.87185087025,2033
-474.2691777228715,2083
-471.66722323307334,2035
-469.0659872192821,2044
-466.4654694998459,1974
-463.86566989303384,1941
-461.26658821703614,1854
-458.66822428996414,1919
-456.07057792985,1907
-453.4736489546475,1973
-450.877437182231,1903
-448.28194243039627,1960
-445.68716451686,1907
-443.09310325926003,1852
-440.49975847515555,1859
-437.9071299820263,1861
-435.31521759727354,1870
-432.72402113821954,1880
-430.13354042210767,1949
-427.5437752661022,1930
-424.95472548728867,1890
-422.36639090267386,2015
-419.7787713291855,2035
-417.1918665836721,1942
-414.60567648290385,1952
-412.0202008435715,1939
-409.4354394822874,1934
-406.8513922155845,1976
-404.26805885991723,1986
-401.685439231661,1967
-399.103533147112,1972
-396.522340422488,1908
-393.9418608739278,2033
-391.3620943174908,1910
-388.7830405691583,1803
-386.2046994448317,1782
-383.6270707603344,1684
-381.05015433141045,1624
-378.473949973725,1427
-375.8984575028645,1431
-373.32367673433623,1194
-370.74960748356875,1113
-368.1762495659117,986
-365.60360279663576,865
-363.03166699093265,767
-360.4604419639154,691
-357.8899275306178,613
-355.32012350599507,629
-352.7510297049233,600
-350.1826459421999,550
-347.61497203254316,524
-345.04800779059235,584
-342.4817530309082,511
-339.91620756797226,509
-337.35137121618743,512
-334.7872437898774,487
-332.22382510328725,546
-329.66111497058273,618
-327.09911320585127,623
-324.53781962310075,582
-321.9772340362607,565
-319.4173562591816,582
-316.8581861056348,634
-314.2997233893127,677
-311.7419679238294,700
-309.1849195227194,653
-306.62857799943856,575
-304.0729431673641,541
-301.51801483979375,522
-298.963792829947,522
-296.41027695096386,594
-293.85746701590574,604
-291.3053628377552,596
-288.7539642294155,570
-286.2032710037115,585
-283.65328297338897,591
-281.1039999511146,620
-278.5554217494762,657
-276.007548180983,564
-273.4603790580651,621
-270.9139141930734,635
-268.3681533982807,612
-265.8230964858798,644
-263.27874326798565,663
-260.7350935566336,667
-258.1921471637804,752
-255.6499039013039,719
-253.10836358100266,711
-250.56752601459698,656
-248.02739101372765,731
-245.48795838995704,696
-242.94922795476816,701
-240.41119951956557,750
-237.8738728956746,878
-235.33724789434166,832
-232.80132432673452,893
-230.2661020039418,1038
-227.73158073697357,1023
-225.19776033676033,833
-222.66464061415422,831
-220.1322213799284,801
-217.60050244477725,822
-215.06948361931552,772
-212.53916471408013,752
-210.00954553952818,771
-207.48062590603843,807
-204.9524056239104,975
-202.4248845033651,965
-199.8980623545441,848
-197.37193898751036,834
-194.84651421224817,911
-192.32178783866232,979
-189.79775967657952,959
-187.27442953574644,968
-184.7517972258321,990
-182.2298625564256,924
-179.7086253370378,952
-177.18808537710026,904
-174.66824248596583,1029
-172.14909647290835,1134
-169.6306471471229,1082
-167.11289431772548,947
-164.59583779375328,962
-162.07947738416453,999
-159.5638128978386,961
-157.04884414357605,1152
-154.53457093009854,1151
-152.02099306604828,1077
-149.50811035998936,1098
-146.99592262040665,1253
-144.48442965570587,1165
-141.97363127421409,1184
-139.46352728417958,1186
-136.95411749377126,1091
-134.44540171107985,1349
-131.93737974411636,1400
-129.43005140081357,1511
-126.92341648902493,1485
-124.41747481652521,1583
-121.91222619101006,1420
-119.40767042009657,1315
-116.90380731132257,1416
-114.40063667214702,1580
-111.8981583099503,1538
-109.3963720320337,1673
-106.89527764561933,1584
-104.39487495785067,1575
-101.89516377579241,1507
-99.39614390642998,1553
-96.89781515667039,1547
-94.40017733334128,1873
-91.90323024319173,2018
-89.40697369289148,1832
-86.91140748903172,1796
-84.41653143812482,1853
-81.92234534660395,1650
-79.42884902082358,1722
-76.93604226705907,1720
-74.4439248915071,1869
-71.95249670028534,1819
-69.46175749943245,2000
-66.97170709490854,2247
-64.48234529259423,2998
-61.99367189829195,3158
-59.50568671772464,2733
-57.01838955653636,3149
-54.53178022029283,3329
-52.045858514480074,3557
-49.560624244506016,3307
-47.07607721569923,3142
-44.59221723330904,3105
-42.10904410250669,2724
-39.62655762838392,3212
-37.14475761595372,4865
-34.66364387015028,5887
-32.18321619582866,5770
-29.70347439776515,6605
-27.224418280657005,6705
-24.74604764912317,9871
-22.26836230770266,16306
-19.7913620608565,25244
-17.315046712966478,36279
-14.83941606833514,40401
-12.36446993118659,65037
-9.89020810566592,65037
-7.416630395839093,65037
-4.94373660569363,65037
-2.471526539137585,65037
-6.821210263296962E-13,65037
2.47084320796705,65037
4.941003281093458,65037
7.410480415786196,65037
9.879274808531363,65037
12.347386655893956,65037
14.814816154518212,65037
17.28156350112681,65037
19.74762889252179,65037
22.21301252558385,65037
24.67771459727237,65037
27.141735304626195,65037
29.605074844762612,30941
32.06773341487792,20206
34.52971121224755,14903
36.99100843422559,10712
39.45162527824516,8006
41.91156194181792,7197
44.370818622535126,8161
46.82939551806646,10206
49.287292826160524,12131
51.74451074464503,12175
54.201049471426245,11623
56.65690920448981,8673
59.112090141899785,4440
61.56659248179983,3451
64.02041642241159,3838
66.4735621620365,3762
68.92602989905402,2965
71.37781983192338,2816
73.82893215918205,2342
76.27936707944684,2016
78.72912479141326,2624
81.17820549385567,2895
83.62660938562783,2953
86.07433666566146,2596
88.5213875329681,2673
90.96776218663751,2858
93.41346082583925,2401
95.85848364982041,2064
98.30283085790859,1777
100.7465026495089,2047
103.18949922410604,2220
105.63182078126385,2260
108.07346752062438,2524
110.51443964190923,2068
112.95473734491827,1746
115.39436082953114,1567
117.83331029570547,1733
120.27158594347827,1924
122.7091879729652,1945
125.1461165843615,1583
127.58237197794062,1248
130.01795435405518,1268
132.4528639131364,1317
134.88710085569494,1550
137.32066538231982,1540
139.75355769367923,1309
142.1857779905207,1585
144.61732647366978,1639
147.04820334403132,1541
149.47840880258934,1427
151.90794305040674,1779
154.33680628862487,1944
156.76499871846443,1926
159.19252054122433,1948
161.61937195828352,2014
164.04555317109896,2112
166.47106438120693,2272
168.89590579022217,2616
171.320077599839,2703
173.7435800118302,2860
176.16641322804742,2930
178.58857745042144,2888
181.01007288096173,3094
183.43089972175687,3276
185.85105817497413,3356
188.27054844285988,3346
190.6893707277394,3382
193.10752523201643,3361
195.5250121581745,3673
197.9418317087751,3833
200.3579840864594,3648
202.7734694939469,3675
205.18828813403627,3736
207.6024402096051,3682
210.01592592360964,3803
212.42874547908548,3750
214.84089907914665,3821
217.2523869269868,3655
219.66320922587727,3723
222.0733661791695,3790
224.48285799029293,3870
226.8916848627572,3820
229.29984700014882,3956
231.7073446061355,3913
234.11417788446204,4018
236.520347038953,4037
238.92585227351185,4369
241.33069379212054,4414
243.73487179884035,4194
246.1383864978112,4304
248.541238093252,4121
250.9434267894609,4265
253.34495279081432,4322
255.74581630176783,4099
258.1460175268563,4314
260.54555667069314,4374
262.9444339379703,4252
265.3426495334594,4130
267.7402036620107,4193
270.1370965285529,3940
272.53332833809407,4149
274.9288992957214,4056
277.32380960660055,3959
279.718059475976,3809
282.1116491091717,3813
284.5045787115897,3844
286.89684848871195,3735
289.2884586460981,3709
291.67940938938807,3681
294.0697009242996,3653
296.4593334566299,3743
298.84830719225477,3755
301.23662233712923,3760
303.6242790972866,3770
306.01127767884,3964
308.39761828798066,3909
310.78330113097934,3769
313.16832641418534,3766
315.5526943440269,3761
317.9364051270112,3562
320.3194589697242,3589
322.70185607883093,3603
325.0835966610754,3446
327.4646809232805,3564
329.8451090723478,3584
332.2248813152577,3389
334.6039978590701,3521
336.9824589109231,3443
339.36026467803447,3402
341.7374153677,3547
344.113911187295,3424
346.48975234427337,3355
348.8649390461686,3387
351.2394715005918,3332
353.61334991523415,3383
355.9865744978655,3322
358.35914545633375,3289
360.73106299856715,3388
363.10232733257146,3378
365.47293866643247,3358
367.84289720831396,3388
370.2122031664593,3375
372.5808567491905,3402
374.9488581649083,3466
377.31620762209275,3390
379.6829053293021,3476
382.0489514951745,3239
384.4143463284262,3253
386.7790900378528,3344
389.14318283232853,3338
391.50662492080653,3273
393.86941651231916,3174
396.23155781597745,3266
398.5930490409713,3309
400.9538903965696,3262
403.3140820921202,3203
405.6736243370498,3191
408.03251734086336,3214
410.3907613131465,3258
412.74835646356166,3223
415.10530300185144,3315
417.4616011378372,3286
419.81725108141893,3358
422.1722530425758,3364
424.5266072313656,3307
426.880313857925,3360
429.2333731324701,3345
431.58578526529516,3225
433.9375504667738,3250
436.2886689473588,3294
438.63914091758113,3228
440.9889665880513,3211
443.33814616945835,3253
445.68667987257015,3217
448.03456790823395,3305
450.3818104873759,3254
452.72840782100013,3279
455.07436012019105,3222
457.41966759611057,3257
459.7643304600007,3328
462.10834892318155,3419
464.4517231970525,3257
466.79445349309174,3308
469.1365400228566,3381
471.4779829979826,3241
473.81878263018564,3310
476.15893913125876,3336
478.4984527130747,3226
480.8373235875855,3326
483.17555196682144,3356
485.5131380628919,3312
487.8500820879857,3386
490.1863842543697,3508
492.52204477439034,3479
494.8570638604725,3705
497.1914417251204,3914
499.52517858091653,4002
501.85827464052306,4285
504.19073011668036,4385
506.5225452222086,4435
508.85372017000566,4454
511.18425517304956,4348
513.514150444396,4491
515.8434061971808,4924
518.1720226446176,5398
520.4999999999999,5624
522.8273384766991,6014
525.1540382881666,6013
527.480099647932,5999
529.8055227696037,5397
532.1303078668694,4228
534.454455153496,3678
536.777964843328,3345
539.1008371502907,3261
541.4230722883866,3287
543.744670471698,3273
546.0656319143858,3325
548.3859568306899,3248
550.7056454349294,3177
553.0246979415016,3185
555.3431145648834,3105
557.6608955196306,3060
559.978041020377,3179
562.2945512818363,3144
564.6104265188006,3237
566.9256669461412,3163
569.2402727788082,3195
571.5542442318302,3168
573.8675815203156,3182
576.1802848594508,3154
578.4923544645015,3179
580.8037905508126,3190
583.114593333807,3122
585.4247630289875,3174
587.7342998519354,3127
590.0432040183106,3203
592.3514757438526,3133
594.6591152443794,3249
596.9661227357875,3174
599.2724984340531,3134
601.578242555231,3231
603.8833553154542,3279
606.1878369309362,3204
608.4916876179676,3240
610.7949075929192,3274
613.0974970722403,3218
615.3994562724587,3294
617.7007854101818,3219
620.0014847020951,3174
622.3015543649641,3116
624.6009946156324,3264
626.8998056710224,3189
629.1979877481361,3182
631.4955410640538,3146
633.7924658359349,3231
636.0887622810175,3169
638.3844306166192,3237
640.6794710601358,3285
642.9738838290426,3134
645.2676691408932,3340
647.5608272133207,3183
649.853358264037,3175
652.1452625108324,3233
654.4365401715764,3202
656.7271914642178,3284
659.0172166067838,3312
661.3066158173809,3263
663.5953893141935,3273
665.8835373154867,3224
668.1710600396028,3306
670.4579577049639,3297
672.7442305300709,3223
675.0298787335033,3259
677.3149025339197,3234
679.599302150058,3257
681.8830778007342,3336
684.1662297048437,3225
686.4487580813608,3333
688.7306631493387,3377
691.0119451279091,3286
693.2926042362834,3291
695.5726406937516,3271
697.8520547196814,3370
700.1308465335215,3394
702.4090163547982,3261
704.6865644031171,3301
706.9634908981619,3249
709.2397960596965,3334
711.5154801075631,3390
713.7905432616823,3286
716.0649857420548,3295
718.3388077687592,3324
720.612009561953,3262
722.8845913418733,3328
725.1565533288352,3209
727.427895743234,3258
729.6986188055427,3358
731.9687227363137,3329
734.238207756178,3357
736.5070740858458,3277
738.7753219461066,3311
741.0429515578281,3297
743.3099631419569,3238
745.5763569195191,3305
747.8421331116193,3343
750.1072919394409,3331
752.3718336242467,3272
754.6357583873777,3261
756.8990664502545,3243
759.1617580343765,3241
761.423833361321,3261
763.6852926527457,3236
765.9461361303862,3314
768.206364016058,3287
770.4659765316536,3366
772.7249738991469,3384
774.9833563405886,3423
777.2411240781092,3289
779.4982773339183,3290
781.7548163303044,3409
784.010741289634,3363
786.2660524343538,3462
788.5207499869881,3289
790.7748341701416,3408
793.0283052064964,3408
795.2811633188143,3299
797.5334087299362,3316
799.7850416627813,3401
802.0360623403484,3355
804.2864709857143,3365
806.5362678220353,3282
808.7854530725468,3366
811.0340269605625,3439
813.2819897094754,3365
815.5293415427581,3430
817.77608268396,3456
820.0222133567116,3374
822.2677337847211,3431
824.5126441917765,3343
826.7569448017433,3436
829.0006358385675,3391
831.2437175262731,3412
833.4861900889629,3367
835.7280537508192,3416
837.9693087361026,3460
840.2099552691533,3378
842.4499935743896,3395
844.689423876309,3267
846.9282463994886,3415
849.1664613685833,3443
851.4040690083276,3264
853.6410695435349,3299
855.877463199097,3433
858.1132501999847,3315
860.3484307712487,3434
862.5830051380175,3346
864.8169735254988,3407
867.0503361589791,3402
869.2830932638243,3347
871.5152450654786,3388
873.7467917894654,3402
875.9777336613873,3464
878.2080709069252,3421
880.4378037518389,3468
882.666932421968,3403
884.8954571432301,3414
887.1233781416219,3514
889.3506956432192,3544
891.5774098741766,3393
893.803521060728,3458
896.0290294291852,3478
898.2539352059397,3390
900.4782386174619,3404
902.7019398903011,3443
904.925039251085,3331
907.147536926521,3365
909.3694331433943,3309
911.59072812857,3290
913.8114221089921,3419
916.0315153116827,3472
918.2510079637437,3402
920.4699002923547,3355
922.6881925247761,3360
924.905884888345,3323
927.1229776104793,3391
929.3394709186747,3378
931.555365040506,3403
933.7706602036275,3422
935.9853566357709,3373
938.1994545647489,3449
940.4129542184515,3442
942.6258558248488,3428
944.8381596119883,3452
947.0498658079974,3450
949.2609746410825,3457
951.4714863395287,3363
953.6814011316998,3325
955.8907192460387,3449
958.0994409110671,3406
960.3075663553858,3447
962.5150958076741,3411
964.7220294966913,3384
966.928367651274,3434
969.1341105003388,3434
971.3392582728806,3340
973.5438111979742,3435
975.747769504772,3314
977.9511334225061,3274
980.153903180487,3307
982.3560790081052,3396
984.5576611348289,3360
986.7586497902058,3348
988.9590452038618,3254
991.158847605503,3238
993.3580572249133,3261
995.5566742919558,3198
997.7546990365728,3272
999.952131688785,3310
1002.1489724786926,3273
1004.3452216364743,3140
1006.5408793923874,3151
1008.7359459767691,3186
1010.9304216200343,3244
1013.1243065526781,3164
1015.3176010052733,3208
1017.510305208472,3197
1019.7024193930064,3198
1021.8939437896848,3137
1024.0848786293977,3117
1026.2752241431122,3230
1028.4649805618747,3258
1030.6541481168115,3163
1032.842727039127,3182
1035.0307175601051,3094
1037.2181199111074,3077
1039.4049343235752,3042
1041.591161029029,3149
1043.7768002590683,3198
1045.9618522453698,3233
1048.1463172196918,3120
1050.3301954138697,3163
1052.513487059818,3131
1054.69619238953,3213
1056.8783116350783,3152
1059.0598450286152,3101
1061.2407928023704,3208
1063.4211551886528,3294
1065.6009324198508,3191
1067.780124728432,3117
1069.9587323469414,3078
1072.1367555080046,3159
1074.314194444325,3057
1076.4910493886855,3150
1078.667320573947,3138
1080.843008233051,3072
1083.0181125990161,3153
1085.1926339049414,3091
1087.3665723840027,3066
1089.5399282694575,3147
1091.7127017946405,3133
1093.8848931929647,3115
1096.0565026979243,3127
1098.2275305430899,3098
1100.3979769621128,2995
1102.567842188722,3050
1104.737126456726,3028
1106.9058300000124,3120
1109.0739530525475,3115
1111.2414958483764,3147
1113.4084586216231,3060
1115.5748416064907,3041
1117.7406450372605,3157
1119.9058691482942,3068
1122.0705141740304,3114
1124.2345803489884,3069
1126.3980679077658,3067
1128.5609770850388,3153
1130.7233081155623,3041
1132.8850612341707,3154
1135.0462366757774,3068
1137.2068346753745,3149
1139.3668554680326,3148
1141.526299288901,3052
1143.68516637321,3015
1145.8434569562655,3054
1148.001171273455,3053
1150.158309560244,3109
1152.3148720521767,3027
1154.470858984876,3161
1156.626270594044,3025
1158.7811071154629,3147
1160.9353687849912,3164
1163.089055838569,3150
1165.242168512213,3076
1167.3947070420209,3155
1169.5466716641677,3056
1171.6980626149075,3054
1173.8488801305748,3037
1175.9991244475814,2969
1178.1487958024186,3084
1180.2978944316555,3049
1182.4464205719428,3082
1184.5943744600072,3024
1186.7417563326567,3013
1188.8885664267755,3032
1191.0348049793297,3062
1193.1804722273619,3183
1195.325568407995,3025
1197.4700937584303,3071
1199.614048515948,2964
1201.7574329179074,3041
1203.900247201746,3089
1206.042491604982,3109
1208.1841663652099,3064
1210.3252717201053,3113
1212.465807907422,3024
1214.6057751649923,3044
1216.7451737307279,3051
1218.8840038426192,3128
1221.0222657387353,3134
1223.1599596572241,3045
1225.2970858363137,3073
1227.4336445143094,3081
1229.5696359295966,3110
1231.705060320639,3072
1233.8399179259786,3127
1235.9742089842384,3179
1238.107933734118,3179
1240.2410924143974,3099
1242.373685263935,3156
1244.5057125216676,3204
1246.6371744266116,3193
1248.7680712178621,3175
1250.898403134593,3133
1253.028170416058,3109
1255.1573733015875,3050
1257.2860120305932,3099
1259.4140868425648,3091
1261.54159797707,3087
1263.6685456737569,3127
1265.7949301723515,3062
1267.9207517126597,3065
1270.046010534565,3147
1272.1707068780306,3152
1274.2948409830983,3197
1276.4184130898889,3207
1278.541423438603,3185
1280.6638722695184,3149
1282.785759822993,3211
1284.9070863394636,3159
1287.0278520594447,3218
1289.1480572235314,3336
1291.2677020723963,3251
1293.3867868467923,3322
1295.5053117875495,3269
1297.623277135579,3282
1299.740683131868,3275
1301.8575300174857,3352
1303.973818033578,3239
1306.0895474213703,3351
1308.2047184221678,3337
1310.3193312773528,3292
1312.4333862283888,3327
1314.5468835168163,3374
1316.659823384255,3252
1318.7722060724045,3305
1320.8840318230418,3353
1322.9953008780249,3273
1325.1060134792888,3367
1327.2161698688478,3338
1329.3257702887959,3352
1331.4348149813054,3305
1333.5433041886276,3351
1335.6512381530933,3377
1337.7586171171101,3329
1339.8654413231675,3285
1341.9717110138317,3253
1344.0774264317488,3288
1346.1825878196432,3289
1348.2871954203192,3295
1350.3912494766587,3219
1352.4947502316231,3357
1354.5976979282532,3219
1356.7000928096686,3298
1358.8019351190665,3301
1360.9032250997243,3338
1363.0039629949988,3217
1365.1041490483235,3232
1367.2037835032133,3292
1369.3028666032606,3282
1371.401398592137,3211
1373.4993797135926,3178
1375.5968102114575,3196
1377.6936903296396,3358
1379.7900203121262,3257
1381.8858004029835,3296
1383.9810308463561,3204
1386.075711886469,3159
1388.1698437676241,3336
1390.2634267342032,3215
1392.356461030667,3328
1394.4489469015557,3230
1396.5408845914872,3344
1398.6322743451592,3327
1400.7231164073469,3373
1402.813411022907,3319
1404.903158436773,3327
1406.9923588939578,3265
1409.0810126395531,3251
1411.1691199187303,3205
1413.2566809767386,3214
1415.343696058907,3298
1417.4301654106425,3205
1419.5160892774315,3244
1421.6014679048399,3165
1423.6863015385125,3299
1425.7705904241707,3282
1427.8543348076178,3274
1429.9375349347342,3259
1432.0201910514802,3322
1434.102303403894,3326
1436.1838722380944,3389
1438.2648978002767,3344
1440.3453803367174,3389
1442.4253200937692,3339
1444.5047173178677,3377
1446.5835722555234,3372
1448.6618851533285,3457
1450.739656257952,3511
1452.8168858161434,3505
1454.8935740747306,3554
1456.96972128062,3389
1459.045327680797,3433
1461.120393522327,3470
1463.1949190523528,3532
1465.2689045180973,3598
1467.3423501668608,3508
1469.415256246024,3532
1471.4876230030463,3549
1473.559450685465,3695
1475.6307395408976,3632
1477.7014898170391,3690
1479.771701761665,3584
1481.8413756226287,3726
1483.9105116478618,3752
1485.9791100853772,3734
1488.0471711832643,3768
1490.1146951896926,3773
1492.1816823529098,3784
1494.2481329212433,3765
1496.3140471430984,3734
1498.3794252669609,3789
1500.4442675413939,3785
1502.5085742150404,3739
1504.572345536622,3925
1506.6355817549388,3943
1508.6982831188702,3930
1510.7604498773744,3811
1512.8220822794883,3888
1514.8831805743293,3919
1516.9437450110909,3914
1519.003775839048,3932
1521.0632733075522,3888
1523.1222376660367,3960
1525.1806691640113,3919
1527.2385680510652,4008
1529.2959345768668,3993
1531.3527689911643,3970
1533.4090715437833,3920
1535.4648424846291,3994
1537.5200820636855,4100
1539.5747905310159,4145
1541.6289681367616,4081
1543.6826151311434,4041
1545.7357317644614,4358
1547.7883182870937,4193
1549.8403749494987,4274
1551.8919020022113,4259
1553.9428996958477,4239
1555.9933682811015,4374
1558.0433080087469,4390
1560.0927191296346,4409
1562.1416018946961,4540
1564.1899565549415,4560
1566.2377833614592,4425
1568.2850825654164,4329
1570.3318544180606,4351
1572.3780991707158,4571
1574.423817074788,4365
1576.4690083817595,4290
1578.5136733431923,4273
1580.5578122107272,4058
1582.601425236085,3982
1584.6445126710646,3906
1586.6870747675434,3980
1588.7291117774776,3853
1590.7706239529034,3753
1592.8116115459347,3657
1594.8520748087658,3648
1596.8920139936686,3652
1598.9314293529933,3633
1600.9703211391711,3564
1603.008689604711,3566
1605.0465350022005,3406
1607.0838575843068,3429
1609.1206576037753,3338
1611.1569353134305,3335
1613.1926909661765,3359
1615.2279248149953,3407
1617.2626371129481,3319
1619.2968281131757,3285
1621.3304980688963,3282
1623.3636472334088,3289
1625.39627586009,3305
1627.428384202396,3278
1629.459972513861,3305
1631.4910410480993,3310
1633.5215900588028,3279
1635.551619799744,3222
1637.5811305247717,3240
1639.6101224878166,3196
1641.6385959428862,3192
1643.6665511440683,3152
1645.693988345528,3153
1647.7209078015112,3242
1649.7473097663405,3235
1651.7731944944203,3178
1653.7985622402307,3221
1655.823413258333,3179
1657.847747803366,3162
1659.8715661300494,3161
1661.8948684931793,3161
1663.9176551476316,3088
1665.9399263483624,3265
1667.9616823504057,3064
1669.982923408873,3058
1672.0036497789574,3062
1674.0238617159293,3071
1676.043559475138,3062
1678.0627433120121,3061
1680.081413482059,3225
1682.0995702408654,3033
1684.117213844096,3170
1686.134344547495,3126
1688.1509626068864,3150
1690.1670682781705,3180
1692.182661817329,3037
1694.1977434804217,3180
1696.2123135235875,3126
1698.226372203043,3095
1700.2399197750851,3111
1702.2529564960905,3132
1704.2654826225112,3089
1706.277498410882,3134
1708.2890041178139,3102
1710.2999999999988,3211
1712.3104863142066,3155
1714.3204633172854,3167
1716.329931266163,3062
1718.3388904178469,3068
1720.3473410294214,3095
1722.3552833580516,3168
1724.3627176609807,3175
1726.3696441955308,3098
1728.3760632191033,3149
1730.3819749891782,3196
1732.3873797633146,3035
1734.3922777991502,3072
1736.3966693544012,3131
1738.4005546868639,3148
1740.4039340544127,3129
1742.406807715001,3088
1744.4091759266616,3060
1746.4110389475054,3084
1748.4123970357223,3026
1750.413250449582,3007
1752.4135994474318,3060
1754.4134442876993,3077
1756.4127852288902,3153
1758.4116225295893,3049
1760.4099564484595,3117
1762.407787244244,3090
1764.405115175764,3066
1766.4019405019203,3127
1768.3982634816916,2957
1770.3940843741357,3091
1772.3894034383907,3142
1774.3842209336717,3061
1776.378537119274,2993
1778.372352254571,2921
1780.3656665990156,3144
1782.3584804121397,3020
1784.3507939535534,3053
1786.3426074829463,3099
1788.3339212600863,3129
1790.3247355448211,3082
1792.3150505970766,3032
1794.3048666768573,3126
1796.2941840442477,3141
1798.2830029594106,3075
1800.2713236825884,3023
1802.2591464741004,3071
1804.2464715943465,3161
1806.2332993038058,3120
1808.2196298630352,3059
1810.2054635326708,3103
1812.190800573428,3062
1814.175641246101,3074
1816.1599858115628,3070
1818.1438345307652,3038
1820.127187664738,3042
1822.1100454745924,3187
1824.092408221516,3112
1826.0742761667766,3075
1828.055649571721,3102
1830.0365286977735,3075
1832.0169138064398,3101
1833.9968051593014,3175
1835.9762030180214,3142
1837.9551076443408,3114
1839.9335193000788,3089
1841.9114382471344,3056
1843.888864747485,3076
1845.8657990631878,3059
1847.842241456378,3000
1849.8181921892697,3044
1851.7936515241558,3064
1853.7686197234098,2975
1855.7430970494815,3074
1857.7170837649014,3123
1859.6905801322787,3070
1861.6635864143004,3004
1863.6361028737338,3054
1865.608129773424,3158
1867.5796673762961,3145
1869.5507159453537,3146
1871.521275743678,3120
1873.4913470344313,3070
1875.4609300808534,3115
1877.4300251462632,3045
1879.3986324940588,3157
1881.366752387717,3125
1883.3343850907936,3070
1885.3015308669228,3116
1887.268189979819,3122
1889.2343626932739,3129
1891.2000492711595,3060
1893.1652499774254,3143
1895.1299650761011,3076
1897.0941948312952,3176
1899.0579395071945,3075
1901.0211993680641,3105
1902.98397467825,3203
1904.9462657021745,3115
1906.9080727043415,3191
1908.869395949332,3116
1910.8302357018065,3100
1912.790592226504,3204
1914.7504657882428,3140
1916.7098566519212,3091
1918.6687650825133,3137
1920.6271913450764,3210
1922.5851357047422,3159
1924.5425984267245,3194
1926.499579776314,3168
1928.4560800188833,3141
1930.4120994198802,3152
1932.367638244833,3122
1934.32269675935,3169
1936.2772752291175,3036
1938.231373919899,3098
1940.1849930975404,3110
1942.1381330279637,3077
1944.0907939771696,3068
1946.0429762112412,3081
1947.9946799963363,3224
1949.9459055986945,3082
1951.896653284633,3173
1953.8469233205478,3081
1955.7967159729142,3099
1957.7460315082863,3098
1959.6948701932974,3124
1961.6432322946594,3132
1963.5911180791632,3181
1965.5385278136787,3176
1967.4854617651545,3183
1969.4319202006182,3142
1971.377903387176,3077
1973.3234115920136,3134
1975.268445082395,3138
1977.2130041256642,3131
1979.1570889892423,3067
1981.1006999406304,3132
1983.04383724741,3199
1984.986501177238,3119
1986.928691997853,3151
1988.8704099770712,3182
1990.811655382789,3080
1992.7524284829801,3132
1994.692729545698,3059
1996.6325588390755,3026
1998.5719166313224,3150
2000.5108031907307,3135
2002.4492187856677,3132
2004.387163684583,2993
2006.3246381560011,3089
2008.2616424685298,3169
2010.1981768908527,3146
2012.1342416917332,3159
2014.069837140014,3063
2016.0049635046162,3169
2017.9396210545406,3062
2019.8738100588666,3149
2021.8075307867502,3042
2023.740783507431,3097
2025.6735684902228,3079
2027.6058860045214,3101
2029.5377363198004,3080
2031.4691197056118,3153
2033.4000364315875,3110
2035.3304867674374,3137
2037.260470982952,3155
2039.189989347998,3071
2041.1190421325232,3131
2043.047629606554,3111
2044.9757520401945,3166
2046.9034097036288,3186
2048.8306028671195,3057
2050.7573318010086,3062
2052.683596775716,3009
2054.609398061742,3010
2056.5347359296647,3150
2058.4596106501403,3076
2060.384022493906,3030
2062.3079717317764,3133
2064.231458634646,3193
2066.1544834734873,3153
2068.077046519352,3134
2069.99914804337,3077
2071.9207883167524,3212
2073.8419676107865,3071
2075.7626861968406,3096
2077.6829443463607,3163
2079.6027423308715,3100
2081.522080421977,3105
2083.440958891362,3093
2085.359378010786,3134
2087.2773380520907,3097
2089.194839287196,3089
2091.111881988101,3056
2093.0284664268825,3077
2094.9445928756973,3078
2096.86026160678,3027
2098.775472892446,3089
2100.690227005088,3108
2102.604524217178,3048
2104.5183648012676,3134
2106.431749029985,3101
2108.34467717604,3167
2110.2571495122206,3097
2112.169166311393,3021
2114.080727846503,3135
2115.9918343905747,3077
2117.902486216711,3063
2119.8126835980956,3122
2121.722426807987,3172
2123.6317161197285,3152
2125.5405518067364,3081
2127.448934142509,3190
2129.356863400624,3184
2131.264339854737,3132
2133.1713637785815,3120
2135.077935445972,3153
2136.9840551308002,3062
2138.889723107037,3109
2140.7949396487334,3092
2142.699705030018,3077
2144.6040195250994,3085
2146.507883408264,3075
2148.4112969538774,3164
2150.3142604363848,3103
2152.2167741303097,3149
2154.1188383102535,3122
2156.0204532508997,3143
2157.9216192270064,3090
2159.822336513414,3143
2161.7226053850413,3150
2163.622426116884,3048
2165.5217989840185,3109
2167.4207242616,3060
2169.319202224862,3147
2171.2172331491165,3113
2173.1148173097563,3129
2175.0119549822507,3203
2176.90864644215,3170
2178.8048919650823,3158
2180.7006918267534,3145
2182.596046302952,3251
2184.4909556695407,3155
2186.3854202024645,3163
2188.279440177746,3091
2190.173015871487,3137
2192.066147559868,3189
2193.958835519149,3106
2195.851080025667,3192
2197.7428813558417,3064
2199.6342397861667,3180
2201.5251555932186,3093
2203.415629053651,3086
2205.3056604441986,3154
2207.19525004167,3083
2209.084398122958,3151
2210.9731049650327,3188
2212.861370844941,3164
2214.749196039812,3126
2216.636580826851,3194
2218.523525483344,3208
2220.410030286655,3207
2222.296095514226,3066
2224.1817214435805,3233
2226.066908352319,3138
2227.951656518121,3205
2229.835966218746,3217
2231.71983773203,3159
2233.6032713358913,3161
2235.486267308324,3150
2237.3688259274036,3166
2239.2509474712824,3233
2241.132632218193,3187
2243.013880446447,3128
2244.8946924344323,3070
2246.7750684606203,3186
2248.6550088035574,3173
2250.534513741871,3294
2252.413583554265,3152
2254.292218519526,3149
2256.170418916517,3072
2258.0481850241786,3119
2259.925517121534,3167
2261.8024154876825,3098
2263.678880401803,3213
2265.5549121431536,3081
2267.430510991071,3119
2269.305677224971,3154
2271.180411124348,3118
2273.0547129687766,3076
2274.9285830379076,3110
2276.8020216114737,3196
2278.6750289692845,3118
2280.5476053912294,3137
2282.4197511572766,3123
2284.2914665474727,3183
2286.162751841943,3086
2288.0336073208937,3188
2289.904033264608,3131
2291.774029953448,3205
2293.6435976678554,3142
2295.5127366883517,3169
2297.381447295534,3095
2299.2497297700825,3090
2301.1175843927526,3145
2302.9850114443825,3128
2304.852011205885,3169
2306.7185839582553,3155
2308.5847299825664,3106
2310.4504495599676,3154
2312.3157429716925,3172
2314.1806104990483,3102
2316.0450524234247,3137
2317.9090690262888,3247
2319.772660589186,3178
2321.635827393742,3237
2323.498569721661,3103
2325.3608878547248,3212
2327.2227820747967,3174
2329.0842526638157,3211
2330.945299903803,3325
2332.805924076857,3195
2334.6661254651535,3203
2336.525904350951,3257
2338.3852610165827,3276
2340.244195744464,3197
2342.102708817088,3261
2343.9608005170253,3283
2345.8184711269287,3210
2347.675720929526,3202
2349.532550207628,3149
2351.38895924412,3287
2353.24494832197,3124
2355.100517724223,3152
2356.955667734004,3126
2358.810398634514,3153
2360.664710709037,3169
2362.5186042409337,3185
2364.3720795136437,3227
2366.225136810686,3241
2368.0777764156583,3271
2369.929998612237,3196
2371.7818036841777,3221
2373.633191915315,3220
2375.484163589562,3230
2377.3347189909114,3135
2379.184858403434,3148
2381.03458211128,3131
2382.8838903986775,3141
2384.732783549936,3237
2386.5812618494406,3207
2388.4293255816588,3176
2390.2769750311327,3239
2392.1242104824883,3138
2393.971032220427,3328
2395.8174405297295,3218
2397.6634356952563,3244
2399.509018001947,3164
2401.3541877348193,3267
2403.1989451789705,3289
2405.043290619576,3248
2406.8872243418905,3163
2408.730746631247,3212
2410.5738577730594,3274
2412.4165580528183,3208
2414.258847756095,3232
2416.100727168537,3233
2417.9421965758734,3254
2419.783256263912,3250
2421.623906518538,3392
2423.4641476257157,3295
2425.303979871491,3213
2427.143403541984,3305
2428.9824189233977,3272
2430.821026302012,3291
2432.6592259641866,3332
2434.497018196361,3270
2436.33440328505,3398
2438.171381516851,3300
2440.00795317844,3261
2441.844118556569,3289
2443.6798779380724,3210
2445.5152316098606,3210
2447.3501798589255,3321
2449.1847229723357,3255
2451.0188612372403,3204
2452.8525949408663,3246
2454.6859243705203,3145
2456.518849813587,3234
2458.3513715575314,3234
2460.183489889895,3310
2462.015205098301,3177
2463.8465174704493,3318
2465.67742729412,3297
2467.5079348571717,3267
2469.338040447542,3261
2471.1677443532476,3220
2472.9970468623833,3258
2474.825948263123,3252
2476.6544488437207,3342
2478.482548892508,3190
2480.310248697896,3124
2482.137548548374,3227
2483.9644487325118,3307
2485.790949538956,3370
2487.617051256433,3243
2489.44275417375,3309
2491.26805857979,3315
2493.0929647635157,3295
2494.917473013971,3263
2496.741583620276,3273
2498.5652968716304,3322
2500.3886130573137,3345
2502.2115324666834,3240
2504.0340553891765,3340
2505.856182114308,3334
2507.6779129316733,3304
2509.499248130945,3248
2511.3201880018764,3328
2513.140732834298,3307
2514.9608829181198,3278
2516.780638543331,3391
2518.6,3263
2520.418967578273,3390
2522.237541568376,3390
2524.0557222606144,3335
2525.8735099453706,3392
2527.6909049131086,3331
2529.507907454368,3344
2531.32451785977,3290
2533.140736420014,3262
2534.9565634258774,3370
2536.771999168218,3367
2538.5870439379714,3368
2540.4016980261526,3376
2542.2159617238544,3468
2544.02983532225,3321
2545.8433191125914,3454
2547.656413386209,3411
2549.4691184345115,3384
2551.2814345489874,3425
2553.093362021204,3441
2554.904901142808,3296
2556.716052205523,3393
2558.526815501153,3399
2560.3371913215824,3379
2562.147179958771,3358
2563.956781704761,3383
2565.7659968516705,3474
2567.5748256916986,3491
2569.3832685171224,3421
2571.1913256202984,3452
2572.9989972936614,3378
2574.806283829725,3410
2576.613185521084,3479
2578.4197026604074,3404
2580.2258355404483,3421
2582.031584454035,3494
2583.836949694077,3522
2585.6419315535613,3476
2587.4465303255533,3473
2589.2507463032002,3498
2591.0545797797245,3524
2592.8580310484303,3511
2594.6611004026995,3415
2596.463788135992,3306
2598.266094541849,3404
2600.0680199138874,3367
2601.869564545807,3507
2603.670728731383,3515
2605.4715127644704,3448
2607.2719169390048,3500
2609.071941548998,3526
2610.8715868885433,3548
2612.670853251811,3436
2614.469740933052,3439
2616.268250226594,3395
2618.0663814268455,3525
2619.864134828292,3445
2621.6615107255006,3429
2623.458509413115,3387
2625.2551311858597,3483
2627.0513763385347,3513
2628.8472451660223,3400
2630.6427379632833,3416
2632.4378550253564,3393
2634.232596647359,3505
2636.026963124488,3368
2637.8209547520187,3404
2639.6145718253065,3428
2641.407814639785,3360
2643.200683490966,3387
2644.9931786744414,3470
2646.7853004858807,3342
2648.577049221034,3372
2650.3684251757277,3403
2652.1594286458712,3383
2653.9500599274484,3360
2655.740319316525,3443
2657.5302071092437,3422
2659.3197236018286,3340
2661.10886909058,3333
2662.8976438718782,3302
2664.686048242183,3409
2666.4740824980327,3354
2668.2617469360443,3471
2670.0490418529134,3292
2671.8359675454153,3310
2673.622524310403,3286
2675.408712444811,3348
2677.1945322456495,3291
2678.979984010009,3384
2680.76506803506,3335
2682.5497846180497,3322
2684.334134056306,3349
2686.1181166472343,3331
2687.9017326883213,3305
2689.6849824771293,3288
2691.4678663113013,3252
2693.2503844885596,3325
2695.032537306705,3283
2696.8143250636167,3316
2698.5957480572542,3406
2700.3768065856534,3266
2702.1575009469316,3356
2703.937831439283,3292
2705.717798360982,3292
2707.4974020103837,3283
2709.276642685917,3390
2711.055520686095,3171
2712.834036309506,3283
2714.612189854819,3360
2716.389981620782,3246
2718.1674119062204,3279
2719.944481010041,3247
2721.721189231226,3347
2723.4975368688415,3225
2725.273524222027,3214
2727.0491515900053,3289
2728.824419272075,3258
2730.5993275676146,3220
2732.3738767760838,3251
2734.148067197016,3251
2735.921899130031,3191
2737.6953728748194,3311
2739.468488731156,3307
2741.2412469988926,3243
2743.0136479779617,3414
2744.785691968372,3234
2746.5573792702116,3282
2748.3287101836504,3218
2750.099685008934,3287
2751.870304046388,3180
2753.640567596418,3313
2755.4104759595057,3244
2757.1800294362156,3230
2758.949228327187,3424
2760.7180729331412,3275
2762.486563554877,3312
2764.254700493272,3214
2766.022484049284,3257
2767.789914523947,3237
2769.5569922183786,3310
2771.3237174337705,3174
2773.090090471394,3217
2774.8561116326036,3264
2776.6217812188274,3277
2778.3870995315756,3242
2780.1520668724356,3194
2781.9166835430747,3350
2783.6809498452394,3277
2785.444866080754,3163
2787.2084325515225,3255
2788.971649559527,3274
2790.73451740683,3225
2792.4970363955713,3267
2794.2592068279705,3333
2796.0210290063264,3255
2797.7825032330147,3374
2799.543629810493,3273
2801.304409041296,3253
2803.0648412280366,3265
2804.8249266734088,3243
2806.5846656801846,3278
2808.344058551212,3222
2810.1031055894246,3332
2811.8618070978273,3202
2813.6201633795085,3256
2815.378174737636,3233
2817.1358414754536,3315
2818.893163896285,3400
2820.6501423035334,3246
2822.4067770006814,3329
2824.1630682912883,3329
2825.9190164789957,3313
2827.6746218675207,3276
2829.429884760661,3264
2831.184805462294,3382
2832.9393842763743,3296
2834.693621506936,3281
2836.4475174580916,3266
2838.201072434034,3369
2839.954286739034,3391
2841.707160677441,3324
2843.459694553685,3306
2845.2118886722724,3265
2846.96374333779,3314
2848.7152588549034,3260
2850.4664355283567,3340
2852.217273662973,3220
2853.9677735636546,3303
2855.7179355353833,3297
2857.4677598832186,3381
2859.217246912299,3274
2860.9663969278427,3227
2862.715210235146,3353
2864.4636871395846,3339
2866.211827946614,3208
2867.9596329617652,3341
2869.7071024906536,3276
2871.4542368389684,3322
2873.20103631248,3301
2874.947501217038,3304
2876.6936318585695,3313
2878.4394285430812,3236
2880.1848915766604,3319
2881.9300212654707,3341
2883.6748179157553,3319
2885.4192818338374,3235
2887.1634133261173,3269
2888.907212699077,3280
2890.6506802592744,3319
2892.393816313348,3336
2894.1366211680142,3408
2895.8790951300693,3350
2897.621238506388,3244
2899.363051603925,3286
2901.1045347297118,3299
2902.8456881908596,3322
2904.58651229456,3278
2906.327007348081,3391
2908.067173658772,3233
2909.8070115340597,3204
2911.5465212814497,3243
2913.285703208527,3335
2915.0245576229563,3263
2916.7630848324807,3199
2918.5012851449196,3308
2920.2391588681758,3293
2921.976706310227,3284
2923.7139277791334,3273
2925.4508235830313,3248
2927.187394030137,3318
2928.923639428745,3201
2930.6595600872306,3252
2932.395156314046,3325
2934.1304284177218,3323
2935.8653767068713,3331
2937.6000014901815,3397
2939.3343030764227,3286
2941.068281774442,3365
2942.8019378931644,3278
2944.5352717415976,3312
2946.2682836288236,3291
2948.0009738640065,3309
2949.7333427563885,3338
2951.465390615289,3266
2953.1971177501086,3272
2954.9285244703265,3227
2956.6596110855,3218
2958.3903779052657,3293
2960.1208252393385,3307
2961.8509533975125,3315
2963.5807626896617,3396
2965.3102534257378,3255
2967.0394259157715,3287
2968.768280469873,3315
2970.496817398232,3226
2972.2250370111146,3309
2973.952939618869,3313
2975.6805255319196,3326
2977.4077950607707,3341
2979.134748516006,3388
2980.861386208289,3332
2982.587708448359,3354
2984.313715547037,3259
2986.039407815222,3383
2987.764785563891,3384
2989.489849104102,3360
2991.2145987469908,3311
2992.9390348037705,3321
2994.6631575857346,3349
2996.3869674042576,3315
2998.1104645707887,3143
2999.83364939686,3327
3001.5565221940783,3321
3003.2790832741334,3331
3005.0013329487924,3284
3006.7232715298996,3336
3008.4448993293804,3233
3010.166216659239,3309
3011.887223831558,3269
3013.607921158498,3319
3015.3283089522993,3222
3017.0483875252826,3274
3018.7681571898443,3243
3020.4876182584626,3250
3022.2067710436927,3273
3023.9256158581707,3269
3025.644153014609,3265
3027.362382825801,3336
3029.0803056046193,3310
3030.797921664012,3253
3032.5152313170106,3341
3034.2322348767225,3266
3035.9489326563353,3227
3037.665324969115,3364
3039.3814121284063,3337
3041.097194447633,3293
3042.812672240299,3246
3044.5278458199855,3274
3046.2427155003525,3332
3047.9572815951406,3301
3049.671544418167,3292
3051.38550428333,3300
3053.0991615046073,3352
3054.812516396051,3353
3056.5255692717974,3306
3058.2383204460575,3181
3059.9507702331257,3322
3061.662918947372,3269
3063.3747669032446,3298
3065.0863144152736,3188
3066.7975617980674,3245
3068.508509366309,3371
3070.219157434767,3206
3071.9295063182844,3364
3073.639556331785,3384
3075.3493077902704,3293
3077.058761008821,3311
3078.7679163025964,3298
3080.476773986837,3447
3082.1853343768594,3363
3083.89359778806,3371
3085.6015645359153,3263
3087.3092349359786,3346
3089.016609303884,3320
3090.7236879553434,3311
3092.4304712061476,3318
3094.136959372166,3272
3095.843152769349,3235
3097.5490517137237,3292
3099.2546565213966,3275
3100.959967508554,3358
3102.66498499146,3392
3104.3697092864577,3343
3106.0741407099695,3387
3107.778279578498,3320
3109.482126208622,3332
3111.1856809170004,3305
3112.8889440203716,3321
3114.5919158355528,3321
3116.294596679439,3329
3117.996986869006,3347
3119.6990867213062,3407
3121.4008965534726,3403
3123.102416682717,3434
3124.803647426329,3368
3126.5045891016784,3337
3128.205242026213,3301
3129.90560651746,3406
3131.605682893025,3247
3133.3054714705922,3400
3135.0049725679282,3370
3136.7041865028714,3394
3138.4031135933465,3330
3140.101754157353,3318
3141.800108512971,3338
3143.498176978357,3390
3145.1959598717494,3297
3146.8934575114636,3340
3148.5906702158954,3270
3150.2875983035183,3275
3151.9842420928853,3305
3153.680601902627,3442
3155.376678051456,3352
3157.07247085816,3255
3158.767980641609,3295
3160.463207720748,3312
3162.158152414606,3280
3163.8528150422862,3335
3165.5471959229726,3396
3167.2412953759303,3340
3168.9351137204976,3313
3170.628651276098,3379
3172.3219083622307,3228
3174.014885298474,3413
3175.707582404485,3388
3177.4000000000005,3444
3179.092138404835,3288
3180.7839979388846,3384
3182.47557892212,3387
3184.166881674594,3378
3185.8579065164386,3384
3187.5486537678626,3421
3189.2391237491547,3379
3190.9293167806827,3513
3192.6192331828934,3372
3194.3088732763117,3338
3195.998237381542,3350
3197.687325819268,3324
3199.376138910251,3388
3201.064676975334,3333
3202.7529403354347,3291
3204.4409293115523,3335
3206.1286442247647,3340
3207.816085396229,3313
3209.5032531471825,3295
3211.190147798936,3395
3212.8767696728846,3325
3214.5631190905015,3294
3216.2491963733373,3373
3217.9350018430214,3299
3219.6205358212637,3298
3221.305798629851,3323
3222.990790590651,3300
3224.6755120256103,3412
3226.359963256751,3345
3228.0441446061795,3333
3229.7280563960758,3381
3231.411698948703,3285
3233.0950725863995,3307
3234.778177631587,3320
3236.461014406761,3373
3238.1435832345005,3322
3239.8258844374595,3357
3241.507918338374,3387
3243.1896852600576,3385
3244.8711855254023,3321
3246.552419457381,3333
3248.233387379042,3397
3249.914089613516,3309
3251.59452648401,3377
3253.274698313813,3308
3254.95460542629,3382
3256.6342481448855,3274
3258.313626793125,3214
3259.9927416946084,3268
3261.6715931730196,3229
3263.3501815521176,3297
3265.0285071557437,3309
3266.706570307815,3276
3268.3843713323286,3284
3270.0619105533615,3338
3271.739188295068,3241
3273.4162048816834,3283
3275.0929606375184,3395
3276.769455886966,3320
3278.445690954498,3389
3280.1216661646613,3369
3281.797381842087,3377
3283.4728383114807,3263
3285.1480358976296,3349
3286.8229749253996,3315
3288.4976557197333,3336
3290.172078605655,3355
3291.846243908266,3286
3293.5201519527463,3227
3295.193803064357,3268
3296.8671975684374,3249
3298.5403357904024,3315
3300.21321805575,3260
3301.8858446900567,3364
3303.558216018975,3349
3305.23033236824,3287
3306.9021940636603,3325
3308.57380143113,3311
3310.2451547966184,3395
3311.916254486174,3390
3313.5871008259246,3417
3315.2576941420766,3360
3316.9280347609147,3331
3318.5981230088046,3329
3320.2679592121895,3230
3321.9375436975924,3283
3323.606876791612,3246
3325.27595882093,3272
3326.944790112305,3248
3328.6133709925753,3232
3330.2817017886573,3239
3331.949782827547,3318
3333.617614436319,3288
3335.2851969421245,3385
3336.952530672199,3282
3338.619615953853,3351
3340.286453114475,3329
3341.9530424815357,3412
3343.619384382583,3397
3345.2854791452437,3329
3346.951327097224,3340
3348.6169285663073,3335
3350.2822838803577,3459
3351.947393367319,3331
3353.61225735521,3326
3355.2768761721345,3318
3356.9412501462693,3333
3358.605379605873,3369
3360.2692648792827,3397
3361.9329062949146,3352
3363.596304181263,3349
