CollectionTime,6/26/2024 3:04:20 PM
ExposureUsed,3
CalibratedSpectrum
-962.7078968117929,633
-959.9714848408522,708
-957.2358232597828,707
-954.5009119013725,715
-951.7667505983302,688
-949.0333391832855,724
-946.3006774887896,700
-943.5687653473143,716
-940.837602591253,727
-938.1071890529199,689
-935.3775245645503,729
-932.6486089583007,752
-929.9204420662485,770
-927.1930237203925,753
-924.4663537526524,734
-921.7404319948689,704
-919.0152582788041,755
-916.2908324361409,741
-913.5671542984834,762
-910.8442236973568,734
-908.1220404642074,764
-905.4006044304027,754
-902.679915427231,735
-899.959973285902,737
-897.2407778375464,755
-894.5223289132158,766
-891.8046263438832,721
-889.0876699604426,716
-886.3714595937089,700
-883.6559950744183,694
-880.9412762332282,678
-878.2273029007168,742
-875.5140749073835,740
-872.8015920836489,702
-870.0898542598545,683
-867.3788612662631,681
-864.6686129330585,692
-861.9591090903457,690
-859.2503495681506,677
-856.5423341964203,670
-853.8350628050229,697
-851.1285352237478,742
-848.4227512823054,702
-845.7177108103272,692
-843.0134136373656,687
-840.3098595928943,673
-837.6070485063082,700
-834.9049802069229,716
-832.2036545239757,723
-829.5030712866244,739
-826.8032303239481,704
-824.1041314649472,679
-821.4057745385428,675
-818.7081593735775,671
-816.0112857988148,685
-813.3151536429393,672
-810.6197627345566,674
-807.9251129021936,662
-805.2312039742981,701
-802.5380357792392,682
-799.8456081453069,681
-797.1539209007124,693
-794.462973873588,679
-791.772766891987,683
-789.083299783884,725
-786.3945723771743,702
-783.7065844996748,702
-781.0193359791231,671
-778.3328266431781,694
-775.6470563194197,696
-772.9620248353489,756
-770.2777320183878,694
-767.5941776958798,666
-764.9113616950891,692
-762.2292838432011,707
-759.5479439673222,693
-756.8673418944801,697
-754.1874774516235,730
-751.5083504656222,720
-748.8299607632671,708
-746.15230817127,724
-743.475392516264,728
-740.7992136248035,677
-738.1237713233636,709
-735.4490654383407,737
-732.7750957960521,708
-730.1018622227365,693
-727.4293645445534,692
-724.7576025875837,748
-722.0865761778291,761
-719.4162851412126,729
-716.7467293035781,731
-714.0779084906909,740
-711.409822528237,757
-708.7424712418238,741
-706.0758544569796,753
-703.4099719991541,758
-700.7448236937178,768
-698.0804093659622,770
-695.4167288411002,735
-692.7537819442656,756
-690.0915685005134,760
-687.4300883348199,780
-684.7693412720819,793
-682.1093271371178,774
-679.4500457546669,749
-676.7914969493897,757
-674.1336805458676,765
-671.4765963686034,759
-668.8202442420206,782
-666.1646239904642,842
-663.5097354382001,836
-660.8555784094151,740
-658.2021527282176,796
-655.5494582186366,813
-652.8974947046223,814
-650.2462620100463,840
-647.5957599587009,778
-644.9459883742998,841
-642.2969470804776,834
-639.6486359007902,851
-637.0010546587141,813
-634.3542031776476,794
-631.7080812809096,841
-629.0626887917401,815
-626.4180255333008,801
-623.7740913286734,768
-621.1308860008619,749
-618.4884093727904,831
-615.8466612673046,796
-613.2056415071715,818
-610.5653499150785,801
-607.9257863136347,849
-605.28695052537,843
-602.6488423727357,824
-600.0114616781036,796
-597.3748082637674,876
-594.7388819519412,843
-592.1036825647604,830
-589.4692099242818,849
-586.8354638524829,849
-584.2024441712624,802
-581.5701507024403,796
-578.9385832677575,796
-576.3077416888759,812
-573.6776257873787,807
-571.0482353847704,821
-568.4195703024757,825
-565.7916303618415,886
-563.164415384135,893
-560.5379251905453,878
-557.9121596021815,866
-555.2871184400748,882
-552.6628015251767,852
-550.0392086783606,842
-547.4163397204204,886
-544.794194472071,837
-542.1727727539491,874
-539.5520743866118,882
-536.9320991905377,888
-534.3128469861261,981
-531.6943175936979,982
-529.0765108334947,955
-526.4594265256793,1042
-523.8430644903358,1188
-521.2274245474689,1315
-518.612506517005,1405
-515.9983102187913,1423
-513.3848354725959,1578
-510.77208209810846,1646
-508.16004991493924,1766
-505.5487387426199,1861
-502.9381484006032,1958
-500.3282787082628,2069
-497.71912948489364,2188
-495.1107005497117,2161
-492.5029917218539,2065
-489.8960028203786,1897
-487.28973366426493,1719
-484.68418407241325,1451
-482.07935386364494,1366
-479.47524285670266,1231
-476.87185087025,1257
-474.2691777228715,1222
-471.66722323307334,1200
-469.0659872192821,1103
-466.4654694998459,1109
-463.86566989303384,1121
-461.26658821703614,1109
-458.66822428996414,1079
-456.07057792985,1082
-453.4736489546475,1124
-450.877437182231,1084
-448.28194243039627,1050
-445.68716451686,1075
-443.09310325926003,1016
-440.49975847515555,1016
-437.9071299820263,1028
-435.31521759727354,1069
-432.72402113821954,1032
-430.13354042210767,1076
-427.5437752661022,1146
-424.95472548728867,1090
-422.36639090267386,1164
-419.7787713291855,1115
-417.1918665836721,1111
-414.60567648290385,1116
-412.0202008435715,1148
-409.4354394822874,1148
-406.8513922155845,1150
-404.26805885991723,1164
-401.685439231661,1158
-399.103533147112,1161
-396.522340422488,1164
-393.9418608739278,1152
-391.3620943174908,1169
-388.7830405691583,1116
-386.2046994448317,1110
-383.6270707603344,1078
-381.05015433141045,996
-378.473949973725,912
-375.8984575028645,852
-373.32367673433623,837
-370.74960748356875,790
-368.1762495659117,757
-365.60360279663576,675
-363.03166699093265,663
-360.4604419639154,625
-357.8899275306178,555
-355.32012350599507,568
-352.7510297049233,573
-350.1826459421999,559
-347.61497203254316,553
-345.04800779059235,544
-342.4817530309082,526
-339.91620756797226,498
-337.35137121618743,541
-334.7872437898774,552
-332.22382510328725,574
-329.66111497058273,552
-327.09911320585127,564
-324.53781962310075,576
-321.9772340362607,572
-319.4173562591816,540
-316.8581861056348,652
-314.2997233893127,678
-311.7419679238294,662
-309.1849195227194,616
-306.62857799943856,554
-304.0729431673641,567
-301.51801483979375,552
-298.963792829947,550
-296.41027695096386,590
-293.85746701590574,594
-291.3053628377552,664
-288.7539642294155,693
-286.2032710037115,637
-283.65328297338897,667
-281.1039999511146,714
-278.5554217494762,749
-276.007548180983,694
-273.4603790580651,683
-270.9139141930734,645
-268.3681533982807,645
-265.8230964858798,743
-263.27874326798565,700
-260.7350935566336,775
-258.1921471637804,766
-255.6499039013039,866
-253.10836358100266,756
-250.56752601459698,746
-248.02739101372765,767
-245.48795838995704,788
-242.94922795476816,753
-240.41119951956557,756
-237.8738728956746,811
-235.33724789434166,853
-232.80132432673452,988
-230.2661020039418,1018
-227.73158073697357,960
-225.19776033676033,791
-222.66464061415422,821
-220.1322213799284,850
-217.60050244477725,814
-215.06948361931552,812
-212.53916471408013,832
-210.00954553952818,836
-207.48062590603843,856
-204.9524056239104,923
-202.4248845033651,962
-199.8980623545441,905
-197.37193898751036,820
-194.84651421224817,903
-192.32178783866232,940
-189.79775967657952,1013
-187.27442953574644,932
-184.7517972258321,901
-182.2298625564256,926
-179.7086253370378,1027
-177.18808537710026,1014
-174.66824248596583,1032
-172.14909647290835,1129
-169.6306471471229,1066
-167.11289431772548,1012
-164.59583779375328,1013
-162.07947738416453,1024
-159.5638128978386,1052
-157.04884414357605,1122
-154.53457093009854,1224
-152.02099306604828,1178
-149.50811035998936,1155
-146.99592262040665,1081
-144.48442965570587,1215
-141.97363127421409,1263
-139.46352728417958,1376
-136.95411749377126,1204
-134.44540171107985,1359
-131.93737974411636,1347
-129.43005140081357,1345
-126.92341648902493,1264
-124.41747481652521,1263
-121.91222619101006,1297
-119.40767042009657,1286
-116.90380731132257,1297
-114.40063667214702,1451
-111.8981583099503,1559
-109.3963720320337,1705
-106.89527764561933,1358
-104.39487495785067,1540
-101.89516377579241,1667
-99.39614390642998,1814
-96.89781515667039,1971
-94.40017733334128,2200
-91.90323024319173,2063
-89.40697369289148,1997
-86.91140748903172,1932
-84.41653143812482,1779
-81.92234534660395,1980
-79.42884902082358,1947
-76.93604226705907,2208
-74.4439248915071,2463
-71.95249670028534,2040
-69.46175749943245,2310
-66.97170709490854,2572
-64.48234529259423,2810
-61.99367189829195,2685
-59.50568671772464,2872
-57.01838955653636,3407
-54.53178022029283,3306
-52.045858514480074,3517
-49.560624244506016,4166
-47.07607721569923,3995
-44.59221723330904,4030
-42.10904410250669,4072
-39.62655762838392,4788
-37.14475761595372,5782
-34.66364387015028,6142
-32.18321619582866,6239
-29.70347439776515,6761
-27.224418280657005,9538
-24.74604764912317,12859
-22.26836230770266,17561
-19.7913620608565,26587
-17.315046712966478,37765
-14.83941606833514,42234
-12.36446993118659,65040
-9.89020810566592,65040
-7.416630395839093,65040
-4.94373660569363,65040
-2.471526539137585,65040
-6.821210263296962E-13,65040
2.47084320796705,65040
4.941003281093458,65040
7.410480415786196,65040
9.879274808531363,65040
12.347386655893956,65040
14.814816154518212,65040
17.28156350112681,65040
19.74762889252179,65040
22.21301252558385,65040
24.67771459727237,65040
27.141735304626195,45546
29.605074844762612,17606
32.06773341487792,15570
34.52971121224755,13016
36.99100843422559,12079
39.45162527824516,8994
41.91156194181792,8098
44.370818622535126,9846
46.82939551806646,10000
49.287292826160524,12755
51.74451074464503,12276
54.201049471426245,8548
56.65690920448981,6273
59.112090141899785,4924
61.56659248179983,4573
64.02041642241159,4665
66.4735621620365,4280
68.92602989905402,3457
71.37781983192338,3487
73.82893215918205,3670
76.27936707944684,3569
78.72912479141326,3511
81.17820549385567,3583
83.62660938562783,3102
86.07433666566146,3023
88.5213875329681,3235
90.96776218663751,2812
93.41346082583925,2437
95.85848364982041,1878
98.30283085790859,1857
100.7465026495089,1963
103.18949922410604,2224
105.63182078126385,2060
108.07346752062438,1900
110.51443964190923,1939
112.95473734491827,1812
115.39436082953114,1584
117.83331029570547,1827
120.27158594347827,2086
122.7091879729652,1830
125.1461165843615,1558
127.58237197794062,1459
130.01795435405518,1316
132.4528639131364,1381
134.88710085569494,1661
137.32066538231982,1613
139.75355769367923,1529
142.1857779905207,1578
144.61732647366978,1552
147.04820334403132,1381
149.47840880258934,1415
151.90794305040674,1667
154.33680628862487,1673
156.76499871846443,1594
159.19252054122433,1706
161.61937195828352,1766
164.04555317109896,1788
166.47106438120693,2125
168.89590579022217,2400
171.320077599839,2503
173.7435800118302,2498
176.16641322804742,2428
178.58857745042144,2506
181.01007288096173,2681
183.43089972175687,2783
185.85105817497413,2673
188.27054844285988,2646
190.6893707277394,2609
193.10752523201643,2632
195.5250121581745,2837
197.9418317087751,2811
200.3579840864594,2792
202.7734694939469,2876
205.18828813403627,2863
207.6024402096051,2827
210.01592592360964,2935
212.42874547908548,2805
214.84089907914665,2898
217.2523869269868,2810
219.66320922587727,2986
222.0733661791695,2962
224.48285799029293,2933
226.8916848627572,3018
229.29984700014882,3094
231.7073446061355,2989
234.11417788446204,3029
236.520347038953,3171
238.92585227351185,3307
241.33069379212054,3463
243.73487179884035,3386
246.1383864978112,3230
248.541238093252,3232
250.9434267894609,3430
253.34495279081432,3442
255.74581630176783,3398
258.1460175268563,3666
260.54555667069314,3471
262.9444339379703,3448
265.3426495334594,3275
267.7402036620107,3263
270.1370965285529,3136
272.53332833809407,3066
274.9288992957214,2986
277.32380960660055,2921
279.718059475976,2893
282.1116491091717,2900
284.5045787115897,2991
286.89684848871195,2918
289.2884586460981,2949
291.67940938938807,2874
294.0697009242996,2932
296.4593334566299,2848
298.84830719225477,2911
301.23662233712923,2793
303.6242790972866,2747
306.01127767884,2731
308.39761828798066,2728
310.78330113097934,2688
313.16832641418534,2693
315.5526943440269,2633
317.9364051270112,2559
320.3194589697242,2573
322.70185607883093,2517
325.0835966610754,2445
327.4646809232805,2471
329.8451090723478,2536
332.2248813152577,2539
334.6039978590701,2480
336.9824589109231,2427
339.36026467803447,2399
341.7374153677,2375
344.113911187295,2330
346.48975234427337,2343
348.8649390461686,2353
351.2394715005918,2375
353.61334991523415,2224
355.9865744978655,2278
358.35914545633375,2334
360.73106299856715,2267
363.10232733257146,2317
365.47293866643247,2283
367.84289720831396,2242
370.2122031664593,2280
372.5808567491905,2238
374.9488581649083,2325
377.31620762209275,2289
379.6829053293021,2273
382.0489514951745,2231
384.4143463284262,2192
386.7790900378528,2111
389.14318283232853,2162
391.50662492080653,2203
393.86941651231916,2164
396.23155781597745,2110
398.5930490409713,2137
400.9538903965696,2184
403.3140820921202,2126
405.6736243370498,2166
408.03251734086336,2099
410.3907613131465,2192
412.74835646356166,2076
415.10530300185144,2080
417.4616011378372,2134
419.81725108141893,2179
422.1722530425758,2202
424.5266072313656,2117
426.880313857925,2117
429.2333731324701,2081
431.58578526529516,2090
433.9375504667738,2070
436.2886689473588,2067
438.63914091758113,2123
440.9889665880513,2045
443.33814616945835,1984
445.68667987257015,2088
448.03456790823395,1986
450.3818104873759,1961
452.72840782100013,1983
455.07436012019105,2054
457.41966759611057,2087
459.7643304600007,2069
462.10834892318155,2053
464.4517231970525,2108
466.79445349309174,2082
469.1365400228566,2061
471.4779829979826,2042
473.81878263018564,2084
476.15893913125876,2126
478.4984527130747,2135
480.8373235875855,2113
483.17555196682144,2177
485.5131380628919,2302
487.8500820879857,2422
490.1863842543697,2592
492.52204477439034,2674
494.8570638604725,2998
497.1914417251204,3428
499.52517858091653,3550
501.85827464052306,3812
504.19073011668036,3859
506.5225452222086,3836
508.85372017000566,3688
511.18425517304956,3621
513.514150444396,3624
515.8434061971808,4049
518.1720226446176,4635
520.4999999999999,4997
522.8273384766991,5301
525.1540382881666,5456
527.480099647932,5324
529.8055227696037,4619
532.1303078668694,3275
534.454455153496,2567
536.777964843328,2209
539.1008371502907,2117
541.4230722883866,2001
543.744670471698,1932
546.0656319143858,1963
548.3859568306899,1971
550.7056454349294,1891
553.0246979415016,1961
555.3431145648834,1860
557.6608955196306,1856
559.978041020377,1820
562.2945512818363,1864
564.6104265188006,1806
566.9256669461412,1873
569.2402727788082,1819
571.5542442318302,1809
573.8675815203156,1802
576.1802848594508,1884
578.4923544645015,1786
580.8037905508126,1852
583.114593333807,1793
585.4247630289875,1780
587.7342998519354,1775
590.0432040183106,1789
592.3514757438526,1895
594.6591152443794,1725
596.9661227357875,1799
599.2724984340531,1743
601.578242555231,1837
603.8833553154542,1884
606.1878369309362,1914
608.4916876179676,1882
610.7949075929192,1920
613.0974970722403,1918
615.3994562724587,1870
617.7007854101818,1851
620.0014847020951,1848
622.3015543649641,1841
624.6009946156324,1829
626.8998056710224,1810
629.1979877481361,1904
631.4955410640538,1880
633.7924658359349,1917
636.0887622810175,1833
638.3844306166192,1881
640.6794710601358,1851
642.9738838290426,1907
645.2676691408932,1883
647.5608272133207,1866
649.853358264037,1924
652.1452625108324,1888
654.4365401715764,1869
656.7271914642178,1888
659.0172166067838,1872
661.3066158173809,1896
663.5953893141935,1917
665.8835373154867,1930
668.1710600396028,1956
670.4579577049639,1928
672.7442305300709,1957
675.0298787335033,1917
677.3149025339197,1999
679.599302150058,1912
681.8830778007342,1865
684.1662297048437,1793
686.4487580813608,1879
688.7306631493387,1948
691.0119451279091,1879
693.2926042362834,1950
695.5726406937516,1919
697.8520547196814,1894
700.1308465335215,1906
702.4090163547982,1960
704.6865644031171,1902
706.9634908981619,1899
709.2397960596965,1897
711.5154801075631,1932
713.7905432616823,1914
716.0649857420548,1871
718.3388077687592,1934
720.612009561953,1885
722.8845913418733,1881
725.1565533288352,1896
727.427895743234,1851
729.6986188055427,1853
731.9687227363137,1949
734.238207756178,1883
736.5070740858458,1874
738.7753219461066,1853
741.0429515578281,1900
743.3099631419569,1881
745.5763569195191,1873
747.8421331116193,1894
750.1072919394409,1840
752.3718336242467,1813
754.6357583873777,1944
756.8990664502545,1834
759.1617580343765,1895
761.423833361321,1874
763.6852926527457,1949
765.9461361303862,1967
768.206364016058,1919
770.4659765316536,1864
772.7249738991469,1884
774.9833563405886,1928
777.2411240781092,1923
779.4982773339183,1944
781.7548163303044,1949
784.010741289634,1877
786.2660524343538,1952
788.5207499869881,1930
790.7748341701416,1967
793.0283052064964,1920
795.2811633188143,1889
797.5334087299362,1992
799.7850416627813,1971
802.0360623403484,1997
804.2864709857143,1964
806.5362678220353,1892
808.7854530725468,1859
811.0340269605625,1995
813.2819897094754,1925
815.5293415427581,1899
817.77608268396,1935
820.0222133567116,1926
822.2677337847211,1950
824.5126441917765,1917
826.7569448017433,1922
829.0006358385675,1928
831.2437175262731,1957
833.4861900889629,1896
835.7280537508192,1950
837.9693087361026,1999
840.2099552691533,1907
842.4499935743896,1931
844.689423876309,1943
846.9282463994886,1956
849.1664613685833,1905
851.4040690083276,1939
853.6410695435349,1907
855.877463199097,1969
858.1132501999847,1875
860.3484307712487,1909
862.5830051380175,1940
864.8169735254988,1939
867.0503361589791,2017
869.2830932638243,1979
871.5152450654786,1910
873.7467917894654,1961
875.9777336613873,1969
878.2080709069252,2000
880.4378037518389,1987
882.666932421968,1937
884.8954571432301,2039
887.1233781416219,2032
889.3506956432192,2028
891.5774098741766,1961
893.803521060728,1965
896.0290294291852,2018
898.2539352059397,1987
900.4782386174619,1947
902.7019398903011,1999
904.925039251085,2002
907.147536926521,1971
909.3694331433943,2025
911.59072812857,1983
913.8114221089921,2004
916.0315153116827,2030
918.2510079637437,1893
920.4699002923547,1909
922.6881925247761,1899
924.905884888345,2022
927.1229776104793,1991
929.3394709186747,1964
931.555365040506,1995
933.7706602036275,1998
935.9853566357709,1986
938.1994545647489,1957
940.4129542184515,1876
942.6258558248488,1997
944.8381596119883,1991
947.0498658079974,1969
949.2609746410825,1965
951.4714863395287,1962
953.6814011316998,1926
955.8907192460387,1927
958.0994409110671,1869
960.3075663553858,1867
962.5150958076741,1952
964.7220294966913,1876
966.928367651274,1871
969.1341105003388,1874
971.3392582728806,1938
973.5438111979742,1823
975.747769504772,1835
977.9511334225061,1800
980.153903180487,1868
982.3560790081052,1834
984.5576611348289,1852
986.7586497902058,1849
988.9590452038618,1761
991.158847605503,1821
993.3580572249133,1790
995.5566742919558,1813
997.7546990365728,1711
999.952131688785,1687
1002.1489724786926,1592
1004.3452216364743,1662
1006.5408793923874,1664
1008.7359459767691,1690
1010.9304216200343,1646
1013.1243065526781,1623
1015.3176010052733,1625
1017.510305208472,1624
1019.7024193930064,1578
1021.8939437896848,1530
1024.0848786293977,1563
1026.2752241431122,1536
1028.4649805618747,1577
1030.6541481168115,1600
1032.842727039127,1597
1035.0307175601051,1594
1037.2181199111074,1521
1039.4049343235752,1532
1041.591161029029,1548
1043.7768002590683,1531
1045.9618522453698,1508
1048.1463172196918,1514
1050.3301954138697,1498
1052.513487059818,1455
1054.69619238953,1530
1056.8783116350783,1482
1059.0598450286152,1484
1061.2407928023704,1498
1063.4211551886528,1561
1065.6009324198508,1554
1067.780124728432,1532
1069.9587323469414,1493
1072.1367555080046,1492
1074.314194444325,1454
1076.4910493886855,1497
1078.667320573947,1461
1080.843008233051,1434
1083.0181125990161,1453
1085.1926339049414,1448
1087.3665723840027,1462
1089.5399282694575,1436
1091.7127017946405,1403
1093.8848931929647,1420
1096.0565026979243,1460
1098.2275305430899,1453
1100.3979769621128,1485
1102.567842188722,1452
1104.737126456726,1419
1106.9058300000124,1403
1109.0739530525475,1389
1111.2414958483764,1415
1113.4084586216231,1435
1115.5748416064907,1456
1117.7406450372605,1392
1119.9058691482942,1414
1122.0705141740304,1484
1124.2345803489884,1453
1126.3980679077658,1440
1128.5609770850388,1472
1130.7233081155623,1407
1132.8850612341707,1430
1135.0462366757774,1429
1137.2068346753745,1400
1139.3668554680326,1419
1141.526299288901,1416
1143.68516637321,1432
1145.8434569562655,1351
1148.001171273455,1387
1150.158309560244,1393
1152.3148720521767,1393
1154.470858984876,1364
1156.626270594044,1368
1158.7811071154629,1390
1160.9353687849912,1377
1163.089055838569,1396
1165.242168512213,1411
1167.3947070420209,1398
1169.5466716641677,1415
1171.6980626149075,1420
1173.8488801305748,1385
1175.9991244475814,1406
1178.1487958024186,1325
1180.2978944316555,1384
1182.4464205719428,1373
1184.5943744600072,1372
1186.7417563326567,1401
1188.8885664267755,1365
1191.0348049793297,1401
1193.1804722273619,1427
1195.325568407995,1407
1197.4700937584303,1343
1199.614048515948,1371
1201.7574329179074,1374
1203.900247201746,1393
1206.042491604982,1357
1208.1841663652099,1395
1210.3252717201053,1395
1212.465807907422,1375
1214.6057751649923,1403
1216.7451737307279,1389
1218.8840038426192,1344
1221.0222657387353,1391
1223.1599596572241,1466
1225.2970858363137,1402
1227.4336445143094,1427
1229.5696359295966,1380
1231.705060320639,1351
1233.8399179259786,1412
1235.9742089842384,1409
1238.107933734118,1450
1240.2410924143974,1457
1242.373685263935,1395
1244.5057125216676,1383
1246.6371744266116,1381
1248.7680712178621,1433
1250.898403134593,1402
1253.028170416058,1379
1255.1573733015875,1350
1257.2860120305932,1383
1259.4140868425648,1402
1261.54159797707,1370
1263.6685456737569,1401
1265.7949301723515,1425
1267.9207517126597,1429
1270.046010534565,1423
1272.1707068780306,1418
1274.2948409830983,1436
1276.4184130898889,1418
1278.541423438603,1469
1280.6638722695184,1460
1282.785759822993,1471
1284.9070863394636,1526
1287.0278520594447,1469
1289.1480572235314,1518
1291.2677020723963,1488
1293.3867868467923,1502
1295.5053117875495,1469
1297.623277135579,1522
1299.740683131868,1518
1301.8575300174857,1506
1303.973818033578,1547
1306.0895474213703,1486
1308.2047184221678,1514
1310.3193312773528,1496
1312.4333862283888,1428
1314.5468835168163,1539
1316.659823384255,1569
1318.7722060724045,1460
1320.8840318230418,1599
1322.9953008780249,1588
1325.1060134792888,1570
1327.2161698688478,1543
1329.3257702887959,1567
1331.4348149813054,1546
1333.5433041886276,1522
1335.6512381530933,1538
1337.7586171171101,1519
1339.8654413231675,1528
1341.9717110138317,1526
1344.0774264317488,1529
1346.1825878196432,1544
1348.2871954203192,1521
1350.3912494766587,1485
1352.4947502316231,1530
1354.5976979282532,1475
1356.7000928096686,1465
1358.8019351190665,1526
1360.9032250997243,1573
1363.0039629949988,1554
1365.1041490483235,1497
1367.2037835032133,1491
1369.3028666032606,1544
1371.401398592137,1507
1373.4993797135926,1477
1375.5968102114575,1474
1377.6936903296396,1445
1379.7900203121262,1562
1381.8858004029835,1530
1383.9810308463561,1525
1386.075711886469,1525
1388.1698437676241,1506
1390.2634267342032,1457
1392.356461030667,1589
1394.4489469015557,1567
1396.5408845914872,1538
1398.6322743451592,1518
1400.7231164073469,1507
1402.813411022907,1601
1404.903158436773,1596
1406.9923588939578,1579
1409.0810126395531,1579
1411.1691199187303,1560
1413.2566809767386,1598
1415.343696058907,1548
1417.4301654106425,1587
1419.5160892774315,1567
1421.6014679048399,1553
1423.6863015385125,1558
1425.7705904241707,1541
1427.8543348076178,1591
1429.9375349347342,1566
1432.0201910514802,1651
1434.102303403894,1657
1436.1838722380944,1645
1438.2648978002767,1656
1440.3453803367174,1696
1442.4253200937692,1705
1444.5047173178677,1728
1446.5835722555234,1785
1448.6618851533285,1716
1450.739656257952,1651
1452.8168858161434,1795
1454.8935740747306,1722
1456.96972128062,1792
1459.045327680797,1815
1461.120393522327,1889
1463.1949190523528,1859
1465.2689045180973,1900
1467.3423501668608,1929
1469.415256246024,1931
1471.4876230030463,1919
1473.559450685465,2001
1475.6307395408976,2029
1477.7014898170391,1963
1479.771701761665,2109
1481.8413756226287,2073
1483.9105116478618,2048
1485.9791100853772,2089
1488.0471711832643,2177
1490.1146951896926,2157
1492.1816823529098,2213
1494.2481329212433,2237
1496.3140471430984,2205
1498.3794252669609,2204
1500.4442675413939,2307
1502.5085742150404,2305
1504.572345536622,2327
1506.6355817549388,2347
1508.6982831188702,2333
1510.7604498773744,2400
1512.8220822794883,2343
1514.8831805743293,2404
1516.9437450110909,2319
1519.003775839048,2431
1521.0632733075522,2410
1523.1222376660367,2399
1525.1806691640113,2402
1527.2385680510652,2452
1529.2959345768668,2466
1531.3527689911643,2443
1533.4090715437833,2519
1535.4648424846291,2603
1537.5200820636855,2574
1539.5747905310159,2568
1541.6289681367616,2635
1543.6826151311434,2711
1545.7357317644614,2644
1547.7883182870937,2787
1549.8403749494987,2828
1551.8919020022113,2812
1553.9428996958477,2855
1555.9933682811015,2887
1558.0433080087469,2882
1560.0927191296346,2958
1562.1416018946961,2959
1564.1899565549415,2941
1566.2377833614592,3038
1568.2850825654164,2974
1570.3318544180606,2873
1572.3780991707158,2806
1574.423817074788,2776
1576.4690083817595,2748
1578.5136733431923,2550
1580.5578122107272,2499
1582.601425236085,2422
1584.6445126710646,2257
1586.6870747675434,2240
1588.7291117774776,2081
1590.7706239529034,2065
1592.8116115459347,1996
1594.8520748087658,1890
1596.8920139936686,1893
1598.9314293529933,1812
1600.9703211391711,1828
1603.008689604711,1743
1605.0465350022005,1764
1607.0838575843068,1724
1609.1206576037753,1694
1611.1569353134305,1658
1613.1926909661765,1582
1615.2279248149953,1655
1617.2626371129481,1574
1619.2968281131757,1652
1621.3304980688963,1511
1623.3636472334088,1594
1625.39627586009,1557
1627.428384202396,1575
1629.459972513861,1588
1631.4910410480993,1472
1633.5215900588028,1430
1635.551619799744,1487
1637.5811305247717,1476
1639.6101224878166,1490
1641.6385959428862,1483
1643.6665511440683,1459
1645.693988345528,1470
1647.7209078015112,1438
1649.7473097663405,1489
1651.7731944944203,1454
1653.7985622402307,1427
1655.823413258333,1408
1657.847747803366,1515
1659.8715661300494,1500
1661.8948684931793,1423
1663.9176551476316,1439
1665.9399263483624,1403
1667.9616823504057,1383
1669.982923408873,1406
1672.0036497789574,1418
1674.0238617159293,1390
1676.043559475138,1393
1678.0627433120121,1374
1680.081413482059,1405
1682.0995702408654,1403
1684.117213844096,1390
1686.134344547495,1432
1688.1509626068864,1399
1690.1670682781705,1440
1692.182661817329,1392
1694.1977434804217,1346
1696.2123135235875,1429
1698.226372203043,1434
1700.2399197750851,1352
1702.2529564960905,1381
1704.2654826225112,1373
1706.277498410882,1379
1708.2890041178139,1447
1710.2999999999988,1399
1712.3104863142066,1451
1714.3204633172854,1385
1716.329931266163,1387
1718.3388904178469,1341
1720.3473410294214,1457
1722.3552833580516,1390
1724.3627176609807,1358
1726.3696441955308,1413
1728.3760632191033,1381
1730.3819749891782,1369
1732.3873797633146,1356
1734.3922777991502,1385
1736.3966693544012,1394
1738.4005546868639,1331
1740.4039340544127,1344
1742.406807715001,1394
1744.4091759266616,1334
1746.4110389475054,1314
1748.4123970357223,1346
1750.413250449582,1320
1752.4135994474318,1349
1754.4134442876993,1316
1756.4127852288902,1356
1758.4116225295893,1300
1760.4099564484595,1304
1762.407787244244,1318
1764.405115175764,1345
1766.4019405019203,1332
1768.3982634816916,1312
1770.3940843741357,1323
1772.3894034383907,1321
1774.3842209336717,1280
1776.378537119274,1277
1778.372352254571,1340
1780.3656665990156,1373
1782.3584804121397,1300
1784.3507939535534,1293
1786.3426074829463,1279
1788.3339212600863,1253
1790.3247355448211,1316
1792.3150505970766,1249
1794.3048666768573,1319
1796.2941840442477,1257
1798.2830029594106,1329
1800.2713236825884,1314
1802.2591464741004,1336
1804.2464715943465,1287
1806.2332993038058,1239
1808.2196298630352,1299
1810.2054635326708,1299
1812.190800573428,1320
1814.175641246101,1275
1816.1599858115628,1248
1818.1438345307652,1296
1820.127187664738,1303
1822.1100454745924,1253
1824.092408221516,1288
1826.0742761667766,1286
1828.055649571721,1282
1830.0365286977735,1293
1832.0169138064398,1276
1833.9968051593014,1314
1835.9762030180214,1291
1837.9551076443408,1263
1839.9335193000788,1329
1841.9114382471344,1312
1843.888864747485,1304
1845.8657990631878,1294
1847.842241456378,1286
1849.8181921892697,1285
1851.7936515241558,1281
1853.7686197234098,1306
1855.7430970494815,1338
1857.7170837649014,1253
1859.6905801322787,1277
1861.6635864143004,1310
1863.6361028737338,1292
1865.608129773424,1304
1867.5796673762961,1316
1869.5507159453537,1367
1871.521275743678,1333
1873.4913470344313,1303
1875.4609300808534,1334
1877.4300251462632,1368
1879.3986324940588,1316
1881.366752387717,1339
1883.3343850907936,1317
1885.3015308669228,1322
1887.268189979819,1331
1889.2343626932739,1295
1891.2000492711595,1319
1893.1652499774254,1294
1895.1299650761011,1262
1897.0941948312952,1373
1899.0579395071945,1355
1901.0211993680641,1299
1902.98397467825,1323
1904.9462657021745,1337
1906.9080727043415,1313
1908.869395949332,1282
1910.8302357018065,1355
1912.790592226504,1289
1914.7504657882428,1302
1916.7098566519212,1330
1918.6687650825133,1293
1920.6271913450764,1320
1922.5851357047422,1316
1924.5425984267245,1317
1926.499579776314,1372
1928.4560800188833,1338
1930.4120994198802,1318
1932.367638244833,1336
1934.32269675935,1289
1936.2772752291175,1307
1938.231373919899,1326
1940.1849930975404,1314
1942.1381330279637,1307
1944.0907939771696,1300
1946.0429762112412,1321
1947.9946799963363,1289
1949.9459055986945,1290
1951.896653284633,1281
1953.8469233205478,1327
1955.7967159729142,1342
1957.7460315082863,1299
1959.6948701932974,1256
1961.6432322946594,1334
1963.5911180791632,1339
1965.5385278136787,1312
1967.4854617651545,1278
1969.4319202006182,1323
1971.377903387176,1316
1973.3234115920136,1286
1975.268445082395,1268
1977.2130041256642,1287
1979.1570889892423,1268
1981.1006999406304,1335
1983.04383724741,1347
1984.986501177238,1259
1986.928691997853,1263
1988.8704099770712,1264
1990.811655382789,1321
1992.7524284829801,1242
1994.692729545698,1298
1996.6325588390755,1264
1998.5719166313224,1317
2000.5108031907307,1329
2002.4492187856677,1313
2004.387163684583,1283
2006.3246381560011,1240
2008.2616424685298,1253
2010.1981768908527,1265
2012.1342416917332,1296
2014.069837140014,1265
2016.0049635046162,1302
2017.9396210545406,1308
2019.8738100588666,1260
2021.8075307867502,1232
2023.740783507431,1302
2025.6735684902228,1302
2027.6058860045214,1197
2029.5377363198004,1225
2031.4691197056118,1310
2033.4000364315875,1295
2035.3304867674374,1243
2037.260470982952,1269
2039.189989347998,1271
2041.1190421325232,1224
2043.047629606554,1279
2044.9757520401945,1259
2046.9034097036288,1300
2048.8306028671195,1327
2050.7573318010086,1276
2052.683596775716,1311
2054.609398061742,1232
2056.5347359296647,1290
2058.4596106501403,1277
2060.384022493906,1264
2062.3079717317764,1309
2064.231458634646,1259
2066.1544834734873,1251
2068.077046519352,1305
2069.99914804337,1204
2071.9207883167524,1287
2073.8419676107865,1264
2075.7626861968406,1238
2077.6829443463607,1265
2079.6027423308715,1249
2081.522080421977,1275
2083.440958891362,1276
2085.359378010786,1296
2087.2773380520907,1284
2089.194839287196,1274
2091.111881988101,1278
2093.0284664268825,1277
2094.9445928756973,1259
2096.86026160678,1277
2098.775472892446,1217
2100.690227005088,1264
2102.604524217178,1273
2104.5183648012676,1269
2106.431749029985,1272
2108.34467717604,1247
2110.2571495122206,1233
2112.169166311393,1240
2114.080727846503,1260
2115.9918343905747,1243
2117.902486216711,1262
2119.8126835980956,1257
2121.722426807987,1276
2123.6317161197285,1282
2125.5405518067364,1296
2127.448934142509,1274
2129.356863400624,1222
2131.264339854737,1340
2133.1713637785815,1322
2135.077935445972,1260
2136.9840551308002,1291
2138.889723107037,1233
2140.7949396487334,1286
2142.699705030018,1260
2144.6040195250994,1286
2146.507883408264,1243
2148.4112969538774,1230
2150.3142604363848,1249
2152.2167741303097,1278
2154.1188383102535,1299
2156.0204532508997,1268
2157.9216192270064,1259
2159.822336513414,1283
2161.7226053850413,1282
2163.622426116884,1329
2165.5217989840185,1253
2167.4207242616,1245
2169.319202224862,1247
2171.2172331491165,1289
2173.1148173097563,1279
2175.0119549822507,1249
2176.90864644215,1237
2178.8048919650823,1207
2180.7006918267534,1309
2182.596046302952,1246
2184.4909556695407,1234
2186.3854202024645,1283
2188.279440177746,1289
2190.173015871487,1247
2192.066147559868,1303
2193.958835519149,1256
2195.851080025667,1247
2197.7428813558417,1305
2199.6342397861667,1309
2201.5251555932186,1313
2203.415629053651,1345
2205.3056604441986,1281
2207.19525004167,1297
2209.084398122958,1240
2210.9731049650327,1222
2212.861370844941,1327
2214.749196039812,1258
2216.636580826851,1275
2218.523525483344,1249
2220.410030286655,1220
2222.296095514226,1200
2224.1817214435805,1250
2226.066908352319,1285
2227.951656518121,1318
2229.835966218746,1301
2231.71983773203,1284
2233.6032713358913,1280
2235.486267308324,1249
2237.3688259274036,1255
2239.2509474712824,1240
2241.132632218193,1259
2243.013880446447,1308
2244.8946924344323,1241
2246.7750684606203,1277
2248.6550088035574,1251
2250.534513741871,1294
2252.413583554265,1288
2254.292218519526,1264
2256.170418916517,1262
2258.0481850241786,1225
2259.925517121534,1237
2261.8024154876825,1251
2263.678880401803,1262
2265.5549121431536,1326
2267.430510991071,1288
2269.305677224971,1276
2271.180411124348,1277
2273.0547129687766,1224
2274.9285830379076,1249
2276.8020216114737,1276
2278.6750289692845,1291
2280.5476053912294,1286
2282.4197511572766,1294
2284.2914665474727,1320
2286.162751841943,1284
2288.0336073208937,1261
2289.904033264608,1202
2291.774029953448,1274
2293.6435976678554,1283
2295.5127366883517,1223
2297.381447295534,1281
2299.2497297700825,1257
2301.1175843927526,1252
2302.9850114443825,1265
2304.852011205885,1300
2306.7185839582553,1309
2308.5847299825664,1293
2310.4504495599676,1310
2312.3157429716925,1285
2314.1806104990483,1340
2316.0450524234247,1312
2317.9090690262888,1292
2319.772660589186,1247
2321.635827393742,1275
2323.498569721661,1285
2325.3608878547248,1273
2327.2227820747967,1312
2329.0842526638157,1263
2330.945299903803,1295
2332.805924076857,1278
2334.6661254651535,1318
2336.525904350951,1274
2338.3852610165827,1289
2340.244195744464,1312
2342.102708817088,1248
2343.9608005170253,1333
2345.8184711269287,1265
2347.675720929526,1291
2349.532550207628,1368
2351.38895924412,1322
2353.24494832197,1353
2355.100517724223,1302
2356.955667734004,1270
2358.810398634514,1297
2360.664710709037,1290
2362.5186042409337,1351
2364.3720795136437,1291
2366.225136810686,1312
2368.0777764156583,1268
2369.929998612237,1348
2371.7818036841777,1308
2373.633191915315,1327
2375.484163589562,1300
2377.3347189909114,1283
2379.184858403434,1297
2381.03458211128,1335
2382.8838903986775,1306
2384.732783549936,1295
2386.5812618494406,1319
2388.4293255816588,1325
2390.2769750311327,1329
2392.1242104824883,1314
2393.971032220427,1289
2395.8174405297295,1312
2397.6634356952563,1361
2399.509018001947,1269
2401.3541877348193,1379
2403.1989451789705,1350
2405.043290619576,1339
2406.8872243418905,1316
2408.730746631247,1307
2410.5738577730594,1347
2412.4165580528183,1364
2414.258847756095,1327
2416.100727168537,1336
2417.9421965758734,1307
2419.783256263912,1322
2421.623906518538,1345
2423.4641476257157,1275
2425.303979871491,1353
2427.143403541984,1328
2428.9824189233977,1344
2430.821026302012,1359
2432.6592259641866,1372
2434.497018196361,1352
2436.33440328505,1301
2438.171381516851,1382
2440.00795317844,1330
2441.844118556569,1336
2443.6798779380724,1322
2445.5152316098606,1347
2447.3501798589255,1364
2449.1847229723357,1345
2451.0188612372403,1346
2452.8525949408663,1332
2454.6859243705203,1320
2456.518849813587,1362
2458.3513715575314,1329
2460.183489889895,1303
2462.015205098301,1295
2463.8465174704493,1343
2465.67742729412,1370
2467.5079348571717,1309
2469.338040447542,1317
2471.1677443532476,1308
2472.9970468623833,1290
2474.825948263123,1279
2476.6544488437207,1360
2478.482548892508,1334
2480.310248697896,1289
2482.137548548374,1332
2483.9644487325118,1320
2485.790949538956,1360
2487.617051256433,1346
2489.44275417375,1317
2491.26805857979,1393
2493.0929647635157,1395
2494.917473013971,1345
2496.741583620276,1386
2498.5652968716304,1311
2500.3886130573137,1302
2502.2115324666834,1345
2504.0340553891765,1323
2505.856182114308,1362
2507.6779129316733,1373
2509.499248130945,1335
2511.3201880018764,1295
2513.140732834298,1353
2514.9608829181198,1440
2516.780638543331,1379
2518.6,1415
2520.418967578273,1344
2522.237541568376,1334
2524.0557222606144,1368
2525.8735099453706,1369
2527.6909049131086,1400
2529.507907454368,1361
2531.32451785977,1401
2533.140736420014,1391
2534.9565634258774,1375
2536.771999168218,1361
2538.5870439379714,1401
2540.4016980261526,1430
2542.2159617238544,1403
2544.02983532225,1399
2545.8433191125914,1376
2547.656413386209,1493
2549.4691184345115,1421
2551.2814345489874,1505
2553.093362021204,1449
2554.904901142808,1477
2556.716052205523,1435
2558.526815501153,1438
2560.3371913215824,1468
2562.147179958771,1515
2563.956781704761,1439
2565.7659968516705,1429
2567.5748256916986,1446
2569.3832685171224,1469
2571.1913256202984,1500
2572.9989972936614,1515
2574.806283829725,1487
2576.613185521084,1475
2578.4197026604074,1489
2580.2258355404483,1534
2582.031584454035,1483
2583.836949694077,1576
2585.6419315535613,1555
2587.4465303255533,1591
2589.2507463032002,1567
2591.0545797797245,1553
2592.8580310484303,1539
2594.6611004026995,1594
2596.463788135992,1570
2598.266094541849,1557
2600.0680199138874,1537
2601.869564545807,1516
2603.670728731383,1555
2605.4715127644704,1544
2607.2719169390048,1593
2609.071941548998,1568
2610.8715868885433,1590
2612.670853251811,1563
2614.469740933052,1598
2616.268250226594,1583
2618.0663814268455,1578
2619.864134828292,1557
2621.6615107255006,1568
2623.458509413115,1556
2625.2551311858597,1514
2627.0513763385347,1547
2628.8472451660223,1504
2630.6427379632833,1477
2632.4378550253564,1481
2634.232596647359,1495
2636.026963124488,1474
2637.8209547520187,1507
2639.6145718253065,1444
2641.407814639785,1455
2643.200683490966,1446
2644.9931786744414,1524
2646.7853004858807,1452
2648.577049221034,1406
2650.3684251757277,1443
2652.1594286458712,1415
2653.9500599274484,1481
2655.740319316525,1370
2657.5302071092437,1367
2659.3197236018286,1424
2661.10886909058,1472
2662.8976438718782,1441
2664.686048242183,1411
2666.4740824980327,1352
2668.2617469360443,1395
2670.0490418529134,1382
2671.8359675454153,1334
2673.622524310403,1367
2675.408712444811,1369
2677.1945322456495,1382
2678.979984010009,1385
2680.76506803506,1349
2682.5497846180497,1369
2684.334134056306,1339
2686.1181166472343,1386
2687.9017326883213,1333
2689.6849824771293,1388
2691.4678663113013,1326
2693.2503844885596,1308
2695.032537306705,1364
2696.8143250636167,1315
2698.5957480572542,1281
2700.3768065856534,1354
2702.1575009469316,1335
2703.937831439283,1327
2705.717798360982,1333
2707.4974020103837,1336
2709.276642685917,1333
2711.055520686095,1252
2712.834036309506,1295
2714.612189854819,1298
2716.389981620782,1249
2718.1674119062204,1310
2719.944481010041,1336
2721.721189231226,1261
2723.4975368688415,1265
2725.273524222027,1283
2727.0491515900053,1265
2728.824419272075,1285
2730.5993275676146,1320
2732.3738767760838,1239
2734.148067197016,1251
2735.921899130031,1292
2737.6953728748194,1272
2739.468488731156,1233
2741.2412469988926,1296
2743.0136479779617,1305
2744.785691968372,1272
2746.5573792702116,1258
2748.3287101836504,1284
2750.099685008934,1287
2751.870304046388,1236
2753.640567596418,1251
2755.4104759595057,1308
2757.1800294362156,1275
2758.949228327187,1301
2760.7180729331412,1316
2762.486563554877,1280
2764.254700493272,1272
2766.022484049284,1254
2767.789914523947,1250
2769.5569922183786,1253
2771.3237174337705,1267
2773.090090471394,1228
2774.8561116326036,1287
2776.6217812188274,1257
2778.3870995315756,1365
2780.1520668724356,1186
2781.9166835430747,1255
2783.6809498452394,1223
2785.444866080754,1295
2787.2084325515225,1288
2788.971649559527,1244
2790.73451740683,1251
2792.4970363955713,1279
2794.2592068279705,1217
2796.0210290063264,1276
2797.7825032330147,1260
2799.543629810493,1298
2801.304409041296,1215
2803.0648412280366,1248
2804.8249266734088,1288
2806.5846656801846,1265
2808.344058551212,1281
2810.1031055894246,1288
2811.8618070978273,1250
2813.6201633795085,1270
2815.378174737636,1279
2817.1358414754536,1228
2818.893163896285,1267
2820.6501423035334,1266
2822.4067770006814,1215
2824.1630682912883,1226
2825.9190164789957,1320
2827.6746218675207,1274
2829.429884760661,1219
2831.184805462294,1283
2832.9393842763743,1269
2834.693621506936,1249
2836.4475174580916,1279
2838.201072434034,1268
2839.954286739034,1295
2841.707160677441,1252
2843.459694553685,1277
2845.2118886722724,1263
2846.96374333779,1251
2848.7152588549034,1286
2850.4664355283567,1255
2852.217273662973,1242
2853.9677735636546,1249
2855.7179355353833,1241
2857.4677598832186,1305
2859.217246912299,1269
2860.9663969278427,1252
2862.715210235146,1240
2864.4636871395846,1271
2866.211827946614,1279
2867.9596329617652,1264
2869.7071024906536,1306
2871.4542368389684,1261
2873.20103631248,1273
2874.947501217038,1244
2876.6936318585695,1238
2878.4394285430812,1334
2880.1848915766604,1323
2881.9300212654707,1256
2883.6748179157553,1303
2885.4192818338374,1259
2887.1634133261173,1259
2888.907212699077,1243
2890.6506802592744,1269
2892.393816313348,1220
2894.1366211680142,1276
2895.8790951300693,1212
2897.621238506388,1196
2899.363051603925,1249
2901.1045347297118,1234
2902.8456881908596,1315
2904.58651229456,1243
2906.327007348081,1194
2908.067173658772,1210
2909.8070115340597,1288
2911.5465212814497,1257
2913.285703208527,1216
2915.0245576229563,1255
2916.7630848324807,1276
2918.5012851449196,1256
2920.2391588681758,1245
2921.976706310227,1251
2923.7139277791334,1300
2925.4508235830313,1295
2927.187394030137,1263
2928.923639428745,1242
2930.6595600872306,1271
2932.395156314046,1257
2934.1304284177218,1220
2935.8653767068713,1272
2937.6000014901815,1251
2939.3343030764227,1303
2941.068281774442,1227
2942.8019378931644,1301
2944.5352717415976,1294
2946.2682836288236,1245
2948.0009738640065,1272
2949.7333427563885,1250
2951.465390615289,1222
2953.1971177501086,1256
2954.9285244703265,1275
2956.6596110855,1284
2958.3903779052657,1211
2960.1208252393385,1305
2961.8509533975125,1253
2963.5807626896617,1252
2965.3102534257378,1265
2967.0394259157715,1323
2968.768280469873,1272
2970.496817398232,1265
2972.2250370111146,1308
2973.952939618869,1258
2975.6805255319196,1277
2977.4077950607707,1226
2979.134748516006,1221
2980.861386208289,1216
2982.587708448359,1261
2984.313715547037,1265
2986.039407815222,1282
2987.764785563891,1280
2989.489849104102,1257
2991.2145987469908,1192
2992.9390348037705,1294
2994.6631575857346,1262
2996.3869674042576,1276
2998.1104645707887,1278
2999.83364939686,1273
3001.5565221940783,1239
3003.2790832741334,1274
3005.0013329487924,1258
3006.7232715298996,1258
3008.4448993293804,1250
3010.166216659239,1232
3011.887223831558,1297
3013.607921158498,1263
3015.3283089522993,1260
3017.0483875252826,1217
3018.7681571898443,1260
3020.4876182584626,1262
3022.2067710436927,1203
3023.9256158581707,1249
3025.644153014609,1249
3027.362382825801,1260
3029.0803056046193,1257
3030.797921664012,1246
3032.5152313170106,1254
3034.2322348767225,1209
3035.9489326563353,1297
3037.665324969115,1261
3039.3814121284063,1224
3041.097194447633,1237
3042.812672240299,1225
3044.5278458199855,1201
3046.2427155003525,1270
3047.9572815951406,1285
3049.671544418167,1244
3051.38550428333,1259
3053.0991615046073,1240
3054.812516396051,1246
3056.5255692717974,1273
3058.2383204460575,1230
3059.9507702331257,1273
3061.662918947372,1274
3063.3747669032446,1259
3065.0863144152736,1226
3066.7975617980674,1253
3068.508509366309,1243
3070.219157434767,1267
3071.9295063182844,1278
3073.639556331785,1261
3075.3493077902704,1205
3077.058761008821,1280
3078.7679163025964,1288
3080.476773986837,1254
3082.1853343768594,1285
3083.89359778806,1257
3085.6015645359153,1272
3087.3092349359786,1230
3089.016609303884,1260
3090.7236879553434,1316
3092.4304712061476,1241
3094.136959372166,1295
3095.843152769349,1237
3097.5490517137237,1234
3099.2546565213966,1175
3100.959967508554,1286
3102.66498499146,1255
3104.3697092864577,1295
3106.0741407099695,1266
3107.778279578498,1272
3109.482126208622,1258
3111.1856809170004,1226
3112.8889440203716,1282
3114.5919158355528,1266
3116.294596679439,1290
3117.996986869006,1235
3119.6990867213062,1249
3121.4008965534726,1295
3123.102416682717,1319
3124.803647426329,1228
3126.5045891016784,1249
3128.205242026213,1318
3129.90560651746,1223
3131.605682893025,1234
3133.3054714705922,1236
3135.0049725679282,1280
3136.7041865028714,1259
3138.4031135933465,1206
3140.101754157353,1289
3141.800108512971,1184
3143.498176978357,1306
3145.1959598717494,1272
3146.8934575114636,1284
3148.5906702158954,1230
3150.2875983035183,1246
3151.9842420928853,1225
3153.680601902627,1214
3155.376678051456,1193
3157.07247085816,1280
3158.767980641609,1203
3160.463207720748,1254
3162.158152414606,1218
3163.8528150422862,1217
3165.5471959229726,1220
3167.2412953759303,1181
3168.9351137204976,1246
3170.628651276098,1256
3172.3219083622307,1222
3174.014885298474,1254
3175.707582404485,1213
3177.4000000000005,1215
3179.092138404835,1299
3180.7839979388846,1213
3182.47557892212,1284
3184.166881674594,1237
3185.8579065164386,1260
3187.5486537678626,1270
3189.2391237491547,1285
3190.9293167806827,1238
3192.6192331828934,1213
3194.3088732763117,1220
3195.998237381542,1229
3197.687325819268,1221
3199.376138910251,1243
3201.064676975334,1246
3202.7529403354347,1215
3204.4409293115523,1261
3206.1286442247647,1225
3207.816085396229,1198
3209.5032531471825,1254
3211.190147798936,1224
3212.8767696728846,1212
3214.5631190905015,1260
3216.2491963733373,1276
3217.9350018430214,1202
3219.6205358212637,1239
3221.305798629851,1214
3222.990790590651,1203
3224.6755120256103,1219
3226.359963256751,1241
3228.0441446061795,1247
3229.7280563960758,1185
3231.411698948703,1245
3233.0950725863995,1269
3234.778177631587,1200
3236.461014406761,1298
3238.1435832345005,1253
3239.8258844374595,1260
3241.507918338374,1195
3243.1896852600576,1267
3244.8711855254023,1267
3246.552419457381,1189
3248.233387379042,1236
3249.914089613516,1314
3251.59452648401,1207
3253.274698313813,1244
3254.95460542629,1187
3256.6342481448855,1229
3258.313626793125,1193
3259.9927416946084,1156
3261.6715931730196,1222
3263.3501815521176,1199
3265.0285071557437,1252
3266.706570307815,1226
3268.3843713323286,1246
3270.0619105533615,1211
3271.739188295068,1189
3273.4162048816834,1233
3275.0929606375184,1197
3276.769455886966,1241
3278.445690954498,1218
3280.1216661646613,1212
3281.797381842087,1211
3283.4728383114807,1249
3285.1480358976296,1164
3286.8229749253996,1240
3288.4976557197333,1222
3290.172078605655,1252
3291.846243908266,1231
3293.5201519527463,1265
3295.193803064357,1173
3296.8671975684374,1209
3298.5403357904024,1174
3300.21321805575,1201
3301.8858446900567,1268
3303.558216018975,1241
3305.23033236824,1201
3306.9021940636603,1244
3308.57380143113,1241
3310.2451547966184,1203
3311.916254486174,1261
3313.5871008259246,1230
3315.2576941420766,1225
3316.9280347609147,1207
3318.5981230088046,1227
3320.2679592121895,1271
3321.9375436975924,1209
3323.606876791612,1196
3325.27595882093,1163
3326.944790112305,1151
3328.6133709925753,1186
3330.2817017886573,1219
3331.949782827547,1240
3333.617614436319,1226
3335.2851969421245,1231
3336.952530672199,1217
3338.619615953853,1268
3340.286453114475,1187
3341.9530424815357,1225
3343.619384382583,1246
3345.2854791452437,1220
3346.951327097224,1242
3348.6169285663073,1268
3350.2822838803577,1268
3351.947393367319,1204
3353.61225735521,1235
3355.2768761721345,1256
3356.9412501462693,1244
3358.605379605873,1238
3360.2692648792827,1275
3361.9329062949146,1272
3363.596304181263,1245
