CollectionTime,6/26/2024 3:05:17 PM
ExposureUsed,3
CalibratedSpectrum
-962.7078968117929,660
-959.9714848408522,753
-957.2358232597828,703
-954.5009119013725,711
-951.7667505983302,739
-949.0333391832855,728
-946.3006774887896,697
-943.5687653473143,694
-940.837602591253,763
-938.1071890529199,739
-935.3775245645503,731
-932.6486089583007,782
-929.9204420662485,762
-927.1930237203925,772
-924.4663537526524,753
-921.7404319948689,756
-919.0152582788041,698
-916.2908324361409,807
-913.5671542984834,785
-910.8442236973568,786
-908.1220404642074,810
-905.4006044304027,797
-902.679915427231,726
-899.959973285902,759
-897.2407778375464,753
-894.5223289132158,725
-891.8046263438832,723
-889.0876699604426,679
-886.3714595937089,758
-883.6559950744183,695
-880.9412762332282,688
-878.2273029007168,702
-875.5140749073835,710
-872.8015920836489,740
-870.0898542598545,708
-867.3788612662631,671
-864.6686129330585,705
-861.9591090903457,637
-859.2503495681506,663
-856.5423341964203,691
-853.8350628050229,675
-851.1285352237478,702
-848.4227512823054,711
-845.7177108103272,705
-843.0134136373656,684
-840.3098595928943,691
-837.6070485063082,722
-834.9049802069229,705
-832.2036545239757,722
-829.5030712866244,743
-826.8032303239481,701
-824.1041314649472,709
-821.4057745385428,722
-818.7081593735775,684
-816.0112857988148,680
-813.3151536429393,695
-810.6197627345566,702
-807.9251129021936,710
-805.2312039742981,685
-802.5380357792392,682
-799.8456081453069,707
-797.1539209007124,717
-794.462973873588,709
-791.772766891987,707
-789.083299783884,701
-786.3945723771743,701
-783.7065844996748,735
-781.0193359791231,701
-778.3328266431781,706
-775.6470563194197,722
-772.9620248353489,721
-770.2777320183878,682
-767.5941776958798,663
-764.9113616950891,746
-762.2292838432011,748
-759.5479439673222,752
-756.8673418944801,706
-754.1874774516235,694
-751.5083504656222,717
-748.8299607632671,709
-746.15230817127,723
-743.475392516264,727
-740.7992136248035,754
-738.1237713233636,737
-735.4490654383407,769
-732.7750957960521,725
-730.1018622227365,755
-727.4293645445534,717
-724.7576025875837,756
-722.0865761778291,776
-719.4162851412126,756
-716.7467293035781,732
-714.0779084906909,792
-711.409822528237,832
-708.7424712418238,780
-706.0758544569796,789
-703.4099719991541,769
-700.7448236937178,752
-698.0804093659622,784
-695.4167288411002,716
-692.7537819442656,730
-690.0915685005134,803
-687.4300883348199,796
-684.7693412720819,828
-682.1093271371178,806
-679.4500457546669,832
-676.7914969493897,806
-674.1336805458676,819
-671.4765963686034,840
-668.8202442420206,821
-666.1646239904642,853
-663.5097354382001,839
-660.8555784094151,809
-658.2021527282176,833
-655.5494582186366,863
-652.8974947046223,866
-650.2462620100463,871
-647.5957599587009,842
-644.9459883742998,842
-642.2969470804776,859
-639.6486359007902,830
-637.0010546587141,843
-634.3542031776476,886
-631.7080812809096,853
-629.0626887917401,813
-626.4180255333008,812
-623.7740913286734,803
-621.1308860008619,855
-618.4884093727904,795
-615.8466612673046,824
-613.2056415071715,831
-610.5653499150785,840
-607.9257863136347,807
-605.28695052537,819
-602.6488423727357,834
-600.0114616781036,816
-597.3748082637674,829
-594.7388819519412,888
-592.1036825647604,851
-589.4692099242818,830
-586.8354638524829,839
-584.2024441712624,811
-581.5701507024403,830
-578.9385832677575,858
-576.3077416888759,830
-573.6776257873787,801
-571.0482353847704,798
-568.4195703024757,824
-565.7916303618415,851
-563.164415384135,880
-560.5379251905453,841
-557.9121596021815,833
-555.2871184400748,807
-552.6628015251767,870
-550.0392086783606,879
-547.4163397204204,889
-544.794194472071,872
-542.1727727539491,904
-539.5520743866118,877
-536.9320991905377,865
-534.3128469861261,901
-531.6943175936979,956
-529.0765108334947,1003
-526.4594265256793,1079
-523.8430644903358,1186
-521.2274245474689,1267
-518.612506517005,1363
-515.9983102187913,1468
-513.3848354725959,1548
-510.77208209810846,1689
-508.16004991493924,1762
-505.5487387426199,1876
-502.9381484006032,1912
-500.3282787082628,2056
-497.71912948489364,2061
-495.1107005497117,2123
-492.5029917218539,2053
-489.8960028203786,1891
-487.28973366426493,1686
-484.68418407241325,1476
-482.07935386364494,1322
-479.47524285670266,1292
-476.87185087025,1239
-474.2691777228715,1223
-471.66722323307334,1154
-469.0659872192821,1191
-466.4654694998459,1117
-463.86566989303384,1087
-461.26658821703614,1098
-458.66822428996414,1054
-456.07057792985,1099
-453.4736489546475,1061
-450.877437182231,1145
-448.28194243039627,1083
-445.68716451686,1026
-443.09310325926003,1058
-440.49975847515555,1030
-437.9071299820263,1026
-435.31521759727354,1004
-432.72402113821954,1020
-430.13354042210767,1103
-427.5437752661022,1085
-424.95472548728867,1094
-422.36639090267386,1189
-419.7787713291855,1078
-417.1918665836721,1172
-414.60567648290385,1150
-412.0202008435715,1180
-409.4354394822874,1094
-406.8513922155845,1123
-404.26805885991723,1127
-401.685439231661,1142
-399.103533147112,1140
-396.522340422488,1128
-393.9418608739278,1178
-391.3620943174908,1154
-388.7830405691583,1141
-386.2046994448317,1048
-383.6270707603344,1001
-381.05015433141045,955
-378.473949973725,831
-375.8984575028645,866
-373.32367673433623,823
-370.74960748356875,726
-368.1762495659117,675
-365.60360279663576,628
-363.03166699093265,627
-360.4604419639154,642
-357.8899275306178,597
-355.32012350599507,576
-352.7510297049233,574
-350.1826459421999,529
-347.61497203254316,558
-345.04800779059235,550
-342.4817530309082,498
-339.91620756797226,497
-337.35137121618743,528
-334.7872437898774,510
-332.22382510328725,514
-329.66111497058273,510
-327.09911320585127,580
-324.53781962310075,518
-321.9772340362607,537
-319.4173562591816,669
-316.8581861056348,642
-314.2997233893127,629
-311.7419679238294,641
-309.1849195227194,628
-306.62857799943856,600
-304.0729431673641,566
-301.51801483979375,563
-298.963792829947,507
-296.41027695096386,588
-293.85746701590574,633
-291.3053628377552,605
-288.7539642294155,601
-286.2032710037115,616
-283.65328297338897,606
-281.1039999511146,628
-278.5554217494762,722
-276.007548180983,710
-273.4603790580651,680
-270.9139141930734,663
-268.3681533982807,685
-265.8230964858798,656
-263.27874326798565,629
-260.7350935566336,650
-258.1921471637804,724
-255.6499039013039,791
-253.10836358100266,761
-250.56752601459698,715
-248.02739101372765,807
-245.48795838995704,803
-242.94922795476816,828
-240.41119951956557,774
-237.8738728956746,931
-235.33724789434166,922
-232.80132432673452,945
-230.2661020039418,895
-227.73158073697357,828
-225.19776033676033,809
-222.66464061415422,764
-220.1322213799284,775
-217.60050244477725,731
-215.06948361931552,771
-212.53916471408013,743
-210.00954553952818,731
-207.48062590603843,803
-204.9524056239104,920
-202.4248845033651,904
-199.8980623545441,845
-197.37193898751036,862
-194.84651421224817,929
-192.32178783866232,975
-189.79775967657952,904
-187.27442953574644,935
-184.7517972258321,959
-182.2298625564256,884
-179.7086253370378,965
-177.18808537710026,980
-174.66824248596583,1099
-172.14909647290835,1130
-169.6306471471229,1084
-167.11289431772548,1043
-164.59583779375328,1059
-162.07947738416453,1011
-159.5638128978386,996
-157.04884414357605,1092
-154.53457093009854,1140
-152.02099306604828,1100
-149.50811035998936,1051
-146.99592262040665,1141
-144.48442965570587,1265
-141.97363127421409,1191
-139.46352728417958,1288
-136.95411749377126,1408
-134.44540171107985,1558
-131.93737974411636,1376
-129.43005140081357,1266
-126.92341648902493,1367
-124.41747481652521,1540
-121.91222619101006,1494
-119.40767042009657,1379
-116.90380731132257,1290
-114.40063667214702,1376
-111.8981583099503,1591
-109.3963720320337,1688
-106.89527764561933,1452
-104.39487495785067,1515
-101.89516377579241,1667
-99.39614390642998,1704
-96.89781515667039,1623
-94.40017733334128,1842
-91.90323024319173,1839
-89.40697369289148,1691
-86.91140748903172,1506
-84.41653143812482,1683
-81.92234534660395,1828
-79.42884902082358,2180
-76.93604226705907,2266
-74.4439248915071,2084
-71.95249670028534,1922
-69.46175749943245,2316
-66.97170709490854,2599
-64.48234529259423,2850
-61.99367189829195,2922
-59.50568671772464,2763
-57.01838955653636,2869
-54.53178022029283,2767
-52.045858514480074,3161
-49.560624244506016,3528
-47.07607721569923,3563
-44.59221723330904,3476
-42.10904410250669,2998
-39.62655762838392,3674
-37.14475761595372,4494
-34.66364387015028,4970
-32.18321619582866,5782
-29.70347439776515,6939
-27.224418280657005,8156
-24.74604764912317,11530
-22.26836230770266,18012
-19.7913620608565,32139
-17.315046712966478,50568
-14.83941606833514,57728
-12.36446993118659,65039
-9.89020810566592,65039
-7.416630395839093,65039
-4.94373660569363,65039
-2.471526539137585,65039
-6.821210263296962E-13,65039
2.47084320796705,65039
4.941003281093458,65039
7.410480415786196,65039
9.879274808531363,65039
12.347386655893956,65039
14.814816154518212,65039
17.28156350112681,65039
19.74762889252179,65039
22.21301252558385,65039
24.67771459727237,65039
27.141735304626195,42666
29.605074844762612,15444
32.06773341487792,12785
34.52971121224755,10250
36.99100843422559,9679
39.45162527824516,9673
41.91156194181792,9966
44.370818622535126,9744
46.82939551806646,8600
49.287292826160524,9996
51.74451074464503,10838
54.201049471426245,8967
56.65690920448981,6923
59.112090141899785,4785
61.56659248179983,3834
64.02041642241159,3627
66.4735621620365,3393
68.92602989905402,2923
71.37781983192338,2475
73.82893215918205,2697
76.27936707944684,2784
78.72912479141326,2969
81.17820549385567,2846
83.62660938562783,3020
86.07433666566146,2925
88.5213875329681,3025
90.96776218663751,2951
93.41346082583925,3187
95.85848364982041,2769
98.30283085790859,1997
100.7465026495089,1963
103.18949922410604,2438
105.63182078126385,2056
108.07346752062438,2054
110.51443964190923,2284
112.95473734491827,2044
115.39436082953114,1810
117.83331029570547,1707
120.27158594347827,2173
122.7091879729652,1879
125.1461165843615,1479
127.58237197794062,1327
130.01795435405518,1274
132.4528639131364,1314
134.88710085569494,1438
137.32066538231982,1659
139.75355769367923,1582
142.1857779905207,1382
144.61732647366978,1383
147.04820334403132,1425
149.47840880258934,1434
151.90794305040674,1592
154.33680628862487,1722
156.76499871846443,1620
159.19252054122433,1720
161.61937195828352,1810
164.04555317109896,1801
166.47106438120693,2038
168.89590579022217,2448
171.320077599839,2491
173.7435800118302,2374
176.16641322804742,2531
178.58857745042144,2792
181.01007288096173,2818
183.43089972175687,2742
185.85105817497413,2794
188.27054844285988,2727
190.6893707277394,2766
193.10752523201643,2879
195.5250121581745,3018
197.9418317087751,3070
200.3579840864594,2862
202.7734694939469,2915
205.18828813403627,2942
207.6024402096051,2920
210.01592592360964,2947
212.42874547908548,2898
214.84089907914665,2795
217.2523869269868,2952
219.66320922587727,2960
222.0733661791695,2979
224.48285799029293,2956
226.8916848627572,3030
229.29984700014882,3072
231.7073446061355,3034
234.11417788446204,3080
236.520347038953,3227
238.92585227351185,3314
241.33069379212054,3421
243.73487179884035,3467
246.1383864978112,3349
248.541238093252,3316
250.9434267894609,3308
253.34495279081432,3431
255.74581630176783,3419
258.1460175268563,3415
260.54555667069314,3447
262.9444339379703,3432
265.3426495334594,3493
267.7402036620107,3418
270.1370965285529,3225
272.53332833809407,3153
274.9288992957214,3107
277.32380960660055,3037
279.718059475976,2972
282.1116491091717,2863
284.5045787115897,2890
286.89684848871195,2931
289.2884586460981,2916
291.67940938938807,2873
294.0697009242996,2777
296.4593334566299,2738
298.84830719225477,2763
301.23662233712923,2837
303.6242790972866,2757
306.01127767884,2796
308.39761828798066,2852
310.78330113097934,2641
313.16832641418534,2653
315.5526943440269,2575
317.9364051270112,2554
320.3194589697242,2518
322.70185607883093,2437
325.0835966610754,2461
327.4646809232805,2485
329.8451090723478,2516
332.2248813152577,2465
334.6039978590701,2434
336.9824589109231,2451
339.36026467803447,2425
341.7374153677,2327
344.113911187295,2296
346.48975234427337,2279
348.8649390461686,2286
351.2394715005918,2253
353.61334991523415,2233
355.9865744978655,2220
358.35914545633375,2296
360.73106299856715,2378
363.10232733257146,2258
365.47293866643247,2322
367.84289720831396,2252
370.2122031664593,2251
372.5808567491905,2264
374.9488581649083,2273
377.31620762209275,2268
379.6829053293021,2281
382.0489514951745,2254
384.4143463284262,2262
386.7790900378528,2135
389.14318283232853,2115
391.50662492080653,2202
393.86941651231916,2165
396.23155781597745,2107
398.5930490409713,2154
400.9538903965696,2134
403.3140820921202,2143
405.6736243370498,2117
408.03251734086336,2111
410.3907613131465,2109
412.74835646356166,2046
415.10530300185144,2101
417.4616011378372,2052
419.81725108141893,2156
422.1722530425758,2099
424.5266072313656,2082
426.880313857925,2079
429.2333731324701,2091
431.58578526529516,2038
433.9375504667738,2022
436.2886689473588,2062
438.63914091758113,2036
440.9889665880513,2099
443.33814616945835,2100
445.68667987257015,1995
448.03456790823395,2100
450.3818104873759,2105
452.72840782100013,2107
455.07436012019105,2052
457.41966759611057,2033
459.7643304600007,2034
462.10834892318155,2008
464.4517231970525,2003
466.79445349309174,2003
469.1365400228566,2066
471.4779829979826,2100
473.81878263018564,2095
476.15893913125876,2105
478.4984527130747,2215
480.8373235875855,2196
483.17555196682144,2145
485.5131380628919,2314
487.8500820879857,2411
490.1863842543697,2478
492.52204477439034,2751
494.8570638604725,2938
497.1914417251204,3177
499.52517858091653,3424
501.85827464052306,3587
504.19073011668036,3651
506.5225452222086,3613
508.85372017000566,3581
511.18425517304956,3419
513.514150444396,3463
515.8434061971808,4053
518.1720226446176,4585
520.4999999999999,4843
522.8273384766991,5113
525.1540382881666,5241
527.480099647932,5250
529.8055227696037,4485
532.1303078668694,3236
534.454455153496,2443
536.777964843328,2121
539.1008371502907,2051
541.4230722883866,2041
543.744670471698,1962
546.0656319143858,1965
548.3859568306899,1890
550.7056454349294,1862
553.0246979415016,1928
555.3431145648834,1862
557.6608955196306,1876
559.978041020377,1849
562.2945512818363,1864
564.6104265188006,1872
566.9256669461412,1942
569.2402727788082,1807
571.5542442318302,1864
573.8675815203156,1890
576.1802848594508,1780
578.4923544645015,1766
580.8037905508126,1819
583.114593333807,1872
585.4247630289875,1744
587.7342998519354,1789
590.0432040183106,1820
592.3514757438526,1728
594.6591152443794,1861
596.9661227357875,1770
599.2724984340531,1816
601.578242555231,1874
603.8833553154542,1874
606.1878369309362,1776
608.4916876179676,1881
610.7949075929192,1878
613.0974970722403,1775
615.3994562724587,1851
617.7007854101818,1925
620.0014847020951,1870
622.3015543649641,1835
624.6009946156324,1849
626.8998056710224,1874
629.1979877481361,1832
631.4955410640538,1837
633.7924658359349,1894
636.0887622810175,1875
638.3844306166192,1805
640.6794710601358,1891
642.9738838290426,1872
645.2676691408932,1962
647.5608272133207,1926
649.853358264037,1878
652.1452625108324,1896
654.4365401715764,1916
656.7271914642178,1874
659.0172166067838,1977
661.3066158173809,1968
663.5953893141935,1912
665.8835373154867,1902
668.1710600396028,1879
670.4579577049639,1900
672.7442305300709,1883
675.0298787335033,1868
677.3149025339197,1934
679.599302150058,1957
681.8830778007342,1883
684.1662297048437,1881
686.4487580813608,1953
688.7306631493387,1928
691.0119451279091,1907
693.2926042362834,1980
695.5726406937516,1928
697.8520547196814,1954
700.1308465335215,1886
702.4090163547982,1850
704.6865644031171,1883
706.9634908981619,1916
709.2397960596965,1898
711.5154801075631,1891
713.7905432616823,1876
716.0649857420548,1891
718.3388077687592,1898
720.612009561953,1914
722.8845913418733,1900
725.1565533288352,1810
727.427895743234,1852
729.6986188055427,1871
731.9687227363137,1881
734.238207756178,1875
736.5070740858458,1836
738.7753219461066,1935
741.0429515578281,1886
743.3099631419569,1871
745.5763569195191,1886
747.8421331116193,1909
750.1072919394409,1915
752.3718336242467,1881
754.6357583873777,1931
756.8990664502545,1782
759.1617580343765,1907
761.423833361321,1869
763.6852926527457,1850
765.9461361303862,1935
768.206364016058,1885
770.4659765316536,1895
772.7249738991469,1898
774.9833563405886,1930
777.2411240781092,1868
779.4982773339183,1910
781.7548163303044,1928
784.010741289634,1938
786.2660524343538,2014
788.5207499869881,1912
790.7748341701416,1958
793.0283052064964,1918
795.2811633188143,1947
797.5334087299362,1907
799.7850416627813,1936
802.0360623403484,1937
804.2864709857143,1906
806.5362678220353,1898
808.7854530725468,1904
811.0340269605625,1885
813.2819897094754,1958
815.5293415427581,1959
817.77608268396,1944
820.0222133567116,1964
822.2677337847211,2015
824.5126441917765,1893
826.7569448017433,1935
829.0006358385675,1926
831.2437175262731,1932
833.4861900889629,1913
835.7280537508192,1873
837.9693087361026,1967
840.2099552691533,1918
842.4499935743896,1874
844.689423876309,1884
846.9282463994886,1893
849.1664613685833,1886
851.4040690083276,1915
853.6410695435349,1859
855.877463199097,1867
858.1132501999847,1914
860.3484307712487,1878
862.5830051380175,1921
864.8169735254988,1891
867.0503361589791,1971
869.2830932638243,1985
871.5152450654786,2068
873.7467917894654,1966
875.9777336613873,1979
878.2080709069252,1943
880.4378037518389,1966
882.666932421968,2008
884.8954571432301,1964
887.1233781416219,1941
889.3506956432192,2077
891.5774098741766,2006
893.803521060728,1949
896.0290294291852,1966
898.2539352059397,1965
900.4782386174619,1990
902.7019398903011,2007
904.925039251085,1987
907.147536926521,1985
909.3694331433943,1953
911.59072812857,1987
913.8114221089921,1900
916.0315153116827,1913
918.2510079637437,1915
920.4699002923547,1971
922.6881925247761,1957
924.905884888345,1950
927.1229776104793,1952
929.3394709186747,1925
931.555365040506,1958
933.7706602036275,1927
935.9853566357709,1924
938.1994545647489,1952
940.4129542184515,1867
942.6258558248488,1909
944.8381596119883,1918
947.0498658079974,1952
949.2609746410825,1996
951.4714863395287,1838
953.6814011316998,1963
955.8907192460387,1925
958.0994409110671,1889
960.3075663553858,1904
962.5150958076741,1904
964.7220294966913,1889
966.928367651274,1841
969.1341105003388,1858
971.3392582728806,1842
973.5438111979742,1898
975.747769504772,1888
977.9511334225061,1939
980.153903180487,1880
982.3560790081052,1859
984.5576611348289,1839
986.7586497902058,1852
988.9590452038618,1767
991.158847605503,1759
993.3580572249133,1784
995.5566742919558,1744
997.7546990365728,1764
999.952131688785,1662
1002.1489724786926,1677
1004.3452216364743,1585
1006.5408793923874,1687
1008.7359459767691,1697
1010.9304216200343,1644
1013.1243065526781,1613
1015.3176010052733,1567
1017.510305208472,1577
1019.7024193930064,1620
1021.8939437896848,1533
1024.0848786293977,1610
1026.2752241431122,1515
1028.4649805618747,1558
1030.6541481168115,1566
1032.842727039127,1486
1035.0307175601051,1528
1037.2181199111074,1508
1039.4049343235752,1532
1041.591161029029,1568
1043.7768002590683,1574
1045.9618522453698,1513
1048.1463172196918,1541
1050.3301954138697,1532
1052.513487059818,1589
1054.69619238953,1474
1056.8783116350783,1573
1059.0598450286152,1542
1061.2407928023704,1461
1063.4211551886528,1554
1065.6009324198508,1469
1067.780124728432,1504
1069.9587323469414,1516
1072.1367555080046,1518
1074.314194444325,1523
1076.4910493886855,1476
1078.667320573947,1469
1080.843008233051,1506
1083.0181125990161,1525
1085.1926339049414,1535
1087.3665723840027,1537
1089.5399282694575,1463
1091.7127017946405,1439
1093.8848931929647,1446
1096.0565026979243,1447
1098.2275305430899,1455
1100.3979769621128,1425
1102.567842188722,1386
1104.737126456726,1430
1106.9058300000124,1416
1109.0739530525475,1467
1111.2414958483764,1414
1113.4084586216231,1458
1115.5748416064907,1411
1117.7406450372605,1410
1119.9058691482942,1480
1122.0705141740304,1455
1124.2345803489884,1426
1126.3980679077658,1383
1128.5609770850388,1418
1130.7233081155623,1441
1132.8850612341707,1409
1135.0462366757774,1380
1137.2068346753745,1414
1139.3668554680326,1392
1141.526299288901,1392
1143.68516637321,1397
1145.8434569562655,1418
1148.001171273455,1409
1150.158309560244,1415
1152.3148720521767,1460
1154.470858984876,1396
1156.626270594044,1423
1158.7811071154629,1337
1160.9353687849912,1353
1163.089055838569,1426
1165.242168512213,1443
1167.3947070420209,1409
1169.5466716641677,1357
1171.6980626149075,1421
1173.8488801305748,1432
1175.9991244475814,1350
1178.1487958024186,1325
1180.2978944316555,1334
1182.4464205719428,1360
1184.5943744600072,1434
1186.7417563326567,1336
1188.8885664267755,1339
1191.0348049793297,1425
1193.1804722273619,1391
1195.325568407995,1421
1197.4700937584303,1336
1199.614048515948,1374
1201.7574329179074,1337
1203.900247201746,1302
1206.042491604982,1407
1208.1841663652099,1409
1210.3252717201053,1396
1212.465807907422,1373
1214.6057751649923,1333
1216.7451737307279,1420
1218.8840038426192,1393
1221.0222657387353,1388
1223.1599596572241,1446
1225.2970858363137,1457
1227.4336445143094,1423
1229.5696359295966,1394
1231.705060320639,1403
1233.8399179259786,1419
1235.9742089842384,1446
1238.107933734118,1474
1240.2410924143974,1414
1242.373685263935,1394
1244.5057125216676,1420
1246.6371744266116,1435
1248.7680712178621,1428
1250.898403134593,1440
1253.028170416058,1423
1255.1573733015875,1386
1257.2860120305932,1427
1259.4140868425648,1389
1261.54159797707,1433
1263.6685456737569,1473
1265.7949301723515,1421
1267.9207517126597,1404
1270.046010534565,1437
1272.1707068780306,1476
1274.2948409830983,1459
1276.4184130898889,1484
1278.541423438603,1477
1280.6638722695184,1431
1282.785759822993,1426
1284.9070863394636,1448
1287.0278520594447,1511
1289.1480572235314,1474
1291.2677020723963,1424
1293.3867868467923,1486
1295.5053117875495,1529
1297.623277135579,1532
1299.740683131868,1493
1301.8575300174857,1532
1303.973818033578,1568
1306.0895474213703,1503
1308.2047184221678,1512
1310.3193312773528,1563
1312.4333862283888,1596
1314.5468835168163,1554
1316.659823384255,1548
1318.7722060724045,1542
1320.8840318230418,1547
1322.9953008780249,1631
1325.1060134792888,1558
1327.2161698688478,1524
1329.3257702887959,1575
1331.4348149813054,1594
1333.5433041886276,1559
1335.6512381530933,1563
1337.7586171171101,1558
1339.8654413231675,1571
1341.9717110138317,1550
1344.0774264317488,1518
1346.1825878196432,1541
1348.2871954203192,1545
1350.3912494766587,1514
1352.4947502316231,1521
1354.5976979282532,1506
1356.7000928096686,1583
1358.8019351190665,1569
1360.9032250997243,1509
1363.0039629949988,1519
1365.1041490483235,1542
1367.2037835032133,1503
1369.3028666032606,1514
1371.401398592137,1510
1373.4993797135926,1467
1375.5968102114575,1464
1377.6936903296396,1479
1379.7900203121262,1522
1381.8858004029835,1574
1383.9810308463561,1527
1386.075711886469,1523
1388.1698437676241,1518
1390.2634267342032,1563
1392.356461030667,1547
1394.4489469015557,1507
1396.5408845914872,1552
1398.6322743451592,1552
1400.7231164073469,1566
1402.813411022907,1616
1404.903158436773,1552
1406.9923588939578,1552
1409.0810126395531,1630
1411.1691199187303,1560
1413.2566809767386,1506
1415.343696058907,1475
1417.4301654106425,1615
1419.5160892774315,1621
1421.6014679048399,1585
1423.6863015385125,1614
1425.7705904241707,1614
1427.8543348076178,1607
1429.9375349347342,1653
1432.0201910514802,1666
1434.102303403894,1630
1436.1838722380944,1610
1438.2648978002767,1715
1440.3453803367174,1702
1442.4253200937692,1668
1444.5047173178677,1702
1446.5835722555234,1702
1448.6618851533285,1687
1450.739656257952,1728
1452.8168858161434,1793
1454.8935740747306,1805
1456.96972128062,1816
1459.045327680797,1828
1461.120393522327,1855
1463.1949190523528,1920
1465.2689045180973,1930
1467.3423501668608,1955
1469.415256246024,1966
1471.4876230030463,2003
1473.559450685465,2050
1475.6307395408976,2036
1477.7014898170391,2135
1479.771701761665,2193
1481.8413756226287,2089
1483.9105116478618,2095
1485.9791100853772,2179
1488.0471711832643,2211
1490.1146951896926,2188
1492.1816823529098,2288
1494.2481329212433,2235
1496.3140471430984,2264
1498.3794252669609,2300
1500.4442675413939,2423
1502.5085742150404,2368
1504.572345536622,2401
1506.6355817549388,2427
1508.6982831188702,2357
1510.7604498773744,2471
1512.8220822794883,2388
1514.8831805743293,2431
1516.9437450110909,2544
1519.003775839048,2435
1521.0632733075522,2459
1523.1222376660367,2556
1525.1806691640113,2536
1527.2385680510652,2514
1529.2959345768668,2625
1531.3527689911643,2730
1533.4090715437833,2683
1535.4648424846291,2678
1537.5200820636855,2733
1539.5747905310159,2719
1541.6289681367616,2755
1543.6826151311434,2753
1545.7357317644614,2920
1547.7883182870937,2907
1549.8403749494987,2871
1551.8919020022113,3009
1553.9428996958477,3075
1555.9933682811015,3043
1558.0433080087469,3063
1560.0927191296346,3093
1562.1416018946961,3163
1564.1899565549415,3188
1566.2377833614592,3096
1568.2850825654164,3148
1570.3318544180606,3032
1572.3780991707158,2931
1574.423817074788,2958
1576.4690083817595,2834
1578.5136733431923,2691
1580.5578122107272,2570
1582.601425236085,2494
1584.6445126710646,2345
1586.6870747675434,2308
1588.7291117774776,2173
1590.7706239529034,2184
1592.8116115459347,2072
1594.8520748087658,1991
1596.8920139936686,1977
1598.9314293529933,1938
1600.9703211391711,1913
1603.008689604711,1791
1605.0465350022005,1846
1607.0838575843068,1733
1609.1206576037753,1738
1611.1569353134305,1665
1613.1926909661765,1633
1615.2279248149953,1583
1617.2626371129481,1631
1619.2968281131757,1641
1621.3304980688963,1607
1623.3636472334088,1604
1625.39627586009,1572
1627.428384202396,1508
1629.459972513861,1539
1631.4910410480993,1527
1633.5215900588028,1506
1635.551619799744,1540
1637.5811305247717,1511
1639.6101224878166,1505
1641.6385959428862,1502
1643.6665511440683,1487
1645.693988345528,1508
1647.7209078015112,1446
1649.7473097663405,1482
1651.7731944944203,1414
1653.7985622402307,1354
1655.823413258333,1452
1657.847747803366,1455
1659.8715661300494,1480
1661.8948684931793,1376
1663.9176551476316,1478
1665.9399263483624,1407
1667.9616823504057,1404
1669.982923408873,1418
1672.0036497789574,1445
1674.0238617159293,1447
1676.043559475138,1439
1678.0627433120121,1431
1680.081413482059,1416
1682.0995702408654,1396
1684.117213844096,1396
1686.134344547495,1468
1688.1509626068864,1414
1690.1670682781705,1465
1692.182661817329,1391
1694.1977434804217,1380
1696.2123135235875,1398
1698.226372203043,1436
1700.2399197750851,1378
1702.2529564960905,1401
1704.2654826225112,1434
1706.277498410882,1457
1708.2890041178139,1421
1710.2999999999988,1408
1712.3104863142066,1420
1714.3204633172854,1368
1716.329931266163,1410
1718.3388904178469,1337
1720.3473410294214,1400
1722.3552833580516,1398
1724.3627176609807,1340
1726.3696441955308,1331
1728.3760632191033,1365
1730.3819749891782,1413
1732.3873797633146,1384
1734.3922777991502,1407
1736.3966693544012,1381
1738.4005546868639,1355
1740.4039340544127,1391
1742.406807715001,1380
1744.4091759266616,1359
1746.4110389475054,1345
1748.4123970357223,1312
1750.413250449582,1319
1752.4135994474318,1323
1754.4134442876993,1295
1756.4127852288902,1352
1758.4116225295893,1332
1760.4099564484595,1283
1762.407787244244,1276
1764.405115175764,1335
1766.4019405019203,1323
1768.3982634816916,1340
1770.3940843741357,1260
1772.3894034383907,1302
1774.3842209336717,1305
1776.378537119274,1304
1778.372352254571,1351
1780.3656665990156,1281
1782.3584804121397,1332
1784.3507939535534,1303
1786.3426074829463,1304
1788.3339212600863,1308
1790.3247355448211,1310
1792.3150505970766,1271
1794.3048666768573,1326
1796.2941840442477,1345
1798.2830029594106,1364
1800.2713236825884,1298
1802.2591464741004,1294
1804.2464715943465,1305
1806.2332993038058,1249
1808.2196298630352,1274
1810.2054635326708,1298
1812.190800573428,1320
1814.175641246101,1331
1816.1599858115628,1294
1818.1438345307652,1263
1820.127187664738,1254
1822.1100454745924,1277
1824.092408221516,1239
1826.0742761667766,1251
1828.055649571721,1279
1830.0365286977735,1263
1832.0169138064398,1287
1833.9968051593014,1278
1835.9762030180214,1294
1837.9551076443408,1306
1839.9335193000788,1293
1841.9114382471344,1229
1843.888864747485,1241
1845.8657990631878,1267
1847.842241456378,1261
1849.8181921892697,1378
1851.7936515241558,1291
1853.7686197234098,1234
1855.7430970494815,1282
1857.7170837649014,1294
1859.6905801322787,1255
1861.6635864143004,1283
1863.6361028737338,1240
1865.608129773424,1245
1867.5796673762961,1280
1869.5507159453537,1319
1871.521275743678,1287
1873.4913470344313,1268
1875.4609300808534,1271
1877.4300251462632,1267
1879.3986324940588,1308
1881.366752387717,1282
1883.3343850907936,1308
1885.3015308669228,1322
1887.268189979819,1317
1889.2343626932739,1285
1891.2000492711595,1290
1893.1652499774254,1344
1895.1299650761011,1357
1897.0941948312952,1328
1899.0579395071945,1299
1901.0211993680641,1378
1902.98397467825,1279
1904.9462657021745,1332
1906.9080727043415,1284
1908.869395949332,1329
1910.8302357018065,1302
1912.790592226504,1315
1914.7504657882428,1302
1916.7098566519212,1328
1918.6687650825133,1308
1920.6271913450764,1316
1922.5851357047422,1320
1924.5425984267245,1298
1926.499579776314,1304
1928.4560800188833,1269
1930.4120994198802,1344
1932.367638244833,1250
1934.32269675935,1306
1936.2772752291175,1294
1938.231373919899,1321
1940.1849930975404,1322
1942.1381330279637,1306
1944.0907939771696,1292
1946.0429762112412,1297
1947.9946799963363,1290
1949.9459055986945,1337
1951.896653284633,1304
1953.8469233205478,1312
1955.7967159729142,1249
1957.7460315082863,1280
1959.6948701932974,1279
1961.6432322946594,1272
1963.5911180791632,1312
1965.5385278136787,1220
1967.4854617651545,1301
1969.4319202006182,1279
1971.377903387176,1315
1973.3234115920136,1310
1975.268445082395,1243
1977.2130041256642,1287
1979.1570889892423,1271
1981.1006999406304,1264
1983.04383724741,1308
1984.986501177238,1323
1986.928691997853,1278
1988.8704099770712,1276
1990.811655382789,1306
1992.7524284829801,1312
1994.692729545698,1315
1996.6325588390755,1270
1998.5719166313224,1292
2000.5108031907307,1310
2002.4492187856677,1236
2004.387163684583,1271
2006.3246381560011,1240
2008.2616424685298,1243
2010.1981768908527,1247
2012.1342416917332,1294
2014.069837140014,1322
2016.0049635046162,1328
2017.9396210545406,1264
2019.8738100588666,1264
2021.8075307867502,1272
2023.740783507431,1300
2025.6735684902228,1269
2027.6058860045214,1253
2029.5377363198004,1212
2031.4691197056118,1290
2033.4000364315875,1326
2035.3304867674374,1289
2037.260470982952,1281
2039.189989347998,1283
2041.1190421325232,1291
2043.047629606554,1291
2044.9757520401945,1312
2046.9034097036288,1222
2048.8306028671195,1211
2050.7573318010086,1320
2052.683596775716,1308
2054.609398061742,1274
2056.5347359296647,1198
2058.4596106501403,1244
2060.384022493906,1286
2062.3079717317764,1280
2064.231458634646,1320
2066.1544834734873,1261
2068.077046519352,1272
2069.99914804337,1249
2071.9207883167524,1251
2073.8419676107865,1286
2075.7626861968406,1297
2077.6829443463607,1301
2079.6027423308715,1319
2081.522080421977,1274
2083.440958891362,1218
2085.359378010786,1265
2087.2773380520907,1338
2089.194839287196,1248
2091.111881988101,1281
2093.0284664268825,1224
2094.9445928756973,1212
2096.86026160678,1270
2098.775472892446,1219
2100.690227005088,1205
2102.604524217178,1245
2104.5183648012676,1262
2106.431749029985,1217
2108.34467717604,1212
2110.2571495122206,1264
2112.169166311393,1262
2114.080727846503,1254
2115.9918343905747,1266
2117.902486216711,1257
2119.8126835980956,1221
2121.722426807987,1275
2123.6317161197285,1292
2125.5405518067364,1283
2127.448934142509,1276
2129.356863400624,1235
2131.264339854737,1243
2133.1713637785815,1222
2135.077935445972,1289
2136.9840551308002,1224
2138.889723107037,1280
2140.7949396487334,1274
2142.699705030018,1305
2144.6040195250994,1276
2146.507883408264,1252
2148.4112969538774,1311
2150.3142604363848,1247
2152.2167741303097,1200
2154.1188383102535,1233
2156.0204532508997,1240
2157.9216192270064,1317
2159.822336513414,1269
2161.7226053850413,1241
2163.622426116884,1270
2165.5217989840185,1271
2167.4207242616,1270
2169.319202224862,1265
2171.2172331491165,1207
2173.1148173097563,1257
2175.0119549822507,1278
2176.90864644215,1293
2178.8048919650823,1288
2180.7006918267534,1291
2182.596046302952,1268
2184.4909556695407,1287
2186.3854202024645,1230
2188.279440177746,1293
2190.173015871487,1245
2192.066147559868,1257
2193.958835519149,1260
2195.851080025667,1278
2197.7428813558417,1258
2199.6342397861667,1236
2201.5251555932186,1274
2203.415629053651,1269
2205.3056604441986,1208
2207.19525004167,1267
2209.084398122958,1236
2210.9731049650327,1302
2212.861370844941,1258
2214.749196039812,1258
2216.636580826851,1245
2218.523525483344,1269
2220.410030286655,1324
2222.296095514226,1241
2224.1817214435805,1257
2226.066908352319,1291
2227.951656518121,1263
2229.835966218746,1279
2231.71983773203,1223
2233.6032713358913,1227
2235.486267308324,1257
2237.3688259274036,1251
2239.2509474712824,1264
2241.132632218193,1249
2243.013880446447,1280
2244.8946924344323,1239
2246.7750684606203,1219
2248.6550088035574,1286
2250.534513741871,1277
2252.413583554265,1230
2254.292218519526,1292
2256.170418916517,1235
2258.0481850241786,1265
2259.925517121534,1274
2261.8024154876825,1297
2263.678880401803,1296
2265.5549121431536,1211
2267.430510991071,1234
2269.305677224971,1242
2271.180411124348,1237
2273.0547129687766,1292
2274.9285830379076,1212
2276.8020216114737,1254
2278.6750289692845,1253
2280.5476053912294,1286
2282.4197511572766,1273
2284.2914665474727,1272
2286.162751841943,1259
2288.0336073208937,1268
2289.904033264608,1235
2291.774029953448,1236
2293.6435976678554,1275
2295.5127366883517,1285
2297.381447295534,1279
2299.2497297700825,1283
2301.1175843927526,1257
2302.9850114443825,1249
2304.852011205885,1247
2306.7185839582553,1282
2308.5847299825664,1264
2310.4504495599676,1256
2312.3157429716925,1398
2314.1806104990483,1335
2316.0450524234247,1273
2317.9090690262888,1263
2319.772660589186,1375
2321.635827393742,1323
2323.498569721661,1277
2325.3608878547248,1295
2327.2227820747967,1299
2329.0842526638157,1270
2330.945299903803,1266
2332.805924076857,1288
2334.6661254651535,1302
2336.525904350951,1279
2338.3852610165827,1286
2340.244195744464,1258
2342.102708817088,1264
2343.9608005170253,1243
2345.8184711269287,1302
2347.675720929526,1279
2349.532550207628,1313
2351.38895924412,1320
2353.24494832197,1279
2355.100517724223,1297
2356.955667734004,1360
2358.810398634514,1332
2360.664710709037,1331
2362.5186042409337,1236
2364.3720795136437,1270
2366.225136810686,1314
2368.0777764156583,1351
2369.929998612237,1299
2371.7818036841777,1323
2373.633191915315,1314
2375.484163589562,1280
2377.3347189909114,1309
2379.184858403434,1328
2381.03458211128,1235
2382.8838903986775,1266
2384.732783549936,1299
2386.5812618494406,1324
2388.4293255816588,1274
2390.2769750311327,1288
2392.1242104824883,1342
2393.971032220427,1290
2395.8174405297295,1311
2397.6634356952563,1288
2399.509018001947,1343
2401.3541877348193,1355
2403.1989451789705,1336
2405.043290619576,1345
2406.8872243418905,1355
2408.730746631247,1299
2410.5738577730594,1285
2412.4165580528183,1315
2414.258847756095,1333
2416.100727168537,1293
2417.9421965758734,1305
2419.783256263912,1350
2421.623906518538,1321
2423.4641476257157,1302
2425.303979871491,1278
2427.143403541984,1350
2428.9824189233977,1350
2430.821026302012,1355
2432.6592259641866,1351
2434.497018196361,1360
2436.33440328505,1311
2438.171381516851,1343
2440.00795317844,1288
2441.844118556569,1344
2443.6798779380724,1340
2445.5152316098606,1336
2447.3501798589255,1352
2449.1847229723357,1350
2451.0188612372403,1289
2452.8525949408663,1321
2454.6859243705203,1367
2456.518849813587,1325
2458.3513715575314,1332
2460.183489889895,1328
2462.015205098301,1341
2463.8465174704493,1337
2465.67742729412,1376
2467.5079348571717,1331
2469.338040447542,1293
2471.1677443532476,1343
2472.9970468623833,1305
2474.825948263123,1338
2476.6544488437207,1377
2478.482548892508,1327
2480.310248697896,1329
2482.137548548374,1359
2483.9644487325118,1317
2485.790949538956,1314
2487.617051256433,1412
2489.44275417375,1326
2491.26805857979,1365
2493.0929647635157,1318
2494.917473013971,1330
2496.741583620276,1339
2498.5652968716304,1367
2500.3886130573137,1363
2502.2115324666834,1349
2504.0340553891765,1325
2505.856182114308,1343
2507.6779129316733,1359
2509.499248130945,1363
2511.3201880018764,1371
2513.140732834298,1360
2514.9608829181198,1396
2516.780638543331,1374
2518.6,1458
2520.418967578273,1360
2522.237541568376,1343
2524.0557222606144,1401
2525.8735099453706,1339
2527.6909049131086,1373
2529.507907454368,1378
2531.32451785977,1329
2533.140736420014,1413
2534.9565634258774,1382
2536.771999168218,1390
2538.5870439379714,1385
2540.4016980261526,1387
2542.2159617238544,1463
2544.02983532225,1367
2545.8433191125914,1442
2547.656413386209,1450
2549.4691184345115,1430
2551.2814345489874,1456
2553.093362021204,1454
2554.904901142808,1440
2556.716052205523,1471
2558.526815501153,1482
2560.3371913215824,1471
2562.147179958771,1457
2563.956781704761,1444
2565.7659968516705,1512
2567.5748256916986,1451
2569.3832685171224,1503
2571.1913256202984,1487
2572.9989972936614,1486
2574.806283829725,1551
2576.613185521084,1574
2578.4197026604074,1491
2580.2258355404483,1568
2582.031584454035,1557
2583.836949694077,1527
2585.6419315535613,1471
2587.4465303255533,1573
2589.2507463032002,1607
2591.0545797797245,1452
2592.8580310484303,1544
2594.6611004026995,1586
2596.463788135992,1521
2598.266094541849,1536
2600.0680199138874,1600
2601.869564545807,1536
2603.670728731383,1559
2605.4715127644704,1553
2607.2719169390048,1550
2609.071941548998,1525
2610.8715868885433,1553
2612.670853251811,1628
2614.469740933052,1635
2616.268250226594,1544
2618.0663814268455,1550
2619.864134828292,1572
2621.6615107255006,1591
2623.458509413115,1563
2625.2551311858597,1570
2627.0513763385347,1435
2628.8472451660223,1514
2630.6427379632833,1537
2632.4378550253564,1533
2634.232596647359,1504
2636.026963124488,1491
2637.8209547520187,1516
2639.6145718253065,1454
2641.407814639785,1471
2643.200683490966,1450
2644.9931786744414,1528
2646.7853004858807,1462
2648.577049221034,1489
2650.3684251757277,1462
2652.1594286458712,1488
2653.9500599274484,1488
2655.740319316525,1383
2657.5302071092437,1431
2659.3197236018286,1381
2661.10886909058,1411
2662.8976438718782,1422
2664.686048242183,1348
2666.4740824980327,1391
2668.2617469360443,1385
2670.0490418529134,1381
2671.8359675454153,1421
2673.622524310403,1373
2675.408712444811,1376
2677.1945322456495,1331
2678.979984010009,1344
2680.76506803506,1346
2682.5497846180497,1373
2684.334134056306,1419
2686.1181166472343,1361
2687.9017326883213,1329
2689.6849824771293,1311
2691.4678663113013,1309
2693.2503844885596,1311
2695.032537306705,1307
2696.8143250636167,1335
2698.5957480572542,1326
2700.3768065856534,1255
2702.1575009469316,1273
2703.937831439283,1311
2705.717798360982,1304
2707.4974020103837,1350
2709.276642685917,1336
2711.055520686095,1343
2712.834036309506,1282
2714.612189854819,1273
2716.389981620782,1254
2718.1674119062204,1296
2719.944481010041,1254
2721.721189231226,1292
2723.4975368688415,1315
2725.273524222027,1296
2727.0491515900053,1279
2728.824419272075,1273
2730.5993275676146,1295
2732.3738767760838,1295
2734.148067197016,1302
2735.921899130031,1257
2737.6953728748194,1283
2739.468488731156,1262
2741.2412469988926,1300
2743.0136479779617,1288
2744.785691968372,1233
2746.5573792702116,1283
2748.3287101836504,1280
2750.099685008934,1296
2751.870304046388,1301
2753.640567596418,1258
2755.4104759595057,1206
2757.1800294362156,1294
2758.949228327187,1283
2760.7180729331412,1252
2762.486563554877,1222
2764.254700493272,1274
2766.022484049284,1292
2767.789914523947,1210
2769.5569922183786,1251
2771.3237174337705,1285
2773.090090471394,1303
2774.8561116326036,1235
2776.6217812188274,1256
2778.3870995315756,1281
2780.1520668724356,1293
2781.9166835430747,1245
2783.6809498452394,1227
2785.444866080754,1293
2787.2084325515225,1247
2788.971649559527,1216
2790.73451740683,1214
2792.4970363955713,1269
2794.2592068279705,1253
2796.0210290063264,1319
2797.7825032330147,1259
2799.543629810493,1279
2801.304409041296,1308
2803.0648412280366,1278
2804.8249266734088,1304
2806.5846656801846,1296
2808.344058551212,1229
2810.1031055894246,1219
2811.8618070978273,1272
2813.6201633795085,1244
2815.378174737636,1281
2817.1358414754536,1230
2818.893163896285,1223
2820.6501423035334,1241
2822.4067770006814,1284
2824.1630682912883,1276
2825.9190164789957,1261
2827.6746218675207,1240
2829.429884760661,1248
2831.184805462294,1273
2832.9393842763743,1256
2834.693621506936,1237
2836.4475174580916,1238
2838.201072434034,1267
2839.954286739034,1229
2841.707160677441,1243
2843.459694553685,1296
2845.2118886722724,1276
2846.96374333779,1265
2848.7152588549034,1228
2850.4664355283567,1276
2852.217273662973,1283
2853.9677735636546,1276
2855.7179355353833,1288
2857.4677598832186,1257
2859.217246912299,1256
2860.9663969278427,1253
2862.715210235146,1270
2864.4636871395846,1299
2866.211827946614,1241
2867.9596329617652,1253
2869.7071024906536,1285
2871.4542368389684,1232
2873.20103631248,1279
2874.947501217038,1303
2876.6936318585695,1238
2878.4394285430812,1239
2880.1848915766604,1232
2881.9300212654707,1277
2883.6748179157553,1282
2885.4192818338374,1234
2887.1634133261173,1257
2888.907212699077,1296
2890.6506802592744,1249
2892.393816313348,1196
2894.1366211680142,1276
2895.8790951300693,1240
2897.621238506388,1181
2899.363051603925,1309
2901.1045347297118,1284
2902.8456881908596,1237
2904.58651229456,1281
2906.327007348081,1261
2908.067173658772,1255
2909.8070115340597,1227
2911.5465212814497,1263
2913.285703208527,1257
2915.0245576229563,1306
2916.7630848324807,1249
2918.5012851449196,1305
2920.2391588681758,1240
2921.976706310227,1193
2923.7139277791334,1271
2925.4508235830313,1258
2927.187394030137,1197
2928.923639428745,1284
2930.6595600872306,1235
2932.395156314046,1257
2934.1304284177218,1262
2935.8653767068713,1286
2937.6000014901815,1244
2939.3343030764227,1283
2941.068281774442,1249
2942.8019378931644,1200
2944.5352717415976,1274
2946.2682836288236,1267
2948.0009738640065,1320
2949.7333427563885,1284
2951.465390615289,1231
2953.1971177501086,1240
2954.9285244703265,1206
2956.6596110855,1271
2958.3903779052657,1256
2960.1208252393385,1210
2961.8509533975125,1273
2963.5807626896617,1278
2965.3102534257378,1226
2967.0394259157715,1252
2968.768280469873,1254
2970.496817398232,1251
2972.2250370111146,1218
2973.952939618869,1279
2975.6805255319196,1228
2977.4077950607707,1246
2979.134748516006,1263
2980.861386208289,1274
2982.587708448359,1265
2984.313715547037,1275
2986.039407815222,1274
2987.764785563891,1287
2989.489849104102,1233
2991.2145987469908,1275
2992.9390348037705,1242
2994.6631575857346,1236
2996.3869674042576,1276
2998.1104645707887,1269
2999.83364939686,1226
3001.5565221940783,1238
3003.2790832741334,1242
3005.0013329487924,1246
3006.7232715298996,1223
3008.4448993293804,1201
3010.166216659239,1226
3011.887223831558,1246
3013.607921158498,1240
3015.3283089522993,1237
3017.0483875252826,1330
3018.7681571898443,1254
3020.4876182584626,1232
3022.2067710436927,1250
3023.9256158581707,1286
3025.644153014609,1270
3027.362382825801,1262
3029.0803056046193,1187
3030.797921664012,1206
3032.5152313170106,1230
3034.2322348767225,1301
3035.9489326563353,1257
3037.665324969115,1225
3039.3814121284063,1229
3041.097194447633,1203
3042.812672240299,1266
3044.5278458199855,1231
3046.2427155003525,1259
3047.9572815951406,1266
3049.671544418167,1271
3051.38550428333,1311
3053.0991615046073,1223
3054.812516396051,1235
3056.5255692717974,1280
3058.2383204460575,1194
3059.9507702331257,1249
3061.662918947372,1215
3063.3747669032446,1178
3065.0863144152736,1268
3066.7975617980674,1254
3068.508509366309,1241
3070.219157434767,1267
3071.9295063182844,1256
3073.639556331785,1228
3075.3493077902704,1214
3077.058761008821,1288
3078.7679163025964,1262
3080.476773986837,1260
3082.1853343768594,1239
3083.89359778806,1220
3085.6015645359153,1228
3087.3092349359786,1195
3089.016609303884,1208
3090.7236879553434,1260
3092.4304712061476,1220
3094.136959372166,1243
3095.843152769349,1255
3097.5490517137237,1284
3099.2546565213966,1157
3100.959967508554,1179
3102.66498499146,1255
3104.3697092864577,1282
3106.0741407099695,1218
3107.778279578498,1201
3109.482126208622,1232
3111.1856809170004,1263
3112.8889440203716,1220
3114.5919158355528,1251
3116.294596679439,1216
3117.996986869006,1207
3119.6990867213062,1251
3121.4008965534726,1221
3123.102416682717,1247
3124.803647426329,1275
3126.5045891016784,1245
3128.205242026213,1220
3129.90560651746,1261
3131.605682893025,1304
3133.3054714705922,1192
3135.0049725679282,1296
3136.7041865028714,1239
3138.4031135933465,1207
3140.101754157353,1209
3141.800108512971,1296
3143.498176978357,1289
3145.1959598717494,1227
3146.8934575114636,1246
3148.5906702158954,1260
3150.2875983035183,1277
3151.9842420928853,1228
3153.680601902627,1198
3155.376678051456,1209
3157.07247085816,1198
3158.767980641609,1243
3160.463207720748,1224
3162.158152414606,1310
3163.8528150422862,1248
3165.5471959229726,1166
3167.2412953759303,1260
3168.9351137204976,1205
3170.628651276098,1230
3172.3219083622307,1224
3174.014885298474,1230
3175.707582404485,1235
3177.4000000000005,1216
3179.092138404835,1294
3180.7839979388846,1238
3182.47557892212,1273
3184.166881674594,1217
3185.8579065164386,1246
3187.5486537678626,1230
3189.2391237491547,1234
3190.9293167806827,1229
3192.6192331828934,1252
3194.3088732763117,1249
3195.998237381542,1223
3197.687325819268,1262
3199.376138910251,1219
3201.064676975334,1241
3202.7529403354347,1247
3204.4409293115523,1241
3206.1286442247647,1232
3207.816085396229,1237
3209.5032531471825,1207
3211.190147798936,1239
3212.8767696728846,1213
3214.5631190905015,1219
3216.2491963733373,1205
3217.9350018430214,1217
3219.6205358212637,1164
3221.305798629851,1210
3222.990790590651,1140
3224.6755120256103,1186
3226.359963256751,1190
3228.0441446061795,1216
3229.7280563960758,1221
3231.411698948703,1275
3233.0950725863995,1189
3234.778177631587,1223
3236.461014406761,1252
3238.1435832345005,1192
3239.8258844374595,1275
3241.507918338374,1226
3243.1896852600576,1252
3244.8711855254023,1228
3246.552419457381,1222
3248.233387379042,1245
3249.914089613516,1265
3251.59452648401,1203
3253.274698313813,1281
3254.95460542629,1233
3256.6342481448855,1293
3258.313626793125,1240
3259.9927416946084,1249
3261.6715931730196,1191
3263.3501815521176,1189
3265.0285071557437,1173
3266.706570307815,1209
3268.3843713323286,1205
3270.0619105533615,1173
3271.739188295068,1248
3273.4162048816834,1192
3275.0929606375184,1265
3276.769455886966,1210
3278.445690954498,1195
3280.1216661646613,1292
3281.797381842087,1165
3283.4728383114807,1206
3285.1480358976296,1232
3286.8229749253996,1241
3288.4976557197333,1229
3290.172078605655,1208
3291.846243908266,1187
3293.5201519527463,1205
3295.193803064357,1203
3296.8671975684374,1216
3298.5403357904024,1174
3300.21321805575,1221
3301.8858446900567,1199
3303.558216018975,1218
3305.23033236824,1210
3306.9021940636603,1205
3308.57380143113,1193
3310.2451547966184,1178
3311.916254486174,1215
3313.5871008259246,1265
3315.2576941420766,1204
3316.9280347609147,1191
3318.5981230088046,1196
3320.2679592121895,1216
3321.9375436975924,1231
3323.606876791612,1207
3325.27595882093,1151
3326.944790112305,1230
3328.6133709925753,1222
3330.2817017886573,1201
3331.949782827547,1260
3333.617614436319,1267
3335.2851969421245,1198
3336.952530672199,1201
3338.619615953853,1212
3340.286453114475,1273
3341.9530424815357,1194
3343.619384382583,1200
3345.2854791452437,1236
3346.951327097224,1214
3348.6169285663073,1210
3350.2822838803577,1182
3351.947393367319,1219
3353.61225735521,1229
3355.2768761721345,1261
3356.9412501462693,1241
3358.605379605873,1264
3360.2692648792827,1244
3361.9329062949146,1201
3363.596304181263,1250
