CollectionTime,6/26/2024 3:03:54 PM
ExposureUsed,3
CalibratedSpectrum
-962.7078968117929,615
-959.9714848408522,634
-957.2358232597828,626
-954.5009119013725,663
-951.7667505983302,689
-949.0333391832855,697
-946.3006774887896,666
-943.5687653473143,711
-940.837602591253,682
-938.1071890529199,677
-935.3775245645503,673
-932.6486089583007,693
-929.9204420662485,723
-927.1930237203925,709
-924.4663537526524,710
-921.7404319948689,667
-919.0152582788041,688
-916.2908324361409,683
-913.5671542984834,725
-910.8442236973568,764
-908.1220404642074,740
-905.4006044304027,710
-902.679915427231,697
-899.959973285902,728
-897.2407778375464,702
-894.5223289132158,716
-891.8046263438832,668
-889.0876699604426,664
-886.3714595937089,637
-883.6559950744183,656
-880.9412762332282,692
-878.2273029007168,692
-875.5140749073835,711
-872.8015920836489,687
-870.0898542598545,657
-867.3788612662631,667
-864.6686129330585,640
-861.9591090903457,630
-859.2503495681506,617
-856.5423341964203,641
-853.8350628050229,676
-851.1285352237478,696
-848.4227512823054,707
-845.7177108103272,645
-843.0134136373656,655
-840.3098595928943,631
-837.6070485063082,681
-834.9049802069229,677
-832.2036545239757,668
-829.5030712866244,673
-826.8032303239481,665
-824.1041314649472,632
-821.4057745385428,663
-818.7081593735775,677
-816.0112857988148,655
-813.3151536429393,630
-810.6197627345566,665
-807.9251129021936,629
-805.2312039742981,633
-802.5380357792392,689
-799.8456081453069,665
-797.1539209007124,662
-794.462973873588,638
-791.772766891987,648
-789.083299783884,660
-786.3945723771743,646
-783.7065844996748,665
-781.0193359791231,660
-778.3328266431781,696
-775.6470563194197,655
-772.9620248353489,680
-770.2777320183878,678
-767.5941776958798,680
-764.9113616950891,670
-762.2292838432011,674
-759.5479439673222,671
-756.8673418944801,639
-754.1874774516235,691
-751.5083504656222,652
-748.8299607632671,668
-746.15230817127,708
-743.475392516264,702
-740.7992136248035,674
-738.1237713233636,661
-735.4490654383407,662
-732.7750957960521,704
-730.1018622227365,694
-727.4293645445534,704
-724.7576025875837,692
-722.0865761778291,702
-719.4162851412126,663
-716.7467293035781,701
-714.0779084906909,702
-711.409822528237,756
-708.7424712418238,705
-706.0758544569796,687
-703.4099719991541,716
-700.7448236937178,752
-698.0804093659622,756
-695.4167288411002,703
-692.7537819442656,707
-690.0915685005134,724
-687.4300883348199,758
-684.7693412720819,738
-682.1093271371178,765
-679.4500457546669,712
-676.7914969493897,708
-674.1336805458676,702
-671.4765963686034,759
-668.8202442420206,766
-666.1646239904642,767
-663.5097354382001,795
-660.8555784094151,735
-658.2021527282176,728
-655.5494582186366,767
-652.8974947046223,788
-650.2462620100463,770
-647.5957599587009,787
-644.9459883742998,800
-642.2969470804776,783
-639.6486359007902,816
-637.0010546587141,790
-634.3542031776476,820
-631.7080812809096,767
-629.0626887917401,778
-626.4180255333008,745
-623.7740913286734,761
-621.1308860008619,775
-618.4884093727904,764
-615.8466612673046,736
-613.2056415071715,750
-610.5653499150785,795
-607.9257863136347,768
-605.28695052537,780
-602.6488423727357,743
-600.0114616781036,761
-597.3748082637674,790
-594.7388819519412,803
-592.1036825647604,798
-589.4692099242818,808
-586.8354638524829,796
-584.2024441712624,792
-581.5701507024403,767
-578.9385832677575,825
-576.3077416888759,786
-573.6776257873787,796
-571.0482353847704,801
-568.4195703024757,801
-565.7916303618415,890
-563.164415384135,860
-560.5379251905453,817
-557.9121596021815,804
-555.2871184400748,856
-552.6628015251767,844
-550.0392086783606,804
-547.4163397204204,811
-544.794194472071,785
-542.1727727539491,818
-539.5520743866118,844
-536.9320991905377,855
-534.3128469861261,909
-531.6943175936979,972
-529.0765108334947,915
-526.4594265256793,1015
-523.8430644903358,1126
-521.2274245474689,1218
-518.612506517005,1432
-515.9983102187913,1474
-513.3848354725959,1570
-510.77208209810846,1742
-508.16004991493924,1879
-505.5487387426199,1992
-502.9381484006032,2186
-500.3282787082628,2202
-497.71912948489364,2338
-495.1107005497117,2342
-492.5029917218539,2181
-489.8960028203786,2005
-487.28973366426493,1680
-484.68418407241325,1468
-482.07935386364494,1349
-479.47524285670266,1221
-476.87185087025,1233
-474.2691777228715,1214
-471.66722323307334,1140
-469.0659872192821,1102
-466.4654694998459,1079
-463.86566989303384,1071
-461.26658821703614,1017
-458.66822428996414,1028
-456.07057792985,1073
-453.4736489546475,1011
-450.877437182231,1015
-448.28194243039627,997
-445.68716451686,1067
-443.09310325926003,1069
-440.49975847515555,989
-437.9071299820263,1014
-435.31521759727354,1055
-432.72402113821954,1012
-430.13354042210767,1116
-427.5437752661022,1073
-424.95472548728867,1089
-422.36639090267386,1136
-419.7787713291855,1110
-417.1918665836721,1106
-414.60567648290385,1113
-412.0202008435715,1113
-409.4354394822874,1113
-406.8513922155845,1097
-404.26805885991723,1133
-401.685439231661,1103
-399.103533147112,1145
-396.522340422488,1091
-393.9418608739278,1125
-391.3620943174908,1090
-388.7830405691583,1135
-386.2046994448317,1120
-383.6270707603344,1030
-381.05015433141045,999
-378.473949973725,898
-375.8984575028645,884
-373.32367673433623,851
-370.74960748356875,813
-368.1762495659117,754
-365.60360279663576,672
-363.03166699093265,663
-360.4604419639154,654
-357.8899275306178,613
-355.32012350599507,560
-352.7510297049233,561
-350.1826459421999,573
-347.61497203254316,544
-345.04800779059235,549
-342.4817530309082,502
-339.91620756797226,522
-337.35137121618743,524
-334.7872437898774,552
-332.22382510328725,565
-329.66111497058273,595
-327.09911320585127,600
-324.53781962310075,593
-321.9772340362607,606
-319.4173562591816,627
-316.8581861056348,711
-314.2997233893127,762
-311.7419679238294,731
-309.1849195227194,695
-306.62857799943856,614
-304.0729431673641,530
-301.51801483979375,562
-298.963792829947,610
-296.41027695096386,673
-293.85746701590574,673
-291.3053628377552,745
-288.7539642294155,724
-286.2032710037115,708
-283.65328297338897,745
-281.1039999511146,760
-278.5554217494762,808
-276.007548180983,738
-273.4603790580651,687
-270.9139141930734,647
-268.3681533982807,703
-265.8230964858798,698
-263.27874326798565,738
-260.7350935566336,773
-258.1921471637804,806
-255.6499039013039,862
-253.10836358100266,763
-250.56752601459698,825
-248.02739101372765,836
-245.48795838995704,814
-242.94922795476816,796
-240.41119951956557,772
-237.8738728956746,927
-235.33724789434166,924
-232.80132432673452,948
-230.2661020039418,1129
-227.73158073697357,1068
-225.19776033676033,916
-222.66464061415422,934
-220.1322213799284,975
-217.60050244477725,910
-215.06948361931552,901
-212.53916471408013,897
-210.00954553952818,921
-207.48062590603843,953
-204.9524056239104,1106
-202.4248845033651,1068
-199.8980623545441,1070
-197.37193898751036,1025
-194.84651421224817,1001
-192.32178783866232,1076
-189.79775967657952,1088
-187.27442953574644,1035
-184.7517972258321,954
-182.2298625564256,959
-179.7086253370378,1095
-177.18808537710026,1156
-174.66824248596583,1124
-172.14909647290835,1144
-169.6306471471229,1146
-167.11289431772548,1122
-164.59583779375328,1127
-162.07947738416453,1110
-159.5638128978386,1170
-157.04884414357605,1307
-154.53457093009854,1327
-152.02099306604828,1174
-149.50811035998936,1239
-146.99592262040665,1188
-144.48442965570587,1227
-141.97363127421409,1422
-139.46352728417958,1582
-136.95411749377126,1587
-134.44540171107985,1579
-131.93737974411636,1547
-129.43005140081357,1510
-126.92341648902493,1467
-124.41747481652521,1351
-121.91222619101006,1406
-119.40767042009657,1453
-116.90380731132257,1476
-114.40063667214702,1646
-111.8981583099503,1775
-109.3963720320337,1814
-106.89527764561933,1503
-104.39487495785067,1810
-101.89516377579241,1921
-99.39614390642998,1920
-96.89781515667039,2032
-94.40017733334128,2288
-91.90323024319173,2263
-89.40697369289148,2292
-86.91140748903172,2141
-84.41653143812482,2144
-81.92234534660395,2202
-79.42884902082358,2129
-76.93604226705907,2325
-74.4439248915071,2604
-71.95249670028534,2373
-69.46175749943245,2629
-66.97170709490854,2762
-64.48234529259423,3215
-61.99367189829195,3318
-59.50568671772464,3343
-57.01838955653636,3876
-54.53178022029283,3888
-52.045858514480074,3992
-49.560624244506016,4380
-47.07607721569923,4648
-44.59221723330904,4628
-42.10904410250669,4891
-39.62655762838392,5928
-37.14475761595372,7184
-34.66364387015028,7365
-32.18321619582866,7802
-29.70347439776515,8124
-27.224418280657005,11187
-24.74604764912317,14410
-22.26836230770266,19954
-19.7913620608565,31116
-17.315046712966478,45780
-14.83941606833514,48831
-12.36446993118659,65040
-9.89020810566592,65040
-7.416630395839093,65040
-4.94373660569363,65040
-2.471526539137585,65040
-6.821210263296962E-13,65040
2.47084320796705,65040
4.941003281093458,65040
7.410480415786196,65040
9.879274808531363,65040
12.347386655893956,65040
14.814816154518212,65040
17.28156350112681,65040
19.74762889252179,65040
22.21301252558385,65040
24.67771459727237,65040
27.141735304626195,65040
29.605074844762612,39125
32.06773341487792,18721
34.52971121224755,14642
36.99100843422559,13464
39.45162527824516,10636
41.91156194181792,9994
44.370818622535126,11253
46.82939551806646,11354
49.287292826160524,13676
51.74451074464503,12890
54.201049471426245,8951
56.65690920448981,6357
59.112090141899785,4639
61.56659248179983,4799
64.02041642241159,5117
66.4735621620365,4878
68.92602989905402,3843
71.37781983192338,4082
73.82893215918205,4162
76.27936707944684,3772
78.72912479141326,3725
81.17820549385567,3721
83.62660938562783,3501
86.07433666566146,3356
88.5213875329681,3571
90.96776218663751,3188
93.41346082583925,2816
95.85848364982041,2213
98.30283085790859,2199
100.7465026495089,2442
103.18949922410604,2614
105.63182078126385,2195
108.07346752062438,2156
110.51443964190923,2208
112.95473734491827,2063
115.39436082953114,1825
117.83331029570547,2024
120.27158594347827,2290
122.7091879729652,1799
125.1461165843615,1722
127.58237197794062,1592
130.01795435405518,1418
132.4528639131364,1499
134.88710085569494,1748
137.32066538231982,1661
139.75355769367923,1622
142.1857779905207,1773
144.61732647366978,1617
147.04820334403132,1519
149.47840880258934,1451
151.90794305040674,1683
154.33680628862487,1756
156.76499871846443,1683
159.19252054122433,1751
161.61937195828352,1721
164.04555317109896,1715
166.47106438120693,2071
168.89590579022217,2440
171.320077599839,2463
173.7435800118302,2417
176.16641322804742,2448
178.58857745042144,2453
181.01007288096173,2591
183.43089972175687,2726
185.85105817497413,2631
188.27054844285988,2536
190.6893707277394,2539
193.10752523201643,2547
195.5250121581745,2734
197.9418317087751,2773
200.3579840864594,2706
202.7734694939469,2769
205.18828813403627,2759
207.6024402096051,2819
210.01592592360964,2887
212.42874547908548,2885
214.84089907914665,2809
217.2523869269868,2805
219.66320922587727,2855
222.0733661791695,2849
224.48285799029293,2793
226.8916848627572,2965
229.29984700014882,2969
231.7073446061355,2981
234.11417788446204,2906
236.520347038953,3000
238.92585227351185,3196
241.33069379212054,3312
243.73487179884035,3325
246.1383864978112,3149
248.541238093252,3179
250.9434267894609,3269
253.34495279081432,3306
255.74581630176783,3307
258.1460175268563,3455
260.54555667069314,3392
262.9444339379703,3174
265.3426495334594,3111
267.7402036620107,3163
270.1370965285529,3128
272.53332833809407,2956
274.9288992957214,3001
277.32380960660055,2972
279.718059475976,2807
282.1116491091717,2862
284.5045787115897,2858
286.89684848871195,2907
289.2884586460981,2957
291.67940938938807,2860
294.0697009242996,2843
296.4593334566299,2808
298.84830719225477,2764
301.23662233712923,2739
303.6242790972866,2801
306.01127767884,2781
308.39761828798066,2663
310.78330113097934,2660
313.16832641418534,2694
315.5526943440269,2674
317.9364051270112,2665
320.3194589697242,2597
322.70185607883093,2538
325.0835966610754,2529
327.4646809232805,2504
329.8451090723478,2555
332.2248813152577,2476
334.6039978590701,2461
336.9824589109231,2464
339.36026467803447,2497
341.7374153677,2443
344.113911187295,2414
346.48975234427337,2374
348.8649390461686,2351
351.2394715005918,2359
353.61334991523415,2227
355.9865744978655,2179
358.35914545633375,2303
360.73106299856715,2248
363.10232733257146,2306
365.47293866643247,2246
367.84289720831396,2333
370.2122031664593,2178
372.5808567491905,2273
374.9488581649083,2284
377.31620762209275,2348
379.6829053293021,2357
382.0489514951745,2241
384.4143463284262,2204
386.7790900378528,2210
389.14318283232853,2182
391.50662492080653,2186
393.86941651231916,2148
396.23155781597745,2173
398.5930490409713,2190
400.9538903965696,2134
403.3140820921202,2104
405.6736243370498,2128
408.03251734086336,2162
410.3907613131465,2146
412.74835646356166,2136
415.10530300185144,2048
417.4616011378372,2186
419.81725108141893,2124
422.1722530425758,2126
424.5266072313656,2130
426.880313857925,2085
429.2333731324701,2145
431.58578526529516,2106
433.9375504667738,2108
436.2886689473588,2123
438.63914091758113,2014
440.9889665880513,2014
443.33814616945835,2072
445.68667987257015,1991
448.03456790823395,2022
450.3818104873759,1986
452.72840782100013,1964
455.07436012019105,2008
457.41966759611057,2031
459.7643304600007,2083
462.10834892318155,2103
464.4517231970525,2017
466.79445349309174,2097
469.1365400228566,2139
471.4779829979826,2184
473.81878263018564,2150
476.15893913125876,2173
478.4984527130747,2132
480.8373235875855,2177
483.17555196682144,2176
485.5131380628919,2376
487.8500820879857,2540
490.1863842543697,2658
492.52204477439034,2898
494.8570638604725,3012
497.1914417251204,3422
499.52517858091653,3694
501.85827464052306,3905
504.19073011668036,4019
506.5225452222086,4012
508.85372017000566,3864
511.18425517304956,3732
513.514150444396,3826
515.8434061971808,4252
518.1720226446176,4928
520.4999999999999,5115
522.8273384766991,5419
525.1540382881666,5609
527.480099647932,5508
529.8055227696037,4662
532.1303078668694,3386
534.454455153496,2531
536.777964843328,2160
539.1008371502907,2087
541.4230722883866,2062
543.744670471698,1989
546.0656319143858,1963
548.3859568306899,1904
550.7056454349294,1932
553.0246979415016,1911
555.3431145648834,1776
557.6608955196306,1818
559.978041020377,1835
562.2945512818363,1835
564.6104265188006,1822
566.9256669461412,1876
569.2402727788082,1768
571.5542442318302,1804
573.8675815203156,1819
576.1802848594508,1836
578.4923544645015,1822
580.8037905508126,1852
583.114593333807,1800
585.4247630289875,1822
587.7342998519354,1735
590.0432040183106,1782
592.3514757438526,1867
594.6591152443794,1886
596.9661227357875,1848
599.2724984340531,1748
601.578242555231,1861
603.8833553154542,1829
606.1878369309362,1847
608.4916876179676,1926
610.7949075929192,1983
613.0974970722403,1860
615.3994562724587,1841
617.7007854101818,1881
620.0014847020951,1903
622.3015543649641,1914
624.6009946156324,1810
626.8998056710224,1767
629.1979877481361,1812
631.4955410640538,1815
633.7924658359349,1817
636.0887622810175,1886
638.3844306166192,1840
640.6794710601358,1890
642.9738838290426,1870
645.2676691408932,1887
647.5608272133207,1841
649.853358264037,1858
652.1452625108324,1791
654.4365401715764,1859
656.7271914642178,1821
659.0172166067838,1784
661.3066158173809,1837
663.5953893141935,1839
665.8835373154867,1902
668.1710600396028,1848
670.4579577049639,1923
672.7442305300709,1918
675.0298787335033,1906
677.3149025339197,1938
679.599302150058,1927
681.8830778007342,1862
684.1662297048437,1948
686.4487580813608,1911
688.7306631493387,1822
691.0119451279091,1868
693.2926042362834,1850
695.5726406937516,1899
697.8520547196814,1835
700.1308465335215,1905
702.4090163547982,1859
704.6865644031171,1892
706.9634908981619,1908
709.2397960596965,1839
711.5154801075631,1888
713.7905432616823,1913
716.0649857420548,1901
718.3388077687592,1852
720.612009561953,1804
722.8845913418733,1877
725.1565533288352,1820
727.427895743234,1875
729.6986188055427,1867
731.9687227363137,1891
734.238207756178,1909
736.5070740858458,1834
738.7753219461066,1849
741.0429515578281,1804
743.3099631419569,1843
745.5763569195191,1954
747.8421331116193,1898
750.1072919394409,1884
752.3718336242467,1848
754.6357583873777,1828
756.8990664502545,1852
759.1617580343765,1863
761.423833361321,1879
763.6852926527457,1793
765.9461361303862,1875
768.206364016058,1862
770.4659765316536,1805
772.7249738991469,1916
774.9833563405886,1855
777.2411240781092,1827
779.4982773339183,1889
781.7548163303044,1955
784.010741289634,1996
786.2660524343538,1995
788.5207499869881,1986
790.7748341701416,1939
793.0283052064964,1981
795.2811633188143,1881
797.5334087299362,1938
799.7850416627813,1977
802.0360623403484,1955
804.2864709857143,1952
806.5362678220353,1930
808.7854530725468,1908
811.0340269605625,1894
813.2819897094754,1877
815.5293415427581,1907
817.77608268396,1918
820.0222133567116,1948
822.2677337847211,1827
824.5126441917765,1896
826.7569448017433,1932
829.0006358385675,1897
831.2437175262731,1923
833.4861900889629,1884
835.7280537508192,1912
837.9693087361026,1907
840.2099552691533,1976
842.4499935743896,1888
844.689423876309,1868
846.9282463994886,1884
849.1664613685833,1932
851.4040690083276,1850
853.6410695435349,1886
855.877463199097,1960
858.1132501999847,1871
860.3484307712487,1926
862.5830051380175,1896
864.8169735254988,1895
867.0503361589791,1998
869.2830932638243,1892
871.5152450654786,1910
873.7467917894654,1921
875.9777336613873,1947
878.2080709069252,1931
880.4378037518389,2024
882.666932421968,1948
884.8954571432301,1963
887.1233781416219,1931
889.3506956432192,2029
891.5774098741766,2013
893.803521060728,1965
896.0290294291852,2000
898.2539352059397,1953
900.4782386174619,1990
902.7019398903011,1971
904.925039251085,1977
907.147536926521,1987
909.3694331433943,1974
911.59072812857,1942
913.8114221089921,2030
916.0315153116827,2030
918.2510079637437,1926
920.4699002923547,1938
922.6881925247761,1975
924.905884888345,2017
927.1229776104793,1979
929.3394709186747,2002
931.555365040506,1932
933.7706602036275,2009
935.9853566357709,1911
938.1994545647489,1920
940.4129542184515,1964
942.6258558248488,1943
944.8381596119883,1877
947.0498658079974,1962
949.2609746410825,1929
951.4714863395287,1986
953.6814011316998,1924
955.8907192460387,1979
958.0994409110671,1913
960.3075663553858,1889
962.5150958076741,1920
964.7220294966913,1975
966.928367651274,1827
969.1341105003388,1811
971.3392582728806,1890
973.5438111979742,1866
975.747769504772,1852
977.9511334225061,1818
980.153903180487,1808
982.3560790081052,1783
984.5576611348289,1757
986.7586497902058,1780
988.9590452038618,1768
991.158847605503,1813
993.3580572249133,1752
995.5566742919558,1725
997.7546990365728,1678
999.952131688785,1737
1002.1489724786926,1602
1004.3452216364743,1676
1006.5408793923874,1641
1008.7359459767691,1632
1010.9304216200343,1571
1013.1243065526781,1582
1015.3176010052733,1600
1017.510305208472,1558
1019.7024193930064,1569
1021.8939437896848,1509
1024.0848786293977,1596
1026.2752241431122,1516
1028.4649805618747,1484
1030.6541481168115,1524
1032.842727039127,1527
1035.0307175601051,1506
1037.2181199111074,1523
1039.4049343235752,1505
1041.591161029029,1560
1043.7768002590683,1559
1045.9618522453698,1532
1048.1463172196918,1585
1050.3301954138697,1485
1052.513487059818,1480
1054.69619238953,1461
1056.8783116350783,1503
1059.0598450286152,1477
1061.2407928023704,1451
1063.4211551886528,1525
1065.6009324198508,1529
1067.780124728432,1501
1069.9587323469414,1477
1072.1367555080046,1467
1074.314194444325,1451
1076.4910493886855,1509
1078.667320573947,1396
1080.843008233051,1458
1083.0181125990161,1421
1085.1926339049414,1437
1087.3665723840027,1403
1089.5399282694575,1428
1091.7127017946405,1425
1093.8848931929647,1441
1096.0565026979243,1414
1098.2275305430899,1387
1100.3979769621128,1389
1102.567842188722,1368
1104.737126456726,1416
1106.9058300000124,1392
1109.0739530525475,1385
1111.2414958483764,1419
1113.4084586216231,1386
1115.5748416064907,1359
1117.7406450372605,1451
1119.9058691482942,1395
1122.0705141740304,1341
1124.2345803489884,1407
1126.3980679077658,1351
1128.5609770850388,1362
1130.7233081155623,1368
1132.8850612341707,1400
1135.0462366757774,1398
1137.2068346753745,1396
1139.3668554680326,1374
1141.526299288901,1355
1143.68516637321,1386
1145.8434569562655,1385
1148.001171273455,1368
1150.158309560244,1402
1152.3148720521767,1314
1154.470858984876,1348
1156.626270594044,1364
1158.7811071154629,1337
1160.9353687849912,1372
1163.089055838569,1401
1165.242168512213,1391
1167.3947070420209,1367
1169.5466716641677,1357
1171.6980626149075,1417
1173.8488801305748,1373
1175.9991244475814,1338
1178.1487958024186,1367
1180.2978944316555,1357
1182.4464205719428,1366
1184.5943744600072,1307
1186.7417563326567,1311
1188.8885664267755,1324
1191.0348049793297,1350
1193.1804722273619,1348
1195.325568407995,1348
1197.4700937584303,1346
1199.614048515948,1354
1201.7574329179074,1331
1203.900247201746,1336
1206.042491604982,1364
1208.1841663652099,1332
1210.3252717201053,1311
1212.465807907422,1364
1214.6057751649923,1346
1216.7451737307279,1381
1218.8840038426192,1394
1221.0222657387353,1301
1223.1599596572241,1338
1225.2970858363137,1345
1227.4336445143094,1355
1229.5696359295966,1306
1231.705060320639,1313
1233.8399179259786,1422
1235.9742089842384,1370
1238.107933734118,1375
1240.2410924143974,1351
1242.373685263935,1374
1244.5057125216676,1391
1246.6371744266116,1384
1248.7680712178621,1414
1250.898403134593,1340
1253.028170416058,1380
1255.1573733015875,1407
1257.2860120305932,1398
1259.4140868425648,1323
1261.54159797707,1373
1263.6685456737569,1298
1265.7949301723515,1327
1267.9207517126597,1367
1270.046010534565,1373
1272.1707068780306,1411
1274.2948409830983,1433
1276.4184130898889,1445
1278.541423438603,1389
1280.6638722695184,1466
1282.785759822993,1439
1284.9070863394636,1489
1287.0278520594447,1452
1289.1480572235314,1426
1291.2677020723963,1404
1293.3867868467923,1431
1295.5053117875495,1419
1297.623277135579,1454
1299.740683131868,1456
1301.8575300174857,1466
1303.973818033578,1512
1306.0895474213703,1516
1308.2047184221678,1512
1310.3193312773528,1496
1312.4333862283888,1472
1314.5468835168163,1445
1316.659823384255,1414
1318.7722060724045,1451
1320.8840318230418,1482
1322.9953008780249,1473
1325.1060134792888,1506
1327.2161698688478,1484
1329.3257702887959,1520
1331.4348149813054,1498
1333.5433041886276,1461
1335.6512381530933,1432
1337.7586171171101,1513
1339.8654413231675,1554
1341.9717110138317,1506
1344.0774264317488,1418
1346.1825878196432,1416
1348.2871954203192,1471
1350.3912494766587,1484
1352.4947502316231,1487
1354.5976979282532,1496
1356.7000928096686,1498
1358.8019351190665,1420
1360.9032250997243,1478
1363.0039629949988,1476
1365.1041490483235,1480
1367.2037835032133,1507
1369.3028666032606,1513
1371.401398592137,1481
1373.4993797135926,1443
1375.5968102114575,1493
1377.6936903296396,1416
1379.7900203121262,1447
1381.8858004029835,1467
1383.9810308463561,1507
1386.075711886469,1461
1388.1698437676241,1431
1390.2634267342032,1526
1392.356461030667,1465
1394.4489469015557,1452
1396.5408845914872,1490
1398.6322743451592,1432
1400.7231164073469,1508
1402.813411022907,1549
1404.903158436773,1483
1406.9923588939578,1484
1409.0810126395531,1504
1411.1691199187303,1508
1413.2566809767386,1533
1415.343696058907,1522
1417.4301654106425,1505
1419.5160892774315,1482
1421.6014679048399,1480
1423.6863015385125,1499
1425.7705904241707,1527
1427.8543348076178,1554
1429.9375349347342,1573
1432.0201910514802,1540
1434.102303403894,1512
1436.1838722380944,1517
1438.2648978002767,1561
1440.3453803367174,1603
1442.4253200937692,1530
1444.5047173178677,1561
1446.5835722555234,1616
1448.6618851533285,1628
1450.739656257952,1582
1452.8168858161434,1682
1454.8935740747306,1635
1456.96972128062,1604
1459.045327680797,1582
1461.120393522327,1670
1463.1949190523528,1668
1465.2689045180973,1679
1467.3423501668608,1691
1469.415256246024,1746
1471.4876230030463,1723
1473.559450685465,1766
1475.6307395408976,1793
1477.7014898170391,1850
1479.771701761665,1818
1481.8413756226287,1855
1483.9105116478618,1910
1485.9791100853772,1822
1488.0471711832643,1856
1490.1146951896926,1924
1492.1816823529098,1886
1494.2481329212433,1970
1496.3140471430984,1923
1498.3794252669609,1909
1500.4442675413939,1965
1502.5085742150404,1972
1504.572345536622,2007
1506.6355817549388,2009
1508.6982831188702,2051
1510.7604498773744,1990
1512.8220822794883,1997
1514.8831805743293,2048
1516.9437450110909,2043
1519.003775839048,2064
1521.0632733075522,2082
1523.1222376660367,2041
1525.1806691640113,2083
1527.2385680510652,2126
1529.2959345768668,2129
1531.3527689911643,2119
1533.4090715437833,2130
1535.4648424846291,2219
1537.5200820636855,2185
1539.5747905310159,2183
1541.6289681367616,2241
1543.6826151311434,2258
1545.7357317644614,2272
1547.7883182870937,2209
1549.8403749494987,2292
1551.8919020022113,2171
1553.9428996958477,2374
1555.9933682811015,2357
1558.0433080087469,2441
1560.0927191296346,2428
1562.1416018946961,2426
1564.1899565549415,2494
1566.2377833614592,2494
1568.2850825654164,2451
1570.3318544180606,2433
1572.3780991707158,2396
1574.423817074788,2314
1576.4690083817595,2304
1578.5136733431923,2327
1580.5578122107272,2191
1582.601425236085,2098
1584.6445126710646,2039
1586.6870747675434,2009
1588.7291117774776,1946
1590.7706239529034,1874
1592.8116115459347,1822
1594.8520748087658,1775
1596.8920139936686,1723
1598.9314293529933,1706
1600.9703211391711,1640
1603.008689604711,1669
1605.0465350022005,1667
1607.0838575843068,1611
1609.1206576037753,1586
1611.1569353134305,1524
1613.1926909661765,1531
1615.2279248149953,1583
1617.2626371129481,1540
1619.2968281131757,1436
1621.3304980688963,1475
1623.3636472334088,1475
1625.39627586009,1410
1627.428384202396,1486
1629.459972513861,1494
1631.4910410480993,1433
1633.5215900588028,1369
1635.551619799744,1465
1637.5811305247717,1439
1639.6101224878166,1447
1641.6385959428862,1476
1643.6665511440683,1417
1645.693988345528,1443
1647.7209078015112,1403
1649.7473097663405,1429
1651.7731944944203,1394
1653.7985622402307,1364
1655.823413258333,1418
1657.847747803366,1382
1659.8715661300494,1406
1661.8948684931793,1365
1663.9176551476316,1428
1665.9399263483624,1441
1667.9616823504057,1386
1669.982923408873,1346
1672.0036497789574,1329
1674.0238617159293,1395
1676.043559475138,1412
1678.0627433120121,1375
1680.081413482059,1355
1682.0995702408654,1363
1684.117213844096,1404
1686.134344547495,1354
1688.1509626068864,1304
1690.1670682781705,1339
1692.182661817329,1326
1694.1977434804217,1332
1696.2123135235875,1354
1698.226372203043,1375
1700.2399197750851,1388
1702.2529564960905,1344
1704.2654826225112,1421
1706.277498410882,1343
1708.2890041178139,1336
1710.2999999999988,1385
1712.3104863142066,1441
1714.3204633172854,1432
1716.329931266163,1340
1718.3388904178469,1319
1720.3473410294214,1338
1722.3552833580516,1364
1724.3627176609807,1322
1726.3696441955308,1341
1728.3760632191033,1336
1730.3819749891782,1399
1732.3873797633146,1352
1734.3922777991502,1332
1736.3966693544012,1342
1738.4005546868639,1306
1740.4039340544127,1336
1742.406807715001,1351
1744.4091759266616,1332
1746.4110389475054,1320
1748.4123970357223,1332
1750.413250449582,1368
1752.4135994474318,1341
1754.4134442876993,1402
1756.4127852288902,1292
1758.4116225295893,1295
1760.4099564484595,1328
1762.407787244244,1316
1764.405115175764,1367
1766.4019405019203,1343
1768.3982634816916,1303
1770.3940843741357,1332
1772.3894034383907,1320
1774.3842209336717,1302
1776.378537119274,1271
1778.372352254571,1306
1780.3656665990156,1312
1782.3584804121397,1292
1784.3507939535534,1271
1786.3426074829463,1297
1788.3339212600863,1314
1790.3247355448211,1280
1792.3150505970766,1319
1794.3048666768573,1319
1796.2941840442477,1303
1798.2830029594106,1279
1800.2713236825884,1248
1802.2591464741004,1284
1804.2464715943465,1287
1806.2332993038058,1302
1808.2196298630352,1282
1810.2054635326708,1329
1812.190800573428,1320
1814.175641246101,1316
1816.1599858115628,1294
1818.1438345307652,1312
1820.127187664738,1312
1822.1100454745924,1261
1824.092408221516,1299
1826.0742761667766,1326
1828.055649571721,1318
1830.0365286977735,1270
1832.0169138064398,1263
1833.9968051593014,1283
1835.9762030180214,1293
1837.9551076443408,1290
1839.9335193000788,1257
1841.9114382471344,1256
1843.888864747485,1271
1845.8657990631878,1276
1847.842241456378,1268
1849.8181921892697,1293
1851.7936515241558,1318
1853.7686197234098,1304
1855.7430970494815,1355
1857.7170837649014,1325
1859.6905801322787,1252
1861.6635864143004,1314
1863.6361028737338,1327
1865.608129773424,1272
1867.5796673762961,1278
1869.5507159453537,1265
1871.521275743678,1334
1873.4913470344313,1330
1875.4609300808534,1308
1877.4300251462632,1275
1879.3986324940588,1284
1881.366752387717,1346
1883.3343850907936,1308
1885.3015308669228,1351
1887.268189979819,1347
1889.2343626932739,1317
1891.2000492711595,1281
1893.1652499774254,1268
1895.1299650761011,1278
1897.0941948312952,1341
1899.0579395071945,1302
1901.0211993680641,1314
1902.98397467825,1330
1904.9462657021745,1308
1906.9080727043415,1337
1908.869395949332,1335
1910.8302357018065,1306
1912.790592226504,1338
1914.7504657882428,1319
1916.7098566519212,1354
1918.6687650825133,1325
1920.6271913450764,1317
1922.5851357047422,1324
1924.5425984267245,1303
1926.499579776314,1278
1928.4560800188833,1345
1930.4120994198802,1278
1932.367638244833,1326
1934.32269675935,1313
1936.2772752291175,1290
1938.231373919899,1248
1940.1849930975404,1324
1942.1381330279637,1302
1944.0907939771696,1344
1946.0429762112412,1276
1947.9946799963363,1391
1949.9459055986945,1338
1951.896653284633,1308
1953.8469233205478,1284
1955.7967159729142,1313
1957.7460315082863,1309
1959.6948701932974,1318
1961.6432322946594,1356
1963.5911180791632,1306
1965.5385278136787,1326
1967.4854617651545,1297
1969.4319202006182,1287
1971.377903387176,1311
1973.3234115920136,1285
1975.268445082395,1340
1977.2130041256642,1321
1979.1570889892423,1286
1981.1006999406304,1300
1983.04383724741,1256
1984.986501177238,1260
1986.928691997853,1305
1988.8704099770712,1304
1990.811655382789,1297
1992.7524284829801,1294
1994.692729545698,1305
1996.6325588390755,1258
1998.5719166313224,1293
2000.5108031907307,1316
2002.4492187856677,1316
2004.387163684583,1293
2006.3246381560011,1254
2008.2616424685298,1232
2010.1981768908527,1234
2012.1342416917332,1261
2014.069837140014,1275
2016.0049635046162,1260
2017.9396210545406,1313
2019.8738100588666,1265
2021.8075307867502,1334
2023.740783507431,1266
2025.6735684902228,1250
2027.6058860045214,1280
2029.5377363198004,1290
2031.4691197056118,1284
2033.4000364315875,1342
2035.3304867674374,1246
2037.260470982952,1253
2039.189989347998,1296
2041.1190421325232,1254
2043.047629606554,1280
2044.9757520401945,1297
2046.9034097036288,1322
2048.8306028671195,1280
2050.7573318010086,1317
2052.683596775716,1273
2054.609398061742,1304
2056.5347359296647,1275
2058.4596106501403,1300
2060.384022493906,1324
2062.3079717317764,1258
2064.231458634646,1228
2066.1544834734873,1260
2068.077046519352,1289
2069.99914804337,1299
2071.9207883167524,1290
2073.8419676107865,1323
2075.7626861968406,1282
2077.6829443463607,1256
2079.6027423308715,1258
2081.522080421977,1348
2083.440958891362,1274
2085.359378010786,1261
2087.2773380520907,1299
2089.194839287196,1285
2091.111881988101,1259
2093.0284664268825,1275
2094.9445928756973,1279
2096.86026160678,1258
2098.775472892446,1277
2100.690227005088,1250
2102.604524217178,1317
2104.5183648012676,1311
2106.431749029985,1330
2108.34467717604,1274
2110.2571495122206,1308
2112.169166311393,1303
2114.080727846503,1322
2115.9918343905747,1287
2117.902486216711,1280
2119.8126835980956,1335
2121.722426807987,1303
2123.6317161197285,1266
2125.5405518067364,1312
2127.448934142509,1247
2129.356863400624,1282
2131.264339854737,1327
2133.1713637785815,1260
2135.077935445972,1264
2136.9840551308002,1270
2138.889723107037,1282
2140.7949396487334,1284
2142.699705030018,1260
2144.6040195250994,1272
2146.507883408264,1240
2148.4112969538774,1292
2150.3142604363848,1324
2152.2167741303097,1290
2154.1188383102535,1292
2156.0204532508997,1284
2157.9216192270064,1325
2159.822336513414,1333
2161.7226053850413,1271
2163.622426116884,1261
2165.5217989840185,1244
2167.4207242616,1252
2169.319202224862,1259
2171.2172331491165,1237
2173.1148173097563,1319
2175.0119549822507,1267
2176.90864644215,1262
2178.8048919650823,1288
2180.7006918267534,1292
2182.596046302952,1282
2184.4909556695407,1282
2186.3854202024645,1277
2188.279440177746,1286
2190.173015871487,1258
2192.066147559868,1229
2193.958835519149,1241
2195.851080025667,1272
2197.7428813558417,1287
2199.6342397861667,1227
2201.5251555932186,1272
2203.415629053651,1279
2205.3056604441986,1274
2207.19525004167,1264
2209.084398122958,1288
2210.9731049650327,1272
2212.861370844941,1295
2214.749196039812,1237
2216.636580826851,1291
2218.523525483344,1224
2220.410030286655,1271
2222.296095514226,1274
2224.1817214435805,1283
2226.066908352319,1310
2227.951656518121,1275
2229.835966218746,1327
2231.71983773203,1270
2233.6032713358913,1330
2235.486267308324,1330
2237.3688259274036,1324
2239.2509474712824,1293
2241.132632218193,1244
2243.013880446447,1263
2244.8946924344323,1288
2246.7750684606203,1278
2248.6550088035574,1303
2250.534513741871,1319
2252.413583554265,1279
2254.292218519526,1314
2256.170418916517,1256
2258.0481850241786,1304
2259.925517121534,1245
2261.8024154876825,1226
2263.678880401803,1273
2265.5549121431536,1258
2267.430510991071,1299
2269.305677224971,1313
2271.180411124348,1275
2273.0547129687766,1211
2274.9285830379076,1268
2276.8020216114737,1248
2278.6750289692845,1264
2280.5476053912294,1302
2282.4197511572766,1262
2284.2914665474727,1293
2286.162751841943,1303
2288.0336073208937,1332
2289.904033264608,1315
2291.774029953448,1357
2293.6435976678554,1292
2295.5127366883517,1308
2297.381447295534,1280
2299.2497297700825,1314
2301.1175843927526,1279
2302.9850114443825,1245
2304.852011205885,1276
2306.7185839582553,1257
2308.5847299825664,1274
2310.4504495599676,1296
2312.3157429716925,1351
2314.1806104990483,1293
2316.0450524234247,1301
2317.9090690262888,1310
2319.772660589186,1306
2321.635827393742,1340
2323.498569721661,1316
2325.3608878547248,1324
2327.2227820747967,1286
2329.0842526638157,1291
2330.945299903803,1232
2332.805924076857,1314
2334.6661254651535,1297
2336.525904350951,1279
2338.3852610165827,1279
2340.244195744464,1301
2342.102708817088,1324
2343.9608005170253,1288
2345.8184711269287,1284
2347.675720929526,1317
2349.532550207628,1332
2351.38895924412,1351
2353.24494832197,1251
2355.100517724223,1329
2356.955667734004,1253
2358.810398634514,1346
2360.664710709037,1327
2362.5186042409337,1255
2364.3720795136437,1275
2366.225136810686,1312
2368.0777764156583,1309
2369.929998612237,1335
2371.7818036841777,1334
2373.633191915315,1351
2375.484163589562,1326
2377.3347189909114,1305
2379.184858403434,1377
2381.03458211128,1298
2382.8838903986775,1324
2384.732783549936,1330
2386.5812618494406,1347
2388.4293255816588,1359
2390.2769750311327,1329
2392.1242104824883,1331
2393.971032220427,1347
2395.8174405297295,1303
2397.6634356952563,1304
2399.509018001947,1347
2401.3541877348193,1290
2403.1989451789705,1301
2405.043290619576,1302
2406.8872243418905,1257
2408.730746631247,1278
2410.5738577730594,1300
2412.4165580528183,1322
2414.258847756095,1326
2416.100727168537,1374
2417.9421965758734,1371
2419.783256263912,1367
2421.623906518538,1355
2423.4641476257157,1353
2425.303979871491,1325
2427.143403541984,1340
2428.9824189233977,1392
2430.821026302012,1326
2432.6592259641866,1353
2434.497018196361,1390
2436.33440328505,1328
2438.171381516851,1362
2440.00795317844,1384
2441.844118556569,1376
2443.6798779380724,1372
2445.5152316098606,1367
2447.3501798589255,1382
2449.1847229723357,1328
2451.0188612372403,1341
2452.8525949408663,1346
2454.6859243705203,1346
2456.518849813587,1344
2458.3513715575314,1321
2460.183489889895,1312
2462.015205098301,1356
2463.8465174704493,1320
2465.67742729412,1358
2467.5079348571717,1324
2469.338040447542,1340
2471.1677443532476,1334
2472.9970468623833,1340
2474.825948263123,1357
2476.6544488437207,1315
2478.482548892508,1333
2480.310248697896,1341
2482.137548548374,1366
2483.9644487325118,1354
2485.790949538956,1304
2487.617051256433,1367
2489.44275417375,1305
2491.26805857979,1340
2493.0929647635157,1375
2494.917473013971,1340
2496.741583620276,1327
2498.5652968716304,1361
2500.3886130573137,1398
2502.2115324666834,1352
2504.0340553891765,1373
2505.856182114308,1337
2507.6779129316733,1408
2509.499248130945,1333
2511.3201880018764,1410
2513.140732834298,1358
2514.9608829181198,1382
2516.780638543331,1335
2518.6,1409
2520.418967578273,1410
2522.237541568376,1419
2524.0557222606144,1395
2525.8735099453706,1423
2527.6909049131086,1371
2529.507907454368,1365
2531.32451785977,1333
2533.140736420014,1362
2534.9565634258774,1416
2536.771999168218,1379
2538.5870439379714,1420
2540.4016980261526,1393
2542.2159617238544,1443
2544.02983532225,1430
2545.8433191125914,1467
2547.656413386209,1343
2549.4691184345115,1339
2551.2814345489874,1418
2553.093362021204,1436
2554.904901142808,1427
2556.716052205523,1393
2558.526815501153,1456
2560.3371913215824,1470
2562.147179958771,1413
2563.956781704761,1427
2565.7659968516705,1433
2567.5748256916986,1451
2569.3832685171224,1460
2571.1913256202984,1515
2572.9989972936614,1467
2574.806283829725,1510
2576.613185521084,1502
2578.4197026604074,1529
2580.2258355404483,1518
2582.031584454035,1512
2583.836949694077,1559
2585.6419315535613,1506
2587.4465303255533,1521
2589.2507463032002,1516
2591.0545797797245,1496
2592.8580310484303,1498
2594.6611004026995,1507
2596.463788135992,1478
2598.266094541849,1511
2600.0680199138874,1462
2601.869564545807,1588
2603.670728731383,1461
2605.4715127644704,1490
2607.2719169390048,1504
2609.071941548998,1508
2610.8715868885433,1508
2612.670853251811,1531
2614.469740933052,1564
2616.268250226594,1510
2618.0663814268455,1538
2619.864134828292,1509
2621.6615107255006,1508
2623.458509413115,1433
2625.2551311858597,1461
2627.0513763385347,1462
2628.8472451660223,1535
2630.6427379632833,1414
2632.4378550253564,1489
2634.232596647359,1497
2636.026963124488,1487
2637.8209547520187,1460
2639.6145718253065,1475
2641.407814639785,1503
2643.200683490966,1459
2644.9931786744414,1449
2646.7853004858807,1452
2648.577049221034,1368
2650.3684251757277,1434
2652.1594286458712,1401
2653.9500599274484,1405
2655.740319316525,1392
2657.5302071092437,1391
2659.3197236018286,1412
2661.10886909058,1378
2662.8976438718782,1412
2664.686048242183,1398
2666.4740824980327,1425
2668.2617469360443,1376
2670.0490418529134,1400
2671.8359675454153,1333
2673.622524310403,1340
2675.408712444811,1387
2677.1945322456495,1356
2678.979984010009,1342
2680.76506803506,1332
2682.5497846180497,1354
2684.334134056306,1411
2686.1181166472343,1332
2687.9017326883213,1356
2689.6849824771293,1346
2691.4678663113013,1337
2693.2503844885596,1351
2695.032537306705,1337
2696.8143250636167,1313
2698.5957480572542,1273
2700.3768065856534,1383
2702.1575009469316,1334
2703.937831439283,1300
2705.717798360982,1324
2707.4974020103837,1369
2709.276642685917,1260
2711.055520686095,1309
2712.834036309506,1309
2714.612189854819,1360
2716.389981620782,1284
2718.1674119062204,1302
2719.944481010041,1337
2721.721189231226,1276
2723.4975368688415,1364
2725.273524222027,1282
2727.0491515900053,1305
2728.824419272075,1275
2730.5993275676146,1287
2732.3738767760838,1292
2734.148067197016,1288
2735.921899130031,1338
2737.6953728748194,1286
2739.468488731156,1360
2741.2412469988926,1338
2743.0136479779617,1280
2744.785691968372,1244
2746.5573792702116,1254
2748.3287101836504,1332
2750.099685008934,1315
2751.870304046388,1301
2753.640567596418,1209
2755.4104759595057,1304
2757.1800294362156,1343
2758.949228327187,1310
2760.7180729331412,1223
2762.486563554877,1283
2764.254700493272,1283
2766.022484049284,1302
2767.789914523947,1294
2769.5569922183786,1243
2771.3237174337705,1274
2773.090090471394,1242
2774.8561116326036,1242
2776.6217812188274,1288
2778.3870995315756,1281
2780.1520668724356,1292
2781.9166835430747,1305
2783.6809498452394,1268
2785.444866080754,1252
2787.2084325515225,1347
2788.971649559527,1282
2790.73451740683,1291
2792.4970363955713,1263
2794.2592068279705,1299
2796.0210290063264,1285
2797.7825032330147,1259
2799.543629810493,1268
2801.304409041296,1288
2803.0648412280366,1311
2804.8249266734088,1267
2806.5846656801846,1285
2808.344058551212,1285
2810.1031055894246,1300
2811.8618070978273,1318
2813.6201633795085,1246
2815.378174737636,1324
2817.1358414754536,1330
2818.893163896285,1248
2820.6501423035334,1234
2822.4067770006814,1267
2824.1630682912883,1317
2825.9190164789957,1278
2827.6746218675207,1285
2829.429884760661,1297
2831.184805462294,1263
2832.9393842763743,1268
2834.693621506936,1251
2836.4475174580916,1339
2838.201072434034,1351
2839.954286739034,1276
2841.707160677441,1264
2843.459694553685,1291
2845.2118886722724,1261
2846.96374333779,1267
2848.7152588549034,1337
2850.4664355283567,1328
2852.217273662973,1278
2853.9677735636546,1297
2855.7179355353833,1315
2857.4677598832186,1256
2859.217246912299,1339
2860.9663969278427,1294
2862.715210235146,1284
2864.4636871395846,1251
2866.211827946614,1329
2867.9596329617652,1254
2869.7071024906536,1280
2871.4542368389684,1318
2873.20103631248,1307
2874.947501217038,1263
2876.6936318585695,1298
2878.4394285430812,1274
2880.1848915766604,1286
2881.9300212654707,1286
2883.6748179157553,1283
2885.4192818338374,1247
2887.1634133261173,1291
2888.907212699077,1304
2890.6506802592744,1276
2892.393816313348,1312
2894.1366211680142,1228
2895.8790951300693,1295
2897.621238506388,1275
2899.363051603925,1280
2901.1045347297118,1276
2902.8456881908596,1301
2904.58651229456,1291
2906.327007348081,1281
2908.067173658772,1261
2909.8070115340597,1295
2911.5465212814497,1281
2913.285703208527,1276
2915.0245576229563,1290
2916.7630848324807,1266
2918.5012851449196,1267
2920.2391588681758,1273
2921.976706310227,1225
2923.7139277791334,1278
2925.4508235830313,1266
2927.187394030137,1259
2928.923639428745,1235
2930.6595600872306,1307
2932.395156314046,1265
2934.1304284177218,1258
2935.8653767068713,1305
2937.6000014901815,1240
2939.3343030764227,1326
2941.068281774442,1300
2942.8019378931644,1291
2944.5352717415976,1332
2946.2682836288236,1230
2948.0009738640065,1293
2949.7333427563885,1251
2951.465390615289,1266
2953.1971177501086,1271
2954.9285244703265,1251
2956.6596110855,1276
2958.3903779052657,1206
2960.1208252393385,1270
2961.8509533975125,1232
2963.5807626896617,1250
2965.3102534257378,1293
2967.0394259157715,1270
2968.768280469873,1304
2970.496817398232,1313
2972.2250370111146,1249
2973.952939618869,1252
2975.6805255319196,1307
2977.4077950607707,1251
2979.134748516006,1259
2980.861386208289,1277
2982.587708448359,1278
2984.313715547037,1281
2986.039407815222,1269
2987.764785563891,1214
2989.489849104102,1300
2991.2145987469908,1243
2992.9390348037705,1291
2994.6631575857346,1295
2996.3869674042576,1216
2998.1104645707887,1301
2999.83364939686,1230
3001.5565221940783,1256
3003.2790832741334,1278
3005.0013329487924,1280
3006.7232715298996,1272
3008.4448993293804,1244
3010.166216659239,1239
3011.887223831558,1259
3013.607921158498,1248
3015.3283089522993,1270
3017.0483875252826,1250
3018.7681571898443,1239
3020.4876182584626,1273
3022.2067710436927,1293
3023.9256158581707,1274
3025.644153014609,1219
3027.362382825801,1290
3029.0803056046193,1317
3030.797921664012,1300
3032.5152313170106,1269
3034.2322348767225,1301
3035.9489326563353,1264
3037.665324969115,1240
3039.3814121284063,1252
3041.097194447633,1299
3042.812672240299,1237
3044.5278458199855,1229
3046.2427155003525,1267
3047.9572815951406,1311
3049.671544418167,1314
3051.38550428333,1251
3053.0991615046073,1304
3054.812516396051,1219
3056.5255692717974,1247
3058.2383204460575,1256
3059.9507702331257,1254
3061.662918947372,1231
3063.3747669032446,1231
3065.0863144152736,1260
3066.7975617980674,1259
3068.508509366309,1254
3070.219157434767,1233
3071.9295063182844,1289
3073.639556331785,1231
3075.3493077902704,1225
3077.058761008821,1261
3078.7679163025964,1221
3080.476773986837,1251
3082.1853343768594,1270
3083.89359778806,1274
3085.6015645359153,1288
3087.3092349359786,1249
3089.016609303884,1221
3090.7236879553434,1261
3092.4304712061476,1252
3094.136959372166,1296
3095.843152769349,1296
3097.5490517137237,1330
3099.2546565213966,1266
3100.959967508554,1281
3102.66498499146,1273
3104.3697092864577,1283
3106.0741407099695,1245
3107.778279578498,1264
3109.482126208622,1234
3111.1856809170004,1198
3112.8889440203716,1316
3114.5919158355528,1251
3116.294596679439,1324
3117.996986869006,1285
3119.6990867213062,1277
3121.4008965534726,1326
3123.102416682717,1266
3124.803647426329,1298
3126.5045891016784,1286
3128.205242026213,1272
3129.90560651746,1253
3131.605682893025,1293
3133.3054714705922,1268
3135.0049725679282,1315
3136.7041865028714,1279
3138.4031135933465,1296
3140.101754157353,1283
3141.800108512971,1274
3143.498176978357,1297
3145.1959598717494,1252
3146.8934575114636,1256
3148.5906702158954,1239
3150.2875983035183,1236
3151.9842420928853,1285
3153.680601902627,1225
3155.376678051456,1268
3157.07247085816,1224
3158.767980641609,1273
3160.463207720748,1245
3162.158152414606,1259
3163.8528150422862,1274
3165.5471959229726,1274
3167.2412953759303,1248
3168.9351137204976,1237
3170.628651276098,1265
3172.3219083622307,1232
3174.014885298474,1229
3175.707582404485,1280
3177.4000000000005,1233
3179.092138404835,1264
3180.7839979388846,1285
3182.47557892212,1276
3184.166881674594,1242
3185.8579065164386,1270
3187.5486537678626,1291
3189.2391237491547,1237
3190.9293167806827,1231
3192.6192331828934,1270
3194.3088732763117,1253
3195.998237381542,1256
3197.687325819268,1263
3199.376138910251,1278
3201.064676975334,1252
3202.7529403354347,1192
3204.4409293115523,1238
3206.1286442247647,1225
3207.816085396229,1265
3209.5032531471825,1282
3211.190147798936,1286
3212.8767696728846,1257
3214.5631190905015,1227
3216.2491963733373,1249
3217.9350018430214,1202
3219.6205358212637,1268
3221.305798629851,1181
3222.990790590651,1288
3224.6755120256103,1209
3226.359963256751,1261
3228.0441446061795,1277
3229.7280563960758,1247
3231.411698948703,1261
3233.0950725863995,1249
3234.778177631587,1254
3236.461014406761,1297
3238.1435832345005,1233
3239.8258844374595,1277
3241.507918338374,1264
3243.1896852600576,1227
3244.8711855254023,1253
3246.552419457381,1214
3248.233387379042,1272
3249.914089613516,1215
3251.59452648401,1232
3253.274698313813,1231
3254.95460542629,1212
3256.6342481448855,1235
3258.313626793125,1197
3259.9927416946084,1233
3261.6715931730196,1268
3263.3501815521176,1178
3265.0285071557437,1248
3266.706570307815,1250
3268.3843713323286,1245
3270.0619105533615,1226
3271.739188295068,1250
3273.4162048816834,1218
3275.0929606375184,1267
3276.769455886966,1269
3278.445690954498,1247
3280.1216661646613,1276
3281.797381842087,1275
3283.4728383114807,1231
3285.1480358976296,1266
3286.8229749253996,1212
3288.4976557197333,1214
3290.172078605655,1238
3291.846243908266,1253
3293.5201519527463,1254
3295.193803064357,1252
3296.8671975684374,1286
3298.5403357904024,1240
3300.21321805575,1199
3301.8858446900567,1243
3303.558216018975,1276
3305.23033236824,1231
3306.9021940636603,1248
3308.57380143113,1239
3310.2451547966184,1245
3311.916254486174,1242
3313.5871008259246,1239
3315.2576941420766,1288
3316.9280347609147,1166
3318.5981230088046,1263
3320.2679592121895,1245
3321.9375436975924,1247
3323.606876791612,1176
3325.27595882093,1254
3326.944790112305,1206
3328.6133709925753,1255
3330.2817017886573,1253
3331.949782827547,1247
3333.617614436319,1238
3335.2851969421245,1170
3336.952530672199,1199
3338.619615953853,1247
3340.286453114475,1287
3341.9530424815357,1244
3343.619384382583,1323
3345.2854791452437,1234
3346.951327097224,1232
3348.6169285663073,1258
3350.2822838803577,1265
3351.947393367319,1210
3353.61225735521,1284
3355.2768761721345,1244
3356.9412501462693,1272
3358.605379605873,1216
3360.2692648792827,1192
3361.9329062949146,1297
3363.596304181263,1244
