CollectionTime,6/26/2024 3:06:42 PM
ExposureUsed,3
CalibratedSpectrum
-962.7078968117929,1448
-959.9714848408522,1541
-957.2358232597828,1535
-954.5009119013725,1596
-951.7667505983302,1490
-949.0333391832855,1539
-946.3006774887896,1543
-943.5687653473143,1578
-940.837602591253,1620
-938.1071890529199,1559
-935.3775245645503,1529
-932.6486089583007,1626
-929.9204420662485,1648
-927.1930237203925,1667
-924.4663537526524,1618
-921.7404319948689,1533
-919.0152582788041,1570
-916.2908324361409,1580
-913.5671542984834,1595
-910.8442236973568,1616
-908.1220404642074,1554
-905.4006044304027,1605
-902.679915427231,1604
-899.959973285902,1591
-897.2407778375464,1580
-894.5223289132158,1635
-891.8046263438832,1583
-889.0876699604426,1572
-886.3714595937089,1576
-883.6559950744183,1493
-880.9412762332282,1610
-878.2273029007168,1513
-875.5140749073835,1512
-872.8015920836489,1623
-870.0898542598545,1552
-867.3788612662631,1590
-864.6686129330585,1530
-861.9591090903457,1580
-859.2503495681506,1478
-856.5423341964203,1586
-853.8350628050229,1604
-851.1285352237478,1566
-848.4227512823054,1556
-845.7177108103272,1530
-843.0134136373656,1596
-840.3098595928943,1578
-837.6070485063082,1610
-834.9049802069229,1603
-832.2036545239757,1581
-829.5030712866244,1618
-826.8032303239481,1636
-824.1041314649472,1585
-821.4057745385428,1603
-818.7081593735775,1587
-816.0112857988148,1584
-813.3151536429393,1546
-810.6197627345566,1590
-807.9251129021936,1555
-805.2312039742981,1527
-802.5380357792392,1552
-799.8456081453069,1540
-797.1539209007124,1504
-794.462973873588,1546
-791.772766891987,1569
-789.083299783884,1548
-786.3945723771743,1641
-783.7065844996748,1624
-781.0193359791231,1602
-778.3328266431781,1578
-775.6470563194197,1582
-772.9620248353489,1600
-770.2777320183878,1612
-767.5941776958798,1587
-764.9113616950891,1582
-762.2292838432011,1532
-759.5479439673222,1648
-756.8673418944801,1582
-754.1874774516235,1566
-751.5083504656222,1582
-748.8299607632671,1571
-746.15230817127,1640
-743.475392516264,1588
-740.7992136248035,1641
-738.1237713233636,1586
-735.4490654383407,1588
-732.7750957960521,1622
-730.1018622227365,1588
-727.4293645445534,1629
-724.7576025875837,1593
-722.0865761778291,1569
-719.4162851412126,1650
-716.7467293035781,1604
-714.0779084906909,1682
-711.409822528237,1678
-708.7424712418238,1601
-706.0758544569796,1608
-703.4099719991541,1569
-700.7448236937178,1631
-698.0804093659622,1700
-695.4167288411002,1685
-692.7537819442656,1696
-690.0915685005134,1668
-687.4300883348199,1666
-684.7693412720819,1660
-682.1093271371178,1683
-679.4500457546669,1683
-676.7914969493897,1701
-674.1336805458676,1718
-671.4765963686034,1645
-668.8202442420206,1665
-666.1646239904642,1686
-663.5097354382001,1687
-660.8555784094151,1691
-658.2021527282176,1711
-655.5494582186366,1704
-652.8974947046223,1769
-650.2462620100463,1720
-647.5957599587009,1723
-644.9459883742998,1684
-642.2969470804776,1717
-639.6486359007902,1756
-637.0010546587141,1724
-634.3542031776476,1760
-631.7080812809096,1678
-629.0626887917401,1732
-626.4180255333008,1675
-623.7740913286734,1724
-621.1308860008619,1732
-618.4884093727904,1714
-615.8466612673046,1749
-613.2056415071715,1640
-610.5653499150785,1733
-607.9257863136347,1711
-605.28695052537,1669
-602.6488423727357,1710
-600.0114616781036,1743
-597.3748082637674,1755
-594.7388819519412,1735
-592.1036825647604,1744
-589.4692099242818,1728
-586.8354638524829,1794
-584.2024441712624,1739
-581.5701507024403,1741
-578.9385832677575,1751
-576.3077416888759,1778
-573.6776257873787,1695
-571.0482353847704,1723
-568.4195703024757,1758
-565.7916303618415,1834
-563.164415384135,1782
-560.5379251905453,1696
-557.9121596021815,1788
-555.2871184400748,1828
-552.6628015251767,1717
-550.0392086783606,1703
-547.4163397204204,1785
-544.794194472071,1722
-542.1727727539491,1801
-539.5520743866118,1695
-536.9320991905377,1798
-534.3128469861261,1840
-531.6943175936979,1870
-529.0765108334947,1838
-526.4594265256793,1890
-523.8430644903358,2053
-521.2274245474689,2134
-518.612506517005,2288
-515.9983102187913,2332
-513.3848354725959,2436
-510.77208209810846,2492
-508.16004991493924,2665
-505.5487387426199,2651
-502.9381484006032,2920
-500.3282787082628,2859
-497.71912948489364,2969
-495.1107005497117,2981
-492.5029917218539,2739
-489.8960028203786,2568
-487.28973366426493,2414
-484.68418407241325,2243
-482.07935386364494,2123
-479.47524285670266,2064
-476.87185087025,1993
-474.2691777228715,2093
-471.66722323307334,2091
-469.0659872192821,2049
-466.4654694998459,2024
-463.86566989303384,2019
-461.26658821703614,1963
-458.66822428996414,1996
-456.07057792985,1949
-453.4736489546475,1993
-450.877437182231,1957
-448.28194243039627,1892
-445.68716451686,1972
-443.09310325926003,1997
-440.49975847515555,1961
-437.9071299820263,1937
-435.31521759727354,1949
-432.72402113821954,1881
-430.13354042210767,1895
-427.5437752661022,1868
-424.95472548728867,1989
-422.36639090267386,2078
-419.7787713291855,2025
-417.1918665836721,2044
-414.60567648290385,1991
-412.0202008435715,1918
-409.4354394822874,2011
-406.8513922155845,2055
-404.26805885991723,1974
-401.685439231661,2010
-399.103533147112,2067
-396.522340422488,2004
-393.9418608739278,1972
-391.3620943174908,1990
-388.7830405691583,1942
-386.2046994448317,1860
-383.6270707603344,1696
-381.05015433141045,1627
-378.473949973725,1528
-375.8984575028645,1400
-373.32367673433623,1265
-370.74960748356875,1222
-368.1762495659117,1094
-365.60360279663576,928
-363.03166699093265,851
-360.4604419639154,721
-357.8899275306178,717
-355.32012350599507,650
-352.7510297049233,607
-350.1826459421999,584
-347.61497203254316,580
-345.04800779059235,545
-342.4817530309082,510
-339.91620756797226,517
-337.35137121618743,532
-334.7872437898774,490
-332.22382510328725,533
-329.66111497058273,561
-327.09911320585127,599
-324.53781962310075,576
-321.9772340362607,595
-319.4173562591816,638
-316.8581861056348,653
-314.2997233893127,670
-311.7419679238294,695
-309.1849195227194,662
-306.62857799943856,591
-304.0729431673641,544
-301.51801483979375,549
-298.963792829947,554
-296.41027695096386,627
-293.85746701590574,659
-291.3053628377552,675
-288.7539642294155,671
-286.2032710037115,664
-283.65328297338897,690
-281.1039999511146,667
-278.5554217494762,737
-276.007548180983,648
-273.4603790580651,636
-270.9139141930734,637
-268.3681533982807,607
-265.8230964858798,682
-263.27874326798565,675
-260.7350935566336,707
-258.1921471637804,720
-255.6499039013039,737
-253.10836358100266,695
-250.56752601459698,637
-248.02739101372765,753
-245.48795838995704,756
-242.94922795476816,699
-240.41119951956557,747
-237.8738728956746,895
-235.33724789434166,798
-232.80132432673452,776
-230.2661020039418,919
-227.73158073697357,917
-225.19776033676033,841
-222.66464061415422,828
-220.1322213799284,848
-217.60050244477725,807
-215.06948361931552,827
-212.53916471408013,763
-210.00954553952818,800
-207.48062590603843,838
-204.9524056239104,1005
-202.4248845033651,985
-199.8980623545441,951
-197.37193898751036,927
-194.84651421224817,934
-192.32178783866232,910
-189.79775967657952,907
-187.27442953574644,920
-184.7517972258321,839
-182.2298625564256,821
-179.7086253370378,964
-177.18808537710026,1100
-174.66824248596583,1026
-172.14909647290835,1073
-169.6306471471229,1031
-167.11289431772548,984
-164.59583779375328,1007
-162.07947738416453,963
-159.5638128978386,967
-157.04884414357605,1153
-154.53457093009854,1083
-152.02099306604828,1115
-149.50811035998936,1154
-146.99592262040665,1113
-144.48442965570587,1110
-141.97363127421409,1213
-139.46352728417958,1414
-136.95411749377126,1416
-134.44540171107985,1526
-131.93737974411636,1402
-129.43005140081357,1305
-126.92341648902493,1259
-124.41747481652521,1315
-121.91222619101006,1393
-119.40767042009657,1326
-116.90380731132257,1237
-114.40063667214702,1442
-111.8981583099503,1540
-109.3963720320337,1583
-106.89527764561933,1390
-104.39487495785067,1570
-101.89516377579241,1667
-99.39614390642998,1633
-96.89781515667039,1664
-94.40017733334128,1715
-91.90323024319173,1812
-89.40697369289148,1782
-86.91140748903172,1678
-84.41653143812482,1792
-81.92234534660395,1895
-79.42884902082358,1831
-76.93604226705907,1849
-74.4439248915071,2068
-71.95249670028534,1989
-69.46175749943245,2153
-66.97170709490854,2338
-64.48234529259423,2766
-61.99367189829195,2957
-59.50568671772464,2819
-57.01838955653636,3141
-54.53178022029283,3113
-52.045858514480074,3315
-49.560624244506016,3621
-47.07607721569923,3641
-44.59221723330904,3543
-42.10904410250669,4035
-39.62655762838392,4727
-37.14475761595372,5545
-34.66364387015028,6030
-32.18321619582866,6753
-29.70347439776515,7317
-27.224418280657005,9296
-24.74604764912317,11319
-22.26836230770266,16035
-19.7913620608565,23846
-17.315046712966478,35339
-14.83941606833514,41199
-12.36446993118659,65039
-9.89020810566592,65039
-7.416630395839093,65039
-4.94373660569363,65039
-2.471526539137585,65039
-6.821210263296962E-13,65039
2.47084320796705,65039
4.941003281093458,65039
7.410480415786196,65039
9.879274808531363,65039
12.347386655893956,65039
14.814816154518212,65039
17.28156350112681,65039
19.74762889252179,65039
22.21301252558385,65039
24.67771459727237,65039
27.141735304626195,43907
29.605074844762612,16803
32.06773341487792,13835
34.52971121224755,11956
36.99100843422559,11035
39.45162527824516,9615
41.91156194181792,8840
44.370818622535126,9139
46.82939551806646,9064
49.287292826160524,10719
51.74451074464503,11131
54.201049471426245,8318
56.65690920448981,5947
59.112090141899785,3928
61.56659248179983,3806
64.02041642241159,4019
66.4735621620365,4133
68.92602989905402,3206
71.37781983192338,3111
73.82893215918205,3305
76.27936707944684,2757
78.72912479141326,2710
81.17820549385567,2812
83.62660938562783,2847
86.07433666566146,2734
88.5213875329681,2950
90.96776218663751,2781
93.41346082583925,2608
95.85848364982041,2227
98.30283085790859,1993
100.7465026495089,2173
103.18949922410604,2466
105.63182078126385,2002
108.07346752062438,1985
110.51443964190923,2044
112.95473734491827,1958
115.39436082953114,1691
117.83331029570547,1739
120.27158594347827,1997
122.7091879729652,1563
125.1461165843615,1462
127.58237197794062,1394
130.01795435405518,1198
132.4528639131364,1259
134.88710085569494,1586
137.32066538231982,1647
139.75355769367923,1406
142.1857779905207,1613
144.61732647366978,1649
147.04820334403132,1342
149.47840880258934,1256
151.90794305040674,1629
154.33680628862487,1734
156.76499871846443,1722
159.19252054122433,1877
161.61937195828352,1915
164.04555317109896,2035
166.47106438120693,2352
168.89590579022217,2788
171.320077599839,2778
173.7435800118302,2908
176.16641322804742,2934
178.58857745042144,3078
181.01007288096173,3173
183.43089972175687,3292
185.85105817497413,3327
188.27054844285988,3294
190.6893707277394,3246
193.10752523201643,3454
195.5250121581745,3511
197.9418317087751,3636
200.3579840864594,3691
202.7734694939469,3612
205.18828813403627,3659
207.6024402096051,3591
210.01592592360964,3707
212.42874547908548,3818
214.84089907914665,3669
217.2523869269868,3653
219.66320922587727,3762
222.0733661791695,3716
224.48285799029293,3704
226.8916848627572,3804
229.29984700014882,3952
231.7073446061355,3811
234.11417788446204,3913
236.520347038953,3926
238.92585227351185,4137
241.33069379212054,4219
243.73487179884035,4141
246.1383864978112,4089
248.541238093252,4113
250.9434267894609,4164
253.34495279081432,4170
255.74581630176783,4176
258.1460175268563,4272
260.54555667069314,4269
262.9444339379703,4091
265.3426495334594,4051
267.7402036620107,4058
270.1370965285529,3961
272.53332833809407,3835
274.9288992957214,3702
277.32380960660055,3723
279.718059475976,3688
282.1116491091717,3611
284.5045787115897,3602
286.89684848871195,3590
289.2884586460981,3559
291.67940938938807,3627
294.0697009242996,3536
296.4593334566299,3466
298.84830719225477,3511
301.23662233712923,3580
303.6242790972866,3506
306.01127767884,3501
308.39761828798066,3423
310.78330113097934,3422
313.16832641418534,3363
315.5526943440269,3435
317.9364051270112,3391
320.3194589697242,3345
322.70185607883093,3351
325.0835966610754,3289
327.4646809232805,3302
329.8451090723478,3268
332.2248813152577,3382
334.6039978590701,3148
336.9824589109231,3214
339.36026467803447,3199
341.7374153677,3177
344.113911187295,3065
346.48975234427337,3142
348.8649390461686,3113
351.2394715005918,3175
353.61334991523415,3182
355.9865744978655,3129
358.35914545633375,3106
360.73106299856715,3188
363.10232733257146,3074
365.47293866643247,3105
367.84289720831396,3054
370.2122031664593,2884
372.5808567491905,2947
374.9488581649083,3029
377.31620762209275,3087
379.6829053293021,3008
382.0489514951745,3149
384.4143463284262,3117
386.7790900378528,2927
389.14318283232853,2969
391.50662492080653,2997
393.86941651231916,2902
396.23155781597745,2880
398.5930490409713,2943
400.9538903965696,2925
403.3140820921202,2940
405.6736243370498,2975
408.03251734086336,2908
410.3907613131465,2858
412.74835646356166,2889
415.10530300185144,2847
417.4616011378372,2901
419.81725108141893,2919
422.1722530425758,2979
424.5266072313656,2857
426.880313857925,2939
429.2333731324701,2892
431.58578526529516,2845
433.9375504667738,2873
436.2886689473588,2827
438.63914091758113,2729
440.9889665880513,2835
443.33814616945835,2742
445.68667987257015,2760
448.03456790823395,2774
450.3818104873759,2893
452.72840782100013,2861
455.07436012019105,2767
457.41966759611057,2841
459.7643304600007,2894
462.10834892318155,2836
464.4517231970525,2853
466.79445349309174,2949
469.1365400228566,2868
471.4779829979826,2927
473.81878263018564,2909
476.15893913125876,2918
478.4984527130747,2997
480.8373235875855,2950
483.17555196682144,2960
485.5131380628919,3001
487.8500820879857,3091
490.1863842543697,3173
492.52204477439034,3367
494.8570638604725,3546
497.1914417251204,3762
499.52517858091653,4115
501.85827464052306,4194
504.19073011668036,4263
506.5225452222086,4461
508.85372017000566,4318
511.18425517304956,4157
513.514150444396,4379
515.8434061971808,4692
518.1720226446176,5184
520.4999999999999,5488
522.8273384766991,5779
525.1540382881666,5811
527.480099647932,5804
529.8055227696037,5043
532.1303078668694,3990
534.454455153496,3229
536.777964843328,2922
539.1008371502907,2775
541.4230722883866,2718
543.744670471698,2790
546.0656319143858,2683
548.3859568306899,2767
550.7056454349294,2705
553.0246979415016,2649
555.3431145648834,2612
557.6608955196306,2599
559.978041020377,2642
562.2945512818363,2631
564.6104265188006,2670
566.9256669461412,2638
569.2402727788082,2668
571.5542442318302,2657
573.8675815203156,2650
576.1802848594508,2643
578.4923544645015,2592
580.8037905508126,2628
583.114593333807,2622
585.4247630289875,2621
587.7342998519354,2586
590.0432040183106,2506
592.3514757438526,2611
594.6591152443794,2599
596.9661227357875,2608
599.2724984340531,2619
601.578242555231,2679
603.8833553154542,2622
606.1878369309362,2625
608.4916876179676,2700
610.7949075929192,2684
613.0974970722403,2626
615.3994562724587,2689
617.7007854101818,2684
620.0014847020951,2600
622.3015543649641,2611
624.6009946156324,2627
626.8998056710224,2552
629.1979877481361,2638
631.4955410640538,2631
633.7924658359349,2615
636.0887622810175,2651
638.3844306166192,2625
640.6794710601358,2653
642.9738838290426,2692
645.2676691408932,2743
647.5608272133207,2640
649.853358264037,2604
652.1452625108324,2609
654.4365401715764,2683
656.7271914642178,2570
659.0172166067838,2592
661.3066158173809,2570
663.5953893141935,2684
665.8835373154867,2691
668.1710600396028,2736
670.4579577049639,2706
672.7442305300709,2641
675.0298787335033,2642
677.3149025339197,2684
679.599302150058,2728
681.8830778007342,2699
684.1662297048437,2764
686.4487580813608,2728
688.7306631493387,2683
691.0119451279091,2644
693.2926042362834,2637
695.5726406937516,2561
697.8520547196814,2777
700.1308465335215,2641
702.4090163547982,2646
704.6865644031171,2540
706.9634908981619,2648
709.2397960596965,2782
711.5154801075631,2656
713.7905432616823,2614
716.0649857420548,2677
718.3388077687592,2587
720.612009561953,2720
722.8845913418733,2667
725.1565533288352,2618
727.427895743234,2694
729.6986188055427,2690
731.9687227363137,2639
734.238207756178,2674
736.5070740858458,2564
738.7753219461066,2544
741.0429515578281,2626
743.3099631419569,2641
745.5763569195191,2631
747.8421331116193,2588
750.1072919394409,2608
752.3718336242467,2580
754.6357583873777,2655
756.8990664502545,2619
759.1617580343765,2585
761.423833361321,2646
763.6852926527457,2595
765.9461361303862,2564
768.206364016058,2603
770.4659765316536,2587
772.7249738991469,2671
774.9833563405886,2758
777.2411240781092,2674
779.4982773339183,2648
781.7548163303044,2621
784.010741289634,2717
786.2660524343538,2690
788.5207499869881,2695
790.7748341701416,2737
793.0283052064964,2720
795.2811633188143,2656
797.5334087299362,2690
799.7850416627813,2724
802.0360623403484,2670
804.2864709857143,2695
806.5362678220353,2708
808.7854530725468,2732
811.0340269605625,2651
813.2819897094754,2627
815.5293415427581,2625
817.77608268396,2623
820.0222133567116,2689
822.2677337847211,2646
824.5126441917765,2609
826.7569448017433,2558
829.0006358385675,2687
831.2437175262731,2609
833.4861900889629,2591
835.7280537508192,2693
837.9693087361026,2611
840.2099552691533,2698
842.4499935743896,2688
844.689423876309,2582
846.9282463994886,2667
849.1664613685833,2596
851.4040690083276,2664
853.6410695435349,2710
855.877463199097,2615
858.1132501999847,2642
860.3484307712487,2599
862.5830051380175,2593
864.8169735254988,2728
867.0503361589791,2720
869.2830932638243,2682
871.5152450654786,2698
873.7467917894654,2672
875.9777336613873,2666
878.2080709069252,2612
880.4378037518389,2689
882.666932421968,2717
884.8954571432301,2694
887.1233781416219,2729
889.3506956432192,2695
891.5774098741766,2719
893.803521060728,2707
896.0290294291852,2763
898.2539352059397,2703
900.4782386174619,2661
902.7019398903011,2644
904.925039251085,2701
907.147536926521,2687
909.3694331433943,2614
911.59072812857,2740
913.8114221089921,2715
916.0315153116827,2685
918.2510079637437,2685
920.4699002923547,2668
922.6881925247761,2661
924.905884888345,2626
927.1229776104793,2658
929.3394709186747,2672
931.555365040506,2585
933.7706602036275,2578
935.9853566357709,2645
938.1994545647489,2596
940.4129542184515,2590
942.6258558248488,2647
944.8381596119883,2700
947.0498658079974,2730
949.2609746410825,2728
951.4714863395287,2676
953.6814011316998,2692
955.8907192460387,2679
958.0994409110671,2604
960.3075663553858,2614
962.5150958076741,2641
964.7220294966913,2581
966.928367651274,2674
969.1341105003388,2559
971.3392582728806,2574
973.5438111979742,2526
975.747769504772,2607
977.9511334225061,2545
980.153903180487,2539
982.3560790081052,2602
984.5576611348289,2529
986.7586497902058,2578
988.9590452038618,2496
991.158847605503,2429
993.3580572249133,2521
995.5566742919558,2390
997.7546990365728,2475
999.952131688785,2362
1002.1489724786926,2468
1004.3452216364743,2353
1006.5408793923874,2382
1008.7359459767691,2347
1010.9304216200343,2335
1013.1243065526781,2327
1015.3176010052733,2373
1017.510305208472,2322
1019.7024193930064,2300
1021.8939437896848,2350
1024.0848786293977,2252
1026.2752241431122,2363
1028.4649805618747,2237
1030.6541481168115,2226
1032.842727039127,2185
1035.0307175601051,2314
1037.2181199111074,2273
1039.4049343235752,2254
1041.591161029029,2246
1043.7768002590683,2222
1045.9618522453698,2226
1048.1463172196918,2244
1050.3301954138697,2271
1052.513487059818,2194
1054.69619238953,2234
1056.8783116350783,2240
1059.0598450286152,2221
1061.2407928023704,2201
1063.4211551886528,2345
1065.6009324198508,2132
1067.780124728432,2257
1069.9587323469414,2195
1072.1367555080046,2226
1074.314194444325,2176
1076.4910493886855,2191
1078.667320573947,2203
1080.843008233051,2106
1083.0181125990161,2164
1085.1926339049414,2163
1087.3665723840027,2231
1089.5399282694575,2171
1091.7127017946405,2177
1093.8848931929647,2119
1096.0565026979243,2243
1098.2275305430899,2177
1100.3979769621128,2116
1102.567842188722,2120
1104.737126456726,2116
1106.9058300000124,2136
1109.0739530525475,2071
1111.2414958483764,2071
1113.4084586216231,2072
1115.5748416064907,2173
1117.7406450372605,2170
1119.9058691482942,2029
1122.0705141740304,2144
1124.2345803489884,2115
1126.3980679077658,2173
1128.5609770850388,2129
1130.7233081155623,2120
1132.8850612341707,2141
1135.0462366757774,2232
1137.2068346753745,2128
1139.3668554680326,2085
1141.526299288901,2100
1143.68516637321,2014
1145.8434569562655,2069
1148.001171273455,2082
1150.158309560244,2064
1152.3148720521767,2087
1154.470858984876,2084
1156.626270594044,2105
1158.7811071154629,2052
1160.9353687849912,2110
1163.089055838569,2040
1165.242168512213,2067
1167.3947070420209,2097
1169.5466716641677,2020
1171.6980626149075,2080
1173.8488801305748,2020
1175.9991244475814,2053
1178.1487958024186,2081
1180.2978944316555,2081
1182.4464205719428,2009
1184.5943744600072,2038
1186.7417563326567,2014
1188.8885664267755,2014
1191.0348049793297,2007
1193.1804722273619,2014
1195.325568407995,2062
1197.4700937584303,2086
1199.614048515948,2071
1201.7574329179074,2033
1203.900247201746,2032
1206.042491604982,2098
1208.1841663652099,2032
1210.3252717201053,1972
1212.465807907422,2033
1214.6057751649923,2020
1216.7451737307279,2024
1218.8840038426192,2130
1221.0222657387353,2134
1223.1599596572241,2000
1225.2970858363137,2075
1227.4336445143094,2101
1229.5696359295966,2110
1231.705060320639,2042
1233.8399179259786,2052
1235.9742089842384,2017
1238.107933734118,2012
1240.2410924143974,2091
1242.373685263935,2160
1244.5057125216676,2109
1246.6371744266116,2075
1248.7680712178621,2100
1250.898403134593,2098
1253.028170416058,2097
1255.1573733015875,2067
1257.2860120305932,2085
1259.4140868425648,2135
1261.54159797707,2123
1263.6685456737569,2114
1265.7949301723515,2097
1267.9207517126597,2140
1270.046010534565,2060
1272.1707068780306,2089
1274.2948409830983,2094
1276.4184130898889,2107
1278.541423438603,2099
1280.6638722695184,2106
1282.785759822993,2119
1284.9070863394636,2159
1287.0278520594447,2076
1289.1480572235314,2087
1291.2677020723963,2215
1293.3867868467923,2178
1295.5053117875495,2194
1297.623277135579,2139
1299.740683131868,2152
1301.8575300174857,2241
1303.973818033578,2258
1306.0895474213703,2134
1308.2047184221678,2222
1310.3193312773528,2209
1312.4333862283888,2187
1314.5468835168163,2238
1316.659823384255,2223
1318.7722060724045,2280
1320.8840318230418,2273
1322.9953008780249,2234
1325.1060134792888,2196
1327.2161698688478,2294
1329.3257702887959,2283
1331.4348149813054,2263
1333.5433041886276,2164
1335.6512381530933,2252
1337.7586171171101,2272
1339.8654413231675,2186
1341.9717110138317,2178
1344.0774264317488,2221
1346.1825878196432,2247
1348.2871954203192,2156
1350.3912494766587,2160
1352.4947502316231,2146
1354.5976979282532,2161
1356.7000928096686,2222
1358.8019351190665,2157
1360.9032250997243,2159
1363.0039629949988,2199
1365.1041490483235,2188
1367.2037835032133,2194
1369.3028666032606,2107
1371.401398592137,2189
1373.4993797135926,2189
1375.5968102114575,2214
1377.6936903296396,2121
1379.7900203121262,2157
1381.8858004029835,2202
1383.9810308463561,2190
1386.075711886469,2176
1388.1698437676241,2208
1390.2634267342032,2214
1392.356461030667,2172
1394.4489469015557,2262
1396.5408845914872,2262
1398.6322743451592,2284
1400.7231164073469,2218
1402.813411022907,2261
1404.903158436773,2256
1406.9923588939578,2220
1409.0810126395531,2232
1411.1691199187303,2249
1413.2566809767386,2209
1415.343696058907,2172
1417.4301654106425,2203
1419.5160892774315,2263
1421.6014679048399,2199
1423.6863015385125,2288
1425.7705904241707,2294
1427.8543348076178,2233
1429.9375349347342,2224
1432.0201910514802,2250
1434.102303403894,2298
1436.1838722380944,2297
1438.2648978002767,2303
1440.3453803367174,2271
1442.4253200937692,2342
1444.5047173178677,2356
1446.5835722555234,2320
1448.6618851533285,2398
1450.739656257952,2440
1452.8168858161434,2369
1454.8935740747306,2377
1456.96972128062,2428
1459.045327680797,2453
1461.120393522327,2537
1463.1949190523528,2515
1465.2689045180973,2579
1467.3423501668608,2550
1469.415256246024,2595
1471.4876230030463,2635
1473.559450685465,2558
1475.6307395408976,2687
1477.7014898170391,2671
1479.771701761665,2647
1481.8413756226287,2782
1483.9105116478618,2739
1485.9791100853772,2652
1488.0471711832643,2803
1490.1146951896926,2823
1492.1816823529098,2814
1494.2481329212433,2861
1496.3140471430984,2824
1498.3794252669609,2952
1500.4442675413939,2902
1502.5085742150404,2981
1504.572345536622,2991
1506.6355817549388,2910
1508.6982831188702,2991
1510.7604498773744,2955
1512.8220822794883,3034
1514.8831805743293,3051
1516.9437450110909,3115
1519.003775839048,3142
1521.0632733075522,3173
1523.1222376660367,3103
1525.1806691640113,3136
1527.2385680510652,3186
1529.2959345768668,3136
1531.3527689911643,3202
1533.4090715437833,3199
1535.4648424846291,3304
1537.5200820636855,3270
1539.5747905310159,3364
1541.6289681367616,3320
1543.6826151311434,3440
1545.7357317644614,3478
1547.7883182870937,3352
1549.8403749494987,3464
1551.8919020022113,3466
1553.9428996958477,3592
1555.9933682811015,3684
1558.0433080087469,3652
1560.0927191296346,3795
1562.1416018946961,3801
1564.1899565549415,3890
1566.2377833614592,3896
1568.2850825654164,3735
1570.3318544180606,3714
1572.3780991707158,3590
1574.423817074788,3665
1576.4690083817595,3575
1578.5136733431923,3399
1580.5578122107272,3211
1582.601425236085,3214
1584.6445126710646,3033
1586.6870747675434,3030
1588.7291117774776,2816
1590.7706239529034,2804
1592.8116115459347,2686
1594.8520748087658,2637
1596.8920139936686,2563
1598.9314293529933,2558
1600.9703211391711,2500
1603.008689604711,2459
1605.0465350022005,2335
1607.0838575843068,2320
1609.1206576037753,2379
1611.1569353134305,2290
1613.1926909661765,2231
1615.2279248149953,2256
1617.2626371129481,2219
1619.2968281131757,2149
1621.3304980688963,2197
1623.3636472334088,2179
1625.39627586009,2105
1627.428384202396,2151
1629.459972513861,2090
1631.4910410480993,2024
1633.5215900588028,2079
1635.551619799744,2033
1637.5811305247717,2004
1639.6101224878166,2091
1641.6385959428862,2058
1643.6665511440683,2081
1645.693988345528,2050
1647.7209078015112,2038
1649.7473097663405,2014
1651.7731944944203,2062
1653.7985622402307,2028
1655.823413258333,1924
1657.847747803366,1970
1659.8715661300494,1952
1661.8948684931793,2010
1663.9176551476316,1998
1665.9399263483624,1943
1667.9616823504057,1943
1669.982923408873,1974
1672.0036497789574,1972
1674.0238617159293,1953
1676.043559475138,1916
1678.0627433120121,1929
1680.081413482059,2003
1682.0995702408654,1953
1684.117213844096,1931
1686.134344547495,1917
1688.1509626068864,1965
1690.1670682781705,1878
1692.182661817329,1905
1694.1977434804217,1897
1696.2123135235875,2056
1698.226372203043,1918
1700.2399197750851,1880
1702.2529564960905,1924
1704.2654826225112,1978
1706.277498410882,1984
1708.2890041178139,1947
1710.2999999999988,1955
1712.3104863142066,1954
1714.3204633172854,1916
1716.329931266163,1946
1718.3388904178469,1957
1720.3473410294214,1853
1722.3552833580516,1982
1724.3627176609807,1903
1726.3696441955308,1966
1728.3760632191033,1912
1730.3819749891782,1936
1732.3873797633146,1853
1734.3922777991502,1944
1736.3966693544012,1947
1738.4005546868639,1861
1740.4039340544127,1958
1742.406807715001,1903
1744.4091759266616,1904
1746.4110389475054,1985
1748.4123970357223,1841
1750.413250449582,1888
1752.4135994474318,1905
1754.4134442876993,1880
1756.4127852288902,1915
1758.4116225295893,1857
1760.4099564484595,1843
1762.407787244244,1845
1764.405115175764,1846
1766.4019405019203,1831
1768.3982634816916,1847
1770.3940843741357,1803
1772.3894034383907,1904
1774.3842209336717,1832
1776.378537119274,1809
1778.372352254571,1870
1780.3656665990156,1801
1782.3584804121397,1840
1784.3507939535534,1864
1786.3426074829463,1847
1788.3339212600863,1870
1790.3247355448211,1807
1792.3150505970766,1843
1794.3048666768573,1808
1796.2941840442477,1855
1798.2830029594106,1848
1800.2713236825884,1823
1802.2591464741004,1809
1804.2464715943465,1781
1806.2332993038058,1827
1808.2196298630352,1856
1810.2054635326708,1820
1812.190800573428,1842
1814.175641246101,1842
1816.1599858115628,1846
1818.1438345307652,1859
1820.127187664738,1804
1822.1100454745924,1808
1824.092408221516,1835
1826.0742761667766,1792
1828.055649571721,1818
1830.0365286977735,1807
1832.0169138064398,1873
1833.9968051593014,1870
1835.9762030180214,1798
1837.9551076443408,1797
1839.9335193000788,1875
1841.9114382471344,1822
1843.888864747485,1857
1845.8657990631878,1765
1847.842241456378,1804
1849.8181921892697,1828
1851.7936515241558,1809
1853.7686197234098,1837
1855.7430970494815,1847
1857.7170837649014,1823
1859.6905801322787,1892
1861.6635864143004,1829
1863.6361028737338,1819
1865.608129773424,1865
1867.5796673762961,1843
1869.5507159453537,1873
1871.521275743678,1796
1873.4913470344313,1785
1875.4609300808534,1739
1877.4300251462632,1764
1879.3986324940588,1745
1881.366752387717,1894
1883.3343850907936,1774
1885.3015308669228,1855
1887.268189979819,1777
1889.2343626932739,1877
1891.2000492711595,1825
1893.1652499774254,1770
1895.1299650761011,1770
1897.0941948312952,1756
1899.0579395071945,1799
1901.0211993680641,1855
1902.98397467825,1845
1904.9462657021745,1844
1906.9080727043415,1897
1908.869395949332,1835
1910.8302357018065,1849
1912.790592226504,1786
1914.7504657882428,1870
1916.7098566519212,1827
1918.6687650825133,1831
1920.6271913450764,1842
1922.5851357047422,1900
1924.5425984267245,1777
1926.499579776314,1812
1928.4560800188833,1840
1930.4120994198802,1801
1932.367638244833,1782
1934.32269675935,1841
1936.2772752291175,1775
1938.231373919899,1867
1940.1849930975404,1866
1942.1381330279637,1831
1944.0907939771696,1809
1946.0429762112412,1770
1947.9946799963363,1820
1949.9459055986945,1810
1951.896653284633,1844
1953.8469233205478,1794
1955.7967159729142,1824
1957.7460315082863,1811
1959.6948701932974,1802
1961.6432322946594,1853
1963.5911180791632,1777
1965.5385278136787,1798
1967.4854617651545,1782
1969.4319202006182,1806
1971.377903387176,1822
1973.3234115920136,1853
1975.268445082395,1760
1977.2130041256642,1768
1979.1570889892423,1846
1981.1006999406304,1830
1983.04383724741,1805
1984.986501177238,1783
1986.928691997853,1801
1988.8704099770712,1812
1990.811655382789,1786
1992.7524284829801,1824
1994.692729545698,1844
1996.6325588390755,1771
1998.5719166313224,1743
2000.5108031907307,1760
2002.4492187856677,1833
2004.387163684583,1764
2006.3246381560011,1796
2008.2616424685298,1731
2010.1981768908527,1729
2012.1342416917332,1794
2014.069837140014,1707
2016.0049635046162,1794
2017.9396210545406,1788
2019.8738100588666,1715
2021.8075307867502,1762
2023.740783507431,1784
2025.6735684902228,1767
2027.6058860045214,1721
2029.5377363198004,1750
2031.4691197056118,1729
2033.4000364315875,1792
2035.3304867674374,1740
2037.260470982952,1742
2039.189989347998,1693
2041.1190421325232,1748
2043.047629606554,1784
2044.9757520401945,1778
2046.9034097036288,1725
2048.8306028671195,1780
2050.7573318010086,1720
2052.683596775716,1736
2054.609398061742,1727
2056.5347359296647,1720
2058.4596106501403,1789
2060.384022493906,1752
2062.3079717317764,1840
2064.231458634646,1684
2066.1544834734873,1701
2068.077046519352,1754
2069.99914804337,1748
2071.9207883167524,1740
2073.8419676107865,1728
2075.7626861968406,1734
2077.6829443463607,1736
2079.6027423308715,1739
2081.522080421977,1759
2083.440958891362,1713
2085.359378010786,1706
2087.2773380520907,1718
2089.194839287196,1711
2091.111881988101,1695
2093.0284664268825,1747
2094.9445928756973,1786
2096.86026160678,1825
2098.775472892446,1758
2100.690227005088,1768
2102.604524217178,1709
2104.5183648012676,1747
2106.431749029985,1733
2108.34467717604,1701
2110.2571495122206,1736
2112.169166311393,1742
2114.080727846503,1725
2115.9918343905747,1694
2117.902486216711,1711
2119.8126835980956,1716
2121.722426807987,1660
2123.6317161197285,1781
2125.5405518067364,1704
2127.448934142509,1776
2129.356863400624,1738
2131.264339854737,1741
2133.1713637785815,1706
2135.077935445972,1738
2136.9840551308002,1802
2138.889723107037,1672
2140.7949396487334,1744
2142.699705030018,1785
2144.6040195250994,1713
2146.507883408264,1752
2148.4112969538774,1724
2150.3142604363848,1731
2152.2167741303097,1781
2154.1188383102535,1730
2156.0204532508997,1744
2157.9216192270064,1683
2159.822336513414,1692
2161.7226053850413,1722
2163.622426116884,1751
2165.5217989840185,1661
2167.4207242616,1739
2169.319202224862,1724
2171.2172331491165,1706
2173.1148173097563,1710
2175.0119549822507,1693
2176.90864644215,1742
2178.8048919650823,1800
2180.7006918267534,1749
2182.596046302952,1734
2184.4909556695407,1755
2186.3854202024645,1707
2188.279440177746,1692
2190.173015871487,1748
2192.066147559868,1699
2193.958835519149,1687
2195.851080025667,1734
2197.7428813558417,1753
2199.6342397861667,1639
2201.5251555932186,1701
2203.415629053651,1747
2205.3056604441986,1744
2207.19525004167,1766
2209.084398122958,1713
2210.9731049650327,1707
2212.861370844941,1725
2214.749196039812,1770
2216.636580826851,1720
2218.523525483344,1740
2220.410030286655,1700
2222.296095514226,1719
2224.1817214435805,1723
2226.066908352319,1724
2227.951656518121,1738
2229.835966218746,1821
2231.71983773203,1776
2233.6032713358913,1778
2235.486267308324,1730
2237.3688259274036,1758
2239.2509474712824,1724
2241.132632218193,1671
2243.013880446447,1719
2244.8946924344323,1782
2246.7750684606203,1726
2248.6550088035574,1719
2250.534513741871,1783
2252.413583554265,1761
2254.292218519526,1703
2256.170418916517,1723
2258.0481850241786,1744
2259.925517121534,1676
2261.8024154876825,1726
2263.678880401803,1703
2265.5549121431536,1794
2267.430510991071,1685
2269.305677224971,1704
2271.180411124348,1783
2273.0547129687766,1780
2274.9285830379076,1776
2276.8020216114737,1703
2278.6750289692845,1771
2280.5476053912294,1701
2282.4197511572766,1702
2284.2914665474727,1662
2286.162751841943,1715
2288.0336073208937,1697
2289.904033264608,1758
2291.774029953448,1713
2293.6435976678554,1765
2295.5127366883517,1721
2297.381447295534,1748
2299.2497297700825,1702
2301.1175843927526,1760
2302.9850114443825,1708
2304.852011205885,1808
2306.7185839582553,1770
2308.5847299825664,1748
2310.4504495599676,1706
2312.3157429716925,1734
2314.1806104990483,1714
2316.0450524234247,1761
2317.9090690262888,1739
2319.772660589186,1755
2321.635827393742,1811
2323.498569721661,1781
2325.3608878547248,1793
2327.2227820747967,1757
2329.0842526638157,1766
2330.945299903803,1773
2332.805924076857,1743
2334.6661254651535,1734
2336.525904350951,1741
2338.3852610165827,1796
2340.244195744464,1836
2342.102708817088,1763
2343.9608005170253,1790
2345.8184711269287,1734
2347.675720929526,1753
2349.532550207628,1727
2351.38895924412,1739
2353.24494832197,1711
2355.100517724223,1753
2356.955667734004,1733
2358.810398634514,1802
2360.664710709037,1696
2362.5186042409337,1821
2364.3720795136437,1785
2366.225136810686,1688
2368.0777764156583,1820
2369.929998612237,1754
2371.7818036841777,1734
2373.633191915315,1775
2375.484163589562,1821
2377.3347189909114,1761
2379.184858403434,1740
2381.03458211128,1791
2382.8838903986775,1857
2384.732783549936,1815
2386.5812618494406,1805
2388.4293255816588,1820
2390.2769750311327,1800
2392.1242104824883,1803
2393.971032220427,1829
2395.8174405297295,1791
2397.6634356952563,1800
2399.509018001947,1762
2401.3541877348193,1745
2403.1989451789705,1777
2405.043290619576,1796
2406.8872243418905,1755
2408.730746631247,1749
2410.5738577730594,1730
2412.4165580528183,1812
2414.258847756095,1817
2416.100727168537,1810
2417.9421965758734,1762
2419.783256263912,1790
2421.623906518538,1721
2423.4641476257157,1802
2425.303979871491,1836
2427.143403541984,1827
2428.9824189233977,1773
2430.821026302012,1872
2432.6592259641866,1731
2434.497018196361,1759
2436.33440328505,1857
2438.171381516851,1837
2440.00795317844,1822
2441.844118556569,1816
2443.6798779380724,1779
2445.5152316098606,1800
2447.3501798589255,1770
2449.1847229723357,1754
2451.0188612372403,1759
2452.8525949408663,1769
2454.6859243705203,1847
2456.518849813587,1819
2458.3513715575314,1784
2460.183489889895,1791
2462.015205098301,1824
2463.8465174704493,1802
2465.67742729412,1753
2467.5079348571717,1826
2469.338040447542,1814
2471.1677443532476,1763
2472.9970468623833,1727
2474.825948263123,1735
2476.6544488437207,1857
2478.482548892508,1695
2480.310248697896,1808
2482.137548548374,1816
2483.9644487325118,1744
2485.790949538956,1805
2487.617051256433,1800
2489.44275417375,1806
2491.26805857979,1819
2493.0929647635157,1799
2494.917473013971,1835
2496.741583620276,1813
2498.5652968716304,1761
2500.3886130573137,1779
2502.2115324666834,1796
2504.0340553891765,1818
2505.856182114308,1819
2507.6779129316733,1893
2509.499248130945,1799
2511.3201880018764,1829
2513.140732834298,1817
2514.9608829181198,1864
2516.780638543331,1862
2518.6,1810
2520.418967578273,1834
2522.237541568376,1824
2524.0557222606144,1808
2525.8735099453706,1788
2527.6909049131086,1785
2529.507907454368,1811
2531.32451785977,1831
2533.140736420014,1888
2534.9565634258774,1871
2536.771999168218,1857
2538.5870439379714,1756
2540.4016980261526,1852
2542.2159617238544,1867
2544.02983532225,1902
2545.8433191125914,1895
2547.656413386209,1803
2549.4691184345115,1926
2551.2814345489874,1911
2553.093362021204,1886
2554.904901142808,1863
2556.716052205523,1902
2558.526815501153,1860
2560.3371913215824,1863
2562.147179958771,1865
2563.956781704761,1862
2565.7659968516705,1911
2567.5748256916986,1940
2569.3832685171224,1962
2571.1913256202984,2012
2572.9989972936614,1995
2574.806283829725,1939
2576.613185521084,1977
2578.4197026604074,1945
2580.2258355404483,1949
2582.031584454035,1990
2583.836949694077,1969
2585.6419315535613,1925
2587.4465303255533,1933
2589.2507463032002,1913
2591.0545797797245,2052
2592.8580310484303,1929
2594.6611004026995,2016
2596.463788135992,2027
2598.266094541849,1922
2600.0680199138874,2053
2601.869564545807,1998
2603.670728731383,1994
2605.4715127644704,2003
2607.2719169390048,2104
2609.071941548998,2042
2610.8715868885433,1987
2612.670853251811,1954
2614.469740933052,1979
2616.268250226594,2016
2618.0663814268455,2071
2619.864134828292,1978
2621.6615107255006,1983
2623.458509413115,1968
2625.2551311858597,1978
2627.0513763385347,1909
2628.8472451660223,1998
2630.6427379632833,1956
2632.4378550253564,1968
2634.232596647359,2004
2636.026963124488,1875
2637.8209547520187,1960
2639.6145718253065,1934
2641.407814639785,1942
2643.200683490966,1837
2644.9931786744414,1865
2646.7853004858807,1907
2648.577049221034,1885
2650.3684251757277,1923
2652.1594286458712,1914
2653.9500599274484,1866
2655.740319316525,1881
2657.5302071092437,1837
2659.3197236018286,1845
2661.10886909058,1814
2662.8976438718782,1781
2664.686048242183,1797
2666.4740824980327,1853
2668.2617469360443,1821
2670.0490418529134,1883
2671.8359675454153,1823
2673.622524310403,1815
2675.408712444811,1815
2677.1945322456495,1859
2678.979984010009,1844
2680.76506803506,1802
2682.5497846180497,1814
2684.334134056306,1815
2686.1181166472343,1739
2687.9017326883213,1790
2689.6849824771293,1815
2691.4678663113013,1747
2693.2503844885596,1796
2695.032537306705,1749
2696.8143250636167,1788
2698.5957480572542,1767
2700.3768065856534,1713
2702.1575009469316,1795
2703.937831439283,1753
2705.717798360982,1701
2707.4974020103837,1767
2709.276642685917,1711
2711.055520686095,1740
2712.834036309506,1734
2714.612189854819,1767
2716.389981620782,1772
2718.1674119062204,1786
2719.944481010041,1710
2721.721189231226,1858
2723.4975368688415,1707
2725.273524222027,1777
2727.0491515900053,1723
2728.824419272075,1727
2730.5993275676146,1799
2732.3738767760838,1676
2734.148067197016,1704
2735.921899130031,1688
2737.6953728748194,1694
2739.468488731156,1732
2741.2412469988926,1725
2743.0136479779617,1741
2744.785691968372,1672
2746.5573792702116,1724
2748.3287101836504,1734
2750.099685008934,1627
2751.870304046388,1706
2753.640567596418,1707
2755.4104759595057,1672
2757.1800294362156,1656
2758.949228327187,1779
2760.7180729331412,1664
2762.486563554877,1662
2764.254700493272,1660
2766.022484049284,1721
2767.789914523947,1732
2769.5569922183786,1715
2771.3237174337705,1723
2773.090090471394,1682
2774.8561116326036,1690
2776.6217812188274,1726
2778.3870995315756,1727
2780.1520668724356,1700
2781.9166835430747,1749
2783.6809498452394,1618
2785.444866080754,1727
2787.2084325515225,1707
2788.971649559527,1638
2790.73451740683,1646
2792.4970363955713,1693
2794.2592068279705,1698
2796.0210290063264,1722
2797.7825032330147,1757
2799.543629810493,1743
2801.304409041296,1734
2803.0648412280366,1641
2804.8249266734088,1727
2806.5846656801846,1763
2808.344058551212,1699
2810.1031055894246,1774
2811.8618070978273,1713
2813.6201633795085,1693
2815.378174737636,1721
2817.1358414754536,1737
2818.893163896285,1677
2820.6501423035334,1642
2822.4067770006814,1689
2824.1630682912883,1651
2825.9190164789957,1688
2827.6746218675207,1686
2829.429884760661,1726
2831.184805462294,1671
2832.9393842763743,1718
2834.693621506936,1742
2836.4475174580916,1712
2838.201072434034,1714
2839.954286739034,1672
2841.707160677441,1683
2843.459694553685,1695
2845.2118886722724,1674
2846.96374333779,1681
2848.7152588549034,1670
2850.4664355283567,1702
2852.217273662973,1707
2853.9677735636546,1692
2855.7179355353833,1786
2857.4677598832186,1733
2859.217246912299,1730
2860.9663969278427,1667
2862.715210235146,1663
2864.4636871395846,1678
2866.211827946614,1649
2867.9596329617652,1708
2869.7071024906536,1741
2871.4542368389684,1691
2873.20103631248,1752
2874.947501217038,1688
2876.6936318585695,1682
2878.4394285430812,1721
2880.1848915766604,1756
2881.9300212654707,1645
2883.6748179157553,1614
2885.4192818338374,1648
2887.1634133261173,1646
2888.907212699077,1667
2890.6506802592744,1697
2892.393816313348,1739
2894.1366211680142,1694
2895.8790951300693,1743
2897.621238506388,1667
2899.363051603925,1682
2901.1045347297118,1628
2902.8456881908596,1671
2904.58651229456,1650
2906.327007348081,1661
2908.067173658772,1710
2909.8070115340597,1680
2911.5465212814497,1658
2913.285703208527,1664
2915.0245576229563,1647
2916.7630848324807,1623
2918.5012851449196,1600
2920.2391588681758,1639
2921.976706310227,1676
2923.7139277791334,1609
2925.4508235830313,1651
2927.187394030137,1712
2928.923639428745,1645
2930.6595600872306,1674
2932.395156314046,1660
2934.1304284177218,1668
2935.8653767068713,1678
2937.6000014901815,1717
2939.3343030764227,1748
2941.068281774442,1715
2942.8019378931644,1620
2944.5352717415976,1728
2946.2682836288236,1654
2948.0009738640065,1745
2949.7333427563885,1726
2951.465390615289,1672
2953.1971177501086,1654
2954.9285244703265,1683
2956.6596110855,1669
2958.3903779052657,1675
2960.1208252393385,1651
2961.8509533975125,1599
2963.5807626896617,1593
2965.3102534257378,1608
2967.0394259157715,1632
2968.768280469873,1662
2970.496817398232,1675
2972.2250370111146,1660
2973.952939618869,1717
2975.6805255319196,1682
2977.4077950607707,1669
2979.134748516006,1689
2980.861386208289,1642
2982.587708448359,1683
2984.313715547037,1608
2986.039407815222,1699
2987.764785563891,1688
2989.489849104102,1688
2991.2145987469908,1645
2992.9390348037705,1680
2994.6631575857346,1672
2996.3869674042576,1701
2998.1104645707887,1709
2999.83364939686,1711
3001.5565221940783,1661
3003.2790832741334,1631
3005.0013329487924,1652
3006.7232715298996,1654
3008.4448993293804,1633
3010.166216659239,1600
3011.887223831558,1664
3013.607921158498,1601
3015.3283089522993,1667
3017.0483875252826,1668
3018.7681571898443,1676
3020.4876182584626,1629
3022.2067710436927,1616
3023.9256158581707,1601
3025.644153014609,1618
3027.362382825801,1631
3029.0803056046193,1645
3030.797921664012,1648
3032.5152313170106,1673
3034.2322348767225,1664
3035.9489326563353,1614
3037.665324969115,1612
3039.3814121284063,1641
3041.097194447633,1597
3042.812672240299,1663
3044.5278458199855,1630
3046.2427155003525,1609
3047.9572815951406,1645
3049.671544418167,1643
3051.38550428333,1643
3053.0991615046073,1614
3054.812516396051,1598
3056.5255692717974,1640
3058.2383204460575,1645
3059.9507702331257,1649
3061.662918947372,1635
3063.3747669032446,1634
3065.0863144152736,1640
3066.7975617980674,1680
3068.508509366309,1646
3070.219157434767,1671
3071.9295063182844,1616
3073.639556331785,1631
3075.3493077902704,1654
3077.058761008821,1678
3078.7679163025964,1648
3080.476773986837,1639
3082.1853343768594,1676
3083.89359778806,1606
3085.6015645359153,1675
3087.3092349359786,1634
3089.016609303884,1705
3090.7236879553434,1614
3092.4304712061476,1621
3094.136959372166,1590
3095.843152769349,1648
3097.5490517137237,1642
3099.2546565213966,1628
3100.959967508554,1650
3102.66498499146,1654
3104.3697092864577,1642
3106.0741407099695,1582
3107.778279578498,1573
3109.482126208622,1618
3111.1856809170004,1637
3112.8889440203716,1634
3114.5919158355528,1623
3116.294596679439,1649
3117.996986869006,1635
3119.6990867213062,1628
3121.4008965534726,1671
3123.102416682717,1664
3124.803647426329,1650
3126.5045891016784,1668
3128.205242026213,1666
3129.90560651746,1654
3131.605682893025,1698
3133.3054714705922,1624
3135.0049725679282,1705
3136.7041865028714,1660
3138.4031135933465,1618
3140.101754157353,1700
3141.800108512971,1624
3143.498176978357,1610
3145.1959598717494,1607
3146.8934575114636,1610
3148.5906702158954,1618
3150.2875983035183,1608
3151.9842420928853,1608
3153.680601902627,1634
3155.376678051456,1630
3157.07247085816,1618
3158.767980641609,1649
3160.463207720748,1618
3162.158152414606,1614
3163.8528150422862,1584
3165.5471959229726,1565
3167.2412953759303,1573
3168.9351137204976,1707
3170.628651276098,1591
3172.3219083622307,1641
3174.014885298474,1569
3175.707582404485,1626
3177.4000000000005,1555
3179.092138404835,1666
3180.7839979388846,1635
3182.47557892212,1637
3184.166881674594,1649
3185.8579065164386,1626
3187.5486537678626,1555
3189.2391237491547,1602
3190.9293167806827,1572
3192.6192331828934,1618
3194.3088732763117,1603
3195.998237381542,1549
3197.687325819268,1669
3199.376138910251,1621
3201.064676975334,1673
3202.7529403354347,1621
3204.4409293115523,1602
3206.1286442247647,1621
3207.816085396229,1576
3209.5032531471825,1592
3211.190147798936,1565
3212.8767696728846,1586
3214.5631190905015,1583
3216.2491963733373,1505
3217.9350018430214,1571
3219.6205358212637,1586
3221.305798629851,1533
3222.990790590651,1574
3224.6755120256103,1605
3226.359963256751,1598
3228.0441446061795,1611
3229.7280563960758,1532
3231.411698948703,1574
3233.0950725863995,1520
3234.778177631587,1580
3236.461014406761,1561
3238.1435832345005,1612
3239.8258844374595,1639
3241.507918338374,1602
3243.1896852600576,1571
3244.8711855254023,1573
3246.552419457381,1553
3248.233387379042,1551
3249.914089613516,1653
3251.59452648401,1568
3253.274698313813,1620
3254.95460542629,1582
3256.6342481448855,1595
3258.313626793125,1597
3259.9927416946084,1589
3261.6715931730196,1565
3263.3501815521176,1511
3265.0285071557437,1586
3266.706570307815,1597
3268.3843713323286,1594
3270.0619105533615,1554
3271.739188295068,1526
3273.4162048816834,1591
3275.0929606375184,1565
3276.769455886966,1580
3278.445690954498,1631
3280.1216661646613,1611
3281.797381842087,1598
3283.4728383114807,1580
3285.1480358976296,1555
3286.8229749253996,1511
3288.4976557197333,1537
3290.172078605655,1595
3291.846243908266,1527
3293.5201519527463,1567
3295.193803064357,1501
3296.8671975684374,1548
3298.5403357904024,1601
3300.21321805575,1611
3301.8858446900567,1617
3303.558216018975,1545
3305.23033236824,1546
3306.9021940636603,1511
3308.57380143113,1526
3310.2451547966184,1565
3311.916254486174,1538
3313.5871008259246,1580
3315.2576941420766,1577
3316.9280347609147,1544
3318.5981230088046,1578
3320.2679592121895,1523
3321.9375436975924,1541
3323.606876791612,1523
3325.27595882093,1595
3326.944790112305,1499
3328.6133709925753,1502
3330.2817017886573,1535
3331.949782827547,1530
3333.617614436319,1497
3335.2851969421245,1529
3336.952530672199,1643
3338.619615953853,1610
3340.286453114475,1586
3341.9530424815357,1609
3343.619384382583,1565
3345.2854791452437,1601
3346.951327097224,1520
3348.6169285663073,1595
3350.2822838803577,1551
3351.947393367319,1474
3353.61225735521,1532
3355.2768761721345,1579
3356.9412501462693,1522
3358.605379605873,1534
3360.2692648792827,1605
3361.9329062949146,1559
3363.596304181263,1513
