CollectionTime,6/26/2024 3:57:09 PM
ExposureUsed,3
CalibratedSpectrum
-962.7078968117929,2476
-959.9714848408522,2609
-957.2358232597828,2580
-954.5009119013725,2581
-951.7667505983302,2636
-949.0333391832855,2653
-946.3006774887896,2631
-943.5687653473143,2706
-940.837602591253,2754
-938.1071890529199,2727
-935.3775245645503,2756
-932.6486089583007,2762
-929.9204420662485,2667
-927.1930237203925,2761
-924.4663537526524,2601
-921.7404319948689,2591
-919.0152582788041,2697
-916.2908324361409,2773
-913.5671542984834,2686
-910.8442236973568,2794
-908.1220404642074,2779
-905.4006044304027,2765
-902.679915427231,2669
-899.959973285902,2804
-897.2407778375464,2744
-894.5223289132158,2771
-891.8046263438832,2729
-889.0876699604426,2656
-886.3714595937089,2727
-883.6559950744183,2693
-880.9412762332282,2758
-878.2273029007168,2740
-875.5140749073835,2673
-872.8015920836489,2694
-870.0898542598545,2677
-867.3788612662631,2700
-864.6686129330585,2726
-861.9591090903457,2663
-859.2503495681506,2724
-856.5423341964203,2578
-853.8350628050229,2754
-851.1285352237478,2655
-848.4227512823054,2671
-845.7177108103272,2694
-843.0134136373656,2692
-840.3098595928943,2771
-837.6070485063082,2646
-834.9049802069229,2737
-832.2036545239757,2772
-829.5030712866244,2746
-826.8032303239481,2829
-824.1041314649472,2773
-821.4057745385428,2678
-818.7081593735775,2665
-816.0112857988148,2796
-813.3151536429393,2762
-810.6197627345566,2672
-807.9251129021936,2670
-805.2312039742981,2651
-802.5380357792392,2757
-799.8456081453069,2676
-797.1539209007124,2680
-794.462973873588,2709
-791.772766891987,2743
-789.083299783884,2633
-786.3945723771743,2602
-783.7065844996748,2690
-781.0193359791231,2781
-778.3328266431781,2704
-775.6470563194197,2755
-772.9620248353489,2716
-770.2777320183878,2715
-767.5941776958798,2738
-764.9113616950891,2825
-762.2292838432011,2736
-759.5479439673222,2722
-756.8673418944801,2782
-754.1874774516235,2775
-751.5083504656222,2769
-748.8299607632671,2718
-746.15230817127,2747
-743.475392516264,2750
-740.7992136248035,2792
-738.1237713233636,2696
-735.4490654383407,2758
-732.7750957960521,2726
-730.1018622227365,2766
-727.4293645445534,2794
-724.7576025875837,2797
-722.0865761778291,2832
-719.4162851412126,2905
-716.7467293035781,2747
-714.0779084906909,2906
-711.409822528237,2873
-708.7424712418238,2839
-706.0758544569796,2817
-703.4099719991541,2849
-700.7448236937178,2862
-698.0804093659622,2878
-695.4167288411002,2786
-692.7537819442656,2811
-690.0915685005134,2869
-687.4300883348199,2807
-684.7693412720819,2836
-682.1093271371178,2866
-679.4500457546669,2786
-676.7914969493897,2877
-674.1336805458676,2902
-671.4765963686034,2850
-668.8202442420206,2788
-666.1646239904642,2781
-663.5097354382001,2784
-660.8555784094151,2905
-658.2021527282176,2913
-655.5494582186366,2869
-652.8974947046223,2913
-650.2462620100463,2899
-647.5957599587009,2926
-644.9459883742998,2904
-642.2969470804776,2867
-639.6486359007902,2979
-637.0010546587141,2970
-634.3542031776476,2984
-631.7080812809096,2863
-629.0626887917401,2923
-626.4180255333008,2965
-623.7740913286734,2838
-621.1308860008619,2839
-618.4884093727904,3037
-615.8466612673046,2914
-613.2056415071715,2903
-610.5653499150785,2948
-607.9257863136347,2816
-605.28695052537,2889
-602.6488423727357,2932
-600.0114616781036,2916
-597.3748082637674,2911
-594.7388819519412,3021
-592.1036825647604,3005
-589.4692099242818,2969
-586.8354638524829,3006
-584.2024441712624,2870
-581.5701507024403,2943
-578.9385832677575,3026
-576.3077416888759,2878
-573.6776257873787,2974
-571.0482353847704,2954
-568.4195703024757,3018
-565.7916303618415,3006
-563.164415384135,2974
-560.5379251905453,2939
-557.9121596021815,3038
-555.2871184400748,2926
-552.6628015251767,3013
-550.0392086783606,3044
-547.4163397204204,3022
-544.794194472071,3014
-542.1727727539491,2971
-539.5520743866118,2974
-536.9320991905377,2944
-534.3128469861261,3107
-531.6943175936979,3096
-529.0765108334947,3122
-526.4594265256793,3150
-523.8430644903358,3368
-521.2274245474689,3546
-518.612506517005,3700
-515.9983102187913,3700
-513.3848354725959,3881
-510.77208209810846,3811
-508.16004991493924,3825
-505.5487387426199,4070
-502.9381484006032,4046
-500.3282787082628,4302
-497.71912948489364,4335
-495.1107005497117,4438
-492.5029917218539,4470
-489.8960028203786,4358
-487.28973366426493,4215
-484.68418407241325,3962
-482.07935386364494,3826
-479.47524285670266,3590
-476.87185087025,3588
-474.2691777228715,3456
-471.66722323307334,3369
-469.0659872192821,3421
-466.4654694998459,3419
-463.86566989303384,3336
-461.26658821703614,3301
-458.66822428996414,3346
-456.07057792985,3289
-453.4736489546475,3287
-450.877437182231,3200
-448.28194243039627,3118
-445.68716451686,3180
-443.09310325926003,3116
-440.49975847515555,3067
-437.9071299820263,3159
-435.31521759727354,3230
-432.72402113821954,3076
-430.13354042210767,3166
-427.5437752661022,3220
-424.95472548728867,3268
-422.36639090267386,3255
-419.7787713291855,3203
-417.1918665836721,3266
-414.60567648290385,3278
-412.0202008435715,3201
-409.4354394822874,3190
-406.8513922155845,3273
-404.26805885991723,3251
-401.685439231661,3273
-399.103533147112,3248
-396.522340422488,3268
-393.9418608739278,3174
-391.3620943174908,3042
-388.7830405691583,2974
-386.2046994448317,2914
-383.6270707603344,2663
-381.05015433141045,2416
-378.473949973725,2231
-375.8984575028645,2084
-373.32367673433623,1768
-370.74960748356875,1632
-368.1762495659117,1386
-365.60360279663576,1217
-363.03166699093265,1030
-360.4604419639154,988
-357.8899275306178,862
-355.32012350599507,744
-352.7510297049233,684
-350.1826459421999,670
-347.61497203254316,676
-345.04800779059235,670
-342.4817530309082,589
-339.91620756797226,569
-337.35137121618743,580
-334.7872437898774,560
-332.22382510328725,569
-329.66111497058273,609
-327.09911320585127,553
-324.53781962310075,558
-321.9772340362607,606
-319.4173562591816,647
-316.8581861056348,660
-314.2997233893127,654
-311.7419679238294,666
-309.1849195227194,632
-306.62857799943856,592
-304.0729431673641,607
-301.51801483979375,580
-298.963792829947,626
-296.41027695096386,632
-293.85746701590574,598
-291.3053628377552,721
-288.7539642294155,695
-286.2032710037115,694
-283.65328297338897,667
-281.1039999511146,726
-278.5554217494762,844
-276.007548180983,803
-273.4603790580651,734
-270.9139141930734,682
-268.3681533982807,720
-265.8230964858798,731
-263.27874326798565,659
-260.7350935566336,723
-258.1921471637804,820
-255.6499039013039,846
-253.10836358100266,822
-250.56752601459698,766
-248.02739101372765,844
-245.48795838995704,892
-242.94922795476816,855
-240.41119951956557,827
-237.8738728956746,871
-235.33724789434166,956
-232.80132432673452,1117
-230.2661020039418,1194
-227.73158073697357,1029
-225.19776033676033,892
-222.66464061415422,832
-220.1322213799284,822
-217.60050244477725,836
-215.06948361931552,877
-212.53916471408013,843
-210.00954553952818,878
-207.48062590603843,906
-204.9524056239104,988
-202.4248845033651,857
-199.8980623545441,937
-197.37193898751036,897
-194.84651421224817,983
-192.32178783866232,1032
-189.79775967657952,1096
-187.27442953574644,1046
-184.7517972258321,1080
-182.2298625564256,966
-179.7086253370378,1086
-177.18808537710026,1195
-174.66824248596583,1276
-172.14909647290835,1336
-169.6306471471229,1265
-167.11289431772548,1245
-164.59583779375328,1232
-162.07947738416453,1220
-159.5638128978386,1321
-157.04884414357605,1307
-154.53457093009854,1483
-152.02099306604828,1320
-149.50811035998936,1288
-146.99592262040665,1460
-144.48442965570587,1437
-141.97363127421409,1329
-139.46352728417958,1294
-136.95411749377126,1373
-134.44540171107985,1756
-131.93737974411636,1754
-129.43005140081357,1806
-126.92341648902493,1809
-124.41747481652521,1907
-121.91222619101006,1713
-119.40767042009657,1704
-116.90380731132257,1656
-114.40063667214702,1787
-111.8981583099503,1964
-109.3963720320337,2140
-106.89527764561933,1831
-104.39487495785067,1898
-101.89516377579241,2132
-99.39614390642998,2139
-96.89781515667039,2044
-94.40017733334128,2475
-91.90323024319173,2402
-89.40697369289148,2268
-86.91140748903172,2202
-84.41653143812482,2133
-81.92234534660395,2418
-79.42884902082358,2430
-76.93604226705907,2529
-74.4439248915071,2595
-71.95249670028534,2895
-69.46175749943245,2929
-66.97170709490854,3019
-64.48234529259423,3208
-61.99367189829195,3273
-59.50568671772464,3617
-57.01838955653636,3939
-54.53178022029283,3709
-52.045858514480074,3877
-49.560624244506016,4992
-47.07607721569923,4849
-44.59221723330904,4393
-42.10904410250669,3862
-39.62655762838392,4790
-37.14475761595372,5998
-34.66364387015028,6695
-32.18321619582866,7435
-29.70347439776515,8634
-27.224418280657005,8955
-24.74604764912317,13865
-22.26836230770266,21620
-19.7913620608565,35129
-17.315046712966478,52270
-14.83941606833514,62815
-12.36446993118659,65037
-9.89020810566592,65037
-7.416630395839093,65037
-4.94373660569363,65037
-2.471526539137585,65037
-6.821210263296962E-13,65037
2.47084320796705,65037
4.941003281093458,65037
7.410480415786196,65037
9.879274808531363,65037
12.347386655893956,65037
14.814816154518212,65037
17.28156350112681,65037
19.74762889252179,65037
22.21301252558385,65037
24.67771459727237,65037
27.141735304626195,47723
29.605074844762612,21819
32.06773341487792,16111
34.52971121224755,10072
36.99100843422559,8169
39.45162527824516,8797
41.91156194181792,9435
44.370818622535126,15090
46.82939551806646,22561
49.287292826160524,23140
51.74451074464503,17642
54.201049471426245,12962
56.65690920448981,8667
59.112090141899785,4594
61.56659248179983,3863
64.02041642241159,3507
66.4735621620365,3633
68.92602989905402,3579
71.37781983192338,3470
73.82893215918205,3067
76.27936707944684,3154
78.72912479141326,3831
81.17820549385567,3640
83.62660938562783,3357
86.07433666566146,2629
88.5213875329681,3228
90.96776218663751,3358
93.41346082583925,3216
95.85848364982041,3151
98.30283085790859,2680
100.7465026495089,2537
103.18949922410604,2929
105.63182078126385,2543
108.07346752062438,2973
110.51443964190923,3121
112.95473734491827,2398
115.39436082953114,2326
117.83331029570547,2274
120.27158594347827,2325
122.7091879729652,2472
125.1461165843615,2062
127.58237197794062,1813
130.01795435405518,1750
132.4528639131364,1652
134.88710085569494,1800
137.32066538231982,2040
139.75355769367923,1906
142.1857779905207,1739
144.61732647366978,1717
147.04820334403132,1903
149.47840880258934,1801
151.90794305040674,2054
154.33680628862487,2170
156.76499871846443,2201
159.19252054122433,2504
161.61937195828352,2789
164.04555317109896,2735
166.47106438120693,3197
168.89590579022217,3692
171.320077599839,3849
173.7435800118302,3724
176.16641322804742,3841
178.58857745042144,4122
181.01007288096173,4298
183.43089972175687,4333
185.85105817497413,4487
188.27054844285988,4577
190.6893707277394,4506
193.10752523201643,4646
195.5250121581745,5060
197.9418317087751,4962
200.3579840864594,4955
202.7734694939469,5003
205.18828813403627,5102
207.6024402096051,4938
210.01592592360964,4953
212.42874547908548,4868
214.84089907914665,4844
217.2523869269868,4897
219.66320922587727,4986
222.0733661791695,4965
224.48285799029293,4719
226.8916848627572,5131
229.29984700014882,5097
231.7073446061355,5334
234.11417788446204,5195
236.520347038953,5081
238.92585227351185,5256
241.33069379212054,5357
243.73487179884035,5223
246.1383864978112,5158
248.541238093252,5116
250.9434267894609,5164
253.34495279081432,5364
255.74581630176783,5100
258.1460175268563,5240
260.54555667069314,5024
262.9444339379703,5148
265.3426495334594,4910
267.7402036620107,4916
270.1370965285529,4924
272.53332833809407,5033
274.9288992957214,4909
277.32380960660055,4856
279.718059475976,4889
282.1116491091717,5057
284.5045787115897,4898
286.89684848871195,5047
289.2884586460981,4921
291.67940938938807,4944
294.0697009242996,4762
296.4593334566299,4865
298.84830719225477,4838
301.23662233712923,4857
303.6242790972866,4838
306.01127767884,4838
308.39761828798066,5002
310.78330113097934,4839
313.16832641418534,4665
315.5526943440269,4765
317.9364051270112,4681
320.3194589697242,4502
322.70185607883093,4501
325.0835966610754,4412
327.4646809232805,4534
329.8451090723478,4518
332.2248813152577,4507
334.6039978590701,4393
336.9824589109231,4418
339.36026467803447,4472
341.7374153677,4422
344.113911187295,4354
346.48975234427337,4343
348.8649390461686,4409
351.2394715005918,4352
353.61334991523415,4273
355.9865744978655,4195
358.35914545633375,4386
360.73106299856715,4197
363.10232733257146,4268
365.47293866643247,4293
367.84289720831396,4228
370.2122031664593,4258
372.5808567491905,4202
374.9488581649083,4250
377.31620762209275,4136
379.6829053293021,4320
382.0489514951745,4247
384.4143463284262,4188
386.7790900378528,4232
389.14318283232853,4118
391.50662492080653,4153
393.86941651231916,4132
396.23155781597745,4129
398.5930490409713,4173
400.9538903965696,4077
403.3140820921202,4046
405.6736243370498,4090
408.03251734086336,3992
410.3907613131465,4061
412.74835646356166,3960
415.10530300185144,4026
417.4616011378372,4010
419.81725108141893,4208
422.1722530425758,4117
424.5266072313656,4106
426.880313857925,3969
429.2333731324701,3940
431.58578526529516,3964
433.9375504667738,4053
436.2886689473588,4047
438.63914091758113,4021
440.9889665880513,3909
443.33814616945835,3961
445.68667987257015,3965
448.03456790823395,4108
450.3818104873759,3960
452.72840782100013,3877
455.07436012019105,3970
457.41966759611057,4056
459.7643304600007,4030
462.10834892318155,3982
464.4517231970525,4029
466.79445349309174,4044
469.1365400228566,4067
471.4779829979826,3961
473.81878263018564,4122
476.15893913125876,4189
478.4984527130747,4087
480.8373235875855,4079
483.17555196682144,4245
485.5131380628919,4265
487.8500820879857,4477
490.1863842543697,4677
492.52204477439034,4961
494.8570638604725,5149
497.1914417251204,5576
499.52517858091653,5643
501.85827464052306,5867
504.19073011668036,5650
506.5225452222086,5706
508.85372017000566,5564
511.18425517304956,5378
513.514150444396,5529
515.8434061971808,6006
518.1720226446176,6814
520.4999999999999,7330
522.8273384766991,7624
525.1540382881666,7824
527.480099647932,7741
529.8055227696037,6782
532.1303078668694,5366
534.454455153496,4479
536.777964843328,4132
539.1008371502907,4032
541.4230722883866,3822
543.744670471698,3814
546.0656319143858,3696
548.3859568306899,3648
550.7056454349294,3745
553.0246979415016,3701
555.3431145648834,3757
557.6608955196306,3538
559.978041020377,3658
562.2945512818363,3662
564.6104265188006,3675
566.9256669461412,3686
569.2402727788082,3731
571.5542442318302,3640
573.8675815203156,3698
576.1802848594508,3514
578.4923544645015,3721
580.8037905508126,3658
583.114593333807,3637
585.4247630289875,3662
587.7342998519354,3596
590.0432040183106,3672
592.3514757438526,3535
594.6591152443794,3609
596.9661227357875,3669
599.2724984340531,3498
601.578242555231,3625
603.8833553154542,3629
606.1878369309362,3691
608.4916876179676,3757
610.7949075929192,3775
613.0974970722403,3602
615.3994562724587,3641
617.7007854101818,3663
620.0014847020951,3544
622.3015543649641,3614
624.6009946156324,3526
626.8998056710224,3666
629.1979877481361,3617
631.4955410640538,3505
633.7924658359349,3533
636.0887622810175,3686
638.3844306166192,3572
640.6794710601358,3586
642.9738838290426,3615
645.2676691408932,3580
647.5608272133207,3584
649.853358264037,3615
652.1452625108324,3583
654.4365401715764,3673
656.7271914642178,3580
659.0172166067838,3637
661.3066158173809,3579
663.5953893141935,3656
665.8835373154867,3731
668.1710600396028,3679
670.4579577049639,3686
672.7442305300709,3586
675.0298787335033,3569
677.3149025339197,3674
679.599302150058,3630
681.8830778007342,3611
684.1662297048437,3479
686.4487580813608,3601
688.7306631493387,3579
691.0119451279091,3630
693.2926042362834,3664
695.5726406937516,3656
697.8520547196814,3698
700.1308465335215,3651
702.4090163547982,3591
704.6865644031171,3542
706.9634908981619,3586
709.2397960596965,3612
711.5154801075631,3561
713.7905432616823,3587
716.0649857420548,3583
718.3388077687592,3562
720.612009561953,3585
722.8845913418733,3574
725.1565533288352,3629
727.427895743234,3479
729.6986188055427,3605
731.9687227363137,3681
734.238207756178,3595
736.5070740858458,3553
738.7753219461066,3603
741.0429515578281,3578
743.3099631419569,3542
745.5763569195191,3692
747.8421331116193,3604
750.1072919394409,3528
752.3718336242467,3624
754.6357583873777,3590
756.8990664502545,3513
759.1617580343765,3588
761.423833361321,3613
763.6852926527457,3590
765.9461361303862,3488
768.206364016058,3544
770.4659765316536,3663
772.7249738991469,3611
774.9833563405886,3581
777.2411240781092,3529
779.4982773339183,3544
781.7548163303044,3597
784.010741289634,3593
786.2660524343538,3722
788.5207499869881,3652
790.7748341701416,3579
793.0283052064964,3594
795.2811633188143,3460
797.5334087299362,3618
799.7850416627813,3670
802.0360623403484,3644
804.2864709857143,3505
806.5362678220353,3669
808.7854530725468,3571
811.0340269605625,3715
813.2819897094754,3613
815.5293415427581,3694
817.77608268396,3633
820.0222133567116,3497
822.2677337847211,3568
824.5126441917765,3534
826.7569448017433,3652
829.0006358385675,3560
831.2437175262731,3540
833.4861900889629,3584
835.7280537508192,3576
837.9693087361026,3487
840.2099552691533,3560
842.4499935743896,3508
844.689423876309,3553
846.9282463994886,3532
849.1664613685833,3480
851.4040690083276,3487
853.6410695435349,3526
855.877463199097,3571
858.1132501999847,3580
860.3484307712487,3542
862.5830051380175,3517
864.8169735254988,3502
867.0503361589791,3577
869.2830932638243,3534
871.5152450654786,3600
873.7467917894654,3555
875.9777336613873,3570
878.2080709069252,3536
880.4378037518389,3622
882.666932421968,3567
884.8954571432301,3660
887.1233781416219,3623
889.3506956432192,3681
891.5774098741766,3600
893.803521060728,3621
896.0290294291852,3646
898.2539352059397,3601
900.4782386174619,3652
902.7019398903011,3572
904.925039251085,3514
907.147536926521,3554
909.3694331433943,3496
911.59072812857,3590
913.8114221089921,3577
916.0315153116827,3576
918.2510079637437,3533
920.4699002923547,3436
922.6881925247761,3508
924.905884888345,3437
927.1229776104793,3501
929.3394709186747,3472
931.555365040506,3421
933.7706602036275,3359
935.9853566357709,3507
938.1994545647489,3441
940.4129542184515,3549
942.6258558248488,3505
944.8381596119883,3500
947.0498658079974,3546
949.2609746410825,3540
951.4714863395287,3460
953.6814011316998,3416
955.8907192460387,3444
958.0994409110671,3451
960.3075663553858,3414
962.5150958076741,3371
964.7220294966913,3398
966.928367651274,3331
969.1341105003388,3424
971.3392582728806,3367
973.5438111979742,3353
975.747769504772,3324
977.9511334225061,3400
980.153903180487,3518
982.3560790081052,3391
984.5576611348289,3328
986.7586497902058,3368
988.9590452038618,3289
991.158847605503,3278
993.3580572249133,3153
995.5566742919558,3201
997.7546990365728,3124
999.952131688785,3108
1002.1489724786926,3126
1004.3452216364743,3112
1006.5408793923874,3066
1008.7359459767691,3102
1010.9304216200343,3093
1013.1243065526781,3096
1015.3176010052733,3082
1017.510305208472,3052
1019.7024193930064,2929
1021.8939437896848,3003
1024.0848786293977,3020
1026.2752241431122,3026
1028.4649805618747,3045
1030.6541481168115,2983
1032.842727039127,2987
1035.0307175601051,2901
1037.2181199111074,3060
1039.4049343235752,2920
1041.591161029029,3007
1043.7768002590683,2916
1045.9618522453698,2921
1048.1463172196918,3005
1050.3301954138697,2932
1052.513487059818,2991
1054.69619238953,2937
1056.8783116350783,2940
1059.0598450286152,2906
1061.2407928023704,2926
1063.4211551886528,3040
1065.6009324198508,3034
1067.780124728432,2953
1069.9587323469414,2857
1072.1367555080046,2958
1074.314194444325,2954
1076.4910493886855,2916
1078.667320573947,2876
1080.843008233051,2961
1083.0181125990161,2881
1085.1926339049414,3081
1087.3665723840027,2869
1089.5399282694575,2889
1091.7127017946405,2868
1093.8848931929647,2880
1096.0565026979243,2869
1098.2275305430899,2867
1100.3979769621128,2861
1102.567842188722,2856
1104.737126456726,2880
1106.9058300000124,2774
1109.0739530525475,2812
1111.2414958483764,2852
1113.4084586216231,2757
1115.5748416064907,2789
1117.7406450372605,2863
1119.9058691482942,2757
1122.0705141740304,2837
1124.2345803489884,2715
1126.3980679077658,2789
1128.5609770850388,2870
1130.7233081155623,2842
1132.8850612341707,2867
1135.0462366757774,2792
1137.2068346753745,2713
1139.3668554680326,2714
1141.526299288901,2788
1143.68516637321,2738
1145.8434569562655,2855
1148.001171273455,2862
1150.158309560244,2748
1152.3148720521767,2786
1154.470858984876,2757
1156.626270594044,2725
1158.7811071154629,2781
1160.9353687849912,2767
1163.089055838569,2800
1165.242168512213,2773
1167.3947070420209,2628
1169.5466716641677,2816
1171.6980626149075,2763
1173.8488801305748,2781
1175.9991244475814,2773
1178.1487958024186,2729
1180.2978944316555,2699
1182.4464205719428,2727
1184.5943744600072,2722
1186.7417563326567,2756
1188.8885664267755,2777
1191.0348049793297,2697
1193.1804722273619,2732
1195.325568407995,2769
1197.4700937584303,2705
1199.614048515948,2766
1201.7574329179074,2721
1203.900247201746,2771
1206.042491604982,2702
1208.1841663652099,2726
1210.3252717201053,2711
1212.465807907422,2680
1214.6057751649923,2641
1216.7451737307279,2725
1218.8840038426192,2729
1221.0222657387353,2682
1223.1599596572241,2810
1225.2970858363137,2831
1227.4336445143094,2798
1229.5696359295966,2720
1231.705060320639,2747
1233.8399179259786,2685
1235.9742089842384,2658
1238.107933734118,2732
1240.2410924143974,2779
1242.373685263935,2707
1244.5057125216676,2757
1246.6371744266116,2704
1248.7680712178621,2726
1250.898403134593,2771
1253.028170416058,2692
1255.1573733015875,2737
1257.2860120305932,2668
1259.4140868425648,2705
1261.54159797707,2747
1263.6685456737569,2734
1265.7949301723515,2754
1267.9207517126597,2760
1270.046010534565,2763
1272.1707068780306,2744
1274.2948409830983,2724
1276.4184130898889,2784
1278.541423438603,2794
1280.6638722695184,2810
1282.785759822993,2800
1284.9070863394636,2830
1287.0278520594447,2806
1289.1480572235314,2820
1291.2677020723963,2876
1293.3867868467923,2798
1295.5053117875495,2894
1297.623277135579,2862
1299.740683131868,2915
1301.8575300174857,2882
1303.973818033578,2817
1306.0895474213703,2878
1308.2047184221678,2838
1310.3193312773528,2928
1312.4333862283888,2877
1314.5468835168163,2875
1316.659823384255,2965
1318.7722060724045,2854
1320.8840318230418,2869
1322.9953008780249,2887
1325.1060134792888,2910
1327.2161698688478,2910
1329.3257702887959,2922
1331.4348149813054,2845
1333.5433041886276,2885
1335.6512381530933,2762
1337.7586171171101,2942
1339.8654413231675,2881
1341.9717110138317,2870
1344.0774264317488,2790
1346.1825878196432,2868
1348.2871954203192,2816
1350.3912494766587,2839
1352.4947502316231,2777
1354.5976979282532,2760
1356.7000928096686,2791
1358.8019351190665,2781
1360.9032250997243,2863
1363.0039629949988,2851
1365.1041490483235,2781
1367.2037835032133,2806
1369.3028666032606,2804
1371.401398592137,2819
1373.4993797135926,2820
1375.5968102114575,2801
1377.6936903296396,2802
1379.7900203121262,2775
1381.8858004029835,2874
1383.9810308463561,2876
1386.075711886469,2785
1388.1698437676241,2791
1390.2634267342032,2827
1392.356461030667,2859
1394.4489469015557,2803
1396.5408845914872,2743
1398.6322743451592,2767
1400.7231164073469,2857
1402.813411022907,2813
1404.903158436773,2801
1406.9923588939578,2839
1409.0810126395531,2812
1411.1691199187303,2794
1413.2566809767386,2785
1415.343696058907,2776
1417.4301654106425,2753
1419.5160892774315,2867
1421.6014679048399,2773
1423.6863015385125,2838
1425.7705904241707,2706
1427.8543348076178,2743
1429.9375349347342,2864
1432.0201910514802,2899
1434.102303403894,2841
1436.1838722380944,2875
1438.2648978002767,2806
1440.3453803367174,2921
1442.4253200937692,2851
1444.5047173178677,2978
1446.5835722555234,2885
1448.6618851533285,2922
1450.739656257952,2920
1452.8168858161434,2927
1454.8935740747306,2877
1456.96972128062,2816
1459.045327680797,2963
1461.120393522327,2914
1463.1949190523528,2984
1465.2689045180973,2998
1467.3423501668608,2974
1469.415256246024,2991
1471.4876230030463,3027
1473.559450685465,3087
1475.6307395408976,3141
1477.7014898170391,3116
1479.771701761665,3049
1481.8413756226287,3163
1483.9105116478618,3124
1485.9791100853772,3202
1488.0471711832643,3129
1490.1146951896926,3189
1492.1816823529098,3263
1494.2481329212433,3234
1496.3140471430984,3253
1498.3794252669609,3194
1500.4442675413939,3263
1502.5085742150404,3311
1504.572345536622,3363
1506.6355817549388,3398
1508.6982831188702,3404
1510.7604498773744,3416
1512.8220822794883,3317
1514.8831805743293,3518
1516.9437450110909,3424
1519.003775839048,3525
1521.0632733075522,3613
1523.1222376660367,3751
1525.1806691640113,3751
1527.2385680510652,3765
1529.2959345768668,3802
1531.3527689911643,3803
1533.4090715437833,3866
1535.4648424846291,3904
1537.5200820636855,4001
1539.5747905310159,4045
1541.6289681367616,4027
1543.6826151311434,4046
1545.7357317644614,4196
1547.7883182870937,4103
1549.8403749494987,4264
1551.8919020022113,4222
1553.9428996958477,4498
1555.9933682811015,4517
1558.0433080087469,4494
1560.0927191296346,4672
1562.1416018946961,4644
1564.1899565549415,4605
1566.2377833614592,4675
1568.2850825654164,4671
1570.3318544180606,4445
1572.3780991707158,4462
1574.423817074788,4265
1576.4690083817595,4161
1578.5136733431923,3969
1580.5578122107272,3922
1582.601425236085,3839
1584.6445126710646,3597
1586.6870747675434,3593
1588.7291117774776,3455
1590.7706239529034,3497
1592.8116115459347,3408
1594.8520748087658,3337
1596.8920139936686,3141
1598.9314293529933,3150
1600.9703211391711,3252
1603.008689604711,3024
1605.0465350022005,3060
1607.0838575843068,2957
1609.1206576037753,2954
1611.1569353134305,2958
1613.1926909661765,2878
1615.2279248149953,3000
1617.2626371129481,2891
1619.2968281131757,2750
1621.3304980688963,2824
1623.3636472334088,2782
1625.39627586009,2884
1627.428384202396,2839
1629.459972513861,2841
1631.4910410480993,2777
1633.5215900588028,2806
1635.551619799744,2835
1637.5811305247717,2756
1639.6101224878166,2794
1641.6385959428862,2745
1643.6665511440683,2771
1645.693988345528,2729
1647.7209078015112,2719
1649.7473097663405,2785
1651.7731944944203,2703
1653.7985622402307,2759
1655.823413258333,2671
1657.847747803366,2688
1659.8715661300494,2686
1661.8948684931793,2756
1663.9176551476316,2695
1665.9399263483624,2732
1667.9616823504057,2672
1669.982923408873,2676
1672.0036497789574,2746
1674.0238617159293,2630
1676.043559475138,2659
1678.0627433120121,2731
1680.081413482059,2668
1682.0995702408654,2728
1684.117213844096,2657
1686.134344547495,2697
1688.1509626068864,2600
1690.1670682781705,2657
1692.182661817329,2639
1694.1977434804217,2654
1696.2123135235875,2680
1698.226372203043,2646
1700.2399197750851,2701
1702.2529564960905,2683
1704.2654826225112,2681
1706.277498410882,2659
1708.2890041178139,2654
1710.2999999999988,2722
1712.3104863142066,2717
1714.3204633172854,2690
1716.329931266163,2645
1718.3388904178469,2715
1720.3473410294214,2678
1722.3552833580516,2647
1724.3627176609807,2635
1726.3696441955308,2650
1728.3760632191033,2589
1730.3819749891782,2657
1732.3873797633146,2630
1734.3922777991502,2700
1736.3966693544012,2561
1738.4005546868639,2654
1740.4039340544127,2688
1742.406807715001,2661
1744.4091759266616,2659
1746.4110389475054,2637
1748.4123970357223,2632
1750.413250449582,2617
1752.4135994474318,2573
1754.4134442876993,2575
1756.4127852288902,2633
1758.4116225295893,2623
1760.4099564484595,2681
1762.407787244244,2634
1764.405115175764,2605
1766.4019405019203,2663
1768.3982634816916,2630
1770.3940843741357,2569
1772.3894034383907,2639
1774.3842209336717,2547
1776.378537119274,2572
1778.372352254571,2528
1780.3656665990156,2561
1782.3584804121397,2548
1784.3507939535534,2587
1786.3426074829463,2588
1788.3339212600863,2606
1790.3247355448211,2555
1792.3150505970766,2635
1794.3048666768573,2579
1796.2941840442477,2601
1798.2830029594106,2621
1800.2713236825884,2524
1802.2591464741004,2525
1804.2464715943465,2669
1806.2332993038058,2598
1808.2196298630352,2659
1810.2054635326708,2599
1812.190800573428,2550
1814.175641246101,2562
1816.1599858115628,2631
1818.1438345307652,2593
1820.127187664738,2633
1822.1100454745924,2580
1824.092408221516,2701
1826.0742761667766,2561
1828.055649571721,2611
1830.0365286977735,2680
1832.0169138064398,2588
1833.9968051593014,2544
1835.9762030180214,2555
1837.9551076443408,2612
1839.9335193000788,2680
1841.9114382471344,2670
1843.888864747485,2538
1845.8657990631878,2615
1847.842241456378,2599
1849.8181921892697,2548
1851.7936515241558,2572
1853.7686197234098,2654
1855.7430970494815,2690
1857.7170837649014,2596
1859.6905801322787,2594
1861.6635864143004,2639
1863.6361028737338,2640
1865.608129773424,2645
1867.5796673762961,2592
1869.5507159453537,2613
1871.521275743678,2663
1873.4913470344313,2624
1875.4609300808534,2567
1877.4300251462632,2596
1879.3986324940588,2685
1881.366752387717,2666
1883.3343850907936,2643
1885.3015308669228,2628
1887.268189979819,2612
1889.2343626932739,2608
1891.2000492711595,2633
1893.1652499774254,2648
1895.1299650761011,2625
1897.0941948312952,2569
1899.0579395071945,2607
1901.0211993680641,2547
1902.98397467825,2663
1904.9462657021745,2605
1906.9080727043415,2620
1908.869395949332,2591
1910.8302357018065,2614
1912.790592226504,2598
1914.7504657882428,2609
1916.7098566519212,2592
1918.6687650825133,2612
1920.6271913450764,2594
1922.5851357047422,2609
1924.5425984267245,2622
1926.499579776314,2608
1928.4560800188833,2668
1930.4120994198802,2615
1932.367638244833,2591
1934.32269675935,2617
1936.2772752291175,2696
1938.231373919899,2635
1940.1849930975404,2643
1942.1381330279637,2641
1944.0907939771696,2613
1946.0429762112412,2605
1947.9946799963363,2553
1949.9459055986945,2589
1951.896653284633,2555
1953.8469233205478,2684
1955.7967159729142,2600
1957.7460315082863,2690
1959.6948701932974,2621
1961.6432322946594,2652
1963.5911180791632,2640
1965.5385278136787,2592
1967.4854617651545,2543
1969.4319202006182,2658
1971.377903387176,2632
1973.3234115920136,2599
1975.268445082395,2613
1977.2130041256642,2632
1979.1570889892423,2545
1981.1006999406304,2626
1983.04383724741,2635
1984.986501177238,2594
1986.928691997853,2645
1988.8704099770712,2604
1990.811655382789,2627
1992.7524284829801,2644
1994.692729545698,2557
1996.6325588390755,2626
1998.5719166313224,2631
2000.5108031907307,2597
2002.4492187856677,2586
2004.387163684583,2627
2006.3246381560011,2668
2008.2616424685298,2634
2010.1981768908527,2612
2012.1342416917332,2634
2014.069837140014,2681
2016.0049635046162,2527
2017.9396210545406,2581
2019.8738100588666,2537
2021.8075307867502,2596
2023.740783507431,2534
2025.6735684902228,2577
2027.6058860045214,2557
2029.5377363198004,2583
2031.4691197056118,2617
2033.4000364315875,2520
2035.3304867674374,2614
2037.260470982952,2546
2039.189989347998,2653
2041.1190421325232,2617
2043.047629606554,2579
2044.9757520401945,2481
2046.9034097036288,2613
2048.8306028671195,2484
2050.7573318010086,2579
2052.683596775716,2559
2054.609398061742,2566
2056.5347359296647,2540
2058.4596106501403,2519
2060.384022493906,2658
2062.3079717317764,2570
2064.231458634646,2647
2066.1544834734873,2617
2068.077046519352,2685
2069.99914804337,2632
2071.9207883167524,2549
2073.8419676107865,2625
2075.7626861968406,2595
2077.6829443463607,2681
2079.6027423308715,2577
2081.522080421977,2547
2083.440958891362,2665
2085.359378010786,2579
2087.2773380520907,2522
2089.194839287196,2568
2091.111881988101,2462
2093.0284664268825,2494
2094.9445928756973,2610
2096.86026160678,2619
2098.775472892446,2628
2100.690227005088,2582
2102.604524217178,2597
2104.5183648012676,2630
2106.431749029985,2668
2108.34467717604,2581
2110.2571495122206,2595
2112.169166311393,2584
2114.080727846503,2601
2115.9918343905747,2619
2117.902486216711,2677
2119.8126835980956,2640
2121.722426807987,2587
2123.6317161197285,2586
2125.5405518067364,2562
2127.448934142509,2609
2129.356863400624,2604
2131.264339854737,2613
2133.1713637785815,2490
2135.077935445972,2593
2136.9840551308002,2528
2138.889723107037,2625
2140.7949396487334,2660
2142.699705030018,2586
2144.6040195250994,2618
2146.507883408264,2575
2148.4112969538774,2583
2150.3142604363848,2619
2152.2167741303097,2592
2154.1188383102535,2633
2156.0204532508997,2618
2157.9216192270064,2603
2159.822336513414,2572
2161.7226053850413,2542
2163.622426116884,2560
2165.5217989840185,2635
2167.4207242616,2577
2169.319202224862,2532
2171.2172331491165,2644
2173.1148173097563,2512
2175.0119549822507,2654
2176.90864644215,2654
2178.8048919650823,2532
2180.7006918267534,2625
2182.596046302952,2543
2184.4909556695407,2601
2186.3854202024645,2611
2188.279440177746,2593
2190.173015871487,2627
2192.066147559868,2681
2193.958835519149,2603
2195.851080025667,2592
2197.7428813558417,2520
2199.6342397861667,2687
2201.5251555932186,2597
2203.415629053651,2674
2205.3056604441986,2616
2207.19525004167,2577
2209.084398122958,2559
2210.9731049650327,2607
2212.861370844941,2679
2214.749196039812,2563
2216.636580826851,2678
2218.523525483344,2677
2220.410030286655,2572
2222.296095514226,2616
2224.1817214435805,2642
2226.066908352319,2618
2227.951656518121,2643
2229.835966218746,2536
2231.71983773203,2691
2233.6032713358913,2647
2235.486267308324,2590
2237.3688259274036,2670
2239.2509474712824,2601
2241.132632218193,2630
2243.013880446447,2621
2244.8946924344323,2600
2246.7750684606203,2589
2248.6550088035574,2559
2250.534513741871,2602
2252.413583554265,2630
2254.292218519526,2566
2256.170418916517,2611
2258.0481850241786,2676
2259.925517121534,2686
2261.8024154876825,2650
2263.678880401803,2533
2265.5549121431536,2582
2267.430510991071,2570
2269.305677224971,2605
2271.180411124348,2571
2273.0547129687766,2605
2274.9285830379076,2545
2276.8020216114737,2580
2278.6750289692845,2583
2280.5476053912294,2649
2282.4197511572766,2618
2284.2914665474727,2572
2286.162751841943,2621
2288.0336073208937,2565
2289.904033264608,2684
2291.774029953448,2603
2293.6435976678554,2635
2295.5127366883517,2603
2297.381447295534,2570
2299.2497297700825,2562
2301.1175843927526,2671
2302.9850114443825,2700
2304.852011205885,2613
2306.7185839582553,2657
2308.5847299825664,2710
2310.4504495599676,2672
2312.3157429716925,2590
2314.1806104990483,2598
2316.0450524234247,2670
2317.9090690262888,2686
2319.772660589186,2654
2321.635827393742,2693
2323.498569721661,2633
2325.3608878547248,2631
2327.2227820747967,2668
2329.0842526638157,2694
2330.945299903803,2647
2332.805924076857,2737
2334.6661254651535,2653
2336.525904350951,2665
2338.3852610165827,2627
2340.244195744464,2617
2342.102708817088,2626
2343.9608005170253,2649
2345.8184711269287,2663
2347.675720929526,2667
2349.532550207628,2731
2351.38895924412,2613
2353.24494832197,2622
2355.100517724223,2699
2356.955667734004,2720
2358.810398634514,2703
2360.664710709037,2659
2362.5186042409337,2654
2364.3720795136437,2607
2366.225136810686,2672
2368.0777764156583,2722
2369.929998612237,2699
2371.7818036841777,2676
2373.633191915315,2707
2375.484163589562,2689
2377.3347189909114,2683
2379.184858403434,2668
2381.03458211128,2606
2382.8838903986775,2653
2384.732783549936,2732
2386.5812618494406,2723
2388.4293255816588,2664
2390.2769750311327,2680
2392.1242104824883,2705
2393.971032220427,2610
2395.8174405297295,2616
2397.6634356952563,2712
2399.509018001947,2672
2401.3541877348193,2706
2403.1989451789705,2643
2405.043290619576,2658
2406.8872243418905,2650
2408.730746631247,2639
2410.5738577730594,2680
2412.4165580528183,2637
2414.258847756095,2682
2416.100727168537,2723
2417.9421965758734,2662
2419.783256263912,2713
2421.623906518538,2684
2423.4641476257157,2698
2425.303979871491,2686
2427.143403541984,2647
2428.9824189233977,2575
2430.821026302012,2673
2432.6592259641866,2723
2434.497018196361,2707
2436.33440328505,2711
2438.171381516851,2777
2440.00795317844,2675
2441.844118556569,2670
2443.6798779380724,2696
2445.5152316098606,2699
2447.3501798589255,2696
2449.1847229723357,2705
2451.0188612372403,2694
2452.8525949408663,2659
2454.6859243705203,2664
2456.518849813587,2656
2458.3513715575314,2675
2460.183489889895,2663
2462.015205098301,2732
2463.8465174704493,2646
2465.67742729412,2684
2467.5079348571717,2721
2469.338040447542,2600
2471.1677443532476,2728
2472.9970468623833,2700
2474.825948263123,2572
2476.6544488437207,2606
2478.482548892508,2636
2480.310248697896,2705
2482.137548548374,2689
2483.9644487325118,2699
2485.790949538956,2683
2487.617051256433,2691
2489.44275417375,2682
2491.26805857979,2677
2493.0929647635157,2706
2494.917473013971,2729
2496.741583620276,2682
2498.5652968716304,2683
2500.3886130573137,2709
2502.2115324666834,2788
2504.0340553891765,2741
2505.856182114308,2811
2507.6779129316733,2598
2509.499248130945,2659
2511.3201880018764,2684
2513.140732834298,2717
2514.9608829181198,2736
2516.780638543331,2649
2518.6,2673
2520.418967578273,2753
2522.237541568376,2679
2524.0557222606144,2726
2525.8735099453706,2719
2527.6909049131086,2703
2529.507907454368,2684
2531.32451785977,2752
2533.140736420014,2762
2534.9565634258774,2713
2536.771999168218,2722
2538.5870439379714,2691
2540.4016980261526,2706
2542.2159617238544,2657
2544.02983532225,2717
2545.8433191125914,2845
2547.656413386209,2725
2549.4691184345115,2697
2551.2814345489874,2789
2553.093362021204,2717
2554.904901142808,2749
2556.716052205523,2731
2558.526815501153,2707
2560.3371913215824,2739
2562.147179958771,2842
2563.956781704761,2806
2565.7659968516705,2782
2567.5748256916986,2858
2569.3832685171224,2817
2571.1913256202984,2791
2572.9989972936614,2897
2574.806283829725,2912
2576.613185521084,2856
2578.4197026604074,2900
2580.2258355404483,2802
2582.031584454035,2838
2583.836949694077,2857
2585.6419315535613,2822
2587.4465303255533,2831
2589.2507463032002,2816
2591.0545797797245,2873
2592.8580310484303,2811
2594.6611004026995,2838
2596.463788135992,2937
2598.266094541849,2857
2600.0680199138874,2730
2601.869564545807,2891
2603.670728731383,2974
2605.4715127644704,2904
2607.2719169390048,2880
2609.071941548998,2916
2610.8715868885433,2922
2612.670853251811,2877
2614.469740933052,2869
2616.268250226594,2888
2618.0663814268455,2974
2619.864134828292,2974
2621.6615107255006,2911
2623.458509413115,2857
2625.2551311858597,2885
2627.0513763385347,2862
2628.8472451660223,2812
2630.6427379632833,2879
2632.4378550253564,2832
2634.232596647359,2892
2636.026963124488,2913
2637.8209547520187,2814
2639.6145718253065,2879
2641.407814639785,2870
2643.200683490966,2892
2644.9931786744414,2847
2646.7853004858807,2741
2648.577049221034,2741
2650.3684251757277,2723
2652.1594286458712,2770
2653.9500599274484,2724
2655.740319316525,2813
2657.5302071092437,2707
2659.3197236018286,2667
2661.10886909058,2768
2662.8976438718782,2755
2664.686048242183,2754
2666.4740824980327,2762
2668.2617469360443,2644
2670.0490418529134,2727
2671.8359675454153,2790
2673.622524310403,2728
2675.408712444811,2712
2677.1945322456495,2654
2678.979984010009,2672
2680.76506803506,2687
2682.5497846180497,2636
2684.334134056306,2704
2686.1181166472343,2710
2687.9017326883213,2687
2689.6849824771293,2674
2691.4678663113013,2554
2693.2503844885596,2623
2695.032537306705,2569
2696.8143250636167,2620
2698.5957480572542,2624
2700.3768065856534,2680
2702.1575009469316,2677
2703.937831439283,2684
2705.717798360982,2582
2707.4974020103837,2569
2709.276642685917,2614
2711.055520686095,2657
2712.834036309506,2653
2714.612189854819,2613
2716.389981620782,2645
2718.1674119062204,2606
2719.944481010041,2608
2721.721189231226,2587
2723.4975368688415,2554
2725.273524222027,2563
2727.0491515900053,2612
2728.824419272075,2622
2730.5993275676146,2560
2732.3738767760838,2598
2734.148067197016,2495
2735.921899130031,2538
2737.6953728748194,2629
2739.468488731156,2566
2741.2412469988926,2505
2743.0136479779617,2672
2744.785691968372,2580
2746.5573792702116,2566
2748.3287101836504,2557
2750.099685008934,2591
2751.870304046388,2534
2753.640567596418,2660
2755.4104759595057,2610
2757.1800294362156,2550
2758.949228327187,2566
2760.7180729331412,2511
2762.486563554877,2541
2764.254700493272,2529
2766.022484049284,2522
2767.789914523947,2605
2769.5569922183786,2592
2771.3237174337705,2565
2773.090090471394,2569
2774.8561116326036,2477
2776.6217812188274,2604
2778.3870995315756,2444
2780.1520668724356,2503
2781.9166835430747,2606
2783.6809498452394,2506
2785.444866080754,2565
2787.2084325515225,2502
2788.971649559527,2492
2790.73451740683,2534
2792.4970363955713,2584
2794.2592068279705,2518
2796.0210290063264,2456
2797.7825032330147,2630
2799.543629810493,2492
2801.304409041296,2621
2803.0648412280366,2572
2804.8249266734088,2576
2806.5846656801846,2568
2808.344058551212,2533
2810.1031055894246,2540
2811.8618070978273,2575
2813.6201633795085,2428
2815.378174737636,2558
2817.1358414754536,2584
2818.893163896285,2538
2820.6501423035334,2543
2822.4067770006814,2473
2824.1630682912883,2533
2825.9190164789957,2513
2827.6746218675207,2534
2829.429884760661,2495
2831.184805462294,2558
2832.9393842763743,2532
2834.693621506936,2483
2836.4475174580916,2585
2838.201072434034,2529
2839.954286739034,2491
2841.707160677441,2487
2843.459694553685,2549
2845.2118886722724,2511
2846.96374333779,2511
2848.7152588549034,2556
2850.4664355283567,2483
2852.217273662973,2635
2853.9677735636546,2516
2855.7179355353833,2504
2857.4677598832186,2558
2859.217246912299,2536
2860.9663969278427,2487
2862.715210235146,2550
2864.4636871395846,2505
2866.211827946614,2583
2867.9596329617652,2467
2869.7071024906536,2499
2871.4542368389684,2546
2873.20103631248,2566
2874.947501217038,2549
2876.6936318585695,2549
2878.4394285430812,2496
2880.1848915766604,2559
2881.9300212654707,2496
2883.6748179157553,2420
2885.4192818338374,2520
2887.1634133261173,2543
2888.907212699077,2527
2890.6506802592744,2492
2892.393816313348,2465
2894.1366211680142,2522
2895.8790951300693,2508
2897.621238506388,2579
2899.363051603925,2526
2901.1045347297118,2542
2902.8456881908596,2559
2904.58651229456,2497
2906.327007348081,2502
2908.067173658772,2528
2909.8070115340597,2512
2911.5465212814497,2470
2913.285703208527,2450
2915.0245576229563,2455
2916.7630848324807,2478
2918.5012851449196,2495
2920.2391588681758,2489
2921.976706310227,2469
2923.7139277791334,2435
2925.4508235830313,2536
2927.187394030137,2511
2928.923639428745,2478
2930.6595600872306,2532
2932.395156314046,2452
2934.1304284177218,2498
2935.8653767068713,2468
2937.6000014901815,2519
2939.3343030764227,2478
2941.068281774442,2548
2942.8019378931644,2547
2944.5352717415976,2475
2946.2682836288236,2567
2948.0009738640065,2437
2949.7333427563885,2476
2951.465390615289,2532
2953.1971177501086,2473
2954.9285244703265,2508
2956.6596110855,2523
2958.3903779052657,2471
2960.1208252393385,2464
2961.8509533975125,2496
2963.5807626896617,2464
2965.3102534257378,2522
2967.0394259157715,2448
2968.768280469873,2483
2970.496817398232,2488
2972.2250370111146,2558
2973.952939618869,2447
2975.6805255319196,2437
2977.4077950607707,2581
2979.134748516006,2523
2980.861386208289,2553
2982.587708448359,2630
2984.313715547037,2510
2986.039407815222,2435
2987.764785563891,2493
2989.489849104102,2442
2991.2145987469908,2479
2992.9390348037705,2543
2994.6631575857346,2533
2996.3869674042576,2530
2998.1104645707887,2561
2999.83364939686,2443
3001.5565221940783,2515
3003.2790832741334,2468
3005.0013329487924,2461
3006.7232715298996,2517
3008.4448993293804,2497
3010.166216659239,2474
3011.887223831558,2471
3013.607921158498,2470
3015.3283089522993,2518
3017.0483875252826,2412
3018.7681571898443,2501
3020.4876182584626,2408
3022.2067710436927,2444
3023.9256158581707,2418
3025.644153014609,2485
3027.362382825801,2440
3029.0803056046193,2437
3030.797921664012,2382
3032.5152313170106,2490
3034.2322348767225,2446
3035.9489326563353,2433
3037.665324969115,2525
3039.3814121284063,2465
3041.097194447633,2475
3042.812672240299,2462
3044.5278458199855,2502
3046.2427155003525,2487
3047.9572815951406,2452
3049.671544418167,2497
3051.38550428333,2481
3053.0991615046073,2458
3054.812516396051,2504
3056.5255692717974,2449
3058.2383204460575,2473
3059.9507702331257,2507
3061.662918947372,2500
3063.3747669032446,2473
3065.0863144152736,2458
3066.7975617980674,2539
3068.508509366309,2428
3070.219157434767,2410
3071.9295063182844,2438
3073.639556331785,2472
3075.3493077902704,2459
3077.058761008821,2472
3078.7679163025964,2410
3080.476773986837,2378
3082.1853343768594,2436
3083.89359778806,2449
3085.6015645359153,2563
3087.3092349359786,2553
3089.016609303884,2447
3090.7236879553434,2468
3092.4304712061476,2490
3094.136959372166,2401
3095.843152769349,2398
3097.5490517137237,2431
3099.2546565213966,2472
3100.959967508554,2449
3102.66498499146,2392
3104.3697092864577,2380
3106.0741407099695,2482
3107.778279578498,2438
3109.482126208622,2412
3111.1856809170004,2514
3112.8889440203716,2515
3114.5919158355528,2471
3116.294596679439,2371
3117.996986869006,2476
3119.6990867213062,2470
3121.4008965534726,2412
3123.102416682717,2481
3124.803647426329,2514
3126.5045891016784,2492
3128.205242026213,2427
3129.90560651746,2538
3131.605682893025,2454
3133.3054714705922,2454
3135.0049725679282,2522
3136.7041865028714,2375
3138.4031135933465,2493
3140.101754157353,2421
3141.800108512971,2395
3143.498176978357,2467
3145.1959598717494,2473
3146.8934575114636,2419
3148.5906702158954,2445
3150.2875983035183,2456
3151.9842420928853,2477
3153.680601902627,2433
3155.376678051456,2441
3157.07247085816,2406
3158.767980641609,2396
3160.463207720748,2351
3162.158152414606,2326
3163.8528150422862,2435
3165.5471959229726,2431
3167.2412953759303,2406
3168.9351137204976,2437
3170.628651276098,2454
3172.3219083622307,2535
3174.014885298474,2384
3175.707582404485,2447
3177.4000000000005,2396
3179.092138404835,2478
3180.7839979388846,2429
3182.47557892212,2442
3184.166881674594,2435
3185.8579065164386,2419
3187.5486537678626,2479
3189.2391237491547,2417
3190.9293167806827,2384
3192.6192331828934,2449
3194.3088732763117,2441
3195.998237381542,2385
3197.687325819268,2430
3199.376138910251,2368
3201.064676975334,2481
3202.7529403354347,2480
3204.4409293115523,2384
3206.1286442247647,2406
3207.816085396229,2436
3209.5032531471825,2380
3211.190147798936,2336
3212.8767696728846,2336
3214.5631190905015,2439
3216.2491963733373,2307
3217.9350018430214,2348
3219.6205358212637,2382
3221.305798629851,2339
3222.990790590651,2338
3224.6755120256103,2271
3226.359963256751,2399
3228.0441446061795,2334
3229.7280563960758,2369
3231.411698948703,2379
3233.0950725863995,2258
3234.778177631587,2421
3236.461014406761,2395
3238.1435832345005,2426
3239.8258844374595,2401
3241.507918338374,2385
3243.1896852600576,2383
3244.8711855254023,2462
3246.552419457381,2421
3248.233387379042,2357
3249.914089613516,2361
3251.59452648401,2457
3253.274698313813,2438
3254.95460542629,2407
3256.6342481448855,2350
3258.313626793125,2298
3259.9927416946084,2293
3261.6715931730196,2340
3263.3501815521176,2353
3265.0285071557437,2255
3266.706570307815,2280
3268.3843713323286,2432
3270.0619105533615,2409
3271.739188295068,2426
3273.4162048816834,2353
3275.0929606375184,2446
3276.769455886966,2354
3278.445690954498,2400
3280.1216661646613,2410
3281.797381842087,2388
3283.4728383114807,2384
3285.1480358976296,2354
3286.8229749253996,2380
3288.4976557197333,2366
3290.172078605655,2348
3291.846243908266,2370
3293.5201519527463,2211
3295.193803064357,2307
3296.8671975684374,2287
3298.5403357904024,2365
3300.21321805575,2332
3301.8858446900567,2353
3303.558216018975,2360
3305.23033236824,2367
3306.9021940636603,2358
3308.57380143113,2340
3310.2451547966184,2324
3311.916254486174,2316
3313.5871008259246,2265
3315.2576941420766,2373
3316.9280347609147,2368
3318.5981230088046,2339
3320.2679592121895,2293
3321.9375436975924,2333
3323.606876791612,2288
3325.27595882093,2200
3326.944790112305,2287
3328.6133709925753,2283
3330.2817017886573,2265
3331.949782827547,2239
3333.617614436319,2301
3335.2851969421245,2309
3336.952530672199,2326
3338.619615953853,2321
3340.286453114475,2354
3341.9530424815357,2375
3343.619384382583,2385
3345.2854791452437,2324
3346.951327097224,2266
3348.6169285663073,2336
3350.2822838803577,2350
3351.947393367319,2355
3353.61225735521,2368
3355.2768761721345,2319
3356.9412501462693,2315
3358.605379605873,2333
3360.2692648792827,2338
3361.9329062949146,2355
3363.596304181263,2260
