CollectionTime,6/26/2024 3:53:55 PM
ExposureUsed,3
CalibratedSpectrum
-962.7078968117929,630
-959.9714848408522,687
-957.2358232597828,648
-954.5009119013725,645
-951.7667505983302,636
-949.0333391832855,655
-946.3006774887896,639
-943.5687653473143,655
-940.837602591253,679
-938.1071890529199,691
-935.3775245645503,635
-932.6486089583007,657
-929.9204420662485,678
-927.1930237203925,689
-924.4663537526524,679
-921.7404319948689,660
-919.0152582788041,697
-916.2908324361409,714
-913.5671542984834,720
-910.8442236973568,686
-908.1220404642074,707
-905.4006044304027,685
-902.679915427231,712
-899.959973285902,699
-897.2407778375464,737
-894.5223289132158,714
-891.8046263438832,680
-889.0876699604426,685
-886.3714595937089,668
-883.6559950744183,649
-880.9412762332282,649
-878.2273029007168,646
-875.5140749073835,711
-872.8015920836489,702
-870.0898542598545,676
-867.3788612662631,642
-864.6686129330585,660
-861.9591090903457,621
-859.2503495681506,612
-856.5423341964203,606
-853.8350628050229,626
-851.1285352237478,663
-848.4227512823054,596
-845.7177108103272,665
-843.0134136373656,644
-840.3098595928943,642
-837.6070485063082,679
-834.9049802069229,686
-832.2036545239757,664
-829.5030712866244,661
-826.8032303239481,614
-824.1041314649472,626
-821.4057745385428,634
-818.7081593735775,639
-816.0112857988148,651
-813.3151536429393,636
-810.6197627345566,631
-807.9251129021936,592
-805.2312039742981,602
-802.5380357792392,628
-799.8456081453069,649
-797.1539209007124,636
-794.462973873588,629
-791.772766891987,640
-789.083299783884,656
-786.3945723771743,643
-783.7065844996748,661
-781.0193359791231,667
-778.3328266431781,690
-775.6470563194197,679
-772.9620248353489,657
-770.2777320183878,638
-767.5941776958798,669
-764.9113616950891,709
-762.2292838432011,678
-759.5479439673222,663
-756.8673418944801,644
-754.1874774516235,663
-751.5083504656222,675
-748.8299607632671,626
-746.15230817127,651
-743.475392516264,667
-740.7992136248035,680
-738.1237713233636,676
-735.4490654383407,655
-732.7750957960521,702
-730.1018622227365,702
-727.4293645445534,677
-724.7576025875837,662
-722.0865761778291,689
-719.4162851412126,666
-716.7467293035781,689
-714.0779084906909,724
-711.409822528237,773
-708.7424712418238,726
-706.0758544569796,693
-703.4099719991541,696
-700.7448236937178,719
-698.0804093659622,762
-695.4167288411002,736
-692.7537819442656,737
-690.0915685005134,679
-687.4300883348199,727
-684.7693412720819,752
-682.1093271371178,727
-679.4500457546669,727
-676.7914969493897,717
-674.1336805458676,717
-671.4765963686034,761
-668.8202442420206,700
-666.1646239904642,732
-663.5097354382001,755
-660.8555784094151,755
-658.2021527282176,732
-655.5494582186366,792
-652.8974947046223,778
-650.2462620100463,798
-647.5957599587009,747
-644.9459883742998,755
-642.2969470804776,851
-639.6486359007902,786
-637.0010546587141,810
-634.3542031776476,816
-631.7080812809096,764
-629.0626887917401,777
-626.4180255333008,736
-623.7740913286734,773
-621.1308860008619,757
-618.4884093727904,735
-615.8466612673046,772
-613.2056415071715,731
-610.5653499150785,750
-607.9257863136347,752
-605.28695052537,736
-602.6488423727357,779
-600.0114616781036,739
-597.3748082637674,792
-594.7388819519412,795
-592.1036825647604,756
-589.4692099242818,810
-586.8354638524829,757
-584.2024441712624,766
-581.5701507024403,803
-578.9385832677575,780
-576.3077416888759,827
-573.6776257873787,762
-571.0482353847704,763
-568.4195703024757,774
-565.7916303618415,855
-563.164415384135,886
-560.5379251905453,795
-557.9121596021815,772
-555.2871184400748,797
-552.6628015251767,819
-550.0392086783606,823
-547.4163397204204,846
-544.794194472071,783
-542.1727727539491,778
-539.5520743866118,811
-536.9320991905377,868
-534.3128469861261,851
-531.6943175936979,905
-529.0765108334947,918
-526.4594265256793,1023
-523.8430644903358,1158
-521.2274245474689,1317
-518.612506517005,1453
-515.9983102187913,1582
-513.3848354725959,1728
-510.77208209810846,1757
-508.16004991493924,1794
-505.5487387426199,1894
-502.9381484006032,2053
-500.3282787082628,2240
-497.71912948489364,2381
-495.1107005497117,2344
-492.5029917218539,2272
-489.8960028203786,2124
-487.28973366426493,1922
-484.68418407241325,1672
-482.07935386364494,1449
-479.47524285670266,1310
-476.87185087025,1305
-474.2691777228715,1298
-471.66722323307334,1248
-469.0659872192821,1131
-466.4654694998459,1091
-463.86566989303384,1110
-461.26658821703614,1106
-458.66822428996414,1088
-456.07057792985,1086
-453.4736489546475,1037
-450.877437182231,1042
-448.28194243039627,1139
-445.68716451686,1045
-443.09310325926003,1094
-440.49975847515555,1027
-437.9071299820263,1012
-435.31521759727354,1068
-432.72402113821954,1076
-430.13354042210767,1089
-427.5437752661022,1091
-424.95472548728867,1213
-422.36639090267386,1122
-419.7787713291855,1136
-417.1918665836721,1150
-414.60567648290385,1130
-412.0202008435715,1090
-409.4354394822874,1156
-406.8513922155845,1084
-404.26805885991723,1094
-401.685439231661,1159
-399.103533147112,1180
-396.522340422488,1139
-393.9418608739278,1185
-391.3620943174908,1165
-388.7830405691583,1136
-386.2046994448317,1140
-383.6270707603344,1076
-381.05015433141045,990
-378.473949973725,905
-375.8984575028645,923
-373.32367673433623,895
-370.74960748356875,879
-368.1762495659117,782
-365.60360279663576,703
-363.03166699093265,698
-360.4604419639154,742
-357.8899275306178,687
-355.32012350599507,606
-352.7510297049233,585
-350.1826459421999,609
-347.61497203254316,644
-345.04800779059235,600
-342.4817530309082,559
-339.91620756797226,574
-337.35137121618743,545
-334.7872437898774,588
-332.22382510328725,598
-329.66111497058273,650
-327.09911320585127,661
-324.53781962310075,671
-321.9772340362607,688
-319.4173562591816,681
-316.8581861056348,670
-314.2997233893127,710
-311.7419679238294,751
-309.1849195227194,721
-306.62857799943856,655
-304.0729431673641,618
-301.51801483979375,608
-298.963792829947,636
-296.41027695096386,697
-293.85746701590574,788
-291.3053628377552,852
-288.7539642294155,821
-286.2032710037115,767
-283.65328297338897,756
-281.1039999511146,745
-278.5554217494762,885
-276.007548180983,784
-273.4603790580651,689
-270.9139141930734,723
-268.3681533982807,761
-265.8230964858798,718
-263.27874326798565,700
-260.7350935566336,739
-258.1921471637804,830
-255.6499039013039,826
-253.10836358100266,831
-250.56752601459698,779
-248.02739101372765,826
-245.48795838995704,826
-242.94922795476816,831
-240.41119951956557,822
-237.8738728956746,954
-235.33724789434166,1030
-232.80132432673452,929
-230.2661020039418,1116
-227.73158073697357,1216
-225.19776033676033,1044
-222.66464061415422,1005
-220.1322213799284,951
-217.60050244477725,982
-215.06948361931552,1071
-212.53916471408013,969
-210.00954553952818,960
-207.48062590603843,1070
-204.9524056239104,1235
-202.4248845033651,1092
-199.8980623545441,1067
-197.37193898751036,1047
-194.84651421224817,1152
-192.32178783866232,1147
-189.79775967657952,1117
-187.27442953574644,1155
-184.7517972258321,1074
-182.2298625564256,1050
-179.7086253370378,1212
-177.18808537710026,1429
-174.66824248596583,1374
-172.14909647290835,1385
-169.6306471471229,1379
-167.11289431772548,1335
-164.59583779375328,1314
-162.07947738416453,1253
-159.5638128978386,1378
-157.04884414357605,1380
-154.53457093009854,1424
-152.02099306604828,1353
-149.50811035998936,1318
-146.99592262040665,1409
-144.48442965570587,1321
-141.97363127421409,1504
-139.46352728417958,1670
-136.95411749377126,1667
-134.44540171107985,2021
-131.93737974411636,2102
-129.43005140081357,2101
-126.92341648902493,1825
-124.41747481652521,1969
-121.91222619101006,1896
-119.40767042009657,1795
-116.90380731132257,1778
-114.40063667214702,2011
-111.8981583099503,2186
-109.3963720320337,2137
-106.89527764561933,2027
-104.39487495785067,2298
-101.89516377579241,2323
-99.39614390642998,2327
-96.89781515667039,2273
-94.40017733334128,2490
-91.90323024319173,2530
-89.40697369289148,2549
-86.91140748903172,2360
-84.41653143812482,2342
-81.92234534660395,2361
-79.42884902082358,2635
-76.93604226705907,2744
-74.4439248915071,2599
-71.95249670028534,2522
-69.46175749943245,2950
-66.97170709490854,3170
-64.48234529259423,3885
-61.99367189829195,3830
-59.50568671772464,3886
-57.01838955653636,4219
-54.53178022029283,4270
-52.045858514480074,4426
-49.560624244506016,5250
-47.07607721569923,5082
-44.59221723330904,4946
-42.10904410250669,4741
-39.62655762838392,5468
-37.14475761595372,7546
-34.66364387015028,7981
-32.18321619582866,8436
-29.70347439776515,9191
-27.224418280657005,10099
-24.74604764912317,14051
-22.26836230770266,20593
-19.7913620608565,32626
-17.315046712966478,50695
-14.83941606833514,61721
-12.36446993118659,65038
-9.89020810566592,65038
-7.416630395839093,65038
-4.94373660569363,65038
-2.471526539137585,65038
-6.821210263296962E-13,65038
2.47084320796705,65038
4.941003281093458,65038
7.410480415786196,65038
9.879274808531363,65038
12.347386655893956,65038
14.814816154518212,65038
17.28156350112681,65038
19.74762889252179,65038
22.21301252558385,65038
24.67771459727237,65038
27.141735304626195,65038
29.605074844762612,42740
32.06773341487792,16831
34.52971121224755,11051
36.99100843422559,10136
39.45162527824516,12394
41.91156194181792,12517
44.370818622535126,18748
46.82939551806646,24451
49.287292826160524,23169
51.74451074464503,18432
54.201049471426245,13208
56.65690920448981,8789
59.112090141899785,5175
61.56659248179983,4428
64.02041642241159,3687
66.4735621620365,4415
68.92602989905402,3849
71.37781983192338,3783
73.82893215918205,3956
76.27936707944684,3424
78.72912479141326,3715
81.17820549385567,4111
83.62660938562783,4026
86.07433666566146,3385
88.5213875329681,3673
90.96776218663751,3674
93.41346082583925,3282
95.85848364982041,3341
98.30283085790859,3067
100.7465026495089,3194
103.18949922410604,3423
105.63182078126385,2823
108.07346752062438,3229
110.51443964190923,3106
112.95473734491827,2620
115.39436082953114,2341
117.83331029570547,2516
120.27158594347827,2705
122.7091879729652,2294
125.1461165843615,2295
127.58237197794062,2089
130.01795435405518,1675
132.4528639131364,1811
134.88710085569494,2080
137.32066538231982,2250
139.75355769367923,2169
142.1857779905207,2107
144.61732647366978,2161
147.04820334403132,1906
149.47840880258934,1824
151.90794305040674,2096
154.33680628862487,2155
156.76499871846443,1979
159.19252054122433,2081
161.61937195828352,2225
164.04555317109896,2101
166.47106438120693,2369
168.89590579022217,3021
171.320077599839,2936
173.7435800118302,2907
176.16641322804742,3025
178.58857745042144,2986
181.01007288096173,2973
183.43089972175687,3046
185.85105817497413,2907
188.27054844285988,3053
190.6893707277394,3006
193.10752523201643,2923
195.5250121581745,3106
197.9418317087751,3336
200.3579840864594,3161
202.7734694939469,3195
205.18828813403627,3358
207.6024402096051,3089
210.01592592360964,3162
212.42874547908548,3356
214.84089907914665,3053
217.2523869269868,2948
219.66320922587727,3153
222.0733661791695,3040
224.48285799029293,2996
226.8916848627572,3146
229.29984700014882,3320
231.7073446061355,3184
234.11417788446204,3287
236.520347038953,3132
238.92585227351185,3313
241.33069379212054,3484
243.73487179884035,3392
246.1383864978112,3203
248.541238093252,3217
250.9434267894609,3335
253.34495279081432,3309
255.74581630176783,3100
258.1460175268563,3294
260.54555667069314,3192
262.9444339379703,3095
265.3426495334594,3049
267.7402036620107,3114
270.1370965285529,3156
272.53332833809407,3075
274.9288992957214,2949
277.32380960660055,3016
279.718059475976,2875
282.1116491091717,2904
284.5045787115897,3048
286.89684848871195,2973
289.2884586460981,3108
291.67940938938807,2889
294.0697009242996,2938
296.4593334566299,2954
298.84830719225477,2922
301.23662233712923,2908
303.6242790972866,2887
306.01127767884,2900
308.39761828798066,2941
310.78330113097934,2838
313.16832641418534,2843
315.5526943440269,2824
317.9364051270112,2683
320.3194589697242,2653
322.70185607883093,2612
325.0835966610754,2664
327.4646809232805,2552
329.8451090723478,2657
332.2248813152577,2722
334.6039978590701,2650
336.9824589109231,2615
339.36026467803447,2519
341.7374153677,2649
344.113911187295,2506
346.48975234427337,2450
348.8649390461686,2400
351.2394715005918,2465
353.61334991523415,2390
355.9865744978655,2385
358.35914545633375,2382
360.73106299856715,2378
363.10232733257146,2442
365.47293866643247,2409
367.84289720831396,2407
370.2122031664593,2432
372.5808567491905,2343
374.9488581649083,2315
377.31620762209275,2372
379.6829053293021,2385
382.0489514951745,2359
384.4143463284262,2412
386.7790900378528,2401
389.14318283232853,2311
391.50662492080653,2295
393.86941651231916,2282
396.23155781597745,2224
398.5930490409713,2282
400.9538903965696,2294
403.3140820921202,2247
405.6736243370498,2193
408.03251734086336,2259
410.3907613131465,2217
412.74835646356166,2213
415.10530300185144,2166
417.4616011378372,2274
419.81725108141893,2311
422.1722530425758,2203
424.5266072313656,2184
426.880313857925,2220
429.2333731324701,2215
431.58578526529516,2195
433.9375504667738,2131
436.2886689473588,2154
438.63914091758113,2186
440.9889665880513,2090
443.33814616945835,2163
445.68667987257015,2138
448.03456790823395,2177
450.3818104873759,2135
452.72840782100013,2162
455.07436012019105,2120
457.41966759611057,2107
459.7643304600007,2149
462.10834892318155,2153
464.4517231970525,2182
466.79445349309174,2206
469.1365400228566,2230
471.4779829979826,2244
473.81878263018564,2364
476.15893913125876,2293
478.4984527130747,2274
480.8373235875855,2344
483.17555196682144,2373
485.5131380628919,2483
487.8500820879857,2622
490.1863842543697,2818
492.52204477439034,3065
494.8570638604725,3329
497.1914417251204,3708
499.52517858091653,4058
501.85827464052306,4085
504.19073011668036,4239
506.5225452222086,4090
508.85372017000566,3957
511.18425517304956,3765
513.514150444396,3897
515.8434061971808,4577
518.1720226446176,5199
520.4999999999999,5519
522.8273384766991,5982
525.1540382881666,6084
527.480099647932,5855
529.8055227696037,5136
532.1303078668694,3586
534.454455153496,2678
536.777964843328,2324
539.1008371502907,2144
541.4230722883866,2130
543.744670471698,2082
546.0656319143858,2026
548.3859568306899,2000
550.7056454349294,2000
553.0246979415016,1981
555.3431145648834,1967
557.6608955196306,1868
559.978041020377,1887
562.2945512818363,1897
564.6104265188006,1859
566.9256669461412,1922
569.2402727788082,1912
571.5542442318302,1916
573.8675815203156,1899
576.1802848594508,1916
578.4923544645015,1848
580.8037905508126,1890
583.114593333807,1874
585.4247630289875,1876
587.7342998519354,1877
590.0432040183106,1901
592.3514757438526,1966
594.6591152443794,1869
596.9661227357875,1907
599.2724984340531,1943
601.578242555231,1850
603.8833553154542,2001
606.1878369309362,2018
608.4916876179676,1989
610.7949075929192,2011
613.0974970722403,1946
615.3994562724587,1918
617.7007854101818,1923
620.0014847020951,1994
622.3015543649641,1940
624.6009946156324,1785
626.8998056710224,1903
629.1979877481361,1934
631.4955410640538,1946
633.7924658359349,1833
636.0887622810175,1905
638.3844306166192,1914
640.6794710601358,1957
642.9738838290426,1975
645.2676691408932,1919
647.5608272133207,1971
649.853358264037,1952
652.1452625108324,1926
654.4365401715764,1959
656.7271914642178,1859
659.0172166067838,1929
661.3066158173809,1923
663.5953893141935,1939
665.8835373154867,1916
668.1710600396028,1948
670.4579577049639,1952
672.7442305300709,1898
675.0298787335033,1935
677.3149025339197,2046
679.599302150058,2043
681.8830778007342,1990
684.1662297048437,1927
686.4487580813608,2007
688.7306631493387,1971
691.0119451279091,1977
693.2926042362834,1966
695.5726406937516,2027
697.8520547196814,1982
700.1308465335215,1987
702.4090163547982,1968
704.6865644031171,1954
706.9634908981619,1938
709.2397960596965,1941
711.5154801075631,1977
713.7905432616823,1951
716.0649857420548,1929
718.3388077687592,1926
720.612009561953,1945
722.8845913418733,1968
725.1565533288352,1980
727.427895743234,1957
729.6986188055427,2002
731.9687227363137,1998
734.238207756178,1922
736.5070740858458,1958
738.7753219461066,1958
741.0429515578281,2005
743.3099631419569,1914
745.5763569195191,2003
747.8421331116193,1996
750.1072919394409,1963
752.3718336242467,1927
754.6357583873777,1950
756.8990664502545,1951
759.1617580343765,1917
761.423833361321,1947
763.6852926527457,1972
765.9461361303862,1958
768.206364016058,1978
770.4659765316536,1995
772.7249738991469,1967
774.9833563405886,1954
777.2411240781092,2008
779.4982773339183,2029
781.7548163303044,2058
784.010741289634,2091
786.2660524343538,2130
788.5207499869881,2025
790.7748341701416,2056
793.0283052064964,1988
795.2811633188143,1986
797.5334087299362,2019
799.7850416627813,2039
802.0360623403484,2023
804.2864709857143,1977
806.5362678220353,2002
808.7854530725468,2059
811.0340269605625,2059
813.2819897094754,2022
815.5293415427581,2008
817.77608268396,2013
820.0222133567116,2013
822.2677337847211,2028
824.5126441917765,1960
826.7569448017433,2012
829.0006358385675,2023
831.2437175262731,1998
833.4861900889629,2054
835.7280537508192,2057
837.9693087361026,1963
840.2099552691533,1967
842.4499935743896,2046
844.689423876309,1939
846.9282463994886,2057
849.1664613685833,1998
851.4040690083276,2009
853.6410695435349,2013
855.877463199097,1966
858.1132501999847,2027
860.3484307712487,1946
862.5830051380175,1997
864.8169735254988,1991
867.0503361589791,2013
869.2830932638243,2092
871.5152450654786,2090
873.7467917894654,2019
875.9777336613873,2011
878.2080709069252,2094
880.4378037518389,2028
882.666932421968,2068
884.8954571432301,2035
887.1233781416219,2050
889.3506956432192,2143
891.5774098741766,2118
893.803521060728,2073
896.0290294291852,2062
898.2539352059397,2126
900.4782386174619,2068
902.7019398903011,2034
904.925039251085,2070
907.147536926521,2068
909.3694331433943,2056
911.59072812857,2012
913.8114221089921,1972
916.0315153116827,1984
918.2510079637437,2013
920.4699002923547,2045
922.6881925247761,2038
924.905884888345,2067
927.1229776104793,2016
929.3394709186747,2043
931.555365040506,1939
933.7706602036275,1938
935.9853566357709,1996
938.1994545647489,1958
940.4129542184515,1999
942.6258558248488,2031
944.8381596119883,2072
947.0498658079974,2013
949.2609746410825,1967
951.4714863395287,2031
953.6814011316998,2020
955.8907192460387,1940
958.0994409110671,1976
960.3075663553858,1949
962.5150958076741,1999
964.7220294966913,1970
966.928367651274,1934
969.1341105003388,1957
971.3392582728806,1976
973.5438111979742,1910
975.747769504772,1891
977.9511334225061,1880
980.153903180487,1957
982.3560790081052,1910
984.5576611348289,1964
986.7586497902058,1992
988.9590452038618,1916
991.158847605503,1883
993.3580572249133,1808
995.5566742919558,1772
997.7546990365728,1761
999.952131688785,1721
1002.1489724786926,1718
1004.3452216364743,1645
1006.5408793923874,1719
1008.7359459767691,1744
1010.9304216200343,1786
1013.1243065526781,1715
1015.3176010052733,1660
1017.510305208472,1588
1019.7024193930064,1625
1021.8939437896848,1588
1024.0848786293977,1597
1026.2752241431122,1513
1028.4649805618747,1565
1030.6541481168115,1576
1032.842727039127,1539
1035.0307175601051,1544
1037.2181199111074,1601
1039.4049343235752,1516
1041.591161029029,1509
1043.7768002590683,1547
1045.9618522453698,1571
1048.1463172196918,1561
1050.3301954138697,1451
1052.513487059818,1567
1054.69619238953,1551
1056.8783116350783,1505
1059.0598450286152,1518
1061.2407928023704,1528
1063.4211551886528,1503
1065.6009324198508,1492
1067.780124728432,1508
1069.9587323469414,1552
1072.1367555080046,1508
1074.314194444325,1510
1076.4910493886855,1531
1078.667320573947,1479
1080.843008233051,1513
1083.0181125990161,1487
1085.1926339049414,1485
1087.3665723840027,1538
1089.5399282694575,1395
1091.7127017946405,1446
1093.8848931929647,1493
1096.0565026979243,1494
1098.2275305430899,1457
1100.3979769621128,1493
1102.567842188722,1476
1104.737126456726,1414
1106.9058300000124,1412
1109.0739530525475,1396
1111.2414958483764,1430
1113.4084586216231,1482
1115.5748416064907,1443
1117.7406450372605,1403
1119.9058691482942,1461
1122.0705141740304,1438
1124.2345803489884,1419
1126.3980679077658,1401
1128.5609770850388,1390
1130.7233081155623,1395
1132.8850612341707,1366
1135.0462366757774,1370
1137.2068346753745,1422
1139.3668554680326,1448
1141.526299288901,1417
1143.68516637321,1430
1145.8434569562655,1348
1148.001171273455,1341
1150.158309560244,1378
1152.3148720521767,1329
1154.470858984876,1400
1156.626270594044,1374
1158.7811071154629,1374
1160.9353687849912,1397
1163.089055838569,1359
1165.242168512213,1416
1167.3947070420209,1395
1169.5466716641677,1441
1171.6980626149075,1435
1173.8488801305748,1374
1175.9991244475814,1412
1178.1487958024186,1355
1180.2978944316555,1385
1182.4464205719428,1410
1184.5943744600072,1392
1186.7417563326567,1334
1188.8885664267755,1327
1191.0348049793297,1349
1193.1804722273619,1332
1195.325568407995,1373
1197.4700937584303,1374
1199.614048515948,1399
1201.7574329179074,1357
1203.900247201746,1361
1206.042491604982,1400
1208.1841663652099,1376
1210.3252717201053,1376
1212.465807907422,1370
1214.6057751649923,1350
1216.7451737307279,1361
1218.8840038426192,1405
1221.0222657387353,1352
1223.1599596572241,1447
1225.2970858363137,1359
1227.4336445143094,1421
1229.5696359295966,1370
1231.705060320639,1418
1233.8399179259786,1325
1235.9742089842384,1452
1238.107933734118,1419
1240.2410924143974,1377
1242.373685263935,1390
1244.5057125216676,1397
1246.6371744266116,1416
1248.7680712178621,1462
1250.898403134593,1406
1253.028170416058,1417
1255.1573733015875,1383
1257.2860120305932,1353
1259.4140868425648,1367
1261.54159797707,1394
1263.6685456737569,1405
1265.7949301723515,1407
1267.9207517126597,1450
1270.046010534565,1475
1272.1707068780306,1403
1274.2948409830983,1421
1276.4184130898889,1406
1278.541423438603,1491
1280.6638722695184,1471
1282.785759822993,1453
1284.9070863394636,1462
1287.0278520594447,1451
1289.1480572235314,1473
1291.2677020723963,1487
1293.3867868467923,1494
1295.5053117875495,1484
1297.623277135579,1460
1299.740683131868,1438
1301.8575300174857,1486
1303.973818033578,1519
1306.0895474213703,1530
1308.2047184221678,1497
1310.3193312773528,1467
1312.4333862283888,1502
1314.5468835168163,1507
1316.659823384255,1560
1318.7722060724045,1489
1320.8840318230418,1485
1322.9953008780249,1504
1325.1060134792888,1536
1327.2161698688478,1527
1329.3257702887959,1644
1331.4348149813054,1542
1333.5433041886276,1500
1335.6512381530933,1543
1337.7586171171101,1461
1339.8654413231675,1528
1341.9717110138317,1499
1344.0774264317488,1462
1346.1825878196432,1474
1348.2871954203192,1449
1350.3912494766587,1441
1352.4947502316231,1464
1354.5976979282532,1449
1356.7000928096686,1495
1358.8019351190665,1491
1360.9032250997243,1476
1363.0039629949988,1530
1365.1041490483235,1533
1367.2037835032133,1459
1369.3028666032606,1472
1371.401398592137,1482
1373.4993797135926,1445
1375.5968102114575,1444
1377.6936903296396,1518
1379.7900203121262,1492
1381.8858004029835,1442
1383.9810308463561,1479
1386.075711886469,1464
1388.1698437676241,1503
1390.2634267342032,1470
1392.356461030667,1399
1394.4489469015557,1468
1396.5408845914872,1448
1398.6322743451592,1480
1400.7231164073469,1554
1402.813411022907,1529
1404.903158436773,1475
1406.9923588939578,1463
1409.0810126395531,1483
1411.1691199187303,1478
1413.2566809767386,1489
1415.343696058907,1483
1417.4301654106425,1496
1419.5160892774315,1510
1421.6014679048399,1502
1423.6863015385125,1511
1425.7705904241707,1502
1427.8543348076178,1516
1429.9375349347342,1469
1432.0201910514802,1514
1434.102303403894,1447
1436.1838722380944,1528
1438.2648978002767,1494
1440.3453803367174,1576
1442.4253200937692,1541
1444.5047173178677,1570
1446.5835722555234,1534
1448.6618851533285,1556
1450.739656257952,1628
1452.8168858161434,1564
1454.8935740747306,1593
1456.96972128062,1591
1459.045327680797,1627
1461.120393522327,1646
1463.1949190523528,1672
1465.2689045180973,1671
1467.3423501668608,1738
1469.415256246024,1700
1471.4876230030463,1690
1473.559450685465,1741
1475.6307395408976,1720
1477.7014898170391,1754
1479.771701761665,1747
1481.8413756226287,1841
1483.9105116478618,1849
1485.9791100853772,1812
1488.0471711832643,1942
1490.1146951896926,1866
1492.1816823529098,1915
1494.2481329212433,2005
1496.3140471430984,1937
1498.3794252669609,1963
1500.4442675413939,1958
1502.5085742150404,1963
1504.572345536622,2021
1506.6355817549388,2021
1508.6982831188702,2065
1510.7604498773744,1996
1512.8220822794883,2125
1514.8831805743293,2108
1516.9437450110909,2183
1519.003775839048,2308
1521.0632733075522,2243
1523.1222376660367,2280
1525.1806691640113,2342
1527.2385680510652,2402
1529.2959345768668,2385
1531.3527689911643,2439
1533.4090715437833,2506
1535.4648424846291,2691
1537.5200820636855,2648
1539.5747905310159,2729
1541.6289681367616,2784
1543.6826151311434,2760
1545.7357317644614,2871
1547.7883182870937,2858
1549.8403749494987,2916
1551.8919020022113,2832
1553.9428996958477,3078
1555.9933682811015,3066
1558.0433080087469,3217
1560.0927191296346,3256
1562.1416018946961,3325
1564.1899565549415,3383
1566.2377833614592,3308
1568.2850825654164,3401
1570.3318544180606,3306
1572.3780991707158,3255
1574.423817074788,3181
1576.4690083817595,3057
1578.5136733431923,3021
1580.5578122107272,2748
1582.601425236085,2719
1584.6445126710646,2539
1586.6870747675434,2392
1588.7291117774776,2348
1590.7706239529034,2190
1592.8116115459347,2123
1594.8520748087658,2087
1596.8920139936686,1975
1598.9314293529933,1965
1600.9703211391711,1896
1603.008689604711,1868
1605.0465350022005,1790
1607.0838575843068,1764
1609.1206576037753,1702
1611.1569353134305,1668
1613.1926909661765,1646
1615.2279248149953,1581
1617.2626371129481,1667
1619.2968281131757,1573
1621.3304980688963,1571
1623.3636472334088,1613
1625.39627586009,1562
1627.428384202396,1552
1629.459972513861,1508
1631.4910410480993,1535
1633.5215900588028,1496
1635.551619799744,1524
1637.5811305247717,1492
1639.6101224878166,1583
1641.6385959428862,1473
1643.6665511440683,1511
1645.693988345528,1440
1647.7209078015112,1449
1649.7473097663405,1450
1651.7731944944203,1484
1653.7985622402307,1470
1655.823413258333,1490
1657.847747803366,1488
1659.8715661300494,1424
1661.8948684931793,1486
1663.9176551476316,1526
1665.9399263483624,1396
1667.9616823504057,1395
1669.982923408873,1406
1672.0036497789574,1421
1674.0238617159293,1407
1676.043559475138,1432
1678.0627433120121,1429
1680.081413482059,1397
1682.0995702408654,1383
1684.117213844096,1446
1686.134344547495,1393
1688.1509626068864,1387
1690.1670682781705,1390
1692.182661817329,1448
1694.1977434804217,1473
1696.2123135235875,1429
1698.226372203043,1417
1700.2399197750851,1407
1702.2529564960905,1439
1704.2654826225112,1461
1706.277498410882,1443
1708.2890041178139,1415
1710.2999999999988,1469
1712.3104863142066,1469
1714.3204633172854,1409
1716.329931266163,1405
1718.3388904178469,1451
1720.3473410294214,1361
1722.3552833580516,1388
1724.3627176609807,1455
1726.3696441955308,1406
1728.3760632191033,1398
1730.3819749891782,1363
1732.3873797633146,1380
1734.3922777991502,1422
1736.3966693544012,1350
1738.4005546868639,1393
1740.4039340544127,1420
1742.406807715001,1359
1744.4091759266616,1439
1746.4110389475054,1424
1748.4123970357223,1385
1750.413250449582,1377
1752.4135994474318,1360
1754.4134442876993,1412
1756.4127852288902,1360
1758.4116225295893,1360
1760.4099564484595,1375
1762.407787244244,1327
1764.405115175764,1429
1766.4019405019203,1402
1768.3982634816916,1371
1770.3940843741357,1374
1772.3894034383907,1370
1774.3842209336717,1376
1776.378537119274,1296
1778.372352254571,1345
1780.3656665990156,1356
1782.3584804121397,1308
1784.3507939535534,1304
1786.3426074829463,1312
1788.3339212600863,1354
1790.3247355448211,1351
1792.3150505970766,1349
1794.3048666768573,1358
1796.2941840442477,1399
1798.2830029594106,1366
1800.2713236825884,1322
1802.2591464741004,1366
1804.2464715943465,1341
1806.2332993038058,1314
1808.2196298630352,1313
1810.2054635326708,1337
1812.190800573428,1373
1814.175641246101,1329
1816.1599858115628,1373
1818.1438345307652,1374
1820.127187664738,1320
1822.1100454745924,1381
1824.092408221516,1313
1826.0742761667766,1363
1828.055649571721,1325
1830.0365286977735,1375
1832.0169138064398,1335
1833.9968051593014,1352
1835.9762030180214,1370
1837.9551076443408,1384
1839.9335193000788,1392
1841.9114382471344,1307
1843.888864747485,1393
1845.8657990631878,1353
1847.842241456378,1306
1849.8181921892697,1311
1851.7936515241558,1353
1853.7686197234098,1284
1855.7430970494815,1307
1857.7170837649014,1332
1859.6905801322787,1323
1861.6635864143004,1338
1863.6361028737338,1322
1865.608129773424,1279
1867.5796673762961,1349
1869.5507159453537,1410
1871.521275743678,1364
1873.4913470344313,1298
1875.4609300808534,1336
1877.4300251462632,1318
1879.3986324940588,1352
1881.366752387717,1362
1883.3343850907936,1340
1885.3015308669228,1336
1887.268189979819,1291
1889.2343626932739,1280
1891.2000492711595,1330
1893.1652499774254,1306
1895.1299650761011,1376
1897.0941948312952,1342
1899.0579395071945,1280
1901.0211993680641,1317
1902.98397467825,1380
1904.9462657021745,1266
1906.9080727043415,1318
1908.869395949332,1328
1910.8302357018065,1279
1912.790592226504,1349
1914.7504657882428,1383
1916.7098566519212,1397
1918.6687650825133,1346
1920.6271913450764,1354
1922.5851357047422,1330
1924.5425984267245,1343
1926.499579776314,1389
1928.4560800188833,1362
1930.4120994198802,1346
1932.367638244833,1390
1934.32269675935,1371
1936.2772752291175,1299
1938.231373919899,1355
1940.1849930975404,1320
1942.1381330279637,1334
1944.0907939771696,1352
1946.0429762112412,1379
1947.9946799963363,1356
1949.9459055986945,1270
1951.896653284633,1294
1953.8469233205478,1311
1955.7967159729142,1398
1957.7460315082863,1334
1959.6948701932974,1337
1961.6432322946594,1339
1963.5911180791632,1359
1965.5385278136787,1407
1967.4854617651545,1342
1969.4319202006182,1355
1971.377903387176,1270
1973.3234115920136,1307
1975.268445082395,1437
1977.2130041256642,1342
1979.1570889892423,1398
1981.1006999406304,1333
1983.04383724741,1358
1984.986501177238,1358
1986.928691997853,1367
1988.8704099770712,1330
1990.811655382789,1384
1992.7524284829801,1340
1994.692729545698,1424
1996.6325588390755,1362
1998.5719166313224,1366
2000.5108031907307,1351
2002.4492187856677,1307
2004.387163684583,1313
2006.3246381560011,1307
2008.2616424685298,1303
2010.1981768908527,1306
2012.1342416917332,1334
2014.069837140014,1368
2016.0049635046162,1340
2017.9396210545406,1347
2019.8738100588666,1357
2021.8075307867502,1341
2023.740783507431,1367
2025.6735684902228,1323
2027.6058860045214,1302
2029.5377363198004,1384
2031.4691197056118,1387
2033.4000364315875,1346
2035.3304867674374,1378
2037.260470982952,1349
2039.189989347998,1341
2041.1190421325232,1328
2043.047629606554,1339
2044.9757520401945,1310
2046.9034097036288,1344
2048.8306028671195,1330
2050.7573318010086,1295
2052.683596775716,1311
2054.609398061742,1285
2056.5347359296647,1334
2058.4596106501403,1388
2060.384022493906,1366
2062.3079717317764,1342
2064.231458634646,1314
2066.1544834734873,1338
2068.077046519352,1316
2069.99914804337,1336
2071.9207883167524,1359
2073.8419676107865,1326
2075.7626861968406,1327
2077.6829443463607,1288
2079.6027423308715,1317
2081.522080421977,1308
2083.440958891362,1334
2085.359378010786,1321
2087.2773380520907,1353
2089.194839287196,1323
2091.111881988101,1293
2093.0284664268825,1347
2094.9445928756973,1366
2096.86026160678,1329
2098.775472892446,1329
2100.690227005088,1323
2102.604524217178,1322
2104.5183648012676,1383
2106.431749029985,1321
2108.34467717604,1301
2110.2571495122206,1316
2112.169166311393,1350
2114.080727846503,1296
2115.9918343905747,1322
2117.902486216711,1355
2119.8126835980956,1406
2121.722426807987,1340
2123.6317161197285,1287
2125.5405518067364,1366
2127.448934142509,1314
2129.356863400624,1295
2131.264339854737,1308
2133.1713637785815,1361
2135.077935445972,1343
2136.9840551308002,1330
2138.889723107037,1341
2140.7949396487334,1339
2142.699705030018,1352
2144.6040195250994,1349
2146.507883408264,1305
2148.4112969538774,1369
2150.3142604363848,1383
2152.2167741303097,1330
2154.1188383102535,1366
2156.0204532508997,1341
2157.9216192270064,1349
2159.822336513414,1381
2161.7226053850413,1350
2163.622426116884,1350
2165.5217989840185,1319
2167.4207242616,1355
2169.319202224862,1352
2171.2172331491165,1281
2173.1148173097563,1313
2175.0119549822507,1359
2176.90864644215,1274
2178.8048919650823,1343
2180.7006918267534,1338
2182.596046302952,1367
2184.4909556695407,1336
2186.3854202024645,1355
2188.279440177746,1330
2190.173015871487,1344
2192.066147559868,1297
2193.958835519149,1329
2195.851080025667,1310
2197.7428813558417,1268
2199.6342397861667,1311
2201.5251555932186,1329
2203.415629053651,1334
2205.3056604441986,1311
2207.19525004167,1329
2209.084398122958,1352
2210.9731049650327,1336
2212.861370844941,1370
2214.749196039812,1418
2216.636580826851,1358
2218.523525483344,1334
2220.410030286655,1352
2222.296095514226,1286
2224.1817214435805,1363
2226.066908352319,1319
2227.951656518121,1346
2229.835966218746,1363
2231.71983773203,1331
2233.6032713358913,1318
2235.486267308324,1369
2237.3688259274036,1323
2239.2509474712824,1339
2241.132632218193,1320
2243.013880446447,1358
2244.8946924344323,1297
2246.7750684606203,1321
2248.6550088035574,1339
2250.534513741871,1330
2252.413583554265,1376
2254.292218519526,1312
2256.170418916517,1305
2258.0481850241786,1350
2259.925517121534,1336
2261.8024154876825,1325
2263.678880401803,1311
2265.5549121431536,1344
2267.430510991071,1364
2269.305677224971,1330
2271.180411124348,1355
2273.0547129687766,1353
2274.9285830379076,1327
2276.8020216114737,1340
2278.6750289692845,1330
2280.5476053912294,1349
2282.4197511572766,1316
2284.2914665474727,1354
2286.162751841943,1326
2288.0336073208937,1362
2289.904033264608,1341
2291.774029953448,1351
2293.6435976678554,1398
2295.5127366883517,1307
2297.381447295534,1307
2299.2497297700825,1329
2301.1175843927526,1391
2302.9850114443825,1336
2304.852011205885,1321
2306.7185839582553,1385
2308.5847299825664,1375
2310.4504495599676,1344
2312.3157429716925,1353
2314.1806104990483,1348
2316.0450524234247,1366
2317.9090690262888,1312
2319.772660589186,1409
2321.635827393742,1314
2323.498569721661,1363
2325.3608878547248,1380
2327.2227820747967,1390
2329.0842526638157,1359
2330.945299903803,1334
2332.805924076857,1390
2334.6661254651535,1349
2336.525904350951,1352
2338.3852610165827,1370
2340.244195744464,1347
2342.102708817088,1303
2343.9608005170253,1400
2345.8184711269287,1318
2347.675720929526,1395
2349.532550207628,1345
2351.38895924412,1333
2353.24494832197,1336
2355.100517724223,1385
2356.955667734004,1375
2358.810398634514,1347
2360.664710709037,1386
2362.5186042409337,1386
2364.3720795136437,1404
2366.225136810686,1415
2368.0777764156583,1394
2369.929998612237,1329
2371.7818036841777,1411
2373.633191915315,1406
2375.484163589562,1356
2377.3347189909114,1382
2379.184858403434,1406
2381.03458211128,1379
2382.8838903986775,1369
2384.732783549936,1404
2386.5812618494406,1335
2388.4293255816588,1373
2390.2769750311327,1384
2392.1242104824883,1369
2393.971032220427,1349
2395.8174405297295,1367
2397.6634356952563,1331
2399.509018001947,1395
2401.3541877348193,1382
2403.1989451789705,1409
2405.043290619576,1385
2406.8872243418905,1327
2408.730746631247,1401
2410.5738577730594,1395
2412.4165580528183,1390
2414.258847756095,1387
2416.100727168537,1416
2417.9421965758734,1416
2419.783256263912,1419
2421.623906518538,1395
2423.4641476257157,1427
2425.303979871491,1349
2427.143403541984,1336
2428.9824189233977,1357
2430.821026302012,1350
2432.6592259641866,1380
2434.497018196361,1439
2436.33440328505,1372
2438.171381516851,1428
2440.00795317844,1404
2441.844118556569,1394
2443.6798779380724,1409
2445.5152316098606,1434
2447.3501798589255,1409
2449.1847229723357,1375
2451.0188612372403,1366
2452.8525949408663,1340
2454.6859243705203,1393
2456.518849813587,1407
2458.3513715575314,1405
2460.183489889895,1432
2462.015205098301,1378
2463.8465174704493,1354
2465.67742729412,1380
2467.5079348571717,1396
2469.338040447542,1428
2471.1677443532476,1336
2472.9970468623833,1376
2474.825948263123,1334
2476.6544488437207,1384
2478.482548892508,1402
2480.310248697896,1424
2482.137548548374,1381
2483.9644487325118,1372
2485.790949538956,1436
2487.617051256433,1419
2489.44275417375,1390
2491.26805857979,1400
2493.0929647635157,1388
2494.917473013971,1437
2496.741583620276,1378
2498.5652968716304,1468
2500.3886130573137,1430
2502.2115324666834,1350
2504.0340553891765,1449
2505.856182114308,1425
2507.6779129316733,1478
2509.499248130945,1454
2511.3201880018764,1384
2513.140732834298,1395
2514.9608829181198,1439
2516.780638543331,1425
2518.6,1437
2520.418967578273,1408
2522.237541568376,1475
2524.0557222606144,1498
2525.8735099453706,1377
2527.6909049131086,1421
2529.507907454368,1437
2531.32451785977,1444
2533.140736420014,1398
2534.9565634258774,1429
2536.771999168218,1462
2538.5870439379714,1450
2540.4016980261526,1483
2542.2159617238544,1469
2544.02983532225,1449
2545.8433191125914,1455
2547.656413386209,1449
2549.4691184345115,1477
2551.2814345489874,1525
2553.093362021204,1501
2554.904901142808,1530
2556.716052205523,1518
2558.526815501153,1470
2560.3371913215824,1476
2562.147179958771,1566
2563.956781704761,1446
2565.7659968516705,1513
2567.5748256916986,1550
2569.3832685171224,1538
2571.1913256202984,1522
2572.9989972936614,1514
2574.806283829725,1492
2576.613185521084,1575
2578.4197026604074,1515
2580.2258355404483,1555
2582.031584454035,1511
2583.836949694077,1514
2585.6419315535613,1562
2587.4465303255533,1577
2589.2507463032002,1578
2591.0545797797245,1570
2592.8580310484303,1602
2594.6611004026995,1606
2596.463788135992,1601
2598.266094541849,1602
2600.0680199138874,1572
2601.869564545807,1566
2603.670728731383,1608
2605.4715127644704,1622
2607.2719169390048,1677
2609.071941548998,1637
2610.8715868885433,1605
2612.670853251811,1657
2614.469740933052,1643
2616.268250226594,1643
2618.0663814268455,1710
2619.864134828292,1681
2621.6615107255006,1615
2623.458509413115,1583
2625.2551311858597,1636
2627.0513763385347,1658
2628.8472451660223,1594
2630.6427379632833,1569
2632.4378550253564,1650
2634.232596647359,1632
2636.026963124488,1606
2637.8209547520187,1543
2639.6145718253065,1605
2641.407814639785,1515
2643.200683490966,1603
2644.9931786744414,1580
2646.7853004858807,1568
2648.577049221034,1527
2650.3684251757277,1538
2652.1594286458712,1572
2653.9500599274484,1573
2655.740319316525,1548
2657.5302071092437,1539
2659.3197236018286,1482
2661.10886909058,1474
2662.8976438718782,1498
2664.686048242183,1493
2666.4740824980327,1484
2668.2617469360443,1526
2670.0490418529134,1438
2671.8359675454153,1415
2673.622524310403,1470
2675.408712444811,1415
2677.1945322456495,1486
2678.979984010009,1458
2680.76506803506,1446
2682.5497846180497,1503
2684.334134056306,1423
2686.1181166472343,1440
2687.9017326883213,1420
2689.6849824771293,1439
2691.4678663113013,1381
2693.2503844885596,1399
2695.032537306705,1402
2696.8143250636167,1355
2698.5957480572542,1360
2700.3768065856534,1394
2702.1575009469316,1433
2703.937831439283,1383
2705.717798360982,1343
2707.4974020103837,1360
2709.276642685917,1348
2711.055520686095,1428
2712.834036309506,1386
2714.612189854819,1425
2716.389981620782,1333
2718.1674119062204,1343
2719.944481010041,1406
2721.721189231226,1322
2723.4975368688415,1367
2725.273524222027,1386
2727.0491515900053,1347
2728.824419272075,1325
2730.5993275676146,1360
2732.3738767760838,1313
2734.148067197016,1398
2735.921899130031,1365
2737.6953728748194,1348
2739.468488731156,1321
2741.2412469988926,1385
2743.0136479779617,1336
2744.785691968372,1332
2746.5573792702116,1412
2748.3287101836504,1313
2750.099685008934,1343
2751.870304046388,1370
2753.640567596418,1372
2755.4104759595057,1380
2757.1800294362156,1327
2758.949228327187,1401
2760.7180729331412,1315
2762.486563554877,1345
2764.254700493272,1349
2766.022484049284,1350
2767.789914523947,1350
2769.5569922183786,1363
2771.3237174337705,1373
2773.090090471394,1344
2774.8561116326036,1350
2776.6217812188274,1330
2778.3870995315756,1376
2780.1520668724356,1290
2781.9166835430747,1296
2783.6809498452394,1322
2785.444866080754,1315
2787.2084325515225,1332
2788.971649559527,1323
2790.73451740683,1355
2792.4970363955713,1372
2794.2592068279705,1312
2796.0210290063264,1388
2797.7825032330147,1323
2799.543629810493,1346
2801.304409041296,1376
2803.0648412280366,1280
2804.8249266734088,1306
2806.5846656801846,1320
2808.344058551212,1355
2810.1031055894246,1351
2811.8618070978273,1368
2813.6201633795085,1373
2815.378174737636,1375
2817.1358414754536,1327
2818.893163896285,1374
2820.6501423035334,1341
2822.4067770006814,1324
2824.1630682912883,1331
2825.9190164789957,1359
2827.6746218675207,1339
2829.429884760661,1381
2831.184805462294,1306
2832.9393842763743,1345
2834.693621506936,1334
2836.4475174580916,1387
2838.201072434034,1356
2839.954286739034,1327
2841.707160677441,1323
2843.459694553685,1316
2845.2118886722724,1365
2846.96374333779,1321
2848.7152588549034,1354
2850.4664355283567,1337
2852.217273662973,1339
2853.9677735636546,1359
2855.7179355353833,1328
2857.4677598832186,1324
2859.217246912299,1310
2860.9663969278427,1398
2862.715210235146,1277
2864.4636871395846,1393
2866.211827946614,1379
2867.9596329617652,1328
2869.7071024906536,1338
2871.4542368389684,1357
2873.20103631248,1338
2874.947501217038,1322
2876.6936318585695,1376
2878.4394285430812,1385
2880.1848915766604,1359
2881.9300212654707,1356
2883.6748179157553,1363
2885.4192818338374,1337
2887.1634133261173,1356
2888.907212699077,1344
2890.6506802592744,1329
2892.393816313348,1361
2894.1366211680142,1353
2895.8790951300693,1359
2897.621238506388,1358
2899.363051603925,1364
2901.1045347297118,1333
2902.8456881908596,1383
2904.58651229456,1385
2906.327007348081,1303
2908.067173658772,1410
2909.8070115340597,1336
2911.5465212814497,1351
2913.285703208527,1382
2915.0245576229563,1348
2916.7630848324807,1295
2918.5012851449196,1340
2920.2391588681758,1326
2921.976706310227,1354
2923.7139277791334,1334
2925.4508235830313,1354
2927.187394030137,1371
2928.923639428745,1325
2930.6595600872306,1296
2932.395156314046,1335
2934.1304284177218,1338
2935.8653767068713,1305
2937.6000014901815,1403
2939.3343030764227,1347
2941.068281774442,1340
2942.8019378931644,1311
2944.5352717415976,1335
2946.2682836288236,1331
2948.0009738640065,1351
2949.7333427563885,1404
2951.465390615289,1299
2953.1971177501086,1327
2954.9285244703265,1334
2956.6596110855,1336
2958.3903779052657,1342
2960.1208252393385,1364
2961.8509533975125,1291
2963.5807626896617,1351
2965.3102534257378,1303
2967.0394259157715,1350
2968.768280469873,1286
2970.496817398232,1310
2972.2250370111146,1354
2973.952939618869,1315
2975.6805255319196,1290
2977.4077950607707,1326
2979.134748516006,1364
2980.861386208289,1375
2982.587708448359,1384
2984.313715547037,1323
2986.039407815222,1317
2987.764785563891,1368
2989.489849104102,1348
2991.2145987469908,1348
2992.9390348037705,1308
2994.6631575857346,1361
2996.3869674042576,1367
2998.1104645707887,1308
2999.83364939686,1301
3001.5565221940783,1277
3003.2790832741334,1331
3005.0013329487924,1348
3006.7232715298996,1336
3008.4448993293804,1361
3010.166216659239,1307
3011.887223831558,1311
3013.607921158498,1323
3015.3283089522993,1326
3017.0483875252826,1283
3018.7681571898443,1310
3020.4876182584626,1360
3022.2067710436927,1322
3023.9256158581707,1304
3025.644153014609,1301
3027.362382825801,1281
3029.0803056046193,1410
3030.797921664012,1367
3032.5152313170106,1328
3034.2322348767225,1307
3035.9489326563353,1345
3037.665324969115,1354
3039.3814121284063,1314
3041.097194447633,1269
3042.812672240299,1324
3044.5278458199855,1335
3046.2427155003525,1317
3047.9572815951406,1320
3049.671544418167,1344
3051.38550428333,1292
3053.0991615046073,1382
3054.812516396051,1328
3056.5255692717974,1284
3058.2383204460575,1341
3059.9507702331257,1304
3061.662918947372,1308
3063.3747669032446,1332
3065.0863144152736,1298
3066.7975617980674,1337
3068.508509366309,1374
3070.219157434767,1328
3071.9295063182844,1361
3073.639556331785,1337
3075.3493077902704,1322
3077.058761008821,1352
3078.7679163025964,1329
3080.476773986837,1332
3082.1853343768594,1278
3083.89359778806,1338
3085.6015645359153,1327
3087.3092349359786,1309
3089.016609303884,1374
3090.7236879553434,1331
3092.4304712061476,1352
3094.136959372166,1360
3095.843152769349,1311
3097.5490517137237,1321
3099.2546565213966,1347
3100.959967508554,1337
3102.66498499146,1368
3104.3697092864577,1296
3106.0741407099695,1335
3107.778279578498,1343
3109.482126208622,1340
3111.1856809170004,1376
3112.8889440203716,1314
3114.5919158355528,1339
3116.294596679439,1343
3117.996986869006,1257
3119.6990867213062,1333
3121.4008965534726,1296
3123.102416682717,1315
3124.803647426329,1320
3126.5045891016784,1406
3128.205242026213,1354
3129.90560651746,1381
3131.605682893025,1356
3133.3054714705922,1345
3135.0049725679282,1392
3136.7041865028714,1362
3138.4031135933465,1322
3140.101754157353,1323
3141.800108512971,1359
3143.498176978357,1353
3145.1959598717494,1303
3146.8934575114636,1317
3148.5906702158954,1376
3150.2875983035183,1268
3151.9842420928853,1336
3153.680601902627,1332
3155.376678051456,1328
3157.07247085816,1379
3158.767980641609,1301
3160.463207720748,1353
3162.158152414606,1301
3163.8528150422862,1314
3165.5471959229726,1336
3167.2412953759303,1338
3168.9351137204976,1355
3170.628651276098,1345
3172.3219083622307,1344
3174.014885298474,1299
3175.707582404485,1378
3177.4000000000005,1308
3179.092138404835,1347
3180.7839979388846,1350
3182.47557892212,1383
3184.166881674594,1349
3185.8579065164386,1324
3187.5486537678626,1401
3189.2391237491547,1307
3190.9293167806827,1328
3192.6192331828934,1312
3194.3088732763117,1316
3195.998237381542,1363
3197.687325819268,1303
3199.376138910251,1320
3201.064676975334,1334
3202.7529403354347,1326
3204.4409293115523,1343
3206.1286442247647,1360
3207.816085396229,1308
3209.5032531471825,1327
3211.190147798936,1306
3212.8767696728846,1340
3214.5631190905015,1275
3216.2491963733373,1318
3217.9350018430214,1257
3219.6205358212637,1348
3221.305798629851,1251
3222.990790590651,1225
3224.6755120256103,1304
3226.359963256751,1288
3228.0441446061795,1326
3229.7280563960758,1323
3231.411698948703,1307
3233.0950725863995,1343
3234.778177631587,1310
3236.461014406761,1262
3238.1435832345005,1301
3239.8258844374595,1361
3241.507918338374,1348
3243.1896852600576,1309
3244.8711855254023,1293
3246.552419457381,1304
3248.233387379042,1326
3249.914089613516,1296
3251.59452648401,1300
3253.274698313813,1320
3254.95460542629,1340
3256.6342481448855,1306
3258.313626793125,1294
3259.9927416946084,1317
3261.6715931730196,1318
3263.3501815521176,1302
3265.0285071557437,1315
3266.706570307815,1288
3268.3843713323286,1344
3270.0619105533615,1285
3271.739188295068,1346
3273.4162048816834,1290
3275.0929606375184,1316
3276.769455886966,1321
3278.445690954498,1305
3280.1216661646613,1299
3281.797381842087,1351
3283.4728383114807,1308
3285.1480358976296,1284
3286.8229749253996,1305
3288.4976557197333,1304
3290.172078605655,1291
3291.846243908266,1287
3293.5201519527463,1320
3295.193803064357,1237
3296.8671975684374,1314
3298.5403357904024,1307
3300.21321805575,1304
3301.8858446900567,1350
3303.558216018975,1269
3305.23033236824,1281
3306.9021940636603,1305
3308.57380143113,1290
3310.2451547966184,1338
3311.916254486174,1323
3313.5871008259246,1299
3315.2576941420766,1307
3316.9280347609147,1325
3318.5981230088046,1271
3320.2679592121895,1256
3321.9375436975924,1294
3323.606876791612,1273
3325.27595882093,1265
3326.944790112305,1241
3328.6133709925753,1306
3330.2817017886573,1259
3331.949782827547,1230
3333.617614436319,1220
3335.2851969421245,1298
3336.952530672199,1323
3338.619615953853,1325
3340.286453114475,1296
3341.9530424815357,1361
3343.619384382583,1355
3345.2854791452437,1346
3346.951327097224,1341
3348.6169285663073,1321
3350.2822838803577,1293
3351.947393367319,1373
3353.61225735521,1339
3355.2768761721345,1283
3356.9412501462693,1330
3358.605379605873,1352
3360.2692648792827,1330
3361.9329062949146,1286
3363.596304181263,1274
