CollectionTime,6/26/2024 3:52:49 PM
ExposureUsed,3
CalibratedSpectrum
-962.7078968117929,632
-959.9714848408522,636
-957.2358232597828,602
-954.5009119013725,656
-951.7667505983302,628
-949.0333391832855,656
-946.3006774887896,653
-943.5687653473143,643
-940.837602591253,656
-938.1071890529199,679
-935.3775245645503,633
-932.6486089583007,671
-929.9204420662485,691
-927.1930237203925,686
-924.4663537526524,676
-921.7404319948689,661
-919.0152582788041,691
-916.2908324361409,682
-913.5671542984834,752
-910.8442236973568,705
-908.1220404642074,698
-905.4006044304027,664
-902.679915427231,770
-899.959973285902,763
-897.2407778375464,714
-894.5223289132158,701
-891.8046263438832,709
-889.0876699604426,680
-886.3714595937089,699
-883.6559950744183,683
-880.9412762332282,679
-878.2273029007168,661
-875.5140749073835,715
-872.8015920836489,654
-870.0898542598545,639
-867.3788612662631,624
-864.6686129330585,626
-861.9591090903457,648
-859.2503495681506,633
-856.5423341964203,648
-853.8350628050229,657
-851.1285352237478,664
-848.4227512823054,629
-845.7177108103272,644
-843.0134136373656,653
-840.3098595928943,636
-837.6070485063082,652
-834.9049802069229,666
-832.2036545239757,659
-829.5030712866244,681
-826.8032303239481,661
-824.1041314649472,651
-821.4057745385428,634
-818.7081593735775,644
-816.0112857988148,646
-813.3151536429393,638
-810.6197627345566,620
-807.9251129021936,645
-805.2312039742981,596
-802.5380357792392,618
-799.8456081453069,599
-797.1539209007124,652
-794.462973873588,681
-791.772766891987,646
-789.083299783884,640
-786.3945723771743,635
-783.7065844996748,636
-781.0193359791231,617
-778.3328266431781,665
-775.6470563194197,692
-772.9620248353489,677
-770.2777320183878,657
-767.5941776958798,685
-764.9113616950891,693
-762.2292838432011,680
-759.5479439673222,714
-756.8673418944801,694
-754.1874774516235,685
-751.5083504656222,683
-748.8299607632671,657
-746.15230817127,637
-743.475392516264,662
-740.7992136248035,661
-738.1237713233636,690
-735.4490654383407,662
-732.7750957960521,692
-730.1018622227365,672
-727.4293645445534,638
-724.7576025875837,642
-722.0865761778291,693
-719.4162851412126,692
-716.7467293035781,667
-714.0779084906909,664
-711.409822528237,716
-708.7424712418238,701
-706.0758544569796,749
-703.4099719991541,746
-700.7448236937178,722
-698.0804093659622,760
-695.4167288411002,696
-692.7537819442656,685
-690.0915685005134,734
-687.4300883348199,718
-684.7693412720819,727
-682.1093271371178,707
-679.4500457546669,704
-676.7914969493897,758
-674.1336805458676,703
-671.4765963686034,771
-668.8202442420206,740
-666.1646239904642,745
-663.5097354382001,793
-660.8555784094151,740
-658.2021527282176,723
-655.5494582186366,779
-652.8974947046223,762
-650.2462620100463,767
-647.5957599587009,809
-644.9459883742998,780
-642.2969470804776,802
-639.6486359007902,804
-637.0010546587141,822
-634.3542031776476,844
-631.7080812809096,783
-629.0626887917401,780
-626.4180255333008,709
-623.7740913286734,748
-621.1308860008619,723
-618.4884093727904,748
-615.8466612673046,783
-613.2056415071715,774
-610.5653499150785,779
-607.9257863136347,761
-605.28695052537,773
-602.6488423727357,768
-600.0114616781036,788
-597.3748082637674,779
-594.7388819519412,812
-592.1036825647604,803
-589.4692099242818,793
-586.8354638524829,791
-584.2024441712624,801
-581.5701507024403,777
-578.9385832677575,799
-576.3077416888759,796
-573.6776257873787,815
-571.0482353847704,823
-568.4195703024757,816
-565.7916303618415,858
-563.164415384135,881
-560.5379251905453,843
-557.9121596021815,816
-555.2871184400748,769
-552.6628015251767,816
-550.0392086783606,842
-547.4163397204204,846
-544.794194472071,817
-542.1727727539491,790
-539.5520743866118,827
-536.9320991905377,861
-534.3128469861261,904
-531.6943175936979,947
-529.0765108334947,944
-526.4594265256793,1025
-523.8430644903358,1223
-521.2274245474689,1394
-518.612506517005,1554
-515.9983102187913,1605
-513.3848354725959,1717
-510.77208209810846,1809
-508.16004991493924,1827
-505.5487387426199,1934
-502.9381484006032,2019
-500.3282787082628,2238
-497.71912948489364,2309
-495.1107005497117,2429
-492.5029917218539,2408
-489.8960028203786,2237
-487.28973366426493,2077
-484.68418407241325,1796
-482.07935386364494,1584
-479.47524285670266,1465
-476.87185087025,1413
-474.2691777228715,1335
-471.66722323307334,1280
-469.0659872192821,1253
-466.4654694998459,1199
-463.86566989303384,1217
-461.26658821703614,1155
-458.66822428996414,1157
-456.07057792985,1107
-453.4736489546475,1174
-450.877437182231,1122
-448.28194243039627,1063
-445.68716451686,1056
-443.09310325926003,1058
-440.49975847515555,1055
-437.9071299820263,1014
-435.31521759727354,1077
-432.72402113821954,1097
-430.13354042210767,1039
-427.5437752661022,1109
-424.95472548728867,1130
-422.36639090267386,1137
-419.7787713291855,1096
-417.1918665836721,1159
-414.60567648290385,1118
-412.0202008435715,1161
-409.4354394822874,1161
-406.8513922155845,1147
-404.26805885991723,1146
-401.685439231661,1162
-399.103533147112,1154
-396.522340422488,1203
-393.9418608739278,1196
-391.3620943174908,1223
-388.7830405691583,1154
-386.2046994448317,1187
-383.6270707603344,1137
-381.05015433141045,944
-378.473949973725,944
-375.8984575028645,857
-373.32367673433623,822
-370.74960748356875,831
-368.1762495659117,740
-365.60360279663576,741
-363.03166699093265,658
-360.4604419639154,732
-357.8899275306178,662
-355.32012350599507,620
-352.7510297049233,554
-350.1826459421999,568
-347.61497203254316,627
-345.04800779059235,673
-342.4817530309082,578
-339.91620756797226,569
-337.35137121618743,563
-334.7872437898774,583
-332.22382510328725,570
-329.66111497058273,616
-327.09911320585127,616
-324.53781962310075,554
-321.9772340362607,639
-319.4173562591816,687
-316.8581861056348,643
-314.2997233893127,679
-311.7419679238294,711
-309.1849195227194,670
-306.62857799943856,604
-304.0729431673641,600
-301.51801483979375,582
-298.963792829947,563
-296.41027695096386,669
-293.85746701590574,676
-291.3053628377552,753
-288.7539642294155,708
-286.2032710037115,734
-283.65328297338897,696
-281.1039999511146,739
-278.5554217494762,870
-276.007548180983,804
-273.4603790580651,783
-270.9139141930734,714
-268.3681533982807,781
-265.8230964858798,777
-263.27874326798565,708
-260.7350935566336,754
-258.1921471637804,852
-255.6499039013039,900
-253.10836358100266,828
-250.56752601459698,819
-248.02739101372765,899
-245.48795838995704,972
-242.94922795476816,874
-240.41119951956557,850
-237.8738728956746,954
-235.33724789434166,1031
-232.80132432673452,1238
-230.2661020039418,1234
-227.73158073697357,1081
-225.19776033676033,867
-222.66464061415422,869
-220.1322213799284,818
-217.60050244477725,830
-215.06948361931552,925
-212.53916471408013,930
-210.00954553952818,906
-207.48062590603843,1011
-204.9524056239104,1008
-202.4248845033651,871
-199.8980623545441,950
-197.37193898751036,891
-194.84651421224817,1021
-192.32178783866232,1075
-189.79775967657952,1086
-187.27442953574644,1080
-184.7517972258321,1171
-182.2298625564256,1059
-179.7086253370378,1117
-177.18808537710026,1174
-174.66824248596583,1326
-172.14909647290835,1384
-169.6306471471229,1369
-167.11289431772548,1293
-164.59583779375328,1325
-162.07947738416453,1306
-159.5638128978386,1292
-157.04884414357605,1320
-154.53457093009854,1465
-152.02099306604828,1351
-149.50811035998936,1366
-146.99592262040665,1530
-144.48442965570587,1466
-141.97363127421409,1443
-139.46352728417958,1367
-136.95411749377126,1486
-134.44540171107985,1857
-131.93737974411636,1936
-129.43005140081357,1847
-126.92341648902493,1805
-124.41747481652521,1970
-121.91222619101006,1859
-119.40767042009657,1745
-116.90380731132257,1773
-114.40063667214702,1828
-111.8981583099503,1989
-109.3963720320337,2209
-106.89527764561933,1966
-104.39487495785067,2112
-101.89516377579241,2306
-99.39614390642998,2376
-96.89781515667039,2144
-94.40017733334128,2613
-91.90323024319173,2642
-89.40697369289148,2562
-86.91140748903172,2363
-84.41653143812482,2182
-81.92234534660395,2393
-79.42884902082358,2522
-76.93604226705907,2728
-74.4439248915071,2706
-71.95249670028534,2846
-69.46175749943245,3053
-66.97170709490854,3351
-64.48234529259423,3595
-61.99367189829195,3679
-59.50568671772464,3719
-57.01838955653636,3978
-54.53178022029283,4023
-52.045858514480074,4060
-49.560624244506016,5280
-47.07607721569923,5127
-44.59221723330904,4628
-42.10904410250669,4067
-39.62655762838392,5060
-37.14475761595372,6495
-34.66364387015028,7116
-32.18321619582866,7916
-29.70347439776515,9273
-27.224418280657005,9919
-24.74604764912317,15803
-22.26836230770266,24816
-19.7913620608565,42173
-17.315046712966478,63162
-14.83941606833514,65038
-12.36446993118659,65038
-9.89020810566592,65038
-7.416630395839093,65038
-4.94373660569363,65038
-2.471526539137585,65038
-6.821210263296962E-13,65038
2.47084320796705,65038
4.941003281093458,65038
7.410480415786196,65038
9.879274808531363,65038
12.347386655893956,65038
14.814816154518212,65038
17.28156350112681,65038
19.74762889252179,65038
22.21301252558385,65038
24.67771459727237,65038
27.141735304626195,65038
29.605074844762612,41526
32.06773341487792,17737
34.52971121224755,10627
36.99100843422559,8847
39.45162527824516,9768
41.91156194181792,10056
44.370818622535126,16502
46.82939551806646,25035
49.287292826160524,24665
51.74451074464503,19403
54.201049471426245,14113
56.65690920448981,8975
59.112090141899785,5050
61.56659248179983,4217
64.02041642241159,3642
66.4735621620365,3908
68.92602989905402,3890
71.37781983192338,3642
73.82893215918205,3382
76.27936707944684,3360
78.72912479141326,4125
81.17820549385567,3892
83.62660938562783,3530
86.07433666566146,2838
88.5213875329681,3269
90.96776218663751,3615
93.41346082583925,3386
95.85848364982041,3379
98.30283085790859,2871
100.7465026495089,2684
103.18949922410604,3065
105.63182078126385,2596
108.07346752062438,3028
110.51443964190923,3253
112.95473734491827,2446
115.39436082953114,2505
117.83331029570547,2485
120.27158594347827,2487
122.7091879729652,2743
125.1461165843615,2245
127.58237197794062,1947
130.01795435405518,1845
132.4528639131364,1750
134.88710085569494,1892
137.32066538231982,2157
139.75355769367923,2010
142.1857779905207,1877
144.61732647366978,1781
147.04820334403132,1891
149.47840880258934,1762
151.90794305040674,2030
154.33680628862487,2111
156.76499871846443,1924
159.19252054122433,2029
161.61937195828352,2227
164.04555317109896,2247
166.47106438120693,2557
168.89590579022217,3030
171.320077599839,2958
173.7435800118302,2724
176.16641322804742,2856
178.58857745042144,2959
181.01007288096173,3124
183.43089972175687,3089
185.85105817497413,3023
188.27054844285988,3193
190.6893707277394,3127
193.10752523201643,3061
195.5250121581745,3288
197.9418317087751,3192
200.3579840864594,3099
202.7734694939469,3246
205.18828813403627,3202
207.6024402096051,3185
210.01592592360964,3180
212.42874547908548,3063
214.84089907914665,3042
217.2523869269868,2967
219.66320922587727,3114
222.0733661791695,3240
224.48285799029293,3066
226.8916848627572,3088
229.29984700014882,3291
231.7073446061355,3393
234.11417788446204,3259
236.520347038953,3238
238.92585227351185,3248
241.33069379212054,3367
243.73487179884035,3332
246.1383864978112,3320
248.541238093252,3202
250.9434267894609,3254
253.34495279081432,3335
255.74581630176783,3248
258.1460175268563,3299
260.54555667069314,3281
262.9444339379703,3241
265.3426495334594,3089
267.7402036620107,3114
270.1370965285529,3131
272.53332833809407,3187
274.9288992957214,3125
277.32380960660055,3070
279.718059475976,2976
282.1116491091717,3080
284.5045787115897,3109
286.89684848871195,3098
289.2884586460981,3103
291.67940938938807,3008
294.0697009242996,3015
296.4593334566299,3050
298.84830719225477,3095
301.23662233712923,3071
303.6242790972866,2981
306.01127767884,3064
308.39761828798066,3035
310.78330113097934,3038
313.16832641418534,2919
315.5526943440269,2772
317.9364051270112,2771
320.3194589697242,2750
322.70185607883093,2698
325.0835966610754,2738
327.4646809232805,2752
329.8451090723478,2690
332.2248813152577,2737
334.6039978590701,2695
336.9824589109231,2711
339.36026467803447,2688
341.7374153677,2691
344.113911187295,2532
346.48975234427337,2557
348.8649390461686,2545
351.2394715005918,2454
353.61334991523415,2497
355.9865744978655,2484
358.35914545633375,2532
360.73106299856715,2468
363.10232733257146,2432
365.47293866643247,2464
367.84289720831396,2448
370.2122031664593,2371
372.5808567491905,2422
374.9488581649083,2428
377.31620762209275,2418
379.6829053293021,2431
382.0489514951745,2407
384.4143463284262,2407
386.7790900378528,2449
389.14318283232853,2402
391.50662492080653,2391
393.86941651231916,2390
396.23155781597745,2366
398.5930490409713,2376
400.9538903965696,2376
403.3140820921202,2286
405.6736243370498,2316
408.03251734086336,2225
410.3907613131465,2345
412.74835646356166,2308
415.10530300185144,2383
417.4616011378372,2247
419.81725108141893,2357
422.1722530425758,2318
424.5266072313656,2272
426.880313857925,2304
429.2333731324701,2244
431.58578526529516,2271
433.9375504667738,2271
436.2886689473588,2308
438.63914091758113,2275
440.9889665880513,2252
443.33814616945835,2260
445.68667987257015,2172
448.03456790823395,2240
450.3818104873759,2201
452.72840782100013,2180
455.07436012019105,2264
457.41966759611057,2253
459.7643304600007,2182
462.10834892318155,2215
464.4517231970525,2282
466.79445349309174,2404
469.1365400228566,2226
471.4779829979826,2340
473.81878263018564,2346
476.15893913125876,2319
478.4984527130747,2440
480.8373235875855,2472
483.17555196682144,2431
485.5131380628919,2652
487.8500820879857,2828
490.1863842543697,3081
492.52204477439034,3401
494.8570638604725,3823
497.1914417251204,3987
499.52517858091653,4278
501.85827464052306,4296
504.19073011668036,4306
506.5225452222086,4215
508.85372017000566,3975
511.18425517304956,3752
513.514150444396,3878
515.8434061971808,4658
518.1720226446176,5327
520.4999999999999,5878
522.8273384766991,6130
525.1540382881666,6464
527.480099647932,6347
529.8055227696037,5472
532.1303078668694,3932
534.454455153496,2792
536.777964843328,2443
539.1008371502907,2226
541.4230722883866,2174
543.744670471698,2166
546.0656319143858,2108
548.3859568306899,2067
550.7056454349294,2057
553.0246979415016,2048
555.3431145648834,1974
557.6608955196306,1924
559.978041020377,1958
562.2945512818363,1910
564.6104265188006,1957
566.9256669461412,1985
569.2402727788082,1953
571.5542442318302,2027
573.8675815203156,1970
576.1802848594508,1928
578.4923544645015,1917
580.8037905508126,1961
583.114593333807,2008
585.4247630289875,1975
587.7342998519354,1946
590.0432040183106,1931
592.3514757438526,1988
594.6591152443794,1968
596.9661227357875,1986
599.2724984340531,1956
601.578242555231,1903
603.8833553154542,1973
606.1878369309362,2061
608.4916876179676,2083
610.7949075929192,2124
613.0974970722403,1971
615.3994562724587,2000
617.7007854101818,1993
620.0014847020951,1983
622.3015543649641,1973
624.6009946156324,2042
626.8998056710224,2003
629.1979877481361,1951
631.4955410640538,1927
633.7924658359349,1963
636.0887622810175,1980
638.3844306166192,1969
640.6794710601358,1977
642.9738838290426,2016
645.2676691408932,1902
647.5608272133207,1910
649.853358264037,2011
652.1452625108324,2032
654.4365401715764,1972
656.7271914642178,1989
659.0172166067838,2019
661.3066158173809,1990
663.5953893141935,2030
665.8835373154867,2035
668.1710600396028,2009
670.4579577049639,1976
672.7442305300709,2087
675.0298787335033,2058
677.3149025339197,2006
679.599302150058,2115
681.8830778007342,2062
684.1662297048437,1974
686.4487580813608,2034
688.7306631493387,2081
691.0119451279091,1998
693.2926042362834,1999
695.5726406937516,2059
697.8520547196814,2010
700.1308465335215,2050
702.4090163547982,2077
704.6865644031171,2090
706.9634908981619,2014
709.2397960596965,2053
711.5154801075631,2013
713.7905432616823,1979
716.0649857420548,2009
718.3388077687592,1991
720.612009561953,2029
722.8845913418733,2035
725.1565533288352,1973
727.427895743234,2036
729.6986188055427,2075
731.9687227363137,2008
734.238207756178,2010
736.5070740858458,2035
738.7753219461066,2075
741.0429515578281,1978
743.3099631419569,1956
745.5763569195191,2053
747.8421331116193,1995
750.1072919394409,1981
752.3718336242467,2028
754.6357583873777,2009
756.8990664502545,2078
759.1617580343765,2101
761.423833361321,2059
763.6852926527457,2040
765.9461361303862,2012
768.206364016058,2069
770.4659765316536,2059
772.7249738991469,2006
774.9833563405886,2189
777.2411240781092,2101
779.4982773339183,2055
781.7548163303044,2143
784.010741289634,2055
786.2660524343538,2160
788.5207499869881,2074
790.7748341701416,2193
793.0283052064964,2075
795.2811633188143,2070
797.5334087299362,2119
799.7850416627813,2119
802.0360623403484,2056
804.2864709857143,2027
806.5362678220353,2092
808.7854530725468,2102
811.0340269605625,2055
813.2819897094754,2139
815.5293415427581,2123
817.77608268396,2123
820.0222133567116,2163
822.2677337847211,2148
824.5126441917765,2080
826.7569448017433,2082
829.0006358385675,2109
831.2437175262731,2095
833.4861900889629,2162
835.7280537508192,2078
837.9693087361026,2042
840.2099552691533,2086
842.4499935743896,2028
844.689423876309,2104
846.9282463994886,2078
849.1664613685833,2012
851.4040690083276,2046
853.6410695435349,2013
855.877463199097,2028
858.1132501999847,2037
860.3484307712487,2036
862.5830051380175,2077
864.8169735254988,2051
867.0503361589791,2109
869.2830932638243,2119
871.5152450654786,2136
873.7467917894654,2098
875.9777336613873,2135
878.2080709069252,2168
880.4378037518389,2141
882.666932421968,2187
884.8954571432301,2130
887.1233781416219,2149
889.3506956432192,2132
891.5774098741766,2084
893.803521060728,2117
896.0290294291852,2207
898.2539352059397,2226
900.4782386174619,2184
902.7019398903011,2175
904.925039251085,2240
907.147536926521,2153
909.3694331433943,2085
911.59072812857,2032
913.8114221089921,2105
916.0315153116827,2077
918.2510079637437,2069
920.4699002923547,2107
922.6881925247761,2011
924.905884888345,2099
927.1229776104793,2083
929.3394709186747,2049
931.555365040506,2138
933.7706602036275,2154
935.9853566357709,2093
938.1994545647489,2024
940.4129542184515,2059
942.6258558248488,2092
944.8381596119883,2112
947.0498658079974,2067
949.2609746410825,2091
951.4714863395287,2030
953.6814011316998,2026
955.8907192460387,2099
958.0994409110671,2030
960.3075663553858,2034
962.5150958076741,2034
964.7220294966913,2047
966.928367651274,2017
969.1341105003388,1962
971.3392582728806,1968
973.5438111979742,2012
975.747769504772,2010
977.9511334225061,1984
980.153903180487,1958
982.3560790081052,1896
984.5576611348289,1938
986.7586497902058,1970
988.9590452038618,1925
991.158847605503,1930
993.3580572249133,1896
995.5566742919558,1854
997.7546990365728,1778
999.952131688785,1747
1002.1489724786926,1732
1004.3452216364743,1737
1006.5408793923874,1762
1008.7359459767691,1739
1010.9304216200343,1727
1013.1243065526781,1692
1015.3176010052733,1707
1017.510305208472,1659
1019.7024193930064,1598
1021.8939437896848,1655
1024.0848786293977,1642
1026.2752241431122,1607
1028.4649805618747,1661
1030.6541481168115,1690
1032.842727039127,1615
1035.0307175601051,1642
1037.2181199111074,1629
1039.4049343235752,1642
1041.591161029029,1622
1043.7768002590683,1553
1045.9618522453698,1550
1048.1463172196918,1625
1050.3301954138697,1593
1052.513487059818,1575
1054.69619238953,1640
1056.8783116350783,1571
1059.0598450286152,1522
1061.2407928023704,1598
1063.4211551886528,1591
1065.6009324198508,1594
1067.780124728432,1587
1069.9587323469414,1652
1072.1367555080046,1537
1074.314194444325,1561
1076.4910493886855,1582
1078.667320573947,1521
1080.843008233051,1478
1083.0181125990161,1558
1085.1926339049414,1527
1087.3665723840027,1510
1089.5399282694575,1527
1091.7127017946405,1447
1093.8848931929647,1546
1096.0565026979243,1449
1098.2275305430899,1417
1100.3979769621128,1534
1102.567842188722,1524
1104.737126456726,1515
1106.9058300000124,1481
1109.0739530525475,1548
1111.2414958483764,1450
1113.4084586216231,1525
1115.5748416064907,1484
1117.7406450372605,1510
1119.9058691482942,1498
1122.0705141740304,1472
1124.2345803489884,1523
1126.3980679077658,1448
1128.5609770850388,1418
1130.7233081155623,1441
1132.8850612341707,1442
1135.0462366757774,1428
1137.2068346753745,1427
1139.3668554680326,1471
1141.526299288901,1438
1143.68516637321,1469
1145.8434569562655,1462
1148.001171273455,1519
1150.158309560244,1405
1152.3148720521767,1476
1154.470858984876,1429
1156.626270594044,1414
1158.7811071154629,1422
1160.9353687849912,1440
1163.089055838569,1465
1165.242168512213,1522
1167.3947070420209,1413
1169.5466716641677,1440
1171.6980626149075,1355
1173.8488801305748,1442
1175.9991244475814,1384
1178.1487958024186,1400
1180.2978944316555,1389
1182.4464205719428,1414
1184.5943744600072,1427
1186.7417563326567,1399
1188.8885664267755,1332
1191.0348049793297,1379
1193.1804722273619,1426
1195.325568407995,1444
1197.4700937584303,1433
1199.614048515948,1406
1201.7574329179074,1396
1203.900247201746,1414
1206.042491604982,1443
1208.1841663652099,1440
1210.3252717201053,1420
1212.465807907422,1448
1214.6057751649923,1463
1216.7451737307279,1418
1218.8840038426192,1377
1221.0222657387353,1379
1223.1599596572241,1500
1225.2970858363137,1391
1227.4336445143094,1392
1229.5696359295966,1437
1231.705060320639,1425
1233.8399179259786,1427
1235.9742089842384,1397
1238.107933734118,1429
1240.2410924143974,1404
1242.373685263935,1376
1244.5057125216676,1410
1246.6371744266116,1406
1248.7680712178621,1424
1250.898403134593,1450
1253.028170416058,1457
1255.1573733015875,1408
1257.2860120305932,1416
1259.4140868425648,1467
1261.54159797707,1414
1263.6685456737569,1393
1265.7949301723515,1503
1267.9207517126597,1466
1270.046010534565,1445
1272.1707068780306,1458
1274.2948409830983,1425
1276.4184130898889,1474
1278.541423438603,1460
1280.6638722695184,1463
1282.785759822993,1516
1284.9070863394636,1458
1287.0278520594447,1453
1289.1480572235314,1480
1291.2677020723963,1527
1293.3867868467923,1494
1295.5053117875495,1509
1297.623277135579,1561
1299.740683131868,1534
1301.8575300174857,1523
1303.973818033578,1522
1306.0895474213703,1575
1308.2047184221678,1616
1310.3193312773528,1533
1312.4333862283888,1560
1314.5468835168163,1570
1316.659823384255,1560
1318.7722060724045,1520
1320.8840318230418,1535
1322.9953008780249,1579
1325.1060134792888,1607
1327.2161698688478,1555
1329.3257702887959,1577
1331.4348149813054,1554
1333.5433041886276,1546
1335.6512381530933,1472
1337.7586171171101,1546
1339.8654413231675,1523
1341.9717110138317,1518
1344.0774264317488,1490
1346.1825878196432,1529
1348.2871954203192,1475
1350.3912494766587,1456
1352.4947502316231,1529
1354.5976979282532,1501
1356.7000928096686,1516
1358.8019351190665,1466
1360.9032250997243,1525
1363.0039629949988,1519
1365.1041490483235,1555
1367.2037835032133,1511
1369.3028666032606,1534
1371.401398592137,1537
1373.4993797135926,1438
1375.5968102114575,1543
1377.6936903296396,1509
1379.7900203121262,1502
1381.8858004029835,1521
1383.9810308463561,1524
1386.075711886469,1477
1388.1698437676241,1552
1390.2634267342032,1501
1392.356461030667,1538
1394.4489469015557,1515
1396.5408845914872,1528
1398.6322743451592,1538
1400.7231164073469,1587
1402.813411022907,1587
1404.903158436773,1553
1406.9923588939578,1579
1409.0810126395531,1635
1411.1691199187303,1511
1413.2566809767386,1571
1415.343696058907,1558
1417.4301654106425,1498
1419.5160892774315,1572
1421.6014679048399,1577
1423.6863015385125,1565
1425.7705904241707,1502
1427.8543348076178,1615
1429.9375349347342,1553
1432.0201910514802,1566
1434.102303403894,1586
1436.1838722380944,1575
1438.2648978002767,1567
1440.3453803367174,1569
1442.4253200937692,1570
1444.5047173178677,1584
1446.5835722555234,1594
1448.6618851533285,1654
1450.739656257952,1641
1452.8168858161434,1632
1454.8935740747306,1692
1456.96972128062,1616
1459.045327680797,1636
1461.120393522327,1658
1463.1949190523528,1689
1465.2689045180973,1768
1467.3423501668608,1720
1469.415256246024,1734
1471.4876230030463,1775
1473.559450685465,1756
1475.6307395408976,1762
1477.7014898170391,1746
1479.771701761665,1891
1481.8413756226287,1931
1483.9105116478618,1872
1485.9791100853772,1918
1488.0471711832643,1960
1490.1146951896926,1949
1492.1816823529098,1907
1494.2481329212433,1964
1496.3140471430984,1924
1498.3794252669609,1984
1500.4442675413939,1984
1502.5085742150404,2010
1504.572345536622,2024
1506.6355817549388,2058
1508.6982831188702,2110
1510.7604498773744,2035
1512.8220822794883,2035
1514.8831805743293,2178
1516.9437450110909,2122
1519.003775839048,2231
1521.0632733075522,2232
1523.1222376660367,2303
1525.1806691640113,2427
1527.2385680510652,2397
1529.2959345768668,2465
1531.3527689911643,2481
1533.4090715437833,2551
1535.4648424846291,2523
1537.5200820636855,2670
1539.5747905310159,2703
1541.6289681367616,2693
1543.6826151311434,2717
1545.7357317644614,2780
1547.7883182870937,2791
1549.8403749494987,2954
1551.8919020022113,2976
1553.9428996958477,3013
1555.9933682811015,3041
1558.0433080087469,3189
1560.0927191296346,3240
1562.1416018946961,3300
1564.1899565549415,3329
1566.2377833614592,3350
1568.2850825654164,3309
1570.3318544180606,3206
1572.3780991707158,3237
1574.423817074788,3003
1576.4690083817595,2887
1578.5136733431923,2782
1580.5578122107272,2774
1582.601425236085,2586
1584.6445126710646,2587
1586.6870747675434,2407
1588.7291117774776,2339
1590.7706239529034,2171
1592.8116115459347,2127
1594.8520748087658,2092
1596.8920139936686,1938
1598.9314293529933,1936
1600.9703211391711,1912
1603.008689604711,1821
1605.0465350022005,1747
1607.0838575843068,1788
1609.1206576037753,1742
1611.1569353134305,1756
1613.1926909661765,1693
1615.2279248149953,1675
1617.2626371129481,1639
1619.2968281131757,1598
1621.3304980688963,1599
1623.3636472334088,1596
1625.39627586009,1546
1627.428384202396,1546
1629.459972513861,1555
1631.4910410480993,1561
1633.5215900588028,1503
1635.551619799744,1543
1637.5811305247717,1550
1639.6101224878166,1597
1641.6385959428862,1554
1643.6665511440683,1550
1645.693988345528,1551
1647.7209078015112,1521
1649.7473097663405,1512
1651.7731944944203,1551
1653.7985622402307,1504
1655.823413258333,1551
1657.847747803366,1513
1659.8715661300494,1443
1661.8948684931793,1458
1663.9176551476316,1501
1665.9399263483624,1507
1667.9616823504057,1522
1669.982923408873,1455
1672.0036497789574,1453
1674.0238617159293,1448
1676.043559475138,1430
1678.0627433120121,1471
1680.081413482059,1417
1682.0995702408654,1466
1684.117213844096,1431
1686.134344547495,1528
1688.1509626068864,1505
1690.1670682781705,1455
1692.182661817329,1509
1694.1977434804217,1458
1696.2123135235875,1535
1698.226372203043,1504
1700.2399197750851,1445
1702.2529564960905,1446
1704.2654826225112,1498
1706.277498410882,1473
1708.2890041178139,1492
1710.2999999999988,1529
1712.3104863142066,1510
1714.3204633172854,1474
1716.329931266163,1518
1718.3388904178469,1449
1720.3473410294214,1455
1722.3552833580516,1506
1724.3627176609807,1485
1726.3696441955308,1453
1728.3760632191033,1483
1730.3819749891782,1486
1732.3873797633146,1404
1734.3922777991502,1479
1736.3966693544012,1509
1738.4005546868639,1453
1740.4039340544127,1425
1742.406807715001,1432
1744.4091759266616,1427
1746.4110389475054,1419
1748.4123970357223,1427
1750.413250449582,1423
1752.4135994474318,1436
1754.4134442876993,1517
1756.4127852288902,1432
1758.4116225295893,1398
1760.4099564484595,1373
1762.407787244244,1426
1764.405115175764,1409
1766.4019405019203,1414
1768.3982634816916,1420
1770.3940843741357,1361
1772.3894034383907,1378
1774.3842209336717,1414
1776.378537119274,1357
1778.372352254571,1414
1780.3656665990156,1395
1782.3584804121397,1376
1784.3507939535534,1394
1786.3426074829463,1437
1788.3339212600863,1415
1790.3247355448211,1399
1792.3150505970766,1374
1794.3048666768573,1386
1796.2941840442477,1350
1798.2830029594106,1400
1800.2713236825884,1386
1802.2591464741004,1373
1804.2464715943465,1379
1806.2332993038058,1366
1808.2196298630352,1414
1810.2054635326708,1375
1812.190800573428,1449
1814.175641246101,1354
1816.1599858115628,1432
1818.1438345307652,1429
1820.127187664738,1375
1822.1100454745924,1394
1824.092408221516,1414
1826.0742761667766,1425
1828.055649571721,1332
1830.0365286977735,1405
1832.0169138064398,1403
1833.9968051593014,1375
1835.9762030180214,1397
1837.9551076443408,1446
1839.9335193000788,1396
1841.9114382471344,1349
1843.888864747485,1407
1845.8657990631878,1382
1847.842241456378,1392
1849.8181921892697,1413
1851.7936515241558,1389
1853.7686197234098,1351
1855.7430970494815,1331
1857.7170837649014,1375
1859.6905801322787,1425
1861.6635864143004,1422
1863.6361028737338,1431
1865.608129773424,1377
1867.5796673762961,1389
1869.5507159453537,1390
1871.521275743678,1402
1873.4913470344313,1450
1875.4609300808534,1414
1877.4300251462632,1363
1879.3986324940588,1422
1881.366752387717,1440
1883.3343850907936,1429
1885.3015308669228,1414
1887.268189979819,1432
1889.2343626932739,1417
1891.2000492711595,1430
1893.1652499774254,1432
1895.1299650761011,1385
1897.0941948312952,1425
1899.0579395071945,1462
1901.0211993680641,1393
1902.98397467825,1446
1904.9462657021745,1459
1906.9080727043415,1402
1908.869395949332,1476
1910.8302357018065,1409
1912.790592226504,1480
1914.7504657882428,1351
1916.7098566519212,1417
1918.6687650825133,1443
1920.6271913450764,1388
1922.5851357047422,1427
1924.5425984267245,1453
1926.499579776314,1417
1928.4560800188833,1454
1930.4120994198802,1435
1932.367638244833,1383
1934.32269675935,1476
1936.2772752291175,1431
1938.231373919899,1401
1940.1849930975404,1424
1942.1381330279637,1429
1944.0907939771696,1355
1946.0429762112412,1397
1947.9946799963363,1394
1949.9459055986945,1410
1951.896653284633,1379
1953.8469233205478,1427
1955.7967159729142,1451
1957.7460315082863,1398
1959.6948701932974,1406
1961.6432322946594,1406
1963.5911180791632,1402
1965.5385278136787,1475
1967.4854617651545,1427
1969.4319202006182,1372
1971.377903387176,1404
1973.3234115920136,1384
1975.268445082395,1381
1977.2130041256642,1343
1979.1570889892423,1410
1981.1006999406304,1409
1983.04383724741,1388
1984.986501177238,1402
1986.928691997853,1382
1988.8704099770712,1393
1990.811655382789,1407
1992.7524284829801,1446
1994.692729545698,1398
1996.6325588390755,1372
1998.5719166313224,1382
2000.5108031907307,1367
2002.4492187856677,1394
2004.387163684583,1385
2006.3246381560011,1435
2008.2616424685298,1398
2010.1981768908527,1360
2012.1342416917332,1371
2014.069837140014,1369
2016.0049635046162,1408
2017.9396210545406,1400
2019.8738100588666,1424
2021.8075307867502,1368
2023.740783507431,1452
2025.6735684902228,1424
2027.6058860045214,1363
2029.5377363198004,1414
2031.4691197056118,1373
2033.4000364315875,1373
2035.3304867674374,1375
2037.260470982952,1371
2039.189989347998,1354
2041.1190421325232,1344
2043.047629606554,1405
2044.9757520401945,1391
2046.9034097036288,1409
2048.8306028671195,1376
2050.7573318010086,1388
2052.683596775716,1343
2054.609398061742,1385
2056.5347359296647,1389
2058.4596106501403,1410
2060.384022493906,1371
2062.3079717317764,1418
2064.231458634646,1397
2066.1544834734873,1367
2068.077046519352,1421
2069.99914804337,1388
2071.9207883167524,1424
2073.8419676107865,1387
2075.7626861968406,1313
2077.6829443463607,1362
2079.6027423308715,1372
2081.522080421977,1378
2083.440958891362,1407
2085.359378010786,1484
2087.2773380520907,1357
2089.194839287196,1345
2091.111881988101,1404
2093.0284664268825,1366
2094.9445928756973,1427
2096.86026160678,1373
2098.775472892446,1370
2100.690227005088,1382
2102.604524217178,1409
2104.5183648012676,1440
2106.431749029985,1325
2108.34467717604,1308
2110.2571495122206,1399
2112.169166311393,1393
2114.080727846503,1373
2115.9918343905747,1392
2117.902486216711,1357
2119.8126835980956,1414
2121.722426807987,1434
2123.6317161197285,1407
2125.5405518067364,1377
2127.448934142509,1386
2129.356863400624,1368
2131.264339854737,1360
2133.1713637785815,1426
2135.077935445972,1466
2136.9840551308002,1424
2138.889723107037,1379
2140.7949396487334,1395
2142.699705030018,1322
2144.6040195250994,1392
2146.507883408264,1370
2148.4112969538774,1445
2150.3142604363848,1356
2152.2167741303097,1390
2154.1188383102535,1453
2156.0204532508997,1431
2157.9216192270064,1368
2159.822336513414,1435
2161.7226053850413,1389
2163.622426116884,1378
2165.5217989840185,1366
2167.4207242616,1399
2169.319202224862,1437
2171.2172331491165,1407
2173.1148173097563,1400
2175.0119549822507,1428
2176.90864644215,1379
2178.8048919650823,1346
2180.7006918267534,1393
2182.596046302952,1393
2184.4909556695407,1392
2186.3854202024645,1395
2188.279440177746,1433
2190.173015871487,1362
2192.066147559868,1372
2193.958835519149,1390
2195.851080025667,1386
2197.7428813558417,1412
2199.6342397861667,1386
2201.5251555932186,1399
2203.415629053651,1419
2205.3056604441986,1441
2207.19525004167,1387
2209.084398122958,1365
2210.9731049650327,1407
2212.861370844941,1441
2214.749196039812,1455
2216.636580826851,1456
2218.523525483344,1435
2220.410030286655,1417
2222.296095514226,1446
2224.1817214435805,1445
2226.066908352319,1365
2227.951656518121,1429
2229.835966218746,1453
2231.71983773203,1440
2233.6032713358913,1399
2235.486267308324,1416
2237.3688259274036,1425
2239.2509474712824,1391
2241.132632218193,1463
2243.013880446447,1434
2244.8946924344323,1390
2246.7750684606203,1445
2248.6550088035574,1450
2250.534513741871,1406
2252.413583554265,1416
2254.292218519526,1398
2256.170418916517,1418
2258.0481850241786,1374
2259.925517121534,1453
2261.8024154876825,1350
2263.678880401803,1360
2265.5549121431536,1375
2267.430510991071,1427
2269.305677224971,1373
2271.180411124348,1354
2273.0547129687766,1369
2274.9285830379076,1372
2276.8020216114737,1407
2278.6750289692845,1400
2280.5476053912294,1408
2282.4197511572766,1425
2284.2914665474727,1393
2286.162751841943,1387
2288.0336073208937,1405
2289.904033264608,1475
2291.774029953448,1385
2293.6435976678554,1377
2295.5127366883517,1410
2297.381447295534,1445
2299.2497297700825,1409
2301.1175843927526,1346
2302.9850114443825,1357
2304.852011205885,1398
2306.7185839582553,1378
2308.5847299825664,1477
2310.4504495599676,1408
2312.3157429716925,1391
2314.1806104990483,1405
2316.0450524234247,1430
2317.9090690262888,1455
2319.772660589186,1406
2321.635827393742,1399
2323.498569721661,1418
2325.3608878547248,1404
2327.2227820747967,1369
2329.0842526638157,1475
2330.945299903803,1456
2332.805924076857,1416
2334.6661254651535,1436
2336.525904350951,1413
2338.3852610165827,1439
2340.244195744464,1364
2342.102708817088,1413
2343.9608005170253,1371
2345.8184711269287,1468
2347.675720929526,1401
2349.532550207628,1482
2351.38895924412,1463
2353.24494832197,1452
2355.100517724223,1425
2356.955667734004,1446
2358.810398634514,1417
2360.664710709037,1357
2362.5186042409337,1390
2364.3720795136437,1401
2366.225136810686,1407
2368.0777764156583,1414
2369.929998612237,1435
2371.7818036841777,1412
2373.633191915315,1438
2375.484163589562,1466
2377.3347189909114,1434
2379.184858403434,1452
2381.03458211128,1431
2382.8838903986775,1437
2384.732783549936,1456
2386.5812618494406,1460
2388.4293255816588,1460
2390.2769750311327,1449
2392.1242104824883,1420
2393.971032220427,1445
2395.8174405297295,1427
2397.6634356952563,1438
2399.509018001947,1504
2401.3541877348193,1407
2403.1989451789705,1450
2405.043290619576,1437
2406.8872243418905,1449
2408.730746631247,1455
2410.5738577730594,1485
2412.4165580528183,1437
2414.258847756095,1510
2416.100727168537,1465
2417.9421965758734,1469
2419.783256263912,1462
2421.623906518538,1458
2423.4641476257157,1471
2425.303979871491,1447
2427.143403541984,1504
2428.9824189233977,1441
2430.821026302012,1484
2432.6592259641866,1475
2434.497018196361,1485
2436.33440328505,1518
2438.171381516851,1470
2440.00795317844,1422
2441.844118556569,1497
2443.6798779380724,1399
2445.5152316098606,1467
2447.3501798589255,1523
2449.1847229723357,1527
2451.0188612372403,1453
2452.8525949408663,1482
2454.6859243705203,1470
2456.518849813587,1474
2458.3513715575314,1419
2460.183489889895,1471
2462.015205098301,1391
2463.8465174704493,1457
2465.67742729412,1414
2467.5079348571717,1456
2469.338040447542,1509
2471.1677443532476,1402
2472.9970468623833,1464
2474.825948263123,1467
2476.6544488437207,1453
2478.482548892508,1429
2480.310248697896,1447
2482.137548548374,1496
2483.9644487325118,1507
2485.790949538956,1494
2487.617051256433,1400
2489.44275417375,1445
2491.26805857979,1453
2493.0929647635157,1452
2494.917473013971,1463
2496.741583620276,1510
2498.5652968716304,1441
2500.3886130573137,1485
2502.2115324666834,1510
2504.0340553891765,1521
2505.856182114308,1467
2507.6779129316733,1529
2509.499248130945,1497
2511.3201880018764,1457
2513.140732834298,1464
2514.9608829181198,1515
2516.780638543331,1528
2518.6,1466
2520.418967578273,1532
2522.237541568376,1460
2524.0557222606144,1471
2525.8735099453706,1475
2527.6909049131086,1484
2529.507907454368,1456
2531.32451785977,1537
2533.140736420014,1562
2534.9565634258774,1517
2536.771999168218,1516
2538.5870439379714,1510
2540.4016980261526,1541
2542.2159617238544,1534
2544.02983532225,1538
2545.8433191125914,1524
2547.656413386209,1535
2549.4691184345115,1484
2551.2814345489874,1539
2553.093362021204,1568
2554.904901142808,1602
2556.716052205523,1556
2558.526815501153,1580
2560.3371913215824,1530
2562.147179958771,1628
2563.956781704761,1553
2565.7659968516705,1557
2567.5748256916986,1620
2569.3832685171224,1591
2571.1913256202984,1552
2572.9989972936614,1563
2574.806283829725,1588
2576.613185521084,1563
2578.4197026604074,1676
2580.2258355404483,1562
2582.031584454035,1625
2583.836949694077,1633
2585.6419315535613,1588
2587.4465303255533,1642
2589.2507463032002,1632
2591.0545797797245,1681
2592.8580310484303,1644
2594.6611004026995,1616
2596.463788135992,1680
2598.266094541849,1650
2600.0680199138874,1666
2601.869564545807,1714
2603.670728731383,1589
2605.4715127644704,1702
2607.2719169390048,1668
2609.071941548998,1691
2610.8715868885433,1631
2612.670853251811,1655
2614.469740933052,1637
2616.268250226594,1746
2618.0663814268455,1713
2619.864134828292,1687
2621.6615107255006,1726
2623.458509413115,1750
2625.2551311858597,1690
2627.0513763385347,1715
2628.8472451660223,1649
2630.6427379632833,1649
2632.4378550253564,1644
2634.232596647359,1737
2636.026963124488,1689
2637.8209547520187,1665
2639.6145718253065,1655
2641.407814639785,1604
2643.200683490966,1559
2644.9931786744414,1607
2646.7853004858807,1645
2648.577049221034,1659
2650.3684251757277,1659
2652.1594286458712,1563
2653.9500599274484,1603
2655.740319316525,1613
2657.5302071092437,1590
2659.3197236018286,1575
2661.10886909058,1598
2662.8976438718782,1561
2664.686048242183,1504
2666.4740824980327,1508
2668.2617469360443,1482
2670.0490418529134,1511
2671.8359675454153,1595
2673.622524310403,1506
2675.408712444811,1555
2677.1945322456495,1546
2678.979984010009,1495
2680.76506803506,1531
2682.5497846180497,1426
2684.334134056306,1488
2686.1181166472343,1489
2687.9017326883213,1501
2689.6849824771293,1500
2691.4678663113013,1425
2693.2503844885596,1432
2695.032537306705,1546
2696.8143250636167,1507
2698.5957480572542,1475
2700.3768065856534,1495
2702.1575009469316,1542
2703.937831439283,1490
2705.717798360982,1495
2707.4974020103837,1516
2709.276642685917,1452
2711.055520686095,1444
2712.834036309506,1455
2714.612189854819,1463
2716.389981620782,1465
2718.1674119062204,1408
2719.944481010041,1444
2721.721189231226,1448
2723.4975368688415,1349
2725.273524222027,1415
2727.0491515900053,1455
2728.824419272075,1440
2730.5993275676146,1416
2732.3738767760838,1430
2734.148067197016,1462
2735.921899130031,1407
2737.6953728748194,1392
2739.468488731156,1409
2741.2412469988926,1421
2743.0136479779617,1401
2744.785691968372,1411
2746.5573792702116,1400
2748.3287101836504,1444
2750.099685008934,1450
2751.870304046388,1425
2753.640567596418,1498
2755.4104759595057,1400
2757.1800294362156,1445
2758.949228327187,1357
2760.7180729331412,1435
2762.486563554877,1412
2764.254700493272,1394
2766.022484049284,1411
2767.789914523947,1440
2769.5569922183786,1400
2771.3237174337705,1393
2773.090090471394,1468
2774.8561116326036,1382
2776.6217812188274,1386
2778.3870995315756,1369
2780.1520668724356,1406
2781.9166835430747,1362
2783.6809498452394,1368
2785.444866080754,1381
2787.2084325515225,1430
2788.971649559527,1423
2790.73451740683,1399
2792.4970363955713,1446
2794.2592068279705,1407
2796.0210290063264,1399
2797.7825032330147,1465
2799.543629810493,1369
2801.304409041296,1411
2803.0648412280366,1373
2804.8249266734088,1410
2806.5846656801846,1447
2808.344058551212,1439
2810.1031055894246,1426
2811.8618070978273,1426
2813.6201633795085,1335
2815.378174737636,1408
2817.1358414754536,1452
2818.893163896285,1409
2820.6501423035334,1432
2822.4067770006814,1426
2824.1630682912883,1412
2825.9190164789957,1409
2827.6746218675207,1409
2829.429884760661,1458
2831.184805462294,1352
2832.9393842763743,1467
2834.693621506936,1362
2836.4475174580916,1396
2838.201072434034,1441
2839.954286739034,1344
2841.707160677441,1413
2843.459694553685,1456
2845.2118886722724,1422
2846.96374333779,1424
2848.7152588549034,1424
2850.4664355283567,1418
2852.217273662973,1490
2853.9677735636546,1406
2855.7179355353833,1415
2857.4677598832186,1430
2859.217246912299,1383
2860.9663969278427,1441
2862.715210235146,1442
2864.4636871395846,1415
2866.211827946614,1472
2867.9596329617652,1430
2869.7071024906536,1460
2871.4542368389684,1412
2873.20103631248,1382
2874.947501217038,1439
2876.6936318585695,1388
2878.4394285430812,1391
2880.1848915766604,1387
2881.9300212654707,1400
2883.6748179157553,1440
2885.4192818338374,1492
2887.1634133261173,1463
2888.907212699077,1467
2890.6506802592744,1435
2892.393816313348,1434
2894.1366211680142,1389
2895.8790951300693,1385
2897.621238506388,1454
2899.363051603925,1446
2901.1045347297118,1430
2902.8456881908596,1393
2904.58651229456,1451
2906.327007348081,1416
2908.067173658772,1376
2909.8070115340597,1447
2911.5465212814497,1498
2913.285703208527,1441
2915.0245576229563,1450
2916.7630848324807,1421
2918.5012851449196,1395
2920.2391588681758,1424
2921.976706310227,1368
2923.7139277791334,1475
2925.4508235830313,1391
2927.187394030137,1392
2928.923639428745,1446
2930.6595600872306,1407
2932.395156314046,1375
2934.1304284177218,1375
2935.8653767068713,1416
2937.6000014901815,1430
2939.3343030764227,1456
2941.068281774442,1441
2942.8019378931644,1461
2944.5352717415976,1450
2946.2682836288236,1414
2948.0009738640065,1451
2949.7333427563885,1452
2951.465390615289,1402
2953.1971177501086,1411
2954.9285244703265,1413
2956.6596110855,1375
2958.3903779052657,1383
2960.1208252393385,1393
2961.8509533975125,1359
2963.5807626896617,1397
2965.3102534257378,1407
2967.0394259157715,1430
2968.768280469873,1418
2970.496817398232,1431
2972.2250370111146,1427
2973.952939618869,1431
2975.6805255319196,1357
2977.4077950607707,1402
2979.134748516006,1393
2980.861386208289,1415
2982.587708448359,1479
2984.313715547037,1428
2986.039407815222,1412
2987.764785563891,1477
2989.489849104102,1386
2991.2145987469908,1398
2992.9390348037705,1385
2994.6631575857346,1439
2996.3869674042576,1380
2998.1104645707887,1417
2999.83364939686,1426
3001.5565221940783,1366
3003.2790832741334,1370
3005.0013329487924,1366
3006.7232715298996,1406
3008.4448993293804,1443
3010.166216659239,1393
3011.887223831558,1402
3013.607921158498,1455
3015.3283089522993,1384
3017.0483875252826,1402
3018.7681571898443,1402
3020.4876182584626,1483
3022.2067710436927,1437
3023.9256158581707,1437
3025.644153014609,1368
3027.362382825801,1375
3029.0803056046193,1381
3030.797921664012,1384
3032.5152313170106,1354
3034.2322348767225,1445
3035.9489326563353,1445
3037.665324969115,1388
3039.3814121284063,1413
3041.097194447633,1422
3042.812672240299,1353
3044.5278458199855,1382
3046.2427155003525,1455
3047.9572815951406,1432
3049.671544418167,1424
3051.38550428333,1412
3053.0991615046073,1427
3054.812516396051,1401
3056.5255692717974,1452
3058.2383204460575,1463
3059.9507702331257,1458
3061.662918947372,1408
3063.3747669032446,1431
3065.0863144152736,1402
3066.7975617980674,1420
3068.508509366309,1403
3070.219157434767,1422
3071.9295063182844,1406
3073.639556331785,1399
3075.3493077902704,1396
3077.058761008821,1393
3078.7679163025964,1424
3080.476773986837,1472
3082.1853343768594,1432
3083.89359778806,1436
3085.6015645359153,1426
3087.3092349359786,1377
3089.016609303884,1361
3090.7236879553434,1382
3092.4304712061476,1418
3094.136959372166,1329
3095.843152769349,1408
3097.5490517137237,1425
3099.2546565213966,1434
3100.959967508554,1450
3102.66498499146,1423
3104.3697092864577,1412
3106.0741407099695,1456
3107.778279578498,1390
3109.482126208622,1401
3111.1856809170004,1408
3112.8889440203716,1418
3114.5919158355528,1415
3116.294596679439,1454
3117.996986869006,1394
3119.6990867213062,1419
3121.4008965534726,1465
3123.102416682717,1450
3124.803647426329,1438
3126.5045891016784,1432
3128.205242026213,1433
3129.90560651746,1414
3131.605682893025,1460
3133.3054714705922,1426
3135.0049725679282,1484
3136.7041865028714,1445
3138.4031135933465,1435
3140.101754157353,1419
3141.800108512971,1432
3143.498176978357,1408
3145.1959598717494,1413
3146.8934575114636,1383
3148.5906702158954,1387
3150.2875983035183,1425
3151.9842420928853,1456
3153.680601902627,1437
3155.376678051456,1408
3157.07247085816,1418
3158.767980641609,1420
3160.463207720748,1382
3162.158152414606,1486
3163.8528150422862,1427
3165.5471959229726,1412
3167.2412953759303,1419
3168.9351137204976,1419
3170.628651276098,1439
3172.3219083622307,1389
3174.014885298474,1441
3175.707582404485,1466
3177.4000000000005,1376
3179.092138404835,1389
3180.7839979388846,1417
3182.47557892212,1408
3184.166881674594,1456
3185.8579065164386,1421
3187.5486537678626,1397
3189.2391237491547,1404
3190.9293167806827,1393
3192.6192331828934,1363
3194.3088732763117,1417
3195.998237381542,1491
3197.687325819268,1409
3199.376138910251,1418
3201.064676975334,1421
3202.7529403354347,1380
3204.4409293115523,1410
3206.1286442247647,1402
3207.816085396229,1357
3209.5032531471825,1398
3211.190147798936,1433
3212.8767696728846,1404
3214.5631190905015,1406
3216.2491963733373,1350
3217.9350018430214,1426
3219.6205358212637,1429
3221.305798629851,1369
3222.990790590651,1383
3224.6755120256103,1318
3226.359963256751,1384
3228.0441446061795,1398
3229.7280563960758,1420
3231.411698948703,1353
3233.0950725863995,1337
3234.778177631587,1389
3236.461014406761,1395
3238.1435832345005,1369
3239.8258844374595,1396
3241.507918338374,1397
3243.1896852600576,1418
3244.8711855254023,1410
3246.552419457381,1411
3248.233387379042,1378
3249.914089613516,1339
3251.59452648401,1343
3253.274698313813,1402
3254.95460542629,1414
3256.6342481448855,1356
3258.313626793125,1374
3259.9927416946084,1395
3261.6715931730196,1353
3263.3501815521176,1359
3265.0285071557437,1364
3266.706570307815,1366
3268.3843713323286,1376
3270.0619105533615,1401
3271.739188295068,1402
3273.4162048816834,1385
3275.0929606375184,1385
3276.769455886966,1392
3278.445690954498,1409
3280.1216661646613,1372
3281.797381842087,1412
3283.4728383114807,1395
3285.1480358976296,1366
3286.8229749253996,1341
3288.4976557197333,1357
3290.172078605655,1332
3291.846243908266,1334
3293.5201519527463,1324
3295.193803064357,1374
3296.8671975684374,1334
3298.5403357904024,1407
3300.21321805575,1387
3301.8858446900567,1393
3303.558216018975,1390
3305.23033236824,1383
3306.9021940636603,1314
3308.57380143113,1405
3310.2451547966184,1355
3311.916254486174,1407
3313.5871008259246,1400
3315.2576941420766,1381
3316.9280347609147,1362
3318.5981230088046,1344
3320.2679592121895,1362
3321.9375436975924,1355
3323.606876791612,1376
3325.27595882093,1347
3326.944790112305,1363
3328.6133709925753,1431
3330.2817017886573,1370
3331.949782827547,1386
3333.617614436319,1368
3335.2851969421245,1397
3336.952530672199,1374
3338.619615953853,1373
3340.286453114475,1406
3341.9530424815357,1370
3343.619384382583,1380
3345.2854791452437,1400
3346.951327097224,1442
3348.6169285663073,1452
3350.2822838803577,1387
3351.947393367319,1413
3353.61225735521,1422
3355.2768761721345,1429
3356.9412501462693,1399
3358.605379605873,1294
3360.2692648792827,1403
3361.9329062949146,1349
3363.596304181263,1395
