CollectionTime,6/26/2024 3:55:11 PM
ExposureUsed,3
CalibratedSpectrum
-962.7078968117929,642
-959.9714848408522,695
-957.2358232597828,685
-954.5009119013725,688
-951.7667505983302,701
-949.0333391832855,670
-946.3006774887896,655
-943.5687653473143,670
-940.837602591253,725
-938.1071890529199,719
-935.3775245645503,656
-932.6486089583007,691
-929.9204420662485,709
-927.1930237203925,735
-924.4663537526524,693
-921.7404319948689,672
-919.0152582788041,688
-916.2908324361409,749
-913.5671542984834,772
-910.8442236973568,764
-908.1220404642074,700
-905.4006044304027,698
-902.679915427231,712
-899.959973285902,741
-897.2407778375464,737
-894.5223289132158,706
-891.8046263438832,654
-889.0876699604426,676
-886.3714595937089,656
-883.6559950744183,690
-880.9412762332282,695
-878.2273029007168,678
-875.5140749073835,664
-872.8015920836489,701
-870.0898542598545,666
-867.3788612662631,630
-864.6686129330585,696
-861.9591090903457,646
-859.2503495681506,617
-856.5423341964203,637
-853.8350628050229,737
-851.1285352237478,710
-848.4227512823054,673
-845.7177108103272,680
-843.0134136373656,658
-840.3098595928943,677
-837.6070485063082,672
-834.9049802069229,727
-832.2036545239757,687
-829.5030712866244,644
-826.8032303239481,671
-824.1041314649472,687
-821.4057745385428,681
-818.7081593735775,666
-816.0112857988148,683
-813.3151536429393,683
-810.6197627345566,669
-807.9251129021936,660
-805.2312039742981,611
-802.5380357792392,643
-799.8456081453069,633
-797.1539209007124,685
-794.462973873588,671
-791.772766891987,707
-789.083299783884,711
-786.3945723771743,693
-783.7065844996748,651
-781.0193359791231,663
-778.3328266431781,673
-775.6470563194197,716
-772.9620248353489,708
-770.2777320183878,672
-767.5941776958798,706
-764.9113616950891,723
-762.2292838432011,722
-759.5479439673222,683
-756.8673418944801,674
-754.1874774516235,680
-751.5083504656222,683
-748.8299607632671,678
-746.15230817127,701
-743.475392516264,698
-740.7992136248035,694
-738.1237713233636,676
-735.4490654383407,711
-732.7750957960521,745
-730.1018622227365,755
-727.4293645445534,713
-724.7576025875837,700
-722.0865761778291,684
-719.4162851412126,687
-716.7467293035781,713
-714.0779084906909,719
-711.409822528237,746
-708.7424712418238,749
-706.0758544569796,671
-703.4099719991541,688
-700.7448236937178,753
-698.0804093659622,790
-695.4167288411002,760
-692.7537819442656,709
-690.0915685005134,727
-687.4300883348199,754
-684.7693412720819,718
-682.1093271371178,739
-679.4500457546669,708
-676.7914969493897,684
-674.1336805458676,728
-671.4765963686034,772
-668.8202442420206,764
-666.1646239904642,780
-663.5097354382001,741
-660.8555784094151,766
-658.2021527282176,775
-655.5494582186366,768
-652.8974947046223,821
-650.2462620100463,824
-647.5957599587009,833
-644.9459883742998,788
-642.2969470804776,795
-639.6486359007902,837
-637.0010546587141,850
-634.3542031776476,838
-631.7080812809096,793
-629.0626887917401,802
-626.4180255333008,769
-623.7740913286734,805
-621.1308860008619,743
-618.4884093727904,777
-615.8466612673046,798
-613.2056415071715,754
-610.5653499150785,823
-607.9257863136347,796
-605.28695052537,751
-602.6488423727357,796
-600.0114616781036,766
-597.3748082637674,799
-594.7388819519412,844
-592.1036825647604,842
-589.4692099242818,842
-586.8354638524829,823
-584.2024441712624,797
-581.5701507024403,782
-578.9385832677575,809
-576.3077416888759,842
-573.6776257873787,805
-571.0482353847704,810
-568.4195703024757,898
-565.7916303618415,830
-563.164415384135,871
-560.5379251905453,851
-557.9121596021815,854
-555.2871184400748,874
-552.6628015251767,855
-550.0392086783606,836
-547.4163397204204,875
-544.794194472071,794
-542.1727727539491,866
-539.5520743866118,851
-536.9320991905377,888
-534.3128469861261,969
-531.6943175936979,948
-529.0765108334947,933
-526.4594265256793,1014
-523.8430644903358,1210
-521.2274245474689,1354
-518.612506517005,1504
-515.9983102187913,1589
-513.3848354725959,1770
-510.77208209810846,1724
-508.16004991493924,1775
-505.5487387426199,1832
-502.9381484006032,2108
-500.3282787082628,2264
-497.71912948489364,2324
-495.1107005497117,2328
-492.5029917218539,2306
-489.8960028203786,2130
-487.28973366426493,1894
-484.68418407241325,1739
-482.07935386364494,1492
-479.47524285670266,1370
-476.87185087025,1348
-474.2691777228715,1359
-471.66722323307334,1338
-469.0659872192821,1162
-466.4654694998459,1145
-463.86566989303384,1147
-461.26658821703614,1112
-458.66822428996414,1084
-456.07057792985,1115
-453.4736489546475,1070
-450.877437182231,1130
-448.28194243039627,1098
-445.68716451686,1109
-443.09310325926003,1069
-440.49975847515555,1085
-437.9071299820263,1014
-435.31521759727354,1103
-432.72402113821954,1104
-430.13354042210767,1093
-427.5437752661022,1158
-424.95472548728867,1116
-422.36639090267386,1159
-419.7787713291855,1141
-417.1918665836721,1143
-414.60567648290385,1138
-412.0202008435715,1108
-409.4354394822874,1119
-406.8513922155845,1144
-404.26805885991723,1139
-401.685439231661,1220
-399.103533147112,1261
-396.522340422488,1145
-393.9418608739278,1191
-391.3620943174908,1240
-388.7830405691583,1178
-386.2046994448317,1132
-383.6270707603344,1087
-381.05015433141045,1025
-378.473949973725,938
-375.8984575028645,967
-373.32367673433623,890
-370.74960748356875,871
-368.1762495659117,802
-365.60360279663576,776
-363.03166699093265,690
-360.4604419639154,726
-357.8899275306178,666
-355.32012350599507,597
-352.7510297049233,632
-350.1826459421999,568
-347.61497203254316,617
-345.04800779059235,637
-342.4817530309082,620
-339.91620756797226,594
-337.35137121618743,600
-334.7872437898774,610
-332.22382510328725,642
-329.66111497058273,640
-327.09911320585127,673
-324.53781962310075,714
-321.9772340362607,656
-319.4173562591816,680
-316.8581861056348,721
-314.2997233893127,717
-311.7419679238294,740
-309.1849195227194,719
-306.62857799943856,702
-304.0729431673641,644
-301.51801483979375,626
-298.963792829947,643
-296.41027695096386,729
-293.85746701590574,752
-291.3053628377552,838
-288.7539642294155,776
-286.2032710037115,723
-283.65328297338897,803
-281.1039999511146,778
-278.5554217494762,921
-276.007548180983,788
-273.4603790580651,754
-270.9139141930734,761
-268.3681533982807,743
-265.8230964858798,744
-263.27874326798565,699
-260.7350935566336,779
-258.1921471637804,879
-255.6499039013039,923
-253.10836358100266,890
-250.56752601459698,819
-248.02739101372765,894
-245.48795838995704,835
-242.94922795476816,808
-240.41119951956557,886
-237.8738728956746,959
-235.33724789434166,986
-232.80132432673452,1030
-230.2661020039418,1172
-227.73158073697357,1248
-225.19776033676033,1042
-222.66464061415422,993
-220.1322213799284,930
-217.60050244477725,1069
-215.06948361931552,1078
-212.53916471408013,1023
-210.00954553952818,1029
-207.48062590603843,1061
-204.9524056239104,1265
-202.4248845033651,1109
-199.8980623545441,1073
-197.37193898751036,1063
-194.84651421224817,1210
-192.32178783866232,1204
-189.79775967657952,1124
-187.27442953574644,1209
-184.7517972258321,1184
-182.2298625564256,1032
-179.7086253370378,1275
-177.18808537710026,1390
-174.66824248596583,1390
-172.14909647290835,1497
-169.6306471471229,1480
-167.11289431772548,1258
-164.59583779375328,1258
-162.07947738416453,1225
-159.5638128978386,1299
-157.04884414357605,1439
-154.53457093009854,1448
-152.02099306604828,1394
-149.50811035998936,1339
-146.99592262040665,1457
-144.48442965570587,1343
-141.97363127421409,1495
-139.46352728417958,1648
-136.95411749377126,1563
-134.44540171107985,1843
-131.93737974411636,1901
-129.43005140081357,2069
-126.92341648902493,1930
-124.41747481652521,1947
-121.91222619101006,1725
-119.40767042009657,1734
-116.90380731132257,1799
-114.40063667214702,1998
-111.8981583099503,2087
-109.3963720320337,2170
-106.89527764561933,2077
-104.39487495785067,2205
-101.89516377579241,2232
-99.39614390642998,2172
-96.89781515667039,2227
-94.40017733334128,2614
-91.90323024319173,2635
-89.40697369289148,2760
-86.91140748903172,2539
-84.41653143812482,2428
-81.92234534660395,2379
-79.42884902082358,2577
-76.93604226705907,2827
-74.4439248915071,2738
-71.95249670028534,2564
-69.46175749943245,2913
-66.97170709490854,3122
-64.48234529259423,3726
-61.99367189829195,3669
-59.50568671772464,3838
-57.01838955653636,4250
-54.53178022029283,4330
-52.045858514480074,4415
-49.560624244506016,5360
-47.07607721569923,5280
-44.59221723330904,5009
-42.10904410250669,4923
-39.62655762838392,5652
-37.14475761595372,7633
-34.66364387015028,7980
-32.18321619582866,8199
-29.70347439776515,8721
-27.224418280657005,9867
-24.74604764912317,13968
-22.26836230770266,20276
-19.7913620608565,31793
-17.315046712966478,46193
-14.83941606833514,53585
-12.36446993118659,65038
-9.89020810566592,65038
-7.416630395839093,65038
-4.94373660569363,65038
-2.471526539137585,65038
-6.821210263296962E-13,65038
2.47084320796705,65038
4.941003281093458,65038
7.410480415786196,65038
9.879274808531363,65038
12.347386655893956,65038
14.814816154518212,65038
17.28156350112681,65038
19.74762889252179,65038
22.21301252558385,65038
24.67771459727237,65038
27.141735304626195,65038
29.605074844762612,44877
32.06773341487792,18141
34.52971121224755,11591
36.99100843422559,10747
39.45162527824516,12058
41.91156194181792,12088
44.370818622535126,18432
46.82939551806646,25110
49.287292826160524,23103
51.74451074464503,18291
54.201049471426245,13629
56.65690920448981,8751
59.112090141899785,4942
61.56659248179983,4038
64.02041642241159,3815
66.4735621620365,4303
68.92602989905402,3912
71.37781983192338,4190
73.82893215918205,4238
76.27936707944684,3804
78.72912479141326,4211
81.17820549385567,4581
83.62660938562783,4261
86.07433666566146,3474
88.5213875329681,3722
90.96776218663751,3887
93.41346082583925,3263
95.85848364982041,3091
98.30283085790859,2873
100.7465026495089,3049
103.18949922410604,3332
105.63182078126385,2735
108.07346752062438,3205
110.51443964190923,3204
112.95473734491827,2845
115.39436082953114,2388
117.83331029570547,2529
120.27158594347827,2758
122.7091879729652,2381
125.1461165843615,2393
127.58237197794062,2083
130.01795435405518,1752
132.4528639131364,1833
134.88710085569494,2112
137.32066538231982,2202
139.75355769367923,2038
142.1857779905207,2194
144.61732647366978,2067
147.04820334403132,1921
149.47840880258934,1785
151.90794305040674,2049
154.33680628862487,2241
156.76499871846443,2029
159.19252054122433,2070
161.61937195828352,2113
164.04555317109896,2145
166.47106438120693,2382
168.89590579022217,3001
171.320077599839,2863
173.7435800118302,2846
176.16641322804742,2966
178.58857745042144,2962
181.01007288096173,2902
183.43089972175687,3005
185.85105817497413,3137
188.27054844285988,3110
190.6893707277394,3138
193.10752523201643,2989
195.5250121581745,3230
197.9418317087751,3341
200.3579840864594,3200
202.7734694939469,3191
205.18828813403627,3380
207.6024402096051,3234
210.01592592360964,3318
212.42874547908548,3270
214.84089907914665,3061
217.2523869269868,3045
219.66320922587727,3200
222.0733661791695,3185
224.48285799029293,3171
226.8916848627572,3256
229.29984700014882,3413
231.7073446061355,3231
234.11417788446204,3357
236.520347038953,3249
238.92585227351185,3300
241.33069379212054,3412
243.73487179884035,3272
246.1383864978112,3141
248.541238093252,3184
250.9434267894609,3384
253.34495279081432,3325
255.74581630176783,3169
258.1460175268563,3435
260.54555667069314,3371
262.9444339379703,3137
265.3426495334594,3153
267.7402036620107,3251
270.1370965285529,3193
272.53332833809407,3005
274.9288992957214,3049
277.32380960660055,3018
279.718059475976,2977
282.1116491091717,3029
284.5045787115897,3119
286.89684848871195,3092
289.2884586460981,3066
291.67940938938807,3008
294.0697009242996,3085
296.4593334566299,3057
298.84830719225477,2963
301.23662233712923,2930
303.6242790972866,2978
306.01127767884,2893
308.39761828798066,3062
310.78330113097934,2925
313.16832641418534,2780
315.5526943440269,2742
317.9364051270112,2777
320.3194589697242,2849
322.70185607883093,2695
325.0835966610754,2627
327.4646809232805,2727
329.8451090723478,2695
332.2248813152577,2719
334.6039978590701,2623
336.9824589109231,2617
339.36026467803447,2554
341.7374153677,2691
344.113911187295,2562
346.48975234427337,2552
348.8649390461686,2457
351.2394715005918,2520
353.61334991523415,2369
355.9865744978655,2458
358.35914545633375,2506
360.73106299856715,2497
363.10232733257146,2489
365.47293866643247,2421
367.84289720831396,2362
370.2122031664593,2398
372.5808567491905,2363
374.9488581649083,2447
377.31620762209275,2532
379.6829053293021,2364
382.0489514951745,2370
384.4143463284262,2347
386.7790900378528,2341
389.14318283232853,2381
391.50662492080653,2363
393.86941651231916,2318
396.23155781597745,2337
398.5930490409713,2331
400.9538903965696,2288
403.3140820921202,2325
405.6736243370498,2258
408.03251734086336,2316
410.3907613131465,2277
412.74835646356166,2280
415.10530300185144,2259
417.4616011378372,2316
419.81725108141893,2233
422.1722530425758,2276
424.5266072313656,2244
426.880313857925,2249
429.2333731324701,2221
431.58578526529516,2236
433.9375504667738,2252
436.2886689473588,2137
438.63914091758113,2329
440.9889665880513,2155
443.33814616945835,2211
445.68667987257015,2220
448.03456790823395,2162
450.3818104873759,2146
452.72840782100013,2189
455.07436012019105,2209
457.41966759611057,2205
459.7643304600007,2241
462.10834892318155,2156
464.4517231970525,2178
466.79445349309174,2213
469.1365400228566,2219
471.4779829979826,2210
473.81878263018564,2313
476.15893913125876,2333
478.4984527130747,2324
480.8373235875855,2350
483.17555196682144,2493
485.5131380628919,2488
487.8500820879857,2747
490.1863842543697,2967
492.52204477439034,3186
494.8570638604725,3586
497.1914417251204,3810
499.52517858091653,4021
501.85827464052306,4054
504.19073011668036,4106
506.5225452222086,3986
508.85372017000566,3912
511.18425517304956,3742
513.514150444396,3859
515.8434061971808,4495
518.1720226446176,5182
520.4999999999999,5609
522.8273384766991,5907
525.1540382881666,6210
527.480099647932,5955
529.8055227696037,5125
532.1303078668694,3801
534.454455153496,2786
536.777964843328,2379
539.1008371502907,2195
541.4230722883866,2076
543.744670471698,2125
546.0656319143858,2076
548.3859568306899,2108
550.7056454349294,2018
553.0246979415016,2043
555.3431145648834,2065
557.6608955196306,1903
559.978041020377,1970
562.2945512818363,1913
564.6104265188006,1939
566.9256669461412,1937
569.2402727788082,1990
571.5542442318302,2001
573.8675815203156,1965
576.1802848594508,1950
578.4923544645015,1934
580.8037905508126,1887
583.114593333807,1880
585.4247630289875,1925
587.7342998519354,1876
590.0432040183106,1916
592.3514757438526,1965
594.6591152443794,1951
596.9661227357875,1987
599.2724984340531,1947
601.578242555231,1881
603.8833553154542,1938
606.1878369309362,1959
608.4916876179676,2034
610.7949075929192,2065
613.0974970722403,1945
615.3994562724587,2013
617.7007854101818,1993
620.0014847020951,2027
622.3015543649641,1978
624.6009946156324,1918
626.8998056710224,2031
629.1979877481361,2000
631.4955410640538,1923
633.7924658359349,1953
636.0887622810175,1994
638.3844306166192,1954
640.6794710601358,1910
642.9738838290426,1973
645.2676691408932,2079
647.5608272133207,1971
649.853358264037,1930
652.1452625108324,1984
654.4365401715764,1855
656.7271914642178,1995
659.0172166067838,2009
661.3066158173809,1992
663.5953893141935,1902
665.8835373154867,1967
668.1710600396028,2025
670.4579577049639,2019
672.7442305300709,1969
675.0298787335033,1978
677.3149025339197,2026
679.599302150058,2046
681.8830778007342,1999
684.1662297048437,1941
686.4487580813608,2057
688.7306631493387,1988
691.0119451279091,1966
693.2926042362834,1988
695.5726406937516,2040
697.8520547196814,1954
700.1308465335215,1985
702.4090163547982,2000
704.6865644031171,2013
706.9634908981619,2017
709.2397960596965,1959
711.5154801075631,1956
713.7905432616823,1919
716.0649857420548,1983
718.3388077687592,1989
720.612009561953,1875
722.8845913418733,1957
725.1565533288352,2028
727.427895743234,2006
729.6986188055427,2039
731.9687227363137,2008
734.238207756178,1905
736.5070740858458,1998
738.7753219461066,1890
741.0429515578281,1984
743.3099631419569,1931
745.5763569195191,2004
747.8421331116193,2015
750.1072919394409,2030
752.3718336242467,1970
754.6357583873777,1943
756.8990664502545,1969
759.1617580343765,1905
761.423833361321,1975
763.6852926527457,1959
765.9461361303862,1919
768.206364016058,2019
770.4659765316536,1980
772.7249738991469,1889
774.9833563405886,1980
777.2411240781092,2028
779.4982773339183,1981
781.7548163303044,2077
784.010741289634,2109
786.2660524343538,2105
788.5207499869881,2050
790.7748341701416,2057
793.0283052064964,1994
795.2811633188143,2039
797.5334087299362,2034
799.7850416627813,2028
802.0360623403484,2055
804.2864709857143,2053
806.5362678220353,2071
808.7854530725468,1982
811.0340269605625,2053
813.2819897094754,2071
815.5293415427581,2011
817.77608268396,1979
820.0222133567116,2088
822.2677337847211,1991
824.5126441917765,2043
826.7569448017433,2020
829.0006358385675,2061
831.2437175262731,2059
833.4861900889629,2046
835.7280537508192,1937
837.9693087361026,2077
840.2099552691533,2049
842.4499935743896,2037
844.689423876309,2035
846.9282463994886,2088
849.1664613685833,2005
851.4040690083276,2095
853.6410695435349,2047
855.877463199097,2033
858.1132501999847,1919
860.3484307712487,1997
862.5830051380175,2040
864.8169735254988,2034
867.0503361589791,1987
869.2830932638243,2054
871.5152450654786,2008
873.7467917894654,2010
875.9777336613873,2010
878.2080709069252,2101
880.4378037518389,2107
882.666932421968,2144
884.8954571432301,2114
887.1233781416219,2099
889.3506956432192,2070
891.5774098741766,2091
893.803521060728,2092
896.0290294291852,2103
898.2539352059397,2147
900.4782386174619,2111
902.7019398903011,2076
904.925039251085,2103
907.147536926521,2110
909.3694331433943,2113
911.59072812857,2053
913.8114221089921,2094
916.0315153116827,2096
918.2510079637437,1969
920.4699002923547,2024
922.6881925247761,2023
924.905884888345,2124
927.1229776104793,2025
929.3394709186747,2051
931.555365040506,2043
933.7706602036275,2047
935.9853566357709,2015
938.1994545647489,2020
940.4129542184515,1999
942.6258558248488,2061
944.8381596119883,2075
947.0498658079974,2040
949.2609746410825,2066
951.4714863395287,2010
953.6814011316998,1991
955.8907192460387,2069
958.0994409110671,1972
960.3075663553858,1956
962.5150958076741,2005
964.7220294966913,1988
966.928367651274,1984
969.1341105003388,1910
971.3392582728806,1984
973.5438111979742,1858
975.747769504772,1884
977.9511334225061,1968
980.153903180487,1976
982.3560790081052,1919
984.5576611348289,1890
986.7586497902058,1930
988.9590452038618,1872
991.158847605503,1827
993.3580572249133,1834
995.5566742919558,1806
997.7546990365728,1786
999.952131688785,1757
1002.1489724786926,1812
1004.3452216364743,1688
1006.5408793923874,1709
1008.7359459767691,1716
1010.9304216200343,1711
1013.1243065526781,1717
1015.3176010052733,1651
1017.510305208472,1636
1019.7024193930064,1651
1021.8939437896848,1585
1024.0848786293977,1608
1026.2752241431122,1630
1028.4649805618747,1575
1030.6541481168115,1587
1032.842727039127,1639
1035.0307175601051,1556
1037.2181199111074,1603
1039.4049343235752,1565
1041.591161029029,1584
1043.7768002590683,1630
1045.9618522453698,1524
1048.1463172196918,1560
1050.3301954138697,1593
1052.513487059818,1583
1054.69619238953,1553
1056.8783116350783,1517
1059.0598450286152,1530
1061.2407928023704,1550
1063.4211551886528,1481
1065.6009324198508,1556
1067.780124728432,1490
1069.9587323469414,1505
1072.1367555080046,1524
1074.314194444325,1524
1076.4910493886855,1494
1078.667320573947,1607
1080.843008233051,1518
1083.0181125990161,1518
1085.1926339049414,1525
1087.3665723840027,1554
1089.5399282694575,1498
1091.7127017946405,1472
1093.8848931929647,1420
1096.0565026979243,1446
1098.2275305430899,1467
1100.3979769621128,1457
1102.567842188722,1454
1104.737126456726,1461
1106.9058300000124,1430
1109.0739530525475,1376
1111.2414958483764,1472
1113.4084586216231,1494
1115.5748416064907,1516
1117.7406450372605,1418
1119.9058691482942,1476
1122.0705141740304,1413
1124.2345803489884,1476
1126.3980679077658,1423
1128.5609770850388,1416
1130.7233081155623,1406
1132.8850612341707,1408
1135.0462366757774,1422
1137.2068346753745,1429
1139.3668554680326,1402
1141.526299288901,1387
1143.68516637321,1415
1145.8434569562655,1391
1148.001171273455,1415
1150.158309560244,1395
1152.3148720521767,1357
1154.470858984876,1381
1156.626270594044,1405
1158.7811071154629,1399
1160.9353687849912,1401
1163.089055838569,1436
1165.242168512213,1402
1167.3947070420209,1403
1169.5466716641677,1404
1171.6980626149075,1355
1173.8488801305748,1434
1175.9991244475814,1362
1178.1487958024186,1381
1180.2978944316555,1417
1182.4464205719428,1486
1184.5943744600072,1393
1186.7417563326567,1362
1188.8885664267755,1367
1191.0348049793297,1416
1193.1804722273619,1397
1195.325568407995,1380
1197.4700937584303,1313
1199.614048515948,1414
1201.7574329179074,1366
1203.900247201746,1413
1206.042491604982,1385
1208.1841663652099,1340
1210.3252717201053,1392
1212.465807907422,1372
1214.6057751649923,1422
1216.7451737307279,1343
1218.8840038426192,1428
1221.0222657387353,1401
1223.1599596572241,1417
1225.2970858363137,1393
1227.4336445143094,1382
1229.5696359295966,1411
1231.705060320639,1342
1233.8399179259786,1394
1235.9742089842384,1364
1238.107933734118,1412
1240.2410924143974,1428
1242.373685263935,1438
1244.5057125216676,1415
1246.6371744266116,1460
1248.7680712178621,1387
1250.898403134593,1444
1253.028170416058,1419
1255.1573733015875,1335
1257.2860120305932,1414
1259.4140868425648,1431
1261.54159797707,1460
1263.6685456737569,1409
1265.7949301723515,1408
1267.9207517126597,1462
1270.046010534565,1451
1272.1707068780306,1459
1274.2948409830983,1398
1276.4184130898889,1454
1278.541423438603,1479
1280.6638722695184,1400
1282.785759822993,1507
1284.9070863394636,1475
1287.0278520594447,1430
1289.1480572235314,1470
1291.2677020723963,1487
1293.3867868467923,1477
1295.5053117875495,1473
1297.623277135579,1491
1299.740683131868,1502
1301.8575300174857,1567
1303.973818033578,1507
1306.0895474213703,1525
1308.2047184221678,1506
1310.3193312773528,1541
1312.4333862283888,1540
1314.5468835168163,1527
1316.659823384255,1492
1318.7722060724045,1562
1320.8840318230418,1586
1322.9953008780249,1496
1325.1060134792888,1544
1327.2161698688478,1589
1329.3257702887959,1590
1331.4348149813054,1523
1333.5433041886276,1550
1335.6512381530933,1616
1337.7586171171101,1540
1339.8654413231675,1545
1341.9717110138317,1501
1344.0774264317488,1487
1346.1825878196432,1497
1348.2871954203192,1516
1350.3912494766587,1478
1352.4947502316231,1510
1354.5976979282532,1510
1356.7000928096686,1502
1358.8019351190665,1533
1360.9032250997243,1474
1363.0039629949988,1501
1365.1041490483235,1516
1367.2037835032133,1511
1369.3028666032606,1473
1371.401398592137,1445
1373.4993797135926,1472
1375.5968102114575,1456
1377.6936903296396,1580
1379.7900203121262,1536
1381.8858004029835,1518
1383.9810308463561,1482
1386.075711886469,1490
1388.1698437676241,1522
1390.2634267342032,1464
1392.356461030667,1426
1394.4489469015557,1476
1396.5408845914872,1481
1398.6322743451592,1526
1400.7231164073469,1471
1402.813411022907,1523
1404.903158436773,1522
1406.9923588939578,1534
1409.0810126395531,1445
1411.1691199187303,1442
1413.2566809767386,1490
1415.343696058907,1458
1417.4301654106425,1525
1419.5160892774315,1512
1421.6014679048399,1514
1423.6863015385125,1487
1425.7705904241707,1537
1427.8543348076178,1514
1429.9375349347342,1574
1432.0201910514802,1547
1434.102303403894,1547
1436.1838722380944,1515
1438.2648978002767,1544
1440.3453803367174,1555
1442.4253200937692,1583
1444.5047173178677,1546
1446.5835722555234,1585
1448.6618851533285,1602
1450.739656257952,1613
1452.8168858161434,1633
1454.8935740747306,1687
1456.96972128062,1630
1459.045327680797,1649
1461.120393522327,1615
1463.1949190523528,1702
1465.2689045180973,1664
1467.3423501668608,1677
1469.415256246024,1640
1471.4876230030463,1757
1473.559450685465,1691
1475.6307395408976,1731
1477.7014898170391,1746
1479.771701761665,1787
1481.8413756226287,1740
1483.9105116478618,1783
1485.9791100853772,1839
1488.0471711832643,1843
1490.1146951896926,1893
1492.1816823529098,1918
1494.2481329212433,1964
1496.3140471430984,1932
1498.3794252669609,1945
1500.4442675413939,1935
1502.5085742150404,2010
1504.572345536622,2053
1506.6355817549388,2078
1508.6982831188702,2080
1510.7604498773744,2097
1512.8220822794883,2175
1514.8831805743293,2197
1516.9437450110909,2090
1519.003775839048,2226
1521.0632733075522,2245
1523.1222376660367,2310
1525.1806691640113,2401
1527.2385680510652,2374
1529.2959345768668,2436
1531.3527689911643,2555
1533.4090715437833,2514
1535.4648424846291,2630
1537.5200820636855,2717
1539.5747905310159,2706
1541.6289681367616,2678
1543.6826151311434,2724
1545.7357317644614,2959
1547.7883182870937,2916
1549.8403749494987,2916
1551.8919020022113,2995
1553.9428996958477,3130
1555.9933682811015,3148
1558.0433080087469,3240
1560.0927191296346,3189
1562.1416018946961,3278
1564.1899565549415,3402
1566.2377833614592,3307
1568.2850825654164,3309
1570.3318544180606,3336
1572.3780991707158,3282
1574.423817074788,3154
1576.4690083817595,3070
1578.5136733431923,2890
1580.5578122107272,2773
1582.601425236085,2647
1584.6445126710646,2488
1586.6870747675434,2417
1588.7291117774776,2287
1590.7706239529034,2225
1592.8116115459347,2100
1594.8520748087658,2021
1596.8920139936686,2028
1598.9314293529933,1946
1600.9703211391711,1911
1603.008689604711,1822
1605.0465350022005,1760
1607.0838575843068,1790
1609.1206576037753,1766
1611.1569353134305,1679
1613.1926909661765,1709
1615.2279248149953,1603
1617.2626371129481,1640
1619.2968281131757,1626
1621.3304980688963,1671
1623.3636472334088,1587
1625.39627586009,1595
1627.428384202396,1607
1629.459972513861,1551
1631.4910410480993,1588
1633.5215900588028,1562
1635.551619799744,1483
1637.5811305247717,1519
1639.6101224878166,1465
1641.6385959428862,1460
1643.6665511440683,1535
1645.693988345528,1488
1647.7209078015112,1490
1649.7473097663405,1446
1651.7731944944203,1481
1653.7985622402307,1474
1655.823413258333,1474
1657.847747803366,1406
1659.8715661300494,1468
1661.8948684931793,1451
1663.9176551476316,1418
1665.9399263483624,1463
1667.9616823504057,1462
1669.982923408873,1461
1672.0036497789574,1462
1674.0238617159293,1454
1676.043559475138,1504
1678.0627433120121,1400
1680.081413482059,1465
1682.0995702408654,1419
1684.117213844096,1379
1686.134344547495,1422
1688.1509626068864,1418
1690.1670682781705,1424
1692.182661817329,1452
1694.1977434804217,1473
1696.2123135235875,1451
1698.226372203043,1423
1700.2399197750851,1464
1702.2529564960905,1445
1704.2654826225112,1418
1706.277498410882,1394
1708.2890041178139,1457
1710.2999999999988,1475
1712.3104863142066,1513
1714.3204633172854,1443
1716.329931266163,1438
1718.3388904178469,1457
1720.3473410294214,1496
1722.3552833580516,1494
1724.3627176609807,1410
1726.3696441955308,1425
1728.3760632191033,1433
1730.3819749891782,1438
1732.3873797633146,1413
1734.3922777991502,1409
1736.3966693544012,1387
1738.4005546868639,1455
1740.4039340544127,1432
1742.406807715001,1359
1744.4091759266616,1406
1746.4110389475054,1396
1748.4123970357223,1372
1750.413250449582,1401
1752.4135994474318,1360
1754.4134442876993,1420
1756.4127852288902,1412
1758.4116225295893,1357
1760.4099564484595,1410
1762.407787244244,1314
1764.405115175764,1345
1766.4019405019203,1431
1768.3982634816916,1375
1770.3940843741357,1381
1772.3894034383907,1378
1774.3842209336717,1405
1776.378537119274,1341
1778.372352254571,1372
1780.3656665990156,1359
1782.3584804121397,1382
1784.3507939535534,1402
1786.3426074829463,1326
1788.3339212600863,1366
1790.3247355448211,1397
1792.3150505970766,1291
1794.3048666768573,1386
1796.2941840442477,1341
1798.2830029594106,1367
1800.2713236825884,1351
1802.2591464741004,1340
1804.2464715943465,1355
1806.2332993038058,1326
1808.2196298630352,1351
1810.2054635326708,1337
1812.190800573428,1374
1814.175641246101,1307
1816.1599858115628,1319
1818.1438345307652,1372
1820.127187664738,1353
1822.1100454745924,1393
1824.092408221516,1378
1826.0742761667766,1354
1828.055649571721,1309
1830.0365286977735,1377
1832.0169138064398,1362
1833.9968051593014,1335
1835.9762030180214,1337
1837.9551076443408,1358
1839.9335193000788,1318
1841.9114382471344,1293
1843.888864747485,1369
1845.8657990631878,1325
1847.842241456378,1336
1849.8181921892697,1415
1851.7936515241558,1325
1853.7686197234098,1334
1855.7430970494815,1328
1857.7170837649014,1334
1859.6905801322787,1380
1861.6635864143004,1365
1863.6361028737338,1349
1865.608129773424,1281
1867.5796673762961,1364
1869.5507159453537,1325
1871.521275743678,1323
1873.4913470344313,1365
1875.4609300808534,1304
1877.4300251462632,1354
1879.3986324940588,1346
1881.366752387717,1346
1883.3343850907936,1317
1885.3015308669228,1342
1887.268189979819,1417
1889.2343626932739,1359
1891.2000492711595,1337
1893.1652499774254,1363
1895.1299650761011,1337
1897.0941948312952,1391
1899.0579395071945,1340
1901.0211993680641,1422
1902.98397467825,1353
1904.9462657021745,1372
1906.9080727043415,1359
1908.869395949332,1391
1910.8302357018065,1384
1912.790592226504,1371
1914.7504657882428,1316
1916.7098566519212,1318
1918.6687650825133,1375
1920.6271913450764,1378
1922.5851357047422,1355
1924.5425984267245,1307
1926.499579776314,1324
1928.4560800188833,1372
1930.4120994198802,1397
1932.367638244833,1374
1934.32269675935,1392
1936.2772752291175,1367
1938.231373919899,1324
1940.1849930975404,1324
1942.1381330279637,1334
1944.0907939771696,1389
1946.0429762112412,1416
1947.9946799963363,1377
1949.9459055986945,1312
1951.896653284633,1341
1953.8469233205478,1349
1955.7967159729142,1331
1957.7460315082863,1319
1959.6948701932974,1324
1961.6432322946594,1379
1963.5911180791632,1362
1965.5385278136787,1380
1967.4854617651545,1363
1969.4319202006182,1332
1971.377903387176,1323
1973.3234115920136,1311
1975.268445082395,1384
1977.2130041256642,1356
1979.1570889892423,1382
1981.1006999406304,1397
1983.04383724741,1391
1984.986501177238,1330
1986.928691997853,1362
1988.8704099770712,1354
1990.811655382789,1314
1992.7524284829801,1286
1994.692729545698,1357
1996.6325588390755,1349
1998.5719166313224,1340
2000.5108031907307,1393
2002.4492187856677,1321
2004.387163684583,1323
2006.3246381560011,1394
2008.2616424685298,1348
2010.1981768908527,1357
2012.1342416917332,1382
2014.069837140014,1311
2016.0049635046162,1354
2017.9396210545406,1393
2019.8738100588666,1342
2021.8075307867502,1401
2023.740783507431,1328
2025.6735684902228,1352
2027.6058860045214,1309
2029.5377363198004,1399
2031.4691197056118,1349
2033.4000364315875,1410
2035.3304867674374,1315
2037.260470982952,1368
2039.189989347998,1349
2041.1190421325232,1365
2043.047629606554,1345
2044.9757520401945,1373
2046.9034097036288,1377
2048.8306028671195,1338
2050.7573318010086,1337
2052.683596775716,1369
2054.609398061742,1317
2056.5347359296647,1303
2058.4596106501403,1383
2060.384022493906,1373
2062.3079717317764,1307
2064.231458634646,1310
2066.1544834734873,1378
2068.077046519352,1328
2069.99914804337,1328
2071.9207883167524,1330
2073.8419676107865,1349
2075.7626861968406,1259
2077.6829443463607,1409
2079.6027423308715,1328
2081.522080421977,1376
2083.440958891362,1323
2085.359378010786,1348
2087.2773380520907,1308
2089.194839287196,1332
2091.111881988101,1291
2093.0284664268825,1369
2094.9445928756973,1331
2096.86026160678,1379
2098.775472892446,1360
2100.690227005088,1325
2102.604524217178,1338
2104.5183648012676,1333
2106.431749029985,1377
2108.34467717604,1313
2110.2571495122206,1294
2112.169166311393,1334
2114.080727846503,1349
2115.9918343905747,1356
2117.902486216711,1354
2119.8126835980956,1407
2121.722426807987,1334
2123.6317161197285,1365
2125.5405518067364,1303
2127.448934142509,1409
2129.356863400624,1361
2131.264339854737,1385
2133.1713637785815,1361
2135.077935445972,1319
2136.9840551308002,1311
2138.889723107037,1388
2140.7949396487334,1351
2142.699705030018,1382
2144.6040195250994,1322
2146.507883408264,1342
2148.4112969538774,1354
2150.3142604363848,1288
2152.2167741303097,1326
2154.1188383102535,1389
2156.0204532508997,1320
2157.9216192270064,1331
2159.822336513414,1353
2161.7226053850413,1329
2163.622426116884,1325
2165.5217989840185,1336
2167.4207242616,1297
2169.319202224862,1319
2171.2172331491165,1339
2173.1148173097563,1365
2175.0119549822507,1383
2176.90864644215,1359
2178.8048919650823,1331
2180.7006918267534,1324
2182.596046302952,1321
2184.4909556695407,1359
2186.3854202024645,1332
2188.279440177746,1359
2190.173015871487,1343
2192.066147559868,1334
2193.958835519149,1354
2195.851080025667,1323
2197.7428813558417,1365
2199.6342397861667,1321
2201.5251555932186,1312
2203.415629053651,1362
2205.3056604441986,1369
2207.19525004167,1340
2209.084398122958,1362
2210.9731049650327,1364
2212.861370844941,1327
2214.749196039812,1329
2216.636580826851,1363
2218.523525483344,1367
2220.410030286655,1323
2222.296095514226,1316
2224.1817214435805,1389
2226.066908352319,1318
2227.951656518121,1359
2229.835966218746,1367
2231.71983773203,1381
2233.6032713358913,1368
2235.486267308324,1384
2237.3688259274036,1362
2239.2509474712824,1351
2241.132632218193,1322
2243.013880446447,1346
2244.8946924344323,1336
2246.7750684606203,1333
2248.6550088035574,1322
2250.534513741871,1366
2252.413583554265,1396
2254.292218519526,1342
2256.170418916517,1359
2258.0481850241786,1376
2259.925517121534,1383
2261.8024154876825,1366
2263.678880401803,1362
2265.5549121431536,1314
2267.430510991071,1297
2269.305677224971,1380
2271.180411124348,1369
2273.0547129687766,1344
2274.9285830379076,1320
2276.8020216114737,1373
2278.6750289692845,1306
2280.5476053912294,1296
2282.4197511572766,1302
2284.2914665474727,1366
2286.162751841943,1330
2288.0336073208937,1382
2289.904033264608,1418
2291.774029953448,1367
2293.6435976678554,1319
2295.5127366883517,1317
2297.381447295534,1328
2299.2497297700825,1326
2301.1175843927526,1374
2302.9850114443825,1325
2304.852011205885,1383
2306.7185839582553,1374
2308.5847299825664,1347
2310.4504495599676,1410
2312.3157429716925,1301
2314.1806104990483,1355
2316.0450524234247,1334
2317.9090690262888,1371
2319.772660589186,1377
2321.635827393742,1339
2323.498569721661,1421
2325.3608878547248,1357
2327.2227820747967,1406
2329.0842526638157,1364
2330.945299903803,1437
2332.805924076857,1378
2334.6661254651535,1407
2336.525904350951,1435
2338.3852610165827,1354
2340.244195744464,1382
2342.102708817088,1358
2343.9608005170253,1362
2345.8184711269287,1356
2347.675720929526,1372
2349.532550207628,1342
2351.38895924412,1338
2353.24494832197,1386
2355.100517724223,1396
2356.955667734004,1333
2358.810398634514,1337
2360.664710709037,1384
2362.5186042409337,1370
2364.3720795136437,1347
2366.225136810686,1418
2368.0777764156583,1431
2369.929998612237,1351
2371.7818036841777,1320
2373.633191915315,1418
2375.484163589562,1364
2377.3347189909114,1378
2379.184858403434,1436
2381.03458211128,1369
2382.8838903986775,1358
2384.732783549936,1403
2386.5812618494406,1332
2388.4293255816588,1441
2390.2769750311327,1374
2392.1242104824883,1347
2393.971032220427,1375
2395.8174405297295,1428
2397.6634356952563,1393
2399.509018001947,1447
2401.3541877348193,1410
2403.1989451789705,1400
2405.043290619576,1408
2406.8872243418905,1341
2408.730746631247,1327
2410.5738577730594,1342
2412.4165580528183,1391
2414.258847756095,1382
2416.100727168537,1376
2417.9421965758734,1445
2419.783256263912,1402
2421.623906518538,1423
2423.4641476257157,1373
2425.303979871491,1392
2427.143403541984,1413
2428.9824189233977,1389
2430.821026302012,1434
2432.6592259641866,1456
2434.497018196361,1444
2436.33440328505,1458
2438.171381516851,1484
2440.00795317844,1438
2441.844118556569,1383
2443.6798779380724,1435
2445.5152316098606,1435
2447.3501798589255,1446
2449.1847229723357,1364
2451.0188612372403,1420
2452.8525949408663,1403
2454.6859243705203,1401
2456.518849813587,1473
2458.3513715575314,1388
2460.183489889895,1454
2462.015205098301,1392
2463.8465174704493,1414
2465.67742729412,1377
2467.5079348571717,1364
2469.338040447542,1424
2471.1677443532476,1413
2472.9970468623833,1443
2474.825948263123,1402
2476.6544488437207,1355
2478.482548892508,1438
2480.310248697896,1407
2482.137548548374,1443
2483.9644487325118,1385
2485.790949538956,1364
2487.617051256433,1436
2489.44275417375,1448
2491.26805857979,1438
2493.0929647635157,1371
2494.917473013971,1404
2496.741583620276,1430
2498.5652968716304,1498
2500.3886130573137,1423
2502.2115324666834,1348
2504.0340553891765,1439
2505.856182114308,1430
2507.6779129316733,1463
2509.499248130945,1443
2511.3201880018764,1449
2513.140732834298,1435
2514.9608829181198,1464
2516.780638543331,1430
2518.6,1493
2520.418967578273,1420
2522.237541568376,1535
2524.0557222606144,1391
2525.8735099453706,1468
2527.6909049131086,1444
2529.507907454368,1466
2531.32451785977,1434
2533.140736420014,1438
2534.9565634258774,1489
2536.771999168218,1465
2538.5870439379714,1437
2540.4016980261526,1461
2542.2159617238544,1417
2544.02983532225,1470
2545.8433191125914,1508
2547.656413386209,1516
2549.4691184345115,1478
2551.2814345489874,1491
2553.093362021204,1563
2554.904901142808,1485
2556.716052205523,1500
2558.526815501153,1489
2560.3371913215824,1538
2562.147179958771,1514
2563.956781704761,1509
2565.7659968516705,1550
2567.5748256916986,1565
2569.3832685171224,1573
2571.1913256202984,1501
2572.9989972936614,1582
2574.806283829725,1560
2576.613185521084,1528
2578.4197026604074,1593
2580.2258355404483,1589
2582.031584454035,1595
2583.836949694077,1511
2585.6419315535613,1588
2587.4465303255533,1566
2589.2507463032002,1614
2591.0545797797245,1537
2592.8580310484303,1622
2594.6611004026995,1619
2596.463788135992,1664
2598.266094541849,1612
2600.0680199138874,1641
2601.869564545807,1572
2603.670728731383,1651
2605.4715127644704,1643
2607.2719169390048,1587
2609.071941548998,1690
2610.8715868885433,1654
2612.670853251811,1658
2614.469740933052,1650
2616.268250226594,1697
2618.0663814268455,1676
2619.864134828292,1616
2621.6615107255006,1609
2623.458509413115,1624
2625.2551311858597,1607
2627.0513763385347,1606
2628.8472451660223,1603
2630.6427379632833,1631
2632.4378550253564,1589
2634.232596647359,1584
2636.026963124488,1593
2637.8209547520187,1605
2639.6145718253065,1603
2641.407814639785,1580
2643.200683490966,1532
2644.9931786744414,1560
2646.7853004858807,1542
2648.577049221034,1560
2650.3684251757277,1601
2652.1594286458712,1529
2653.9500599274484,1598
2655.740319316525,1538
2657.5302071092437,1487
2659.3197236018286,1566
2661.10886909058,1508
2662.8976438718782,1466
2664.686048242183,1587
2666.4740824980327,1510
2668.2617469360443,1482
2670.0490418529134,1462
2671.8359675454153,1569
2673.622524310403,1473
2675.408712444811,1479
2677.1945322456495,1512
2678.979984010009,1499
2680.76506803506,1458
2682.5497846180497,1463
2684.334134056306,1438
2686.1181166472343,1506
2687.9017326883213,1491
2689.6849824771293,1474
2691.4678663113013,1445
2693.2503844885596,1478
2695.032537306705,1464
2696.8143250636167,1445
2698.5957480572542,1383
2700.3768065856534,1443
2702.1575009469316,1422
2703.937831439283,1399
2705.717798360982,1416
2707.4974020103837,1402
2709.276642685917,1455
2711.055520686095,1395
2712.834036309506,1409
2714.612189854819,1411
2716.389981620782,1407
2718.1674119062204,1423
2719.944481010041,1369
2721.721189231226,1400
2723.4975368688415,1378
2725.273524222027,1359
2727.0491515900053,1366
2728.824419272075,1365
2730.5993275676146,1385
2732.3738767760838,1424
2734.148067197016,1369
2735.921899130031,1331
2737.6953728748194,1367
2739.468488731156,1375
2741.2412469988926,1384
2743.0136479779617,1367
2744.785691968372,1361
2746.5573792702116,1364
2748.3287101836504,1406
2750.099685008934,1399
2751.870304046388,1325
2753.640567596418,1363
2755.4104759595057,1430
2757.1800294362156,1419
2758.949228327187,1315
2760.7180729331412,1400
2762.486563554877,1398
2764.254700493272,1317
2766.022484049284,1342
2767.789914523947,1350
2769.5569922183786,1334
2771.3237174337705,1366
2773.090090471394,1356
2774.8561116326036,1318
2776.6217812188274,1367
2778.3870995315756,1395
2780.1520668724356,1365
2781.9166835430747,1348
2783.6809498452394,1371
2785.444866080754,1382
2787.2084325515225,1390
2788.971649559527,1413
2790.73451740683,1307
2792.4970363955713,1366
2794.2592068279705,1363
2796.0210290063264,1356
2797.7825032330147,1350
2799.543629810493,1382
2801.304409041296,1395
2803.0648412280366,1410
2804.8249266734088,1368
2806.5846656801846,1414
2808.344058551212,1340
2810.1031055894246,1391
2811.8618070978273,1362
2813.6201633795085,1351
2815.378174737636,1353
2817.1358414754536,1369
2818.893163896285,1362
2820.6501423035334,1343
2822.4067770006814,1346
2824.1630682912883,1360
2825.9190164789957,1341
2827.6746218675207,1379
2829.429884760661,1375
2831.184805462294,1367
2832.9393842763743,1342
2834.693621506936,1317
2836.4475174580916,1361
2838.201072434034,1369
2839.954286739034,1370
2841.707160677441,1302
2843.459694553685,1358
2845.2118886722724,1337
2846.96374333779,1356
2848.7152588549034,1377
2850.4664355283567,1351
2852.217273662973,1392
2853.9677735636546,1346
2855.7179355353833,1368
2857.4677598832186,1296
2859.217246912299,1348
2860.9663969278427,1375
2862.715210235146,1345
2864.4636871395846,1347
2866.211827946614,1372
2867.9596329617652,1366
2869.7071024906536,1391
2871.4542368389684,1359
2873.20103631248,1398
2874.947501217038,1331
2876.6936318585695,1322
2878.4394285430812,1344
2880.1848915766604,1417
2881.9300212654707,1296
2883.6748179157553,1371
2885.4192818338374,1356
2887.1634133261173,1393
2888.907212699077,1403
2890.6506802592744,1351
2892.393816313348,1386
2894.1366211680142,1392
2895.8790951300693,1373
2897.621238506388,1404
2899.363051603925,1390
2901.1045347297118,1395
2902.8456881908596,1342
2904.58651229456,1350
2906.327007348081,1399
2908.067173658772,1360
2909.8070115340597,1338
2911.5465212814497,1383
2913.285703208527,1366
2915.0245576229563,1423
2916.7630848324807,1378
2918.5012851449196,1387
2920.2391588681758,1393
2921.976706310227,1355
2923.7139277791334,1322
2925.4508235830313,1356
2927.187394030137,1354
2928.923639428745,1360
2930.6595600872306,1414
2932.395156314046,1378
2934.1304284177218,1317
2935.8653767068713,1400
2937.6000014901815,1405
2939.3343030764227,1389
2941.068281774442,1386
2942.8019378931644,1406
2944.5352717415976,1400
2946.2682836288236,1369
2948.0009738640065,1382
2949.7333427563885,1331
2951.465390615289,1337
2953.1971177501086,1349
2954.9285244703265,1365
2956.6596110855,1355
2958.3903779052657,1343
2960.1208252393385,1353
2961.8509533975125,1336
2963.5807626896617,1338
2965.3102534257378,1320
2967.0394259157715,1361
2968.768280469873,1409
2970.496817398232,1340
2972.2250370111146,1370
2973.952939618869,1351
2975.6805255319196,1336
2977.4077950607707,1341
2979.134748516006,1364
2980.861386208289,1354
2982.587708448359,1405
2984.313715547037,1379
2986.039407815222,1395
2987.764785563891,1381
2989.489849104102,1321
2991.2145987469908,1349
2992.9390348037705,1315
2994.6631575857346,1293
2996.3869674042576,1346
2998.1104645707887,1385
2999.83364939686,1308
3001.5565221940783,1373
3003.2790832741334,1387
3005.0013329487924,1331
3006.7232715298996,1342
3008.4448993293804,1334
3010.166216659239,1337
3011.887223831558,1352
3013.607921158498,1355
3015.3283089522993,1292
3017.0483875252826,1340
3018.7681571898443,1392
3020.4876182584626,1314
3022.2067710436927,1321
3023.9256158581707,1333
3025.644153014609,1343
3027.362382825801,1332
3029.0803056046193,1280
3030.797921664012,1363
3032.5152313170106,1377
3034.2322348767225,1347
3035.9489326563353,1367
3037.665324969115,1359
3039.3814121284063,1413
3041.097194447633,1338
3042.812672240299,1376
3044.5278458199855,1279
3046.2427155003525,1278
3047.9572815951406,1332
3049.671544418167,1382
3051.38550428333,1349
3053.0991615046073,1327
3054.812516396051,1317
3056.5255692717974,1413
3058.2383204460575,1363
3059.9507702331257,1340
3061.662918947372,1355
3063.3747669032446,1338
3065.0863144152736,1387
3066.7975617980674,1353
3068.508509366309,1336
3070.219157434767,1352
3071.9295063182844,1342
3073.639556331785,1330
3075.3493077902704,1288
3077.058761008821,1385
3078.7679163025964,1337
3080.476773986837,1327
3082.1853343768594,1354
3083.89359778806,1367
3085.6015645359153,1308
3087.3092349359786,1331
3089.016609303884,1350
3090.7236879553434,1355
3092.4304712061476,1317
3094.136959372166,1338
3095.843152769349,1352
3097.5490517137237,1407
3099.2546565213966,1325
3100.959967508554,1336
3102.66498499146,1359
3104.3697092864577,1405
3106.0741407099695,1353
3107.778279578498,1354
3109.482126208622,1348
3111.1856809170004,1377
3112.8889440203716,1321
3114.5919158355528,1408
3116.294596679439,1376
3117.996986869006,1325
3119.6990867213062,1413
3121.4008965534726,1356
3123.102416682717,1369
3124.803647426329,1344
3126.5045891016784,1380
3128.205242026213,1390
3129.90560651746,1386
3131.605682893025,1339
3133.3054714705922,1376
3135.0049725679282,1419
3136.7041865028714,1416
3138.4031135933465,1410
3140.101754157353,1391
3141.800108512971,1308
3143.498176978357,1403
3145.1959598717494,1385
3146.8934575114636,1350
3148.5906702158954,1367
3150.2875983035183,1418
3151.9842420928853,1296
3153.680601902627,1349
3155.376678051456,1397
3157.07247085816,1359
3158.767980641609,1336
3160.463207720748,1386
3162.158152414606,1370
3163.8528150422862,1359
3165.5471959229726,1395
3167.2412953759303,1372
3168.9351137204976,1379
3170.628651276098,1328
3172.3219083622307,1329
3174.014885298474,1430
3175.707582404485,1337
3177.4000000000005,1343
3179.092138404835,1342
3180.7839979388846,1368
3182.47557892212,1357
3184.166881674594,1365
3185.8579065164386,1344
3187.5486537678626,1362
3189.2391237491547,1356
3190.9293167806827,1373
3192.6192331828934,1341
3194.3088732763117,1323
3195.998237381542,1290
3197.687325819268,1347
3199.376138910251,1357
3201.064676975334,1323
3202.7529403354347,1299
3204.4409293115523,1360
3206.1286442247647,1353
3207.816085396229,1342
3209.5032531471825,1378
3211.190147798936,1351
3212.8767696728846,1324
3214.5631190905015,1309
3216.2491963733373,1311
3217.9350018430214,1307
3219.6205358212637,1351
3221.305798629851,1299
3222.990790590651,1284
3224.6755120256103,1326
3226.359963256751,1370
3228.0441446061795,1363
3229.7280563960758,1370
3231.411698948703,1363
3233.0950725863995,1351
3234.778177631587,1362
3236.461014406761,1366
3238.1435832345005,1328
3239.8258844374595,1318
3241.507918338374,1333
3243.1896852600576,1336
3244.8711855254023,1310
3246.552419457381,1377
3248.233387379042,1333
3249.914089613516,1377
3251.59452648401,1290
3253.274698313813,1351
3254.95460542629,1306
3256.6342481448855,1335
3258.313626793125,1316
3259.9927416946084,1294
3261.6715931730196,1338
3263.3501815521176,1280
3265.0285071557437,1307
3266.706570307815,1340
3268.3843713323286,1304
3270.0619105533615,1343
3271.739188295068,1299
3273.4162048816834,1319
3275.0929606375184,1341
3276.769455886966,1367
3278.445690954498,1332
3280.1216661646613,1310
3281.797381842087,1322
3283.4728383114807,1405
3285.1480358976296,1380
3286.8229749253996,1360
3288.4976557197333,1323
3290.172078605655,1262
3291.846243908266,1302
3293.5201519527463,1312
3295.193803064357,1268
3296.8671975684374,1342
3298.5403357904024,1296
3300.21321805575,1353
3301.8858446900567,1273
3303.558216018975,1367
3305.23033236824,1368
3306.9021940636603,1317
3308.57380143113,1341
3310.2451547966184,1294
3311.916254486174,1326
3313.5871008259246,1306
3315.2576941420766,1295
3316.9280347609147,1333
3318.5981230088046,1327
3320.2679592121895,1288
3321.9375436975924,1280
3323.606876791612,1300
3325.27595882093,1330
3326.944790112305,1329
3328.6133709925753,1328
3330.2817017886573,1262
3331.949782827547,1319
3333.617614436319,1325
3335.2851969421245,1316
3336.952530672199,1360
3338.619615953853,1347
3340.286453114475,1361
3341.9530424815357,1298
3343.619384382583,1397
3345.2854791452437,1315
3346.951327097224,1323
3348.6169285663073,1403
3350.2822838803577,1385
3351.947393367319,1367
3353.61225735521,1378
3355.2768761721345,1371
3356.9412501462693,1367
3358.605379605873,1370
3360.2692648792827,1347
3361.9329062949146,1391
3363.596304181263,1234
