CollectionTime,7/11/2024 11:51:53 AM
ExposureUsed,3
CalibratedSpectrum
-962.7078968117929,549
-959.9714848408522,598
-957.2358232597828,614
-954.5009119013725,589
-951.7667505983302,602
-949.0333391832855,615
-946.3006774887896,627
-943.5687653473143,612
-940.837602591253,612
-938.1071890529199,617
-935.3775245645503,613
-932.6486089583007,639
-929.9204420662485,656
-927.1930237203925,622
-924.4663537526524,613
-921.7404319948689,627
-919.0152582788041,646
-916.2908324361409,725
-913.5671542984834,650
-910.8442236973568,594
-908.1220404642074,600
-905.4006044304027,628
-902.679915427231,604
-899.959973285902,585
-897.2407778375464,612
-894.5223289132158,582
-891.8046263438832,624
-889.0876699604426,617
-886.3714595937089,654
-883.6559950744183,642
-880.9412762332282,571
-878.2273029007168,593
-875.5140749073835,571
-872.8015920836489,570
-870.0898542598545,602
-867.3788612662631,595
-864.6686129330585,607
-861.9591090903457,646
-859.2503495681506,597
-856.5423341964203,572
-853.8350628050229,595
-851.1285352237478,590
-848.4227512823054,594
-845.7177108103272,615
-843.0134136373656,616
-840.3098595928943,602
-837.6070485063082,664
-834.9049802069229,639
-832.2036545239757,591
-829.5030712866244,600
-826.8032303239481,616
-824.1041314649472,608
-821.4057745385428,633
-818.7081593735775,631
-816.0112857988148,598
-813.3151536429393,579
-810.6197627345566,599
-807.9251129021936,601
-805.2312039742981,600
-802.5380357792392,599
-799.8456081453069,589
-797.1539209007124,619
-794.462973873588,638
-791.772766891987,658
-789.083299783884,623
-786.3945723771743,620
-783.7065844996748,603
-781.0193359791231,607
-778.3328266431781,621
-775.6470563194197,604
-772.9620248353489,579
-770.2777320183878,592
-767.5941776958798,632
-764.9113616950891,615
-762.2292838432011,643
-759.5479439673222,628
-756.8673418944801,622
-754.1874774516235,567
-751.5083504656222,634
-748.8299607632671,650
-746.15230817127,615
-743.475392516264,657
-740.7992136248035,650
-738.1237713233636,651
-735.4490654383407,669
-732.7750957960521,679
-730.1018622227365,649
-727.4293645445534,654
-724.7576025875837,647
-722.0865761778291,631
-719.4162851412126,666
-716.7467293035781,654
-714.0779084906909,654
-711.409822528237,658
-708.7424712418238,651
-706.0758544569796,671
-703.4099719991541,688
-700.7448236937178,712
-698.0804093659622,691
-695.4167288411002,666
-692.7537819442656,676
-690.0915685005134,677
-687.4300883348199,679
-684.7693412720819,681
-682.1093271371178,684
-679.4500457546669,654
-676.7914969493897,632
-674.1336805458676,657
-671.4765963686034,654
-668.8202442420206,719
-666.1646239904642,707
-663.5097354382001,676
-660.8555784094151,686
-658.2021527282176,696
-655.5494582186366,664
-652.8974947046223,701
-650.2462620100463,717
-647.5957599587009,696
-644.9459883742998,705
-642.2969470804776,709
-639.6486359007902,717
-637.0010546587141,731
-634.3542031776476,759
-631.7080812809096,720
-629.0626887917401,732
-626.4180255333008,705
-623.7740913286734,753
-621.1308860008619,739
-618.4884093727904,743
-615.8466612673046,700
-613.2056415071715,697
-610.5653499150785,702
-607.9257863136347,754
-605.28695052537,742
-602.6488423727357,709
-600.0114616781036,727
-597.3748082637674,701
-594.7388819519412,748
-592.1036825647604,789
-589.4692099242818,814
-586.8354638524829,789
-584.2024441712624,751
-581.5701507024403,738
-578.9385832677575,761
-576.3077416888759,757
-573.6776257873787,773
-571.0482353847704,759
-568.4195703024757,781
-565.7916303618415,766
-563.164415384135,835
-560.5379251905453,753
-557.9121596021815,763
-555.2871184400748,725
-552.6628015251767,789
-550.0392086783606,756
-547.4163397204204,799
-544.794194472071,752
-542.1727727539491,815
-539.5520743866118,808
-536.9320991905377,817
-534.3128469861261,844
-531.6943175936979,877
-529.0765108334947,869
-526.4594265256793,912
-523.8430644903358,1091
-521.2274245474689,1104
-518.612506517005,1112
-515.9983102187913,1103
-513.3848354725959,1091
-510.77208209810846,1166
-508.16004991493924,1218
-505.5487387426199,1310
-502.9381484006032,1499
-500.3282787082628,1558
-497.71912948489364,1554
-495.1107005497117,1480
-492.5029917218539,1341
-489.8960028203786,1277
-487.28973366426493,1157
-484.68418407241325,1054
-482.07935386364494,1010
-479.47524285670266,965
-476.87185087025,931
-474.2691777228715,953
-471.66722323307334,999
-469.0659872192821,961
-466.4654694998459,974
-463.86566989303384,977
-461.26658821703614,995
-458.66822428996414,949
-456.07057792985,959
-453.4736489546475,917
-450.877437182231,931
-448.28194243039627,928
-445.68716451686,888
-443.09310325926003,893
-440.49975847515555,907
-437.9071299820263,906
-435.31521759727354,914
-432.72402113821954,954
-430.13354042210767,1010
-427.5437752661022,967
-424.95472548728867,1013
-422.36639090267386,982
-419.7787713291855,1042
-417.1918665836721,1053
-414.60567648290385,963
-412.0202008435715,973
-409.4354394822874,1008
-406.8513922155845,1002
-404.26805885991723,1023
-401.685439231661,1027
-399.103533147112,1040
-396.522340422488,995
-393.9418608739278,977
-391.3620943174908,983
-388.7830405691583,965
-386.2046994448317,908
-383.6270707603344,888
-381.05015433141045,841
-378.473949973725,753
-375.8984575028645,725
-373.32367673433623,693
-370.74960748356875,725
-368.1762495659117,715
-365.60360279663576,630
-363.03166699093265,584
-360.4604419639154,525
-357.8899275306178,477
-355.32012350599507,493
-352.7510297049233,520
-350.1826459421999,498
-347.61497203254316,465
-345.04800779059235,486
-342.4817530309082,507
-339.91620756797226,558
-337.35137121618743,527
-334.7872437898774,583
-332.22382510328725,547
-329.66111497058273,485
-327.09911320585127,494
-324.53781962310075,557
-321.9772340362607,553
-319.4173562591816,464
-316.8581861056348,447
-314.2997233893127,443
-311.7419679238294,461
-309.1849195227194,490
-306.62857799943856,516
-304.0729431673641,609
-301.51801483979375,539
-298.963792829947,539
-296.41027695096386,522
-293.85746701590574,565
-291.3053628377552,586
-288.7539642294155,588
-286.2032710037115,584
-283.65328297338897,540
-281.1039999511146,606
-278.5554217494762,608
-276.007548180983,542
-273.4603790580651,543
-270.9139141930734,548
-268.3681533982807,514
-265.8230964858798,592
-263.27874326798565,628
-260.7350935566336,621
-258.1921471637804,566
-255.6499039013039,589
-253.10836358100266,642
-250.56752601459698,606
-248.02739101372765,595
-245.48795838995704,647
-242.94922795476816,619
-240.41119951956557,733
-237.8738728956746,739
-235.33724789434166,678
-232.80132432673452,601
-230.2661020039418,613
-227.73158073697357,665
-225.19776033676033,674
-222.66464061415422,632
-220.1322213799284,577
-217.60050244477725,580
-215.06948361931552,621
-212.53916471408013,705
-210.00954553952818,731
-207.48062590603843,691
-204.9524056239104,686
-202.4248845033651,746
-199.8980623545441,691
-197.37193898751036,728
-194.84651421224817,740
-192.32178783866232,724
-189.79775967657952,765
-187.27442953574644,896
-184.7517972258321,897
-182.2298625564256,886
-179.7086253370378,828
-177.18808537710026,779
-174.66824248596583,756
-172.14909647290835,732
-169.6306471471229,801
-167.11289431772548,878
-164.59583779375328,908
-162.07947738416453,782
-159.5638128978386,872
-157.04884414357605,944
-154.53457093009854,922
-152.02099306604828,822
-149.50811035998936,807
-146.99592262040665,858
-144.48442965570587,888
-141.97363127421409,989
-139.46352728417958,987
-136.95411749377126,963
-134.44540171107985,940
-131.93737974411636,893
-129.43005140081357,936
-126.92341648902493,1204
-124.41747481652521,1418
-121.91222619101006,1511
-119.40767042009657,1448
-116.90380731132257,1414
-114.40063667214702,1563
-111.8981583099503,1769
-109.3963720320337,1370
-106.89527764561933,1431
-104.39487495785067,2418
-101.89516377579241,3244
-99.39614390642998,4095
-96.89781515667039,4292
-94.40017733334128,4192
-91.90323024319173,4891
-89.40697369289148,6575
-86.91140748903172,6414
-84.41653143812482,5277
-81.92234534660395,4959
-79.42884902082358,6662
-76.93604226705907,12117
-74.4439248915071,21787
-71.95249670028534,30842
-69.46175749943245,32665
-66.97170709490854,28612
-64.48234529259423,22869
-61.99367189829195,15340
-59.50568671772464,10116
-57.01838955653636,6922
-54.53178022029283,6198
-52.045858514480074,5528
-49.560624244506016,6193
-47.07607721569923,7799
-44.59221723330904,8766
-42.10904410250669,9687
-39.62655762838392,9168
-37.14475761595372,8506
-34.66364387015028,7546
-32.18321619582866,7209
-29.70347439776515,7889
-27.224418280657005,8397
-24.74604764912317,10084
-22.26836230770266,16543
-19.7913620608565,33683
-17.315046712966478,56129
-14.83941606833514,65036
-12.36446993118659,65036
-9.89020810566592,65036
-7.416630395839093,65036
-4.94373660569363,65036
-2.471526539137585,65036
-6.821210263296962E-13,65036
2.47084320796705,65036
4.941003281093458,65036
7.410480415786196,65036
9.879274808531363,65036
12.347386655893956,65036
14.814816154518212,65036
17.28156350112681,65036
19.74762889252179,65036
22.21301252558385,21287
24.67771459727237,4161
27.141735304626195,2942
29.605074844762612,2956
32.06773341487792,3200
34.52971121224755,2984
36.99100843422559,2956
39.45162527824516,2616
41.91156194181792,2302
44.370818622535126,2056
46.82939551806646,1865
49.287292826160524,1946
51.74451074464503,2596
54.201049471426245,2692
56.65690920448981,2028
59.112090141899785,1517
61.56659248179983,1423
64.02041642241159,1350
66.4735621620365,1336
68.92602989905402,1296
71.37781983192338,1478
73.82893215918205,1609
76.27936707944684,1681
78.72912479141326,1317
81.17820549385567,1541
83.62660938562783,1774
86.07433666566146,1372
88.5213875329681,1141
90.96776218663751,1156
93.41346082583925,1053
95.85848364982041,1156
98.30283085790859,1618
100.7465026495089,1361
103.18949922410604,1122
105.63182078126385,1096
108.07346752062438,1006
110.51443964190923,926
112.95473734491827,951
115.39436082953114,1177
117.83331029570547,1048
120.27158594347827,1066
122.7091879729652,1259
125.1461165843615,1189
127.58237197794062,941
130.01795435405518,921
132.4528639131364,932
134.88710085569494,880
137.32066538231982,862
139.75355769367923,932
142.1857779905207,927
144.61732647366978,907
147.04820334403132,894
149.47840880258934,882
151.90794305040674,1031
154.33680628862487,1174
156.76499871846443,1430
159.19252054122433,1472
161.61937195828352,1539
164.04555317109896,1799
166.47106438120693,1982
168.89590579022217,2168
171.320077599839,2240
173.7435800118302,2391
176.16641322804742,2536
178.58857745042144,2686
181.01007288096173,2846
183.43089972175687,2798
185.85105817497413,2632
188.27054844285988,2683
190.6893707277394,2698
193.10752523201643,2710
195.5250121581745,2932
197.9418317087751,2970
200.3579840864594,2956
202.7734694939469,2811
205.18828813403627,2956
207.6024402096051,2999
210.01592592360964,3073
212.42874547908548,2966
214.84089907914665,2880
217.2523869269868,2954
219.66320922587727,2858
222.0733661791695,2726
224.48285799029293,2833
226.8916848627572,2857
229.29984700014882,2900
231.7073446061355,2866
234.11417788446204,2852
236.520347038953,2916
238.92585227351185,2953
241.33069379212054,2936
243.73487179884035,3100
246.1383864978112,3073
248.541238093252,2922
250.9434267894609,2926
253.34495279081432,2974
255.74581630176783,2965
258.1460175268563,2892
260.54555667069314,2975
262.9444339379703,2892
265.3426495334594,2866
267.7402036620107,2867
270.1370965285529,2952
272.53332833809407,2749
274.9288992957214,2751
277.32380960660055,2636
279.718059475976,2671
282.1116491091717,2603
284.5045787115897,2581
286.89684848871195,2626
289.2884586460981,2567
291.67940938938807,2602
294.0697009242996,2671
296.4593334566299,2618
298.84830719225477,2499
301.23662233712923,2629
303.6242790972866,2578
306.01127767884,2499
308.39761828798066,2422
310.78330113097934,2476
313.16832641418534,2361
315.5526943440269,2337
317.9364051270112,2363
320.3194589697242,2416
322.70185607883093,2407
325.0835966610754,2373
327.4646809232805,2390
329.8451090723478,2330
332.2248813152577,2314
334.6039978590701,2272
336.9824589109231,2244
339.36026467803447,2206
341.7374153677,2159
344.113911187295,2180
346.48975234427337,2159
348.8649390461686,2142
351.2394715005918,2149
353.61334991523415,2099
355.9865744978655,2147
358.35914545633375,2109
360.73106299856715,2117
363.10232733257146,2200
365.47293866643247,2191
367.84289720831396,2109
370.2122031664593,2137
372.5808567491905,2120
374.9488581649083,2113
377.31620762209275,2095
379.6829053293021,2056
382.0489514951745,2018
384.4143463284262,2083
386.7790900378528,2041
389.14318283232853,2025
391.50662492080653,2093
393.86941651231916,2027
396.23155781597745,2056
398.5930490409713,2108
400.9538903965696,2043
403.3140820921202,1952
405.6736243370498,2024
408.03251734086336,2038
410.3907613131465,2043
412.74835646356166,1948
415.10530300185144,1966
417.4616011378372,1992
419.81725108141893,1886
422.1722530425758,2004
424.5266072313656,2012
426.880313857925,1942
429.2333731324701,1972
431.58578526529516,1978
433.9375504667738,2016
436.2886689473588,1974
438.63914091758113,1898
440.9889665880513,2011
443.33814616945835,1928
445.68667987257015,1975
448.03456790823395,1911
450.3818104873759,1890
452.72840782100013,1924
455.07436012019105,1947
457.41966759611057,1919
459.7643304600007,1981
462.10834892318155,1976
464.4517231970525,1908
466.79445349309174,1961
469.1365400228566,1947
471.4779829979826,1973
473.81878263018564,1925
476.15893913125876,1947
478.4984527130747,1992
480.8373235875855,2025
483.17555196682144,2084
485.5131380628919,2125
487.8500820879857,2116
490.1863842543697,2350
492.52204477439034,2567
494.8570638604725,2727
497.1914417251204,2999
499.52517858091653,3112
501.85827464052306,3188
504.19073011668036,3175
506.5225452222086,3086
508.85372017000566,2939
511.18425517304956,2907
513.514150444396,3089
515.8434061971808,3707
518.1720226446176,4208
520.4999999999999,4463
522.8273384766991,4140
525.1540382881666,3797
527.480099647932,3417
529.8055227696037,2936
532.1303078668694,2383
534.454455153496,2160
536.777964843328,2101
539.1008371502907,1952
541.4230722883866,1962
543.744670471698,1950
546.0656319143858,2038
548.3859568306899,2010
550.7056454349294,1969
553.0246979415016,1874
555.3431145648834,1870
557.6608955196306,1939
559.978041020377,1921
562.2945512818363,1895
564.6104265188006,1952
566.9256669461412,1895
569.2402727788082,1965
571.5542442318302,1925
573.8675815203156,1936
576.1802848594508,1972
578.4923544645015,1918
580.8037905508126,1907
583.114593333807,1952
585.4247630289875,1858
587.7342998519354,1934
590.0432040183106,1966
592.3514757438526,1986
594.6591152443794,1942
596.9661227357875,1923
599.2724984340531,1951
601.578242555231,1942
603.8833553154542,1969
606.1878369309362,1985
608.4916876179676,1996
610.7949075929192,1912
613.0974970722403,1890
615.3994562724587,1943
617.7007854101818,1972
620.0014847020951,1936
622.3015543649641,1970
624.6009946156324,1941
626.8998056710224,1953
629.1979877481361,1959
631.4955410640538,1908
633.7924658359349,2007
636.0887622810175,1974
638.3844306166192,1968
640.6794710601358,2052
642.9738838290426,2010
645.2676691408932,1989
647.5608272133207,2040
649.853358264037,2050
652.1452625108324,2055
654.4365401715764,2022
656.7271914642178,2029
659.0172166067838,1959
661.3066158173809,1963
663.5953893141935,2001
665.8835373154867,2027
668.1710600396028,2024
670.4579577049639,1995
672.7442305300709,2011
675.0298787335033,2042
677.3149025339197,1990
679.599302150058,1917
681.8830778007342,2033
684.1662297048437,2052
686.4487580813608,2070
688.7306631493387,2044
691.0119451279091,2057
693.2926042362834,2047
695.5726406937516,2110
697.8520547196814,1999
700.1308465335215,1982
702.4090163547982,2010
704.6865644031171,1997
706.9634908981619,2020
709.2397960596965,1967
711.5154801075631,2063
713.7905432616823,2055
716.0649857420548,2009
718.3388077687592,1960
720.612009561953,1958
722.8845913418733,1994
725.1565533288352,1999
727.427895743234,2012
729.6986188055427,2011
731.9687227363137,2099
734.238207756178,2052
736.5070740858458,1969
738.7753219461066,1959
741.0429515578281,1962
743.3099631419569,2031
745.5763569195191,2001
747.8421331116193,2065
750.1072919394409,1953
752.3718336242467,2002
754.6357583873777,1979
756.8990664502545,2022
759.1617580343765,1978
761.423833361321,1914
763.6852926527457,2019
765.9461361303862,1966
768.206364016058,1971
770.4659765316536,2012
772.7249738991469,1979
774.9833563405886,2037
777.2411240781092,2007
779.4982773339183,2017
781.7548163303044,2099
784.010741289634,2012
786.2660524343538,2154
788.5207499869881,2012
790.7748341701416,1990
793.0283052064964,2045
795.2811633188143,2088
797.5334087299362,2074
799.7850416627813,2087
802.0360623403484,2036
804.2864709857143,2062
806.5362678220353,2035
808.7854530725468,1929
811.0340269605625,2037
813.2819897094754,2012
815.5293415427581,2009
817.77608268396,2084
820.0222133567116,2000
822.2677337847211,2091
824.5126441917765,2036
826.7569448017433,1995
829.0006358385675,2011
831.2437175262731,2065
833.4861900889629,1979
835.7280537508192,2032
837.9693087361026,1951
840.2099552691533,1976
842.4499935743896,1938
844.689423876309,1999
846.9282463994886,2100
849.1664613685833,1995
851.4040690083276,2047
853.6410695435349,2018
855.877463199097,1954
858.1132501999847,2061
860.3484307712487,2028
862.5830051380175,2091
864.8169735254988,2103
867.0503361589791,2194
869.2830932638243,2091
871.5152450654786,2112
873.7467917894654,2057
875.9777336613873,2004
878.2080709069252,2107
880.4378037518389,2040
882.666932421968,2167
884.8954571432301,2059
887.1233781416219,2151
889.3506956432192,2119
891.5774098741766,2060
893.803521060728,2124
896.0290294291852,2148
898.2539352059397,2068
900.4782386174619,2077
902.7019398903011,2175
904.925039251085,2001
907.147536926521,2102
909.3694331433943,2061
911.59072812857,2002
913.8114221089921,2012
916.0315153116827,2104
918.2510079637437,2069
920.4699002923547,2059
922.6881925247761,1978
924.905884888345,1972
927.1229776104793,2038
929.3394709186747,2005
931.555365040506,2015
933.7706602036275,1993
935.9853566357709,2010
938.1994545647489,2063
940.4129542184515,2044
942.6258558248488,2019
944.8381596119883,2033
947.0498658079974,1892
949.2609746410825,2019
951.4714863395287,1973
953.6814011316998,1999
955.8907192460387,1891
958.0994409110671,1969
960.3075663553858,1922
962.5150958076741,1972
964.7220294966913,1947
966.928367651274,1907
969.1341105003388,1852
971.3392582728806,1904
973.5438111979742,1933
975.747769504772,1960
977.9511334225061,1896
980.153903180487,1958
982.3560790081052,1931
984.5576611348289,1918
986.7586497902058,1848
988.9590452038618,1878
991.158847605503,1903
993.3580572249133,1900
995.5566742919558,1846
997.7546990365728,1815
999.952131688785,1763
1002.1489724786926,1814
1004.3452216364743,1799
1006.5408793923874,1715
1008.7359459767691,1757
1010.9304216200343,1703
1013.1243065526781,1747
1015.3176010052733,1776
1017.510305208472,1682
1019.7024193930064,1710
1021.8939437896848,1706
1024.0848786293977,1747
1026.2752241431122,1668
1028.4649805618747,1739
1030.6541481168115,1713
1032.842727039127,1751
1035.0307175601051,1690
1037.2181199111074,1755
1039.4049343235752,1664
1041.591161029029,1694
1043.7768002590683,1740
1045.9618522453698,1691
1048.1463172196918,1704
1050.3301954138697,1673
1052.513487059818,1648
1054.69619238953,1720
1056.8783116350783,1620
1059.0598450286152,1612
1061.2407928023704,1651
1063.4211551886528,1655
1065.6009324198508,1652
1067.780124728432,1650
1069.9587323469414,1634
1072.1367555080046,1637
1074.314194444325,1615
1076.4910493886855,1599
1078.667320573947,1653
1080.843008233051,1655
1083.0181125990161,1576
1085.1926339049414,1548
1087.3665723840027,1590
1089.5399282694575,1648
1091.7127017946405,1608
1093.8848931929647,1604
1096.0565026979243,1559
1098.2275305430899,1547
1100.3979769621128,1562
1102.567842188722,1535
1104.737126456726,1592
1106.9058300000124,1580
1109.0739530525475,1595
1111.2414958483764,1573
1113.4084586216231,1512
1115.5748416064907,1574
1117.7406450372605,1487
1119.9058691482942,1522
1122.0705141740304,1544
1124.2345803489884,1560
1126.3980679077658,1573
1128.5609770850388,1588
1130.7233081155623,1520
1132.8850612341707,1515
1135.0462366757774,1476
1137.2068346753745,1539
1139.3668554680326,1521
1141.526299288901,1492
1143.68516637321,1462
1145.8434569562655,1438
1148.001171273455,1520
1150.158309560244,1560
1152.3148720521767,1553
1154.470858984876,1533
1156.626270594044,1517
1158.7811071154629,1472
1160.9353687849912,1435
1163.089055838569,1533
1165.242168512213,1531
1167.3947070420209,1503
1169.5466716641677,1456
1171.6980626149075,1477
1173.8488801305748,1485
1175.9991244475814,1556
1178.1487958024186,1495
1180.2978944316555,1484
1182.4464205719428,1467
1184.5943744600072,1460
1186.7417563326567,1481
1188.8885664267755,1469
1191.0348049793297,1493
1193.1804722273619,1522
1195.325568407995,1541
1197.4700937584303,1496
1199.614048515948,1537
1201.7574329179074,1418
1203.900247201746,1451
1206.042491604982,1529
1208.1841663652099,1551
1210.3252717201053,1496
1212.465807907422,1473
1214.6057751649923,1457
1216.7451737307279,1473
1218.8840038426192,1486
1221.0222657387353,1528
1223.1599596572241,1496
1225.2970858363137,1601
1227.4336445143094,1583
1229.5696359295966,1570
1231.705060320639,1559
1233.8399179259786,1559
1235.9742089842384,1543
1238.107933734118,1552
1240.2410924143974,1579
1242.373685263935,1473
1244.5057125216676,1493
1246.6371744266116,1547
1248.7680712178621,1495
1250.898403134593,1481
1253.028170416058,1472
1255.1573733015875,1556
1257.2860120305932,1522
1259.4140868425648,1538
1261.54159797707,1500
1263.6685456737569,1546
1265.7949301723515,1537
1267.9207517126597,1525
1270.046010534565,1563
1272.1707068780306,1601
1274.2948409830983,1572
1276.4184130898889,1517
1278.541423438603,1551
1280.6638722695184,1599
1282.785759822993,1601
1284.9070863394636,1565
1287.0278520594447,1614
1289.1480572235314,1589
1291.2677020723963,1588
1293.3867868467923,1629
1295.5053117875495,1644
1297.623277135579,1627
1299.740683131868,1582
1301.8575300174857,1659
1303.973818033578,1675
1306.0895474213703,1667
1308.2047184221678,1685
1310.3193312773528,1652
1312.4333862283888,1707
1314.5468835168163,1636
1316.659823384255,1657
1318.7722060724045,1657
1320.8840318230418,1697
1322.9953008780249,1645
1325.1060134792888,1604
1327.2161698688478,1611
1329.3257702887959,1629
1331.4348149813054,1656
1333.5433041886276,1620
1335.6512381530933,1639
1337.7586171171101,1671
1339.8654413231675,1680
1341.9717110138317,1648
1344.0774264317488,1661
1346.1825878196432,1685
1348.2871954203192,1563
1350.3912494766587,1666
1352.4947502316231,1694
1354.5976979282532,1603
1356.7000928096686,1692
1358.8019351190665,1637
1360.9032250997243,1608
1363.0039629949988,1646
1365.1041490483235,1656
1367.2037835032133,1688
1369.3028666032606,1670
1371.401398592137,1607
1373.4993797135926,1587
1375.5968102114575,1690
1377.6936903296396,1677
1379.7900203121262,1650
1381.8858004029835,1638
1383.9810308463561,1701
1386.075711886469,1650
1388.1698437676241,1698
1390.2634267342032,1703
1392.356461030667,1737
1394.4489469015557,1685
1396.5408845914872,1660
1398.6322743451592,1729
1400.7231164073469,1694
1402.813411022907,1783
1404.903158436773,1746
1406.9923588939578,1700
1409.0810126395531,1720
1411.1691199187303,1771
1413.2566809767386,1760
1415.343696058907,1800
1417.4301654106425,1797
1419.5160892774315,1705
1421.6014679048399,1784
1423.6863015385125,1751
1425.7705904241707,1795
1427.8543348076178,1825
1429.9375349347342,1864
1432.0201910514802,1810
1434.102303403894,1806
1436.1838722380944,1846
1438.2648978002767,1872
1440.3453803367174,1932
1442.4253200937692,1873
1444.5047173178677,1967
1446.5835722555234,1975
1448.6618851533285,2002
1450.739656257952,1959
1452.8168858161434,2002
1454.8935740747306,2095
1456.96972128062,2066
1459.045327680797,2063
1461.120393522327,2133
1463.1949190523528,2088
1465.2689045180973,2145
1467.3423501668608,2223
1469.415256246024,2229
1471.4876230030463,2307
1473.559450685465,2291
1475.6307395408976,2402
1477.7014898170391,2440
1479.771701761665,2416
1481.8413756226287,2561
1483.9105116478618,2573
1485.9791100853772,2557
1488.0471711832643,2592
1490.1146951896926,2621
1492.1816823529098,2672
1494.2481329212433,2723
1496.3140471430984,2864
1498.3794252669609,2737
1500.4442675413939,2715
1502.5085742150404,2833
1504.572345536622,2894
1506.6355817549388,2908
1508.6982831188702,2856
1510.7604498773744,2936
1512.8220822794883,3022
1514.8831805743293,2956
1516.9437450110909,3090
1519.003775839048,3198
1521.0632733075522,3204
1523.1222376660367,3217
1525.1806691640113,3201
1527.2385680510652,3337
1529.2959345768668,3414
1531.3527689911643,3350
1533.4090715437833,3515
1535.4648424846291,3540
1537.5200820636855,3533
1539.5747905310159,3547
1541.6289681367616,3641
1543.6826151311434,3753
1545.7357317644614,3700
1547.7883182870937,3706
1549.8403749494987,3857
1551.8919020022113,3951
1553.9428996958477,4068
1555.9933682811015,4231
1558.0433080087469,4153
1560.0927191296346,4254
1562.1416018946961,4077
1564.1899565549415,4260
1566.2377833614592,4059
1568.2850825654164,3980
1570.3318544180606,3819
1572.3780991707158,3626
1574.423817074788,3550
1576.4690083817595,3418
1578.5136733431923,3244
1580.5578122107272,3211
1582.601425236085,2897
1584.6445126710646,2763
1586.6870747675434,2757
1588.7291117774776,2539
1590.7706239529034,2539
1592.8116115459347,2394
1594.8520748087658,2364
1596.8920139936686,2253
1598.9314293529933,2113
1600.9703211391711,2125
1603.008689604711,2043
1605.0465350022005,1962
1607.0838575843068,2006
1609.1206576037753,1901
1611.1569353134305,1939
1613.1926909661765,1907
1615.2279248149953,1887
1617.2626371129481,1845
1619.2968281131757,1825
1621.3304980688963,1816
1623.3636472334088,1764
1625.39627586009,1769
1627.428384202396,1725
1629.459972513861,1707
1631.4910410480993,1744
1633.5215900588028,1709
1635.551619799744,1686
1637.5811305247717,1598
1639.6101224878166,1643
1641.6385959428862,1671
1643.6665511440683,1651
1645.693988345528,1648
1647.7209078015112,1675
1649.7473097663405,1641
1651.7731944944203,1656
1653.7985622402307,1630
1655.823413258333,1596
1657.847747803366,1604
1659.8715661300494,1607
1661.8948684931793,1617
1663.9176551476316,1648
1665.9399263483624,1623
1667.9616823504057,1642
1669.982923408873,1610
1672.0036497789574,1589
1674.0238617159293,1566
1676.043559475138,1613
1678.0627433120121,1593
1680.081413482059,1576
1682.0995702408654,1529
1684.117213844096,1618
1686.134344547495,1601
1688.1509626068864,1624
1690.1670682781705,1629
1692.182661817329,1607
1694.1977434804217,1601
1696.2123135235875,1624
1698.226372203043,1516
1700.2399197750851,1682
1702.2529564960905,1584
1704.2654826225112,1642
1706.277498410882,1530
1708.2890041178139,1578
1710.2999999999988,1604
1712.3104863142066,1573
1714.3204633172854,1563
1716.329931266163,1641
1718.3388904178469,1552
1720.3473410294214,1549
1722.3552833580516,1542
1724.3627176609807,1574
1726.3696441955308,1581
1728.3760632191033,1551
1730.3819749891782,1566
1732.3873797633146,1577
1734.3922777991502,1566
1736.3966693544012,1428
1738.4005546868639,1488
1740.4039340544127,1552
1742.406807715001,1517
1744.4091759266616,1473
1746.4110389475054,1500
1748.4123970357223,1533
1750.413250449582,1488
1752.4135994474318,1466
1754.4134442876993,1593
1756.4127852288902,1533
1758.4116225295893,1493
1760.4099564484595,1502
1762.407787244244,1455
1764.405115175764,1488
1766.4019405019203,1519
1768.3982634816916,1514
1770.3940843741357,1478
1772.3894034383907,1511
1774.3842209336717,1465
1776.378537119274,1468
1778.372352254571,1457
1780.3656665990156,1426
1782.3584804121397,1479
1784.3507939535534,1420
1786.3426074829463,1399
1788.3339212600863,1526
1790.3247355448211,1443
1792.3150505970766,1480
1794.3048666768573,1424
1796.2941840442477,1463
1798.2830029594106,1511
1800.2713236825884,1447
1802.2591464741004,1435
1804.2464715943465,1445
1806.2332993038058,1398
1808.2196298630352,1487
1810.2054635326708,1470
1812.190800573428,1448
1814.175641246101,1445
1816.1599858115628,1456
1818.1438345307652,1517
1820.127187664738,1474
1822.1100454745924,1476
1824.092408221516,1456
1826.0742761667766,1399
1828.055649571721,1445
1830.0365286977735,1441
1832.0169138064398,1442
1833.9968051593014,1427
1835.9762030180214,1443
1837.9551076443408,1473
1839.9335193000788,1489
1841.9114382471344,1417
1843.888864747485,1381
1845.8657990631878,1389
1847.842241456378,1401
1849.8181921892697,1420
1851.7936515241558,1500
1853.7686197234098,1388
1855.7430970494815,1395
1857.7170837649014,1434
1859.6905801322787,1499
1861.6635864143004,1436
1863.6361028737338,1437
1865.608129773424,1432
1867.5796673762961,1482
1869.5507159453537,1448
1871.521275743678,1423
1873.4913470344313,1437
1875.4609300808534,1483
1877.4300251462632,1454
1879.3986324940588,1384
1881.366752387717,1441
1883.3343850907936,1504
1885.3015308669228,1480
1887.268189979819,1448
1889.2343626932739,1496
1891.2000492711595,1390
1893.1652499774254,1437
1895.1299650761011,1450
1897.0941948312952,1450
1899.0579395071945,1463
1901.0211993680641,1460
1902.98397467825,1459
1904.9462657021745,1495
1906.9080727043415,1451
1908.869395949332,1457
1910.8302357018065,1510
1912.790592226504,1469
1914.7504657882428,1466
1916.7098566519212,1444
1918.6687650825133,1429
1920.6271913450764,1441
1922.5851357047422,1488
1924.5425984267245,1501
1926.499579776314,1434
1928.4560800188833,1447
1930.4120994198802,1428
1932.367638244833,1541
1934.32269675935,1454
1936.2772752291175,1458
1938.231373919899,1484
1940.1849930975404,1492
1942.1381330279637,1451
1944.0907939771696,1431
1946.0429762112412,1400
1947.9946799963363,1455
1949.9459055986945,1484
1951.896653284633,1464
1953.8469233205478,1452
1955.7967159729142,1476
1957.7460315082863,1470
1959.6948701932974,1484
1961.6432322946594,1459
1963.5911180791632,1402
1965.5385278136787,1477
1967.4854617651545,1445
1969.4319202006182,1434
1971.377903387176,1510
1973.3234115920136,1510
1975.268445082395,1466
1977.2130041256642,1472
1979.1570889892423,1447
1981.1006999406304,1459
1983.04383724741,1471
1984.986501177238,1508
1986.928691997853,1440
1988.8704099770712,1470
1990.811655382789,1500
1992.7524284829801,1489
1994.692729545698,1402
1996.6325588390755,1409
1998.5719166313224,1422
2000.5108031907307,1477
2002.4492187856677,1422
2004.387163684583,1505
2006.3246381560011,1452
2008.2616424685298,1466
2010.1981768908527,1400
2012.1342416917332,1409
2014.069837140014,1459
2016.0049635046162,1477
2017.9396210545406,1487
2019.8738100588666,1421
2021.8075307867502,1449
2023.740783507431,1423
2025.6735684902228,1429
2027.6058860045214,1431
2029.5377363198004,1414
2031.4691197056118,1400
2033.4000364315875,1405
2035.3304867674374,1420
2037.260470982952,1418
2039.189989347998,1363
2041.1190421325232,1418
2043.047629606554,1439
2044.9757520401945,1488
2046.9034097036288,1425
2048.8306028671195,1410
2050.7573318010086,1450
2052.683596775716,1412
2054.609398061742,1432
2056.5347359296647,1338
2058.4596106501403,1405
2060.384022493906,1439
2062.3079717317764,1383
2064.231458634646,1396
2066.1544834734873,1479
2068.077046519352,1396
2069.99914804337,1485
2071.9207883167524,1420
2073.8419676107865,1418
2075.7626861968406,1356
2077.6829443463607,1365
2079.6027423308715,1397
2081.522080421977,1360
2083.440958891362,1439
2085.359378010786,1475
2087.2773380520907,1372
2089.194839287196,1409
2091.111881988101,1381
2093.0284664268825,1422
2094.9445928756973,1470
2096.86026160678,1421
2098.775472892446,1381
2100.690227005088,1414
2102.604524217178,1393
2104.5183648012676,1366
2106.431749029985,1424
2108.34467717604,1413
2110.2571495122206,1466
2112.169166311393,1425
2114.080727846503,1417
2115.9918343905747,1391
2117.902486216711,1432
2119.8126835980956,1374
2121.722426807987,1412
2123.6317161197285,1438
2125.5405518067364,1380
2127.448934142509,1391
2129.356863400624,1407
2131.264339854737,1448
2133.1713637785815,1459
2135.077935445972,1382
2136.9840551308002,1391
2138.889723107037,1428
2140.7949396487334,1448
2142.699705030018,1430
2144.6040195250994,1471
2146.507883408264,1352
2148.4112969538774,1425
2150.3142604363848,1440
2152.2167741303097,1399
2154.1188383102535,1443
2156.0204532508997,1400
2157.9216192270064,1429
2159.822336513414,1486
2161.7226053850413,1448
2163.622426116884,1453
2165.5217989840185,1407
2167.4207242616,1459
2169.319202224862,1483
2171.2172331491165,1452
2173.1148173097563,1495
2175.0119549822507,1469
2176.90864644215,1515
2178.8048919650823,1525
2180.7006918267534,1437
2182.596046302952,1475
2184.4909556695407,1513
2186.3854202024645,1496
2188.279440177746,1489
2190.173015871487,1499
2192.066147559868,1495
2193.958835519149,1499
2195.851080025667,1509
2197.7428813558417,1496
2199.6342397861667,1559
2201.5251555932186,1522
2203.415629053651,1528
2205.3056604441986,1564
2207.19525004167,1521
2209.084398122958,1577
2210.9731049650327,1527
2212.861370844941,1490
2214.749196039812,1535
2216.636580826851,1571
2218.523525483344,1531
2220.410030286655,1572
2222.296095514226,1530
2224.1817214435805,1580
2226.066908352319,1620
2227.951656518121,1499
2229.835966218746,1493
2231.71983773203,1569
2233.6032713358913,1515
2235.486267308324,1498
2237.3688259274036,1580
2239.2509474712824,1576
2241.132632218193,1520
2243.013880446447,1540
2244.8946924344323,1578
2246.7750684606203,1554
2248.6550088035574,1555
2250.534513741871,1576
2252.413583554265,1587
2254.292218519526,1584
2256.170418916517,1552
2258.0481850241786,1519
2259.925517121534,1535
2261.8024154876825,1557
2263.678880401803,1578
2265.5549121431536,1539
2267.430510991071,1494
2269.305677224971,1486
2271.180411124348,1498
2273.0547129687766,1486
2274.9285830379076,1495
2276.8020216114737,1493
2278.6750289692845,1520
2280.5476053912294,1540
2282.4197511572766,1552
2284.2914665474727,1652
2286.162751841943,1590
2288.0336073208937,1628
2289.904033264608,1599
2291.774029953448,1595
2293.6435976678554,1522
2295.5127366883517,1532
2297.381447295534,1456
2299.2497297700825,1516
2301.1175843927526,1454
2302.9850114443825,1441
2304.852011205885,1394
2306.7185839582553,1352
2308.5847299825664,1403
2310.4504495599676,1401
2312.3157429716925,1326
2314.1806104990483,1314
2316.0450524234247,1289
2317.9090690262888,1389
2319.772660589186,1376
2321.635827393742,1333
2323.498569721661,1304
2325.3608878547248,1349
2327.2227820747967,1331
2329.0842526638157,1370
2330.945299903803,1347
2332.805924076857,1311
2334.6661254651535,1372
2336.525904350951,1399
2338.3852610165827,1362
2340.244195744464,1371
2342.102708817088,1344
2343.9608005170253,1346
2345.8184711269287,1337
2347.675720929526,1365
2349.532550207628,1369
2351.38895924412,1321
2353.24494832197,1368
2355.100517724223,1313
2356.955667734004,1369
2358.810398634514,1319
2360.664710709037,1334
2362.5186042409337,1306
2364.3720795136437,1376
2366.225136810686,1337
2368.0777764156583,1396
2369.929998612237,1369
2371.7818036841777,1378
2373.633191915315,1360
2375.484163589562,1357
2377.3347189909114,1337
2379.184858403434,1400
2381.03458211128,1342
2382.8838903986775,1412
2384.732783549936,1349
2386.5812618494406,1373
2388.4293255816588,1393
2390.2769750311327,1381
2392.1242104824883,1399
2393.971032220427,1336
2395.8174405297295,1406
2397.6634356952563,1363
2399.509018001947,1379
2401.3541877348193,1314
2403.1989451789705,1296
2405.043290619576,1330
2406.8872243418905,1372
2408.730746631247,1337
2410.5738577730594,1368
2412.4165580528183,1355
2414.258847756095,1391
2416.100727168537,1306
2417.9421965758734,1384
2419.783256263912,1350
2421.623906518538,1339
2423.4641476257157,1344
2425.303979871491,1379
2427.143403541984,1404
2428.9824189233977,1349
2430.821026302012,1429
2432.6592259641866,1395
2434.497018196361,1397
2436.33440328505,1427
2438.171381516851,1384
2440.00795317844,1429
2441.844118556569,1364
2443.6798779380724,1396
2445.5152316098606,1390
2447.3501798589255,1424
2449.1847229723357,1407
2451.0188612372403,1350
2452.8525949408663,1401
2454.6859243705203,1354
2456.518849813587,1394
2458.3513715575314,1398
2460.183489889895,1386
2462.015205098301,1379
2463.8465174704493,1375
2465.67742729412,1419
2467.5079348571717,1393
2469.338040447542,1446
2471.1677443532476,1446
2472.9970468623833,1369
2474.825948263123,1406
2476.6544488437207,1387
2478.482548892508,1356
2480.310248697896,1401
2482.137548548374,1432
2483.9644487325118,1404
2485.790949538956,1450
2487.617051256433,1427
2489.44275417375,1429
2491.26805857979,1447
2493.0929647635157,1385
2494.917473013971,1474
2496.741583620276,1432
2498.5652968716304,1472
2500.3886130573137,1417
2502.2115324666834,1489
2504.0340553891765,1465
2505.856182114308,1468
2507.6779129316733,1469
2509.499248130945,1464
2511.3201880018764,1461
2513.140732834298,1402
2514.9608829181198,1459
2516.780638543331,1459
2518.6,1489
2520.418967578273,1435
2522.237541568376,1458
2524.0557222606144,1487
2525.8735099453706,1513
2527.6909049131086,1482
2529.507907454368,1546
2531.32451785977,1514
2533.140736420014,1529
2534.9565634258774,1495
2536.771999168218,1530
2538.5870439379714,1552
2540.4016980261526,1531
2542.2159617238544,1551
2544.02983532225,1629
2545.8433191125914,1516
2547.656413386209,1527
2549.4691184345115,1560
2551.2814345489874,1587
2553.093362021204,1611
2554.904901142808,1607
2556.716052205523,1610
2558.526815501153,1588
2560.3371913215824,1617
2562.147179958771,1651
2563.956781704761,1683
2565.7659968516705,1664
2567.5748256916986,1654
2569.3832685171224,1736
2571.1913256202984,1707
2572.9989972936614,1712
2574.806283829725,1694
2576.613185521084,1650
2578.4197026604074,1716
2580.2258355404483,1679
2582.031584454035,1681
2583.836949694077,1703
2585.6419315535613,1726
2587.4465303255533,1773
2589.2507463032002,1720
2591.0545797797245,1670
2592.8580310484303,1783
2594.6611004026995,1840
2596.463788135992,1757
2598.266094541849,1829
2600.0680199138874,1745
2601.869564545807,1789
2603.670728731383,1827
2605.4715127644704,1764
2607.2719169390048,1833
2609.071941548998,1864
2610.8715868885433,1774
2612.670853251811,1792
2614.469740933052,1820
2616.268250226594,1872
2618.0663814268455,1766
2619.864134828292,1787
2621.6615107255006,1773
2623.458509413115,1758
2625.2551311858597,1783
2627.0513763385347,1776
2628.8472451660223,1733
2630.6427379632833,1707
2632.4378550253564,1769
2634.232596647359,1719
2636.026963124488,1700
2637.8209547520187,1700
2639.6145718253065,1717
2641.407814639785,1673
2643.200683490966,1679
2644.9931786744414,1714
2646.7853004858807,1645
2648.577049221034,1664
2650.3684251757277,1602
2652.1594286458712,1602
2653.9500599274484,1657
2655.740319316525,1605
2657.5302071092437,1558
2659.3197236018286,1583
2661.10886909058,1543
2662.8976438718782,1547
2664.686048242183,1506
2666.4740824980327,1519
2668.2617469360443,1579
2670.0490418529134,1596
2671.8359675454153,1539
2673.622524310403,1478
2675.408712444811,1492
2677.1945322456495,1539
2678.979984010009,1525
2680.76506803506,1526
2682.5497846180497,1502
2684.334134056306,1505
2686.1181166472343,1522
2687.9017326883213,1504
2689.6849824771293,1473
2691.4678663113013,1497
2693.2503844885596,1470
2695.032537306705,1419
2696.8143250636167,1435
2698.5957480572542,1467
2700.3768065856534,1459
2702.1575009469316,1383
2703.937831439283,1391
2705.717798360982,1452
2707.4974020103837,1459
2709.276642685917,1411
2711.055520686095,1446
2712.834036309506,1342
2714.612189854819,1376
2716.389981620782,1400
2718.1674119062204,1430
2719.944481010041,1366
2721.721189231226,1391
2723.4975368688415,1399
2725.273524222027,1371
2727.0491515900053,1427
2728.824419272075,1418
2730.5993275676146,1399
2732.3738767760838,1383
2734.148067197016,1383
2735.921899130031,1432
2737.6953728748194,1395
2739.468488731156,1371
2741.2412469988926,1337
2743.0136479779617,1383
2744.785691968372,1401
2746.5573792702116,1326
2748.3287101836504,1403
2750.099685008934,1352
2751.870304046388,1370
2753.640567596418,1353
2755.4104759595057,1340
2757.1800294362156,1315
2758.949228327187,1357
2760.7180729331412,1406
2762.486563554877,1272
2764.254700493272,1353
2766.022484049284,1309
2767.789914523947,1329
2769.5569922183786,1344
2771.3237174337705,1347
2773.090090471394,1342
2774.8561116326036,1348
2776.6217812188274,1316
2778.3870995315756,1302
2780.1520668724356,1310
2781.9166835430747,1325
2783.6809498452394,1340
2785.444866080754,1389
2787.2084325515225,1366
2788.971649559527,1370
2790.73451740683,1344
2792.4970363955713,1332
2794.2592068279705,1356
2796.0210290063264,1409
2797.7825032330147,1325
2799.543629810493,1357
2801.304409041296,1389
2803.0648412280366,1403
2804.8249266734088,1376
2806.5846656801846,1384
2808.344058551212,1401
2810.1031055894246,1379
2811.8618070978273,1323
2813.6201633795085,1389
2815.378174737636,1340
2817.1358414754536,1404
2818.893163896285,1315
2820.6501423035334,1351
2822.4067770006814,1352
2824.1630682912883,1357
2825.9190164789957,1413
2827.6746218675207,1354
2829.429884760661,1347
2831.184805462294,1374
2832.9393842763743,1410
2834.693621506936,1399
2836.4475174580916,1428
2838.201072434034,1368
2839.954286739034,1341
2841.707160677441,1299
2843.459694553685,1400
2845.2118886722724,1390
2846.96374333779,1416
2848.7152588549034,1410
2850.4664355283567,1407
2852.217273662973,1390
2853.9677735636546,1369
2855.7179355353833,1427
2857.4677598832186,1450
2859.217246912299,1407
2860.9663969278427,1360
2862.715210235146,1368
2864.4636871395846,1348
2866.211827946614,1390
2867.9596329617652,1360
2869.7071024906536,1329
2871.4542368389684,1332
2873.20103631248,1304
2874.947501217038,1383
2876.6936318585695,1321
2878.4394285430812,1366
2880.1848915766604,1393
2881.9300212654707,1384
2883.6748179157553,1323
2885.4192818338374,1361
2887.1634133261173,1354
2888.907212699077,1377
2890.6506802592744,1275
2892.393816313348,1366
2894.1366211680142,1371
2895.8790951300693,1337
2897.621238506388,1376
2899.363051603925,1315
2901.1045347297118,1368
2902.8456881908596,1377
2904.58651229456,1379
2906.327007348081,1295
2908.067173658772,1308
2909.8070115340597,1377
2911.5465212814497,1354
2913.285703208527,1321
2915.0245576229563,1344
2916.7630848324807,1361
2918.5012851449196,1348
2920.2391588681758,1358
2921.976706310227,1383
2923.7139277791334,1373
2925.4508235830313,1353
2927.187394030137,1304
2928.923639428745,1358
2930.6595600872306,1358
2932.395156314046,1393
2934.1304284177218,1353
2935.8653767068713,1390
2937.6000014901815,1348
2939.3343030764227,1363
2941.068281774442,1420
2942.8019378931644,1406
2944.5352717415976,1376
2946.2682836288236,1351
2948.0009738640065,1384
2949.7333427563885,1344
2951.465390615289,1378
2953.1971177501086,1353
2954.9285244703265,1385
2956.6596110855,1357
2958.3903779052657,1349
2960.1208252393385,1358
2961.8509533975125,1327
2963.5807626896617,1352
2965.3102534257378,1362
2967.0394259157715,1367
2968.768280469873,1305
2970.496817398232,1424
2972.2250370111146,1405
2973.952939618869,1374
2975.6805255319196,1324
2977.4077950607707,1372
2979.134748516006,1393
2980.861386208289,1385
2982.587708448359,1360
2984.313715547037,1340
2986.039407815222,1397
2987.764785563891,1345
2989.489849104102,1379
2991.2145987469908,1330
2992.9390348037705,1354
2994.6631575857346,1323
2996.3869674042576,1372
2998.1104645707887,1345
2999.83364939686,1361
3001.5565221940783,1352
3003.2790832741334,1361
3005.0013329487924,1310
3006.7232715298996,1362
3008.4448993293804,1353
3010.166216659239,1325
3011.887223831558,1342
3013.607921158498,1360
3015.3283089522993,1389
3017.0483875252826,1403
3018.7681571898443,1339
3020.4876182584626,1279
3022.2067710436927,1403
3023.9256158581707,1407
3025.644153014609,1359
3027.362382825801,1409
3029.0803056046193,1349
3030.797921664012,1385
3032.5152313170106,1308
3034.2322348767225,1395
3035.9489326563353,1355
3037.665324969115,1329
3039.3814121284063,1354
3041.097194447633,1300
3042.812672240299,1313
3044.5278458199855,1399
3046.2427155003525,1322
3047.9572815951406,1353
3049.671544418167,1354
3051.38550428333,1360
3053.0991615046073,1395
3054.812516396051,1335
3056.5255692717974,1329
3058.2383204460575,1363
3059.9507702331257,1390
3061.662918947372,1353
3063.3747669032446,1354
3065.0863144152736,1353
3066.7975617980674,1379
3068.508509366309,1333
3070.219157434767,1312
3071.9295063182844,1384
3073.639556331785,1337
3075.3493077902704,1339
3077.058761008821,1350
3078.7679163025964,1382
3080.476773986837,1368
3082.1853343768594,1391
3083.89359778806,1407
3085.6015645359153,1361
3087.3092349359786,1345
3089.016609303884,1393
3090.7236879553434,1363
3092.4304712061476,1388
3094.136959372166,1371
3095.843152769349,1390
3097.5490517137237,1369
3099.2546565213966,1349
3100.959967508554,1365
3102.66498499146,1390
3104.3697092864577,1385
3106.0741407099695,1386
3107.778279578498,1390
3109.482126208622,1368
3111.1856809170004,1354
3112.8889440203716,1408
3114.5919158355528,1370
3116.294596679439,1374
3117.996986869006,1366
3119.6990867213062,1397
3121.4008965534726,1429
3123.102416682717,1385
3124.803647426329,1456
3126.5045891016784,1397
3128.205242026213,1407
3129.90560651746,1421
3131.605682893025,1391
3133.3054714705922,1360
3135.0049725679282,1425
3136.7041865028714,1420
3138.4031135933465,1399
3140.101754157353,1400
3141.800108512971,1393
3143.498176978357,1434
3145.1959598717494,1398
3146.8934575114636,1382
3148.5906702158954,1352
3150.2875983035183,1344
3151.9842420928853,1315
3153.680601902627,1365
3155.376678051456,1332
3157.07247085816,1336
3158.767980641609,1395
3160.463207720748,1316
3162.158152414606,1318
3163.8528150422862,1381
3165.5471959229726,1328
3167.2412953759303,1364
3168.9351137204976,1367
3170.628651276098,1350
3172.3219083622307,1425
3174.014885298474,1380
3175.707582404485,1379
3177.4000000000005,1363
3179.092138404835,1457
3180.7839979388846,1402
3182.47557892212,1391
3184.166881674594,1392
3185.8579065164386,1429
3187.5486537678626,1330
3189.2391237491547,1295
3190.9293167806827,1296
3192.6192331828934,1333
3194.3088732763117,1285
3195.998237381542,1314
3197.687325819268,1355
3199.376138910251,1283
3201.064676975334,1386
3202.7529403354347,1364
3204.4409293115523,1318
3206.1286442247647,1330
3207.816085396229,1332
3209.5032531471825,1328
3211.190147798936,1285
3212.8767696728846,1314
3214.5631190905015,1381
3216.2491963733373,1317
3217.9350018430214,1342
3219.6205358212637,1311
3221.305798629851,1337
3222.990790590651,1280
3224.6755120256103,1299
3226.359963256751,1252
3228.0441446061795,1282
3229.7280563960758,1320
3231.411698948703,1324
3233.0950725863995,1367
3234.778177631587,1266
3236.461014406761,1350
3238.1435832345005,1343
3239.8258844374595,1306
3241.507918338374,1363
3243.1896852600576,1299
3244.8711855254023,1316
3246.552419457381,1343
3248.233387379042,1348
3249.914089613516,1333
3251.59452648401,1378
3253.274698313813,1360
3254.95460542629,1324
3256.6342481448855,1293
3258.313626793125,1313
3259.9927416946084,1335
3261.6715931730196,1279
3263.3501815521176,1338
3265.0285071557437,1228
3266.706570307815,1373
3268.3843713323286,1346
3270.0619105533615,1355
3271.739188295068,1323
3273.4162048816834,1313
3275.0929606375184,1341
3276.769455886966,1366
3278.445690954498,1422
3280.1216661646613,1351
3281.797381842087,1385
3283.4728383114807,1365
3285.1480358976296,1305
3286.8229749253996,1387
3288.4976557197333,1268
3290.172078605655,1337
3291.846243908266,1337
3293.5201519527463,1366
3295.193803064357,1337
3296.8671975684374,1369
3298.5403357904024,1321
3300.21321805575,1292
3301.8858446900567,1316
3303.558216018975,1361
3305.23033236824,1348
3306.9021940636603,1336
3308.57380143113,1306
3310.2451547966184,1332
3311.916254486174,1355
3313.5871008259246,1349
3315.2576941420766,1345
3316.9280347609147,1350
3318.5981230088046,1327
3320.2679592121895,1312
3321.9375436975924,1344
3323.606876791612,1312
3325.27595882093,1314
3326.944790112305,1345
3328.6133709925753,1258
3330.2817017886573,1324
3331.949782827547,1352
3333.617614436319,1309
3335.2851969421245,1332
3336.952530672199,1334
3338.619615953853,1294
3340.286453114475,1401
3341.9530424815357,1336
3343.619384382583,1351
3345.2854791452437,1381
3346.951327097224,1354
3348.6169285663073,1288
3350.2822838803577,1358
3351.947393367319,1393
3353.61225735521,1313
3355.2768761721345,1320
3356.9412501462693,1293
3358.605379605873,1289
3360.2692648792827,1328
3361.9329062949146,1325
3363.596304181263,1319
