CollectionTime,7/11/2024 11:52:26 AM
ExposureUsed,3
CalibratedSpectrum
-962.7078968117929,1434
-959.9714848408522,1640
-957.2358232597828,1577
-954.5009119013725,1570
-951.7667505983302,1521
-949.0333391832855,1566
-946.3006774887896,1624
-943.5687653473143,1580
-940.837602591253,1611
-938.1071890529199,1626
-935.3775245645503,1651
-932.6486089583007,1692
-929.9204420662485,1694
-927.1930237203925,1658
-924.4663537526524,1623
-921.7404319948689,1637
-919.0152582788041,1774
-916.2908324361409,1769
-913.5671542984834,1708
-910.8442236973568,1586
-908.1220404642074,1664
-905.4006044304027,1641
-902.679915427231,1625
-899.959973285902,1624
-897.2407778375464,1680
-894.5223289132158,1659
-891.8046263438832,1686
-889.0876699604426,1612
-886.3714595937089,1697
-883.6559950744183,1632
-880.9412762332282,1603
-878.2273029007168,1658
-875.5140749073835,1659
-872.8015920836489,1634
-870.0898542598545,1655
-867.3788612662631,1704
-864.6686129330585,1588
-861.9591090903457,1700
-859.2503495681506,1662
-856.5423341964203,1705
-853.8350628050229,1669
-851.1285352237478,1642
-848.4227512823054,1638
-845.7177108103272,1699
-843.0134136373656,1701
-840.3098595928943,1670
-837.6070485063082,1666
-834.9049802069229,1727
-832.2036545239757,1675
-829.5030712866244,1772
-826.8032303239481,1763
-824.1041314649472,1706
-821.4057745385428,1711
-818.7081593735775,1719
-816.0112857988148,1657
-813.3151536429393,1626
-810.6197627345566,1723
-807.9251129021936,1674
-805.2312039742981,1704
-802.5380357792392,1684
-799.8456081453069,1730
-797.1539209007124,1713
-794.462973873588,1762
-791.772766891987,1699
-789.083299783884,1752
-786.3945723771743,1747
-783.7065844996748,1712
-781.0193359791231,1769
-778.3328266431781,1721
-775.6470563194197,1719
-772.9620248353489,1720
-770.2777320183878,1732
-767.5941776958798,1823
-764.9113616950891,1759
-762.2292838432011,1786
-759.5479439673222,1740
-756.8673418944801,1752
-754.1874774516235,1828
-751.5083504656222,1801
-748.8299607632671,1804
-746.15230817127,1726
-743.475392516264,1781
-740.7992136248035,1823
-738.1237713233636,1783
-735.4490654383407,1859
-732.7750957960521,1793
-730.1018622227365,1825
-727.4293645445534,1816
-724.7576025875837,1833
-722.0865761778291,1775
-719.4162851412126,1846
-716.7467293035781,1856
-714.0779084906909,1936
-711.409822528237,1768
-708.7424712418238,1857
-706.0758544569796,1887
-703.4099719991541,1905
-700.7448236937178,1936
-698.0804093659622,1996
-695.4167288411002,1927
-692.7537819442656,1865
-690.0915685005134,1840
-687.4300883348199,1906
-684.7693412720819,1915
-682.1093271371178,1878
-679.4500457546669,1939
-676.7914969493897,1906
-674.1336805458676,1819
-671.4765963686034,1883
-668.8202442420206,1954
-666.1646239904642,1935
-663.5097354382001,1906
-660.8555784094151,1950
-658.2021527282176,1944
-655.5494582186366,1936
-652.8974947046223,1881
-650.2462620100463,1933
-647.5957599587009,1971
-644.9459883742998,1954
-642.2969470804776,2010
-639.6486359007902,1993
-637.0010546587141,2023
-634.3542031776476,2022
-631.7080812809096,2041
-629.0626887917401,2037
-626.4180255333008,2017
-623.7740913286734,2016
-621.1308860008619,2044
-618.4884093727904,2040
-615.8466612673046,1932
-613.2056415071715,2012
-610.5653499150785,2083
-607.9257863136347,2032
-605.28695052537,2064
-602.6488423727357,2065
-600.0114616781036,1996
-597.3748082637674,2040
-594.7388819519412,2077
-592.1036825647604,2271
-589.4692099242818,2301
-586.8354638524829,2093
-584.2024441712624,2045
-581.5701507024403,2086
-578.9385832677575,2077
-576.3077416888759,2122
-573.6776257873787,2075
-571.0482353847704,2087
-568.4195703024757,2141
-565.7916303618415,2187
-563.164415384135,2164
-560.5379251905453,2165
-557.9121596021815,2189
-555.2871184400748,2138
-552.6628015251767,2099
-550.0392086783606,2137
-547.4163397204204,2253
-544.794194472071,2175
-542.1727727539491,2218
-539.5520743866118,2293
-536.9320991905377,2168
-534.3128469861261,2210
-531.6943175936979,2272
-529.0765108334947,2195
-526.4594265256793,2279
-523.8430644903358,2369
-521.2274245474689,2416
-518.612506517005,2526
-515.9983102187913,2467
-513.3848354725959,2499
-510.77208209810846,2470
-508.16004991493924,2546
-505.5487387426199,2684
-502.9381484006032,2822
-500.3282787082628,2888
-497.71912948489364,2946
-495.1107005497117,2864
-492.5029917218539,2828
-489.8960028203786,2731
-487.28973366426493,2532
-484.68418407241325,2491
-482.07935386364494,2330
-479.47524285670266,2347
-476.87185087025,2363
-474.2691777228715,2418
-471.66722323307334,2341
-469.0659872192821,2388
-466.4654694998459,2345
-463.86566989303384,2466
-461.26658821703614,2341
-458.66822428996414,2412
-456.07057792985,2395
-453.4736489546475,2408
-450.877437182231,2365
-448.28194243039627,2392
-445.68716451686,2414
-443.09310325926003,2388
-440.49975847515555,2338
-437.9071299820263,2363
-435.31521759727354,2385
-432.72402113821954,2361
-430.13354042210767,2403
-427.5437752661022,2311
-424.95472548728867,2362
-422.36639090267386,2397
-419.7787713291855,2431
-417.1918665836721,2503
-414.60567648290385,2491
-412.0202008435715,2560
-409.4354394822874,2527
-406.8513922155845,2530
-404.26805885991723,2566
-401.685439231661,2477
-399.103533147112,2531
-396.522340422488,2456
-393.9418608739278,2502
-391.3620943174908,2315
-388.7830405691583,2332
-386.2046994448317,2205
-383.6270707603344,2084
-381.05015433141045,1927
-378.473949973725,1821
-375.8984575028645,1668
-373.32367673433623,1494
-370.74960748356875,1342
-368.1762495659117,1265
-365.60360279663576,1030
-363.03166699093265,842
-360.4604419639154,716
-357.8899275306178,640
-355.32012350599507,624
-352.7510297049233,614
-350.1826459421999,584
-347.61497203254316,554
-345.04800779059235,582
-342.4817530309082,589
-339.91620756797226,620
-337.35137121618743,662
-334.7872437898774,719
-332.22382510328725,676
-329.66111497058273,575
-327.09911320585127,548
-324.53781962310075,586
-321.9772340362607,598
-319.4173562591816,534
-316.8581861056348,493
-314.2997233893127,518
-311.7419679238294,473
-309.1849195227194,525
-306.62857799943856,577
-304.0729431673641,644
-301.51801483979375,647
-298.963792829947,598
-296.41027695096386,586
-293.85746701590574,584
-291.3053628377552,592
-288.7539642294155,642
-286.2032710037115,645
-283.65328297338897,657
-281.1039999511146,673
-278.5554217494762,612
-276.007548180983,556
-273.4603790580651,558
-270.9139141930734,536
-268.3681533982807,553
-265.8230964858798,567
-263.27874326798565,661
-260.7350935566336,708
-258.1921471637804,687
-255.6499039013039,667
-253.10836358100266,740
-250.56752601459698,766
-248.02739101372765,755
-245.48795838995704,774
-242.94922795476816,747
-240.41119951956557,825
-237.8738728956746,793
-235.33724789434166,741
-232.80132432673452,671
-230.2661020039418,647
-227.73158073697357,711
-225.19776033676033,816
-222.66464061415422,750
-220.1322213799284,692
-217.60050244477725,671
-215.06948361931552,717
-212.53916471408013,840
-210.00954553952818,864
-207.48062590603843,826
-204.9524056239104,868
-202.4248845033651,928
-199.8980623545441,890
-197.37193898751036,876
-194.84651421224817,895
-192.32178783866232,907
-189.79775967657952,974
-187.27442953574644,1068
-184.7517972258321,1072
-182.2298625564256,1050
-179.7086253370378,1002
-177.18808537710026,895
-174.66824248596583,791
-172.14909647290835,880
-169.6306471471229,896
-167.11289431772548,983
-164.59583779375328,968
-162.07947738416453,1015
-159.5638128978386,1309
-157.04884414357605,1348
-154.53457093009854,1348
-152.02099306604828,1067
-149.50811035998936,1011
-146.99592262040665,1062
-144.48442965570587,1312
-141.97363127421409,1521
-139.46352728417958,1501
-136.95411749377126,1446
-134.44540171107985,1141
-131.93737974411636,1089
-129.43005140081357,1242
-126.92341648902493,1894
-124.41747481652521,2972
-121.91222619101006,3840
-119.40767042009657,3377
-116.90380731132257,2120
-114.40063667214702,1841
-111.8981583099503,1832
-109.3963720320337,1843
-106.89527764561933,3574
-104.39487495785067,7652
-101.89516377579241,10921
-99.39614390642998,12053
-96.89781515667039,11017
-94.40017733334128,13542
-91.90323024319173,22728
-89.40697369289148,29118
-86.91140748903172,23176
-84.41653143812482,13389
-81.92234534660395,7235
-79.42884902082358,12901
-76.93604226705907,30760
-74.4439248915071,51056
-71.95249670028534,60070
-69.46175749943245,52388
-66.97170709490854,40622
-64.48234529259423,29336
-61.99367189829195,18891
-59.50568671772464,11456
-57.01838955653636,8418
-54.53178022029283,8072
-52.045858514480074,9885
-49.560624244506016,10806
-47.07607721569923,10727
-44.59221723330904,10611
-42.10904410250669,10394
-39.62655762838392,10419
-37.14475761595372,9466
-34.66364387015028,8996
-32.18321619582866,7733
-29.70347439776515,7028
-27.224418280657005,7755
-24.74604764912317,9980
-22.26836230770266,17566
-19.7913620608565,38023
-17.315046712966478,64559
-14.83941606833514,65036
-12.36446993118659,65036
-9.89020810566592,65036
-7.416630395839093,65036
-4.94373660569363,65036
-2.471526539137585,65036
-6.821210263296962E-13,65036
2.47084320796705,65036
4.941003281093458,65036
7.410480415786196,65036
9.879274808531363,65036
12.347386655893956,65036
14.814816154518212,65036
17.28156350112681,65036
19.74762889252179,65036
22.21301252558385,22098
24.67771459727237,5086
27.141735304626195,3446
29.605074844762612,3581
32.06773341487792,3917
34.52971121224755,3608
36.99100843422559,3275
39.45162527824516,2421
41.91156194181792,2045
44.370818622535126,1962
46.82939551806646,1807
49.287292826160524,2419
51.74451074464503,3991
54.201049471426245,4084
56.65690920448981,2372
59.112090141899785,1504
61.56659248179983,1485
64.02041642241159,1578
66.4735621620365,1796
68.92602989905402,2116
71.37781983192338,2636
73.82893215918205,2556
76.27936707944684,2074
78.72912479141326,1646
81.17820549385567,2110
83.62660938562783,2287
86.07433666566146,1667
88.5213875329681,1313
90.96776218663751,1299
93.41346082583925,1310
95.85848364982041,1666
98.30283085790859,2153
100.7465026495089,1633
103.18949922410604,1235
105.63182078126385,1335
108.07346752062438,1084
110.51443964190923,1032
112.95473734491827,1018
115.39436082953114,1312
117.83331029570547,1314
120.27158594347827,1115
122.7091879729652,1225
125.1461165843615,1217
127.58237197794062,1052
130.01795435405518,1021
132.4528639131364,1079
134.88710085569494,1019
137.32066538231982,969
139.75355769367923,1171
142.1857779905207,1424
144.61732647366978,1315
147.04820334403132,1028
149.47840880258934,1061
151.90794305040674,1276
154.33680628862487,1616
156.76499871846443,1835
159.19252054122433,1888
161.61937195828352,2055
164.04555317109896,2389
166.47106438120693,2628
168.89590579022217,2849
171.320077599839,3020
173.7435800118302,3448
176.16641322804742,3767
178.58857745042144,3957
181.01007288096173,3983
183.43089972175687,3942
185.85105817497413,4084
188.27054844285988,4010
190.6893707277394,4198
193.10752523201643,4295
195.5250121581745,4560
197.9418317087751,4527
200.3579840864594,4551
202.7734694939469,4646
205.18828813403627,4868
207.6024402096051,4919
210.01592592360964,4964
212.42874547908548,4742
214.84089907914665,4763
217.2523869269868,4707
219.66320922587727,4582
222.0733661791695,4636
224.48285799029293,4649
226.8916848627572,4568
229.29984700014882,4718
231.7073446061355,4628
234.11417788446204,4699
236.520347038953,4822
238.92585227351185,4927
241.33069379212054,4817
243.73487179884035,4875
246.1383864978112,4897
248.541238093252,4780
250.9434267894609,4850
253.34495279081432,4848
255.74581630176783,4816
258.1460175268563,4693
260.54555667069314,4702
262.9444339379703,4676
265.3426495334594,4706
267.7402036620107,4623
270.1370965285529,4752
272.53332833809407,4729
274.9288992957214,4480
277.32380960660055,4532
279.718059475976,4449
282.1116491091717,4446
284.5045787115897,4537
286.89684848871195,4460
289.2884586460981,4412
291.67940938938807,4452
294.0697009242996,4536
296.4593334566299,4571
298.84830719225477,4416
301.23662233712923,4569
303.6242790972866,4472
306.01127767884,4433
308.39761828798066,4351
310.78330113097934,4421
313.16832641418534,4310
315.5526943440269,4340
317.9364051270112,4224
320.3194589697242,4342
322.70185607883093,4385
325.0835966610754,4330
327.4646809232805,4255
329.8451090723478,4249
332.2248813152577,4168
334.6039978590701,4361
336.9824589109231,4226
339.36026467803447,4173
341.7374153677,4159
344.113911187295,4089
346.48975234427337,4225
348.8649390461686,4157
351.2394715005918,4197
353.61334991523415,4123
355.9865744978655,4107
358.35914545633375,4253
360.73106299856715,4275
363.10232733257146,4094
365.47293866643247,4089
367.84289720831396,4156
370.2122031664593,4055
372.5808567491905,4241
374.9488581649083,4074
377.31620762209275,4026
379.6829053293021,4049
382.0489514951745,4175
384.4143463284262,4053
386.7790900378528,4041
389.14318283232853,4047
391.50662492080653,3908
393.86941651231916,3948
396.23155781597745,4104
398.5930490409713,4199
400.9538903965696,3932
403.3140820921202,4049
405.6736243370498,4011
408.03251734086336,4003
410.3907613131465,3899
412.74835646356166,3980
415.10530300185144,3996
417.4616011378372,3978
419.81725108141893,4020
422.1722530425758,3960
424.5266072313656,3973
426.880313857925,3891
429.2333731324701,3967
431.58578526529516,3924
433.9375504667738,4081
436.2886689473588,3951
438.63914091758113,3962
440.9889665880513,3960
443.33814616945835,3941
445.68667987257015,3903
448.03456790823395,3833
450.3818104873759,3789
452.72840782100013,3835
455.07436012019105,3887
457.41966759611057,3898
459.7643304600007,3894
462.10834892318155,3925
464.4517231970525,3994
466.79445349309174,3986
469.1365400228566,4035
471.4779829979826,3968
473.81878263018564,3999
476.15893913125876,4030
478.4984527130747,3938
480.8373235875855,4047
483.17555196682144,4062
485.5131380628919,4076
487.8500820879857,4307
490.1863842543697,4373
492.52204477439034,4510
494.8570638604725,4768
497.1914417251204,4981
499.52517858091653,5133
501.85827464052306,5187
504.19073011668036,5117
506.5225452222086,4892
508.85372017000566,4853
511.18425517304956,4861
513.514150444396,5045
515.8434061971808,5776
518.1720226446176,6264
520.4999999999999,6352
522.8273384766991,6119
525.1540382881666,5900
527.480099647932,5680
529.8055227696037,5032
532.1303078668694,4531
534.454455153496,4324
536.777964843328,4104
539.1008371502907,4102
541.4230722883866,3963
543.744670471698,4042
546.0656319143858,3971
548.3859568306899,4077
550.7056454349294,4000
553.0246979415016,4057
555.3431145648834,4014
557.6608955196306,4060
559.978041020377,3990
562.2945512818363,3964
564.6104265188006,3909
566.9256669461412,3964
569.2402727788082,4087
571.5542442318302,4102
573.8675815203156,4014
576.1802848594508,4098
578.4923544645015,4044
580.8037905508126,4219
583.114593333807,4062
585.4247630289875,4044
587.7342998519354,4079
590.0432040183106,4134
592.3514757438526,4073
594.6591152443794,4040
596.9661227357875,4072
599.2724984340531,4052
601.578242555231,3993
603.8833553154542,4104
606.1878369309362,4067
608.4916876179676,3936
610.7949075929192,4004
613.0974970722403,4093
615.3994562724587,4034
617.7007854101818,4099
620.0014847020951,3954
622.3015543649641,4165
624.6009946156324,4139
626.8998056710224,4108
629.1979877481361,4172
631.4955410640538,4050
633.7924658359349,4030
636.0887622810175,4094
638.3844306166192,4114
640.6794710601358,4115
642.9738838290426,4301
645.2676691408932,4164
647.5608272133207,4135
649.853358264037,4201
652.1452625108324,4117
654.4365401715764,4088
656.7271914642178,4093
659.0172166067838,4183
661.3066158173809,4134
663.5953893141935,4268
665.8835373154867,4216
668.1710600396028,4144
670.4579577049639,4093
672.7442305300709,4145
675.0298787335033,4247
677.3149025339197,4132
679.599302150058,4241
681.8830778007342,4086
684.1662297048437,4118
686.4487580813608,4095
688.7306631493387,4165
691.0119451279091,4225
693.2926042362834,4202
695.5726406937516,4142
697.8520547196814,4216
700.1308465335215,4216
702.4090163547982,4034
704.6865644031171,4025
706.9634908981619,4146
709.2397960596965,4263
711.5154801075631,4138
713.7905432616823,4177
716.0649857420548,4141
718.3388077687592,4110
720.612009561953,4108
722.8845913418733,4169
725.1565533288352,4141
727.427895743234,4163
729.6986188055427,4110
731.9687227363137,4195
734.238207756178,4183
736.5070740858458,4123
738.7753219461066,4093
741.0429515578281,4110
743.3099631419569,4205
745.5763569195191,4269
747.8421331116193,4149
750.1072919394409,4178
752.3718336242467,4173
754.6357583873777,4163
756.8990664502545,4096
759.1617580343765,4162
761.423833361321,4219
763.6852926527457,4144
765.9461361303862,4163
768.206364016058,4155
770.4659765316536,4163
772.7249738991469,4197
774.9833563405886,4162
777.2411240781092,4154
779.4982773339183,4236
781.7548163303044,4232
784.010741289634,4235
786.2660524343538,4254
788.5207499869881,4179
790.7748341701416,4207
793.0283052064964,4314
795.2811633188143,4267
797.5334087299362,4140
799.7850416627813,4265
802.0360623403484,4183
804.2864709857143,4208
806.5362678220353,4123
808.7854530725468,4142
811.0340269605625,4249
813.2819897094754,4172
815.5293415427581,4236
817.77608268396,4192
820.0222133567116,4223
822.2677337847211,4223
824.5126441917765,4201
826.7569448017433,4332
829.0006358385675,4169
831.2437175262731,4257
833.4861900889629,4121
835.7280537508192,4182
837.9693087361026,4212
840.2099552691533,4244
842.4499935743896,4272
844.689423876309,4251
846.9282463994886,4221
849.1664613685833,4262
851.4040690083276,4230
853.6410695435349,4288
855.877463199097,4264
858.1132501999847,4325
860.3484307712487,4212
862.5830051380175,4222
864.8169735254988,4133
867.0503361589791,4161
869.2830932638243,4228
871.5152450654786,4341
873.7467917894654,4195
875.9777336613873,4233
878.2080709069252,4180
880.4378037518389,4298
882.666932421968,4287
884.8954571432301,4308
887.1233781416219,4320
889.3506956432192,4336
891.5774098741766,4275
893.803521060728,4295
896.0290294291852,4308
898.2539352059397,4236
900.4782386174619,4312
902.7019398903011,4264
904.925039251085,4159
907.147536926521,4321
909.3694331433943,4239
911.59072812857,4226
913.8114221089921,4307
916.0315153116827,4213
918.2510079637437,4166
920.4699002923547,4159
922.6881925247761,4115
924.905884888345,4206
927.1229776104793,4158
929.3394709186747,4122
931.555365040506,4152
933.7706602036275,4111
935.9853566357709,4159
938.1994545647489,4228
940.4129542184515,4140
942.6258558248488,4175
944.8381596119883,4106
947.0498658079974,4149
949.2609746410825,4138
951.4714863395287,4095
953.6814011316998,4223
955.8907192460387,4037
958.0994409110671,4118
960.3075663553858,4151
962.5150958076741,4116
964.7220294966913,4164
966.928367651274,4096
969.1341105003388,4045
971.3392582728806,4073
973.5438111979742,4075
975.747769504772,4097
977.9511334225061,4088
980.153903180487,4013
982.3560790081052,4085
984.5576611348289,3995
986.7586497902058,4103
988.9590452038618,4043
991.158847605503,3976
993.3580572249133,4111
995.5566742919558,4058
997.7546990365728,3995
999.952131688785,4004
1002.1489724786926,3789
1004.3452216364743,3922
1006.5408793923874,3880
1008.7359459767691,3876
1010.9304216200343,3905
1013.1243065526781,3967
1015.3176010052733,3826
1017.510305208472,3859
1019.7024193930064,3743
1021.8939437896848,3837
1024.0848786293977,3788
1026.2752241431122,3860
1028.4649805618747,3819
1030.6541481168115,3865
1032.842727039127,3754
1035.0307175601051,3850
1037.2181199111074,3846
1039.4049343235752,3894
1041.591161029029,3808
1043.7768002590683,3839
1045.9618522453698,3899
1048.1463172196918,3939
1050.3301954138697,3802
1052.513487059818,3906
1054.69619238953,3792
1056.8783116350783,3856
1059.0598450286152,3904
1061.2407928023704,3814
1063.4211551886528,3796
1065.6009324198508,3756
1067.780124728432,3863
1069.9587323469414,3724
1072.1367555080046,3761
1074.314194444325,3718
1076.4910493886855,3780
1078.667320573947,3832
1080.843008233051,3703
1083.0181125990161,3762
1085.1926339049414,3643
1087.3665723840027,3661
1089.5399282694575,3756
1091.7127017946405,3627
1093.8848931929647,3682
1096.0565026979243,3693
1098.2275305430899,3766
1100.3979769621128,3678
1102.567842188722,3593
1104.737126456726,3712
1106.9058300000124,3742
1109.0739530525475,3712
1111.2414958483764,3708
1113.4084586216231,3748
1115.5748416064907,3701
1117.7406450372605,3683
1119.9058691482942,3640
1122.0705141740304,3608
1124.2345803489884,3659
1126.3980679077658,3622
1128.5609770850388,3612
1130.7233081155623,3812
1132.8850612341707,3786
1135.0462366757774,3773
1137.2068346753745,3751
1139.3668554680326,3782
1141.526299288901,3709
1143.68516637321,3675
1145.8434569562655,3659
1148.001171273455,3755
1150.158309560244,3625
1152.3148720521767,3605
1154.470858984876,3686
1156.626270594044,3667
1158.7811071154629,3595
1160.9353687849912,3672
1163.089055838569,3679
1165.242168512213,3699
1167.3947070420209,3702
1169.5466716641677,3644
1171.6980626149075,3708
1173.8488801305748,3610
1175.9991244475814,3516
1178.1487958024186,3579
1180.2978944316555,3687
1182.4464205719428,3682
1184.5943744600072,3588
1186.7417563326567,3600
1188.8885664267755,3634
1191.0348049793297,3558
1193.1804722273619,3647
1195.325568407995,3565
1197.4700937584303,3624
1199.614048515948,3728
1201.7574329179074,3623
1203.900247201746,3555
1206.042491604982,3601
1208.1841663652099,3588
1210.3252717201053,3609
1212.465807907422,3682
1214.6057751649923,3645
1216.7451737307279,3720
1218.8840038426192,3809
1221.0222657387353,3582
1223.1599596572241,3681
1225.2970858363137,3743
1227.4336445143094,3702
1229.5696359295966,3566
1231.705060320639,3709
1233.8399179259786,3772
1235.9742089842384,3651
1238.107933734118,3593
1240.2410924143974,3663
1242.373685263935,3608
1244.5057125216676,3706
1246.6371744266116,3750
1248.7680712178621,3679
1250.898403134593,3635
1253.028170416058,3757
1255.1573733015875,3722
1257.2860120305932,3687
1259.4140868425648,3684
1261.54159797707,3738
1263.6685456737569,3714
1265.7949301723515,3729
1267.9207517126597,3694
1270.046010534565,3758
1272.1707068780306,3658
1274.2948409830983,3754
1276.4184130898889,3706
1278.541423438603,3679
1280.6638722695184,3700
1282.785759822993,3695
1284.9070863394636,3714
1287.0278520594447,3826
1289.1480572235314,3733
1291.2677020723963,3694
1293.3867868467923,3819
1295.5053117875495,3775
1297.623277135579,3783
1299.740683131868,3829
1301.8575300174857,3834
1303.973818033578,3802
1306.0895474213703,3856
1308.2047184221678,3904
1310.3193312773528,3860
1312.4333862283888,3912
1314.5468835168163,3945
1316.659823384255,3807
1318.7722060724045,3895
1320.8840318230418,3808
1322.9953008780249,3769
1325.1060134792888,3814
1327.2161698688478,3884
1329.3257702887959,3817
1331.4348149813054,3800
1333.5433041886276,3951
1335.6512381530933,3712
1337.7586171171101,3837
1339.8654413231675,3897
1341.9717110138317,3780
1344.0774264317488,3919
1346.1825878196432,3845
1348.2871954203192,3821
1350.3912494766587,3703
1352.4947502316231,3824
1354.5976979282532,3828
1356.7000928096686,3866
1358.8019351190665,3851
1360.9032250997243,3800
1363.0039629949988,3816
1365.1041490483235,3738
1367.2037835032133,3790
1369.3028666032606,3650
1371.401398592137,3705
1373.4993797135926,3843
1375.5968102114575,3851
1377.6936903296396,3856
1379.7900203121262,3781
1381.8858004029835,3784
1383.9810308463561,3831
1386.075711886469,3831
1388.1698437676241,3731
1390.2634267342032,3850
1392.356461030667,3922
1394.4489469015557,3822
1396.5408845914872,3822
1398.6322743451592,3874
1400.7231164073469,3928
1402.813411022907,3925
1404.903158436773,3952
1406.9923588939578,4037
1409.0810126395531,3827
1411.1691199187303,3831
1413.2566809767386,3794
1415.343696058907,3913
1417.4301654106425,3943
1419.5160892774315,3962
1421.6014679048399,3958
1423.6863015385125,3838
1425.7705904241707,4026
1427.8543348076178,4071
1429.9375349347342,4012
1432.0201910514802,4020
1434.102303403894,3926
1436.1838722380944,4026
1438.2648978002767,4076
1440.3453803367174,4207
1442.4253200937692,4071
1444.5047173178677,4116
1446.5835722555234,4132
1448.6618851533285,4177
1450.739656257952,4159
1452.8168858161434,4197
1454.8935740747306,4196
1456.96972128062,4126
1459.045327680797,4216
1461.120393522327,4294
1463.1949190523528,4296
1465.2689045180973,4437
1467.3423501668608,4352
1469.415256246024,4330
1471.4876230030463,4399
1473.559450685465,4540
1475.6307395408976,4573
1477.7014898170391,4515
1479.771701761665,4707
1481.8413756226287,4749
1483.9105116478618,4585
1485.9791100853772,4630
1488.0471711832643,4780
1490.1146951896926,4790
1492.1816823529098,4760
1494.2481329212433,4853
1496.3140471430984,4805
1498.3794252669609,4843
1500.4442675413939,4944
1502.5085742150404,4948
1504.572345536622,4962
1506.6355817549388,5020
1508.6982831188702,4996
1510.7604498773744,5035
1512.8220822794883,5141
1514.8831805743293,5102
1516.9437450110909,5196
1519.003775839048,5196
1521.0632733075522,5257
1523.1222376660367,5265
1525.1806691640113,5480
1527.2385680510652,5512
1529.2959345768668,5433
1531.3527689911643,5497
1533.4090715437833,5651
1535.4648424846291,5752
1537.5200820636855,5733
1539.5747905310159,5623
1541.6289681367616,5797
1543.6826151311434,5881
1545.7357317644614,5892
1547.7883182870937,5891
1549.8403749494987,6021
1551.8919020022113,6052
1553.9428996958477,6071
1555.9933682811015,6332
1558.0433080087469,6288
1560.0927191296346,6288
1562.1416018946961,6214
1564.1899565549415,6060
1566.2377833614592,6170
1568.2850825654164,6064
1570.3318544180606,5840
1572.3780991707158,5787
1574.423817074788,5537
1576.4690083817595,5454
1578.5136733431923,5190
1580.5578122107272,5228
1582.601425236085,5117
1584.6445126710646,4975
1586.6870747675434,4873
1588.7291117774776,4766
1590.7706239529034,4613
1592.8116115459347,4679
1594.8520748087658,4539
1596.8920139936686,4411
1598.9314293529933,4267
1600.9703211391711,4233
1603.008689604711,4219
1605.0465350022005,4193
1607.0838575843068,4051
1609.1206576037753,4129
1611.1569353134305,4007
1613.1926909661765,4068
1615.2279248149953,3974
1617.2626371129481,4031
1619.2968281131757,4099
1621.3304980688963,4024
1623.3636472334088,4084
1625.39627586009,3883
1627.428384202396,3896
1629.459972513861,3947
1631.4910410480993,3899
1633.5215900588028,3909
1635.551619799744,3817
1637.5811305247717,3844
1639.6101224878166,3902
1641.6385959428862,3885
1643.6665511440683,3871
1645.693988345528,3863
1647.7209078015112,3833
1649.7473097663405,3839
1651.7731944944203,3887
1653.7985622402307,3793
1655.823413258333,3755
1657.847747803366,3833
1659.8715661300494,3808
1661.8948684931793,3816
1663.9176551476316,3693
1665.9399263483624,3751
1667.9616823504057,3778
1669.982923408873,3844
1672.0036497789574,3882
1674.0238617159293,3873
1676.043559475138,3742
1678.0627433120121,3725
1680.081413482059,3818
1682.0995702408654,3738
1684.117213844096,3701
1686.134344547495,3785
1688.1509626068864,3693
1690.1670682781705,3746
1692.182661817329,3762
1694.1977434804217,3745
1696.2123135235875,3730
1698.226372203043,3848
1700.2399197750851,3828
1702.2529564960905,3811
1704.2654826225112,3748
1706.277498410882,3720
1708.2890041178139,3848
1710.2999999999988,3712
1712.3104863142066,3709
1714.3204633172854,3729
1716.329931266163,3849
1718.3388904178469,3762
1720.3473410294214,3713
1722.3552833580516,3672
1724.3627176609807,3604
1726.3696441955308,3737
1728.3760632191033,3659
1730.3819749891782,3636
1732.3873797633146,3700
1734.3922777991502,3732
1736.3966693544012,3808
1738.4005546868639,3643
1740.4039340544127,3731
1742.406807715001,3680
1744.4091759266616,3710
1746.4110389475054,3629
1748.4123970357223,3782
1750.413250449582,3678
1752.4135994474318,3612
1754.4134442876993,3694
1756.4127852288902,3744
1758.4116225295893,3580
1760.4099564484595,3626
1762.407787244244,3633
1764.405115175764,3650
1766.4019405019203,3578
1768.3982634816916,3614
1770.3940843741357,3687
1772.3894034383907,3597
1774.3842209336717,3590
1776.378537119274,3669
1778.372352254571,3659
1780.3656665990156,3584
1782.3584804121397,3614
1784.3507939535534,3602
1786.3426074829463,3653
1788.3339212600863,3604
1790.3247355448211,3624
1792.3150505970766,3581
1794.3048666768573,3591
1796.2941840442477,3577
1798.2830029594106,3559
1800.2713236825884,3578
1802.2591464741004,3529
1804.2464715943465,3641
1806.2332993038058,3617
1808.2196298630352,3687
1810.2054635326708,3708
1812.190800573428,3646
1814.175641246101,3725
1816.1599858115628,3732
1818.1438345307652,3679
1820.127187664738,3725
1822.1100454745924,3619
1824.092408221516,3565
1826.0742761667766,3686
1828.055649571721,3644
1830.0365286977735,3665
1832.0169138064398,3603
1833.9968051593014,3621
1835.9762030180214,3670
1837.9551076443408,3641
1839.9335193000788,3651
1841.9114382471344,3744
1843.888864747485,3568
1845.8657990631878,3644
1847.842241456378,3556
1849.8181921892697,3640
1851.7936515241558,3629
1853.7686197234098,3536
1855.7430970494815,3509
1857.7170837649014,3654
1859.6905801322787,3606
1861.6635864143004,3728
1863.6361028737338,3725
1865.608129773424,3593
1867.5796673762961,3655
1869.5507159453537,3569
1871.521275743678,3602
1873.4913470344313,3673
1875.4609300808534,3685
1877.4300251462632,3674
1879.3986324940588,3725
1881.366752387717,3700
1883.3343850907936,3804
1885.3015308669228,3719
1887.268189979819,3607
1889.2343626932739,3620
1891.2000492711595,3620
1893.1652499774254,3683
1895.1299650761011,3676
1897.0941948312952,3740
1899.0579395071945,3642
1901.0211993680641,3587
1902.98397467825,3751
1904.9462657021745,3656
1906.9080727043415,3756
1908.869395949332,3632
1910.8302357018065,3698
1912.790592226504,3588
1914.7504657882428,3715
1916.7098566519212,3651
1918.6687650825133,3639
1920.6271913450764,3580
1922.5851357047422,3612
1924.5425984267245,3731
1926.499579776314,3658
1928.4560800188833,3706
1930.4120994198802,3696
1932.367638244833,3696
1934.32269675935,3711
1936.2772752291175,3628
1938.231373919899,3694
1940.1849930975404,3601
1942.1381330279637,3537
1944.0907939771696,3667
1946.0429762112412,3677
1947.9946799963363,3658
1949.9459055986945,3750
1951.896653284633,3626
1953.8469233205478,3681
1955.7967159729142,3610
1957.7460315082863,3679
1959.6948701932974,3704
1961.6432322946594,3672
1963.5911180791632,3742
1965.5385278136787,3744
1967.4854617651545,3728
1969.4319202006182,3738
1971.377903387176,3652
1973.3234115920136,3707
1975.268445082395,3649
1977.2130041256642,3727
1979.1570889892423,3651
1981.1006999406304,3667
1983.04383724741,3578
1984.986501177238,3732
1986.928691997853,3630
1988.8704099770712,3699
1990.811655382789,3652
1992.7524284829801,3643
1994.692729545698,3713
1996.6325588390755,3717
1998.5719166313224,3663
2000.5108031907307,3646
2002.4492187856677,3734
2004.387163684583,3676
2006.3246381560011,3683
2008.2616424685298,3611
2010.1981768908527,3624
2012.1342416917332,3676
2014.069837140014,3568
2016.0049635046162,3615
2017.9396210545406,3612
2019.8738100588666,3675
2021.8075307867502,3640
2023.740783507431,3734
2025.6735684902228,3694
2027.6058860045214,3595
2029.5377363198004,3656
2031.4691197056118,3573
2033.4000364315875,3620
2035.3304867674374,3712
2037.260470982952,3607
2039.189989347998,3718
2041.1190421325232,3672
2043.047629606554,3599
2044.9757520401945,3635
2046.9034097036288,3614
2048.8306028671195,3631
2050.7573318010086,3660
2052.683596775716,3672
2054.609398061742,3707
2056.5347359296647,3629
2058.4596106501403,3667
2060.384022493906,3698
2062.3079717317764,3679
2064.231458634646,3620
2066.1544834734873,3577
2068.077046519352,3696
2069.99914804337,3629
2071.9207883167524,3694
2073.8419676107865,3674
2075.7626861968406,3729
2077.6829443463607,3703
2079.6027423308715,3743
2081.522080421977,3650
2083.440958891362,3647
2085.359378010786,3657
2087.2773380520907,3727
2089.194839287196,3649
2091.111881988101,3712
2093.0284664268825,3603
2094.9445928756973,3609
2096.86026160678,3625
2098.775472892446,3722
2100.690227005088,3656
2102.604524217178,3609
2104.5183648012676,3745
2106.431749029985,3681
2108.34467717604,3696
2110.2571495122206,3716
2112.169166311393,3690
2114.080727846503,3637
2115.9918343905747,3669
2117.902486216711,3563
2119.8126835980956,3687
2121.722426807987,3579
2123.6317161197285,3658
2125.5405518067364,3639
2127.448934142509,3601
2129.356863400624,3687
2131.264339854737,3616
2133.1713637785815,3659
2135.077935445972,3786
2136.9840551308002,3614
2138.889723107037,3647
2140.7949396487334,3682
2142.699705030018,3706
2144.6040195250994,3682
2146.507883408264,3681
2148.4112969538774,3764
2150.3142604363848,3575
2152.2167741303097,3663
2154.1188383102535,3740
2156.0204532508997,3691
2157.9216192270064,3604
2159.822336513414,3570
2161.7226053850413,3667
2163.622426116884,3728
2165.5217989840185,3657
2167.4207242616,3679
2169.319202224862,3722
2171.2172331491165,3686
2173.1148173097563,3743
2175.0119549822507,3624
2176.90864644215,3709
2178.8048919650823,3726
2180.7006918267534,3740
2182.596046302952,3792
2184.4909556695407,3672
2186.3854202024645,3751
2188.279440177746,3752
2190.173015871487,3696
2192.066147559868,3729
2193.958835519149,3786
2195.851080025667,3716
2197.7428813558417,3802
2199.6342397861667,3768
2201.5251555932186,3773
2203.415629053651,3886
2205.3056604441986,3746
2207.19525004167,3671
2209.084398122958,3817
2210.9731049650327,3571
2212.861370844941,3917
2214.749196039812,3750
2216.636580826851,3721
2218.523525483344,3762
2220.410030286655,3867
2222.296095514226,3848
2224.1817214435805,3769
2226.066908352319,3734
2227.951656518121,3756
2229.835966218746,3829
2231.71983773203,3688
2233.6032713358913,3748
2235.486267308324,3852
2237.3688259274036,3798
2239.2509474712824,3742
2241.132632218193,3849
2243.013880446447,3829
2244.8946924344323,3919
2246.7750684606203,3769
2248.6550088035574,3792
2250.534513741871,3818
2252.413583554265,3797
2254.292218519526,3812
2256.170418916517,3688
2258.0481850241786,3794
2259.925517121534,3813
2261.8024154876825,3748
2263.678880401803,3810
2265.5549121431536,3811
2267.430510991071,3856
2269.305677224971,3763
2271.180411124348,3827
2273.0547129687766,3768
2274.9285830379076,3758
2276.8020216114737,3686
2278.6750289692845,3738
2280.5476053912294,3850
2282.4197511572766,3855
2284.2914665474727,3763
2286.162751841943,3782
2288.0336073208937,3890
2289.904033264608,3832
2291.774029953448,3834
2293.6435976678554,3788
2295.5127366883517,3737
2297.381447295534,3827
2299.2497297700825,3840
2301.1175843927526,3697
2302.9850114443825,3664
2304.852011205885,3642
2306.7185839582553,3680
2308.5847299825664,3629
2310.4504495599676,3631
2312.3157429716925,3669
2314.1806104990483,3597
2316.0450524234247,3567
2317.9090690262888,3667
2319.772660589186,3607
2321.635827393742,3679
2323.498569721661,3546
2325.3608878547248,3635
2327.2227820747967,3611
2329.0842526638157,3623
2330.945299903803,3695
2332.805924076857,3573
2334.6661254651535,3676
2336.525904350951,3660
2338.3852610165827,3660
2340.244195744464,3721
2342.102708817088,3647
2343.9608005170253,3693
2345.8184711269287,3574
2347.675720929526,3714
2349.532550207628,3668
2351.38895924412,3622
2353.24494832197,3587
2355.100517724223,3688
2356.955667734004,3634
2358.810398634514,3662
2360.664710709037,3561
2362.5186042409337,3613
2364.3720795136437,3729
2366.225136810686,3619
2368.0777764156583,3624
2369.929998612237,3648
2371.7818036841777,3722
2373.633191915315,3677
2375.484163589562,3694
2377.3347189909114,3682
2379.184858403434,3604
2381.03458211128,3747
2382.8838903986775,3753
2384.732783549936,3569
2386.5812618494406,3643
2388.4293255816588,3694
2390.2769750311327,3728
2392.1242104824883,3776
2393.971032220427,3651
2395.8174405297295,3627
2397.6634356952563,3791
2399.509018001947,3623
2401.3541877348193,3645
2403.1989451789705,3695
2405.043290619576,3639
2406.8872243418905,3600
2408.730746631247,3634
2410.5738577730594,3623
2412.4165580528183,3706
2414.258847756095,3675
2416.100727168537,3614
2417.9421965758734,3654
2419.783256263912,3641
2421.623906518538,3597
2423.4641476257157,3633
2425.303979871491,3675
2427.143403541984,3663
2428.9824189233977,3642
2430.821026302012,3604
2432.6592259641866,3610
2434.497018196361,3617
2436.33440328505,3587
2438.171381516851,3610
2440.00795317844,3673
2441.844118556569,3650
2443.6798779380724,3820
2445.5152316098606,3725
2447.3501798589255,3741
2449.1847229723357,3651
2451.0188612372403,3621
2452.8525949408663,3650
2454.6859243705203,3567
2456.518849813587,3650
2458.3513715575314,3665
2460.183489889895,3781
2462.015205098301,3776
2463.8465174704493,3670
2465.67742729412,3660
2467.5079348571717,3727
2469.338040447542,3676
2471.1677443532476,3693
2472.9970468623833,3700
2474.825948263123,3605
2476.6544488437207,3684
2478.482548892508,3726
2480.310248697896,3587
2482.137548548374,3720
2483.9644487325118,3717
2485.790949538956,3639
2487.617051256433,3661
2489.44275417375,3653
2491.26805857979,3720
2493.0929647635157,3727
2494.917473013971,3768
2496.741583620276,3791
2498.5652968716304,3735
2500.3886130573137,3722
2502.2115324666834,3717
2504.0340553891765,3865
2505.856182114308,3725
2507.6779129316733,3721
2509.499248130945,3734
2511.3201880018764,3737
2513.140732834298,3685
2514.9608829181198,3821
2516.780638543331,3761
2518.6,3694
2520.418967578273,3701
2522.237541568376,3735
2524.0557222606144,3717
2525.8735099453706,3721
2527.6909049131086,3750
2529.507907454368,3810
2531.32451785977,3769
2533.140736420014,3804
2534.9565634258774,3736
2536.771999168218,3802
2538.5870439379714,3781
2540.4016980261526,3842
2542.2159617238544,3833
2544.02983532225,3818
2545.8433191125914,3960
2547.656413386209,3870
2549.4691184345115,3901
2551.2814345489874,3805
2553.093362021204,3840
2554.904901142808,3855
2556.716052205523,3859
2558.526815501153,3899
2560.3371913215824,3937
2562.147179958771,3895
2563.956781704761,3910
2565.7659968516705,3919
2567.5748256916986,3896
2569.3832685171224,3912
2571.1913256202984,3978
2572.9989972936614,3861
2574.806283829725,3900
2576.613185521084,3900
2578.4197026604074,3876
2580.2258355404483,4060
2582.031584454035,4041
2583.836949694077,3961
2585.6419315535613,4047
2587.4465303255533,4030
2589.2507463032002,4014
2591.0545797797245,3986
2592.8580310484303,3919
2594.6611004026995,4081
2596.463788135992,4104
2598.266094541849,4048
2600.0680199138874,3948
2601.869564545807,3992
2603.670728731383,4150
2605.4715127644704,4086
2607.2719169390048,4155
2609.071941548998,4132
2610.8715868885433,4083
2612.670853251811,4075
2614.469740933052,4068
2616.268250226594,4102
2618.0663814268455,3999
2619.864134828292,4029
2621.6615107255006,4031
2623.458509413115,3852
2625.2551311858597,4130
2627.0513763385347,4083
2628.8472451660223,4045
2630.6427379632833,3987
2632.4378550253564,3910
2634.232596647359,4149
2636.026963124488,3970
2637.8209547520187,3957
2639.6145718253065,3916
2641.407814639785,3947
2643.200683490966,3858
2644.9931786744414,3995
2646.7853004858807,3891
2648.577049221034,3920
2650.3684251757277,3973
2652.1594286458712,3916
2653.9500599274484,3908
2655.740319316525,3805
2657.5302071092437,3812
2659.3197236018286,3907
2661.10886909058,3948
2662.8976438718782,3784
2664.686048242183,3871
2666.4740824980327,3818
2668.2617469360443,3878
2670.0490418529134,3910
2671.8359675454153,3930
2673.622524310403,3893
2675.408712444811,3794
2677.1945322456495,3842
2678.979984010009,3756
2680.76506803506,3823
2682.5497846180497,3810
2684.334134056306,3814
2686.1181166472343,3748
2687.9017326883213,3820
2689.6849824771293,3750
2691.4678663113013,3833
2693.2503844885596,3705
2695.032537306705,3784
2696.8143250636167,3756
2698.5957480572542,3833
2700.3768065856534,3757
2702.1575009469316,3798
2703.937831439283,3705
2705.717798360982,3681
2707.4974020103837,3745
2709.276642685917,3747
2711.055520686095,3843
2712.834036309506,3726
2714.612189854819,3719
2716.389981620782,3634
2718.1674119062204,3763
2719.944481010041,3671
2721.721189231226,3761
2723.4975368688415,3728
2725.273524222027,3689
2727.0491515900053,3733
2728.824419272075,3707
2730.5993275676146,3657
2732.3738767760838,3812
2734.148067197016,3678
2735.921899130031,3612
2737.6953728748194,3724
2739.468488731156,3684
2741.2412469988926,3756
2743.0136479779617,3792
2744.785691968372,3719
2746.5573792702116,3675
2748.3287101836504,3630
2750.099685008934,3681
2751.870304046388,3753
2753.640567596418,3708
2755.4104759595057,3734
2757.1800294362156,3728
2758.949228327187,3661
2760.7180729331412,3671
2762.486563554877,3656
2764.254700493272,3690
2766.022484049284,3668
2767.789914523947,3707
2769.5569922183786,3673
2771.3237174337705,3646
2773.090090471394,3626
2774.8561116326036,3742
2776.6217812188274,3707
2778.3870995315756,3690
2780.1520668724356,3746
2781.9166835430747,3757
2783.6809498452394,3713
2785.444866080754,3750
2787.2084325515225,3630
2788.971649559527,3669
2790.73451740683,3662
2792.4970363955713,3728
2794.2592068279705,3572
2796.0210290063264,3587
2797.7825032330147,3769
2799.543629810493,3797
2801.304409041296,3755
2803.0648412280366,3594
2804.8249266734088,3734
2806.5846656801846,3595
2808.344058551212,3639
2810.1031055894246,3734
2811.8618070978273,3683
2813.6201633795085,3653
2815.378174737636,3700
2817.1358414754536,3732
2818.893163896285,3718
2820.6501423035334,3735
2822.4067770006814,3660
2824.1630682912883,3733
2825.9190164789957,3750
2827.6746218675207,3704
2829.429884760661,3810
2831.184805462294,3732
2832.9393842763743,3775
2834.693621506936,3699
2836.4475174580916,3698
2838.201072434034,3700
2839.954286739034,3752
2841.707160677441,3777
2843.459694553685,3655
2845.2118886722724,3755
2846.96374333779,3668
2848.7152588549034,3713
2850.4664355283567,3752
2852.217273662973,3846
2853.9677735636546,3690
2855.7179355353833,3804
2857.4677598832186,3728
2859.217246912299,3702
2860.9663969278427,3689
2862.715210235146,3762
2864.4636871395846,3715
2866.211827946614,3684
2867.9596329617652,3730
2869.7071024906536,3700
2871.4542368389684,3743
2873.20103631248,3724
2874.947501217038,3679
2876.6936318585695,3657
2878.4394285430812,3650
2880.1848915766604,3793
2881.9300212654707,3808
2883.6748179157553,3661
2885.4192818338374,3776
2887.1634133261173,3757
2888.907212699077,3761
2890.6506802592744,3816
2892.393816313348,3801
2894.1366211680142,3768
2895.8790951300693,3685
2897.621238506388,3715
2899.363051603925,3703
2901.1045347297118,3737
2902.8456881908596,3764
2904.58651229456,3738
2906.327007348081,3663
2908.067173658772,3762
2909.8070115340597,3738
2911.5465212814497,3615
2913.285703208527,3603
2915.0245576229563,3622
2916.7630848324807,3650
2918.5012851449196,3631
2920.2391588681758,3755
2921.976706310227,3751
2923.7139277791334,3799
2925.4508235830313,3828
2927.187394030137,3788
2928.923639428745,3717
2930.6595600872306,3747
2932.395156314046,3794
2934.1304284177218,3826
2935.8653767068713,3764
2937.6000014901815,3755
2939.3343030764227,3783
2941.068281774442,3743
2942.8019378931644,3690
2944.5352717415976,3772
2946.2682836288236,3796
2948.0009738640065,3787
2949.7333427563885,3735
2951.465390615289,3707
2953.1971177501086,3759
2954.9285244703265,3805
2956.6596110855,3806
2958.3903779052657,3834
2960.1208252393385,3824
2961.8509533975125,3669
2963.5807626896617,3707
2965.3102534257378,3695
2967.0394259157715,3771
2968.768280469873,3718
2970.496817398232,3678
2972.2250370111146,3785
2973.952939618869,3685
2975.6805255319196,3734
2977.4077950607707,3779
2979.134748516006,3719
2980.861386208289,3821
2982.587708448359,3791
2984.313715547037,3798
2986.039407815222,3742
2987.764785563891,3781
2989.489849104102,3703
2991.2145987469908,3758
2992.9390348037705,3738
2994.6631575857346,3815
2996.3869674042576,3822
2998.1104645707887,3771
2999.83364939686,3690
3001.5565221940783,3691
3003.2790832741334,3689
3005.0013329487924,3717
3006.7232715298996,3759
3008.4448993293804,3779
3010.166216659239,3843
3011.887223831558,3756
3013.607921158498,3775
3015.3283089522993,3768
3017.0483875252826,3700
3018.7681571898443,3790
3020.4876182584626,3714
3022.2067710436927,3744
3023.9256158581707,3706
3025.644153014609,3706
3027.362382825801,3736
3029.0803056046193,3781
3030.797921664012,3803
3032.5152313170106,3775
3034.2322348767225,3719
3035.9489326563353,3790
3037.665324969115,3710
3039.3814121284063,3719
3041.097194447633,3747
3042.812672240299,3749
3044.5278458199855,3802
3046.2427155003525,3702
3047.9572815951406,3742
3049.671544418167,3752
3051.38550428333,3712
3053.0991615046073,3801
3054.812516396051,3717
3056.5255692717974,3816
3058.2383204460575,3826
3059.9507702331257,3695
3061.662918947372,3676
3063.3747669032446,3759
3065.0863144152736,3761
3066.7975617980674,3822
3068.508509366309,3819
3070.219157434767,3790
3071.9295063182844,3877
3073.639556331785,3718
3075.3493077902704,3889
3077.058761008821,3751
3078.7679163025964,3836
3080.476773986837,3806
3082.1853343768594,3754
3083.89359778806,3828
3085.6015645359153,3729
3087.3092349359786,3796
3089.016609303884,3748
3090.7236879553434,3824
3092.4304712061476,3791
3094.136959372166,3915
3095.843152769349,3998
3097.5490517137237,3855
3099.2546565213966,3824
3100.959967508554,3899
3102.66498499146,3842
3104.3697092864577,3865
3106.0741407099695,3757
3107.778279578498,3833
3109.482126208622,3789
3111.1856809170004,3891
3112.8889440203716,3867
3114.5919158355528,3857
3116.294596679439,3943
3117.996986869006,3810
3119.6990867213062,3777
3121.4008965534726,3871
3123.102416682717,3932
3124.803647426329,3937
3126.5045891016784,3818
3128.205242026213,3831
3129.90560651746,3875
3131.605682893025,3800
3133.3054714705922,3874
3135.0049725679282,3926
3136.7041865028714,3901
3138.4031135933465,4003
3140.101754157353,3855
3141.800108512971,3843
3143.498176978357,3841
3145.1959598717494,3798
3146.8934575114636,3783
3148.5906702158954,3825
3150.2875983035183,3791
3151.9842420928853,3912
3153.680601902627,3776
3155.376678051456,3739
3157.07247085816,3739
3158.767980641609,3850
3160.463207720748,3811
3162.158152414606,3884
3163.8528150422862,3770
3165.5471959229726,3805
3167.2412953759303,3813
3168.9351137204976,3847
3170.628651276098,3894
3172.3219083622307,3950
3174.014885298474,3849
3175.707582404485,3840
3177.4000000000005,3863
3179.092138404835,3902
3180.7839979388846,3889
3182.47557892212,3764
3184.166881674594,3902
3185.8579065164386,3860
3187.5486537678626,3859
3189.2391237491547,3911
3190.9293167806827,3843
3192.6192331828934,3869
3194.3088732763117,3719
3195.998237381542,3837
3197.687325819268,3806
3199.376138910251,3754
3201.064676975334,3858
3202.7529403354347,3792
3204.4409293115523,3745
3206.1286442247647,3800
3207.816085396229,3728
3209.5032531471825,3863
3211.190147798936,3736
3212.8767696728846,3784
3214.5631190905015,3754
3216.2491963733373,3715
3217.9350018430214,3729
3219.6205358212637,3767
3221.305798629851,3719
3222.990790590651,3802
3224.6755120256103,3724
3226.359963256751,3719
3228.0441446061795,3688
3229.7280563960758,3744
3231.411698948703,3865
3233.0950725863995,3815
3234.778177631587,3823
3236.461014406761,3782
3238.1435832345005,3820
3239.8258844374595,3854
3241.507918338374,3791
3243.1896852600576,3716
3244.8711855254023,3796
3246.552419457381,3822
3248.233387379042,3789
3249.914089613516,3774
3251.59452648401,3784
3253.274698313813,3698
3254.95460542629,3787
3256.6342481448855,3647
3258.313626793125,3708
3259.9927416946084,3752
3261.6715931730196,3725
3263.3501815521176,3723
3265.0285071557437,3691
3266.706570307815,3745
3268.3843713323286,3792
3270.0619105533615,3713
3271.739188295068,3679
3273.4162048816834,3712
3275.0929606375184,3794
3276.769455886966,3864
3278.445690954498,3812
3280.1216661646613,3810
3281.797381842087,3880
3283.4728383114807,3888
3285.1480358976296,3797
3286.8229749253996,3752
3288.4976557197333,3786
3290.172078605655,3800
3291.846243908266,3799
3293.5201519527463,3904
3295.193803064357,3691
3296.8671975684374,3726
3298.5403357904024,3729
3300.21321805575,3776
3301.8858446900567,3781
3303.558216018975,3909
3305.23033236824,3838
3306.9021940636603,3860
3308.57380143113,3842
3310.2451547966184,3985
3311.916254486174,3833
3313.5871008259246,3798
3315.2576941420766,3861
3316.9280347609147,3677
3318.5981230088046,3806
3320.2679592121895,3661
3321.9375436975924,3647
3323.606876791612,3843
3325.27595882093,3657
3326.944790112305,3664
3328.6133709925753,3725
3330.2817017886573,3764
3331.949782827547,3674
3333.617614436319,3732
3335.2851969421245,3884
3336.952530672199,3847
3338.619615953853,3857
3340.286453114475,3900
3341.9530424815357,3916
3343.619384382583,3837
3345.2854791452437,3784
3346.951327097224,3864
3348.6169285663073,3838
3350.2822838803577,3845
3351.947393367319,3816
3353.61225735521,3847
3355.2768761721345,3821
3356.9412501462693,3944
3358.605379605873,3883
3360.2692648792827,3881
3361.9329062949146,3913
3363.596304181263,3848
