CollectionTime,7/11/2024 11:53:16 AM
ExposureUsed,3
CalibratedSpectrum
-962.7078968117929,1078
-959.9714848408522,1146
-957.2358232597828,1209
-954.5009119013725,1152
-951.7667505983302,1196
-949.0333391832855,1324
-946.3006774887896,1296
-943.5687653473143,1230
-940.837602591253,1248
-938.1071890529199,1311
-935.3775245645503,1197
-932.6486089583007,1282
-929.9204420662485,1303
-927.1930237203925,1190
-924.4663537526524,1181
-921.7404319948689,1231
-919.0152582788041,1359
-916.2908324361409,1378
-913.5671542984834,1208
-910.8442236973568,1181
-908.1220404642074,1196
-905.4006044304027,1202
-902.679915427231,1177
-899.959973285902,1198
-897.2407778375464,1219
-894.5223289132158,1162
-891.8046263438832,1238
-889.0876699604426,1252
-886.3714595937089,1254
-883.6559950744183,1203
-880.9412762332282,1155
-878.2273029007168,1224
-875.5140749073835,1185
-872.8015920836489,1239
-870.0898542598545,1101
-867.3788612662631,1179
-864.6686129330585,1209
-861.9591090903457,1224
-859.2503495681506,1185
-856.5423341964203,1146
-853.8350628050229,1228
-851.1285352237478,1206
-848.4227512823054,1238
-845.7177108103272,1195
-843.0134136373656,1180
-840.3098595928943,1208
-837.6070485063082,1194
-834.9049802069229,1233
-832.2036545239757,1215
-829.5030712866244,1243
-826.8032303239481,1224
-824.1041314649472,1238
-821.4057745385428,1188
-818.7081593735775,1249
-816.0112857988148,1201
-813.3151536429393,1216
-810.6197627345566,1272
-807.9251129021936,1185
-805.2312039742981,1194
-802.5380357792392,1193
-799.8456081453069,1194
-797.1539209007124,1273
-794.462973873588,1256
-791.772766891987,1230
-789.083299783884,1276
-786.3945723771743,1265
-783.7065844996748,1241
-781.0193359791231,1272
-778.3328266431781,1217
-775.6470563194197,1221
-772.9620248353489,1255
-770.2777320183878,1239
-767.5941776958798,1322
-764.9113616950891,1354
-762.2292838432011,1347
-759.5479439673222,1282
-756.8673418944801,1251
-754.1874774516235,1239
-751.5083504656222,1233
-748.8299607632671,1297
-746.15230817127,1320
-743.475392516264,1341
-740.7992136248035,1352
-738.1237713233636,1305
-735.4490654383407,1306
-732.7750957960521,1349
-730.1018622227365,1375
-727.4293645445534,1303
-724.7576025875837,1275
-722.0865761778291,1329
-719.4162851412126,1347
-716.7467293035781,1359
-714.0779084906909,1360
-711.409822528237,1332
-708.7424712418238,1314
-706.0758544569796,1250
-703.4099719991541,1374
-700.7448236937178,1417
-698.0804093659622,1424
-695.4167288411002,1368
-692.7537819442656,1412
-690.0915685005134,1336
-687.4300883348199,1353
-684.7693412720819,1394
-682.1093271371178,1415
-679.4500457546669,1402
-676.7914969493897,1403
-674.1336805458676,1377
-671.4765963686034,1393
-668.8202442420206,1473
-666.1646239904642,1383
-663.5097354382001,1355
-660.8555784094151,1380
-658.2021527282176,1378
-655.5494582186366,1345
-652.8974947046223,1419
-650.2462620100463,1426
-647.5957599587009,1444
-644.9459883742998,1394
-642.2969470804776,1444
-639.6486359007902,1498
-637.0010546587141,1448
-634.3542031776476,1543
-631.7080812809096,1541
-629.0626887917401,1523
-626.4180255333008,1480
-623.7740913286734,1544
-621.1308860008619,1556
-618.4884093727904,1500
-615.8466612673046,1460
-613.2056415071715,1480
-610.5653499150785,1530
-607.9257863136347,1525
-605.28695052537,1579
-602.6488423727357,1520
-600.0114616781036,1522
-597.3748082637674,1516
-594.7388819519412,1565
-592.1036825647604,1718
-589.4692099242818,1606
-586.8354638524829,1491
-584.2024441712624,1514
-581.5701507024403,1539
-578.9385832677575,1525
-576.3077416888759,1634
-573.6776257873787,1569
-571.0482353847704,1549
-568.4195703024757,1532
-565.7916303618415,1601
-563.164415384135,1682
-560.5379251905453,1668
-557.9121596021815,1519
-555.2871184400748,1497
-552.6628015251767,1524
-550.0392086783606,1567
-547.4163397204204,1651
-544.794194472071,1630
-542.1727727539491,1727
-539.5520743866118,1723
-536.9320991905377,1608
-534.3128469861261,1657
-531.6943175936979,1772
-529.0765108334947,1687
-526.4594265256793,1601
-523.8430644903358,1794
-521.2274245474689,1908
-518.612506517005,1900
-515.9983102187913,1859
-513.3848354725959,1878
-510.77208209810846,1887
-508.16004991493924,1924
-505.5487387426199,2023
-502.9381484006032,2172
-500.3282787082628,2234
-497.71912948489364,2310
-495.1107005497117,2248
-492.5029917218539,2032
-489.8960028203786,1901
-487.28973366426493,1884
-484.68418407241325,1917
-482.07935386364494,1714
-479.47524285670266,1740
-476.87185087025,1699
-474.2691777228715,1754
-471.66722323307334,1760
-469.0659872192821,1741
-466.4654694998459,1829
-463.86566989303384,1789
-461.26658821703614,1809
-458.66822428996414,1757
-456.07057792985,1772
-453.4736489546475,1763
-450.877437182231,1728
-448.28194243039627,1709
-445.68716451686,1754
-443.09310325926003,1815
-440.49975847515555,1717
-437.9071299820263,1691
-435.31521759727354,1783
-432.72402113821954,1830
-430.13354042210767,1772
-427.5437752661022,1871
-424.95472548728867,1774
-422.36639090267386,1806
-419.7787713291855,1922
-417.1918665836721,1918
-414.60567648290385,1937
-412.0202008435715,1899
-409.4354394822874,1890
-406.8513922155845,1830
-404.26805885991723,1923
-401.685439231661,2012
-399.103533147112,1971
-396.522340422488,1856
-393.9418608739278,1813
-391.3620943174908,1847
-388.7830405691583,1751
-386.2046994448317,1737
-383.6270707603344,1647
-381.05015433141045,1505
-378.473949973725,1427
-375.8984575028645,1363
-373.32367673433623,1267
-370.74960748356875,1270
-368.1762495659117,1142
-365.60360279663576,940
-363.03166699093265,810
-360.4604419639154,771
-357.8899275306178,718
-355.32012350599507,689
-352.7510297049233,686
-350.1826459421999,706
-347.61497203254316,696
-345.04800779059235,707
-342.4817530309082,633
-339.91620756797226,721
-337.35137121618743,880
-334.7872437898774,869
-332.22382510328725,780
-329.66111497058273,605
-327.09911320585127,591
-324.53781962310075,657
-321.9772340362607,659
-319.4173562591816,591
-316.8581861056348,586
-314.2997233893127,555
-311.7419679238294,534
-309.1849195227194,608
-306.62857799943856,756
-304.0729431673641,849
-301.51801483979375,773
-298.963792829947,694
-296.41027695096386,687
-293.85746701590574,675
-291.3053628377552,774
-288.7539642294155,783
-286.2032710037115,757
-283.65328297338897,755
-281.1039999511146,799
-278.5554217494762,766
-276.007548180983,694
-273.4603790580651,668
-270.9139141930734,632
-268.3681533982807,605
-265.8230964858798,695
-263.27874326798565,833
-260.7350935566336,893
-258.1921471637804,784
-255.6499039013039,865
-253.10836358100266,999
-250.56752601459698,1084
-248.02739101372765,1003
-245.48795838995704,1014
-242.94922795476816,1030
-240.41119951956557,1165
-237.8738728956746,1109
-235.33724789434166,902
-232.80132432673452,810
-230.2661020039418,758
-227.73158073697357,912
-225.19776033676033,1066
-222.66464061415422,901
-220.1322213799284,858
-217.60050244477725,808
-215.06948361931552,954
-212.53916471408013,1206
-210.00954553952818,1219
-207.48062590603843,1093
-204.9524056239104,1102
-202.4248845033651,1094
-199.8980623545441,1107
-197.37193898751036,1064
-194.84651421224817,1179
-192.32178783866232,1166
-189.79775967657952,1175
-187.27442953574644,1361
-184.7517972258321,1558
-182.2298625564256,1446
-179.7086253370378,1315
-177.18808537710026,1030
-174.66824248596583,958
-172.14909647290835,1047
-169.6306471471229,1151
-167.11289431772548,1226
-164.59583779375328,1243
-162.07947738416453,1276
-159.5638128978386,1618
-157.04884414357605,2003
-154.53457093009854,1739
-152.02099306604828,1328
-149.50811035998936,1368
-146.99592262040665,1539
-144.48442965570587,2196
-141.97363127421409,2672
-139.46352728417958,2317
-136.95411749377126,2162
-134.44540171107985,1629
-131.93737974411636,1479
-129.43005140081357,2139
-126.92341648902493,3779
-124.41747481652521,5603
-121.91222619101006,6905
-119.40767042009657,4679
-116.90380731132257,2659
-114.40063667214702,2163
-111.8981583099503,2621
-109.3963720320337,4681
-106.89527764561933,11824
-104.39487495785067,22518
-101.89516377579241,27610
-99.39614390642998,27096
-96.89781515667039,28537
-94.40017733334128,42784
-91.90323024319173,65038
-89.40697369289148,65038
-86.91140748903172,45473
-84.41653143812482,23122
-81.92234534660395,11895
-79.42884902082358,29051
-76.93604226705907,61219
-74.4439248915071,65038
-71.95249670028534,65038
-69.46175749943245,65038
-66.97170709490854,56486
-64.48234529259423,37781
-61.99367189829195,21378
-59.50568671772464,12570
-57.01838955653636,9572
-54.53178022029283,8019
-52.045858514480074,7815
-49.560624244506016,8719
-47.07607721569923,9671
-44.59221723330904,9190
-42.10904410250669,9798
-39.62655762838392,10150
-37.14475761595372,10842
-34.66364387015028,10202
-32.18321619582866,9978
-29.70347439776515,10350
-27.224418280657005,11527
-24.74604764912317,15518
-22.26836230770266,27679
-19.7913620608565,60634
-17.315046712966478,65038
-14.83941606833514,65038
-12.36446993118659,65038
-9.89020810566592,65038
-7.416630395839093,65038
-4.94373660569363,65038
-2.471526539137585,65038
-6.821210263296962E-13,65038
2.47084320796705,65038
4.941003281093458,65038
7.410480415786196,65038
9.879274808531363,65038
12.347386655893956,65038
14.814816154518212,65038
17.28156350112681,65038
19.74762889252179,65038
22.21301252558385,65038
24.67771459727237,23245
27.141735304626195,5951
29.605074844762612,6491
32.06773341487792,6486
34.52971121224755,5421
36.99100843422559,4503
39.45162527824516,3155
41.91156194181792,2727
44.370818622535126,2828
46.82939551806646,2810
49.287292826160524,4054
51.74451074464503,6489
54.201049471426245,5164
56.65690920448981,2983
59.112090141899785,2053
61.56659248179983,1907
64.02041642241159,2358
66.4735621620365,2776
68.92602989905402,3708
71.37781983192338,4897
73.82893215918205,4341
76.27936707944684,2667
78.72912479141326,2068
81.17820549385567,2768
83.62660938562783,2760
86.07433666566146,1959
88.5213875329681,1711
90.96776218663751,1910
93.41346082583925,1904
95.85848364982041,2719
98.30283085790859,3662
100.7465026495089,2214
103.18949922410604,1645
105.63182078126385,1624
108.07346752062438,1263
110.51443964190923,1339
112.95473734491827,1606
115.39436082953114,2148
117.83331029570547,1691
120.27158594347827,1369
122.7091879729652,1582
125.1461165843615,1694
127.58237197794062,1340
130.01795435405518,1236
132.4528639131364,1413
134.88710085569494,1175
137.32066538231982,1321
139.75355769367923,1840
142.1857779905207,1926
144.61732647366978,1544
147.04820334403132,1309
149.47840880258934,1348
151.90794305040674,1497
154.33680628862487,1986
156.76499871846443,2025
159.19252054122433,1880
161.61937195828352,1980
164.04555317109896,2153
166.47106438120693,2444
168.89590579022217,2825
171.320077599839,2980
173.7435800118302,3218
176.16641322804742,3377
178.58857745042144,3604
181.01007288096173,3566
183.43089972175687,3549
185.85105817497413,3485
188.27054844285988,3637
190.6893707277394,3739
193.10752523201643,3877
195.5250121581745,3904
197.9418317087751,4063
200.3579840864594,4025
202.7734694939469,3995
205.18828813403627,4196
207.6024402096051,4416
210.01592592360964,4181
212.42874547908548,4224
214.84089907914665,4081
217.2523869269868,4059
219.66320922587727,4058
222.0733661791695,4010
224.48285799029293,3969
226.8916848627572,4033
229.29984700014882,4098
231.7073446061355,4005
234.11417788446204,4048
236.520347038953,4070
238.92585227351185,4386
241.33069379212054,4302
243.73487179884035,4385
246.1383864978112,4189
248.541238093252,4254
250.9434267894609,4355
253.34495279081432,4078
255.74581630176783,3968
258.1460175268563,4059
260.54555667069314,4181
262.9444339379703,4035
265.3426495334594,4140
267.7402036620107,4223
270.1370965285529,4469
272.53332833809407,4043
274.9288992957214,3865
277.32380960660055,3883
279.718059475976,3836
282.1116491091717,3914
284.5045787115897,3882
286.89684848871195,3803
289.2884586460981,3687
291.67940938938807,3851
294.0697009242996,4214
296.4593334566299,4081
298.84830719225477,3805
301.23662233712923,3704
303.6242790972866,3659
306.01127767884,3640
308.39761828798066,3622
310.78330113097934,3651
313.16832641418534,3615
315.5526943440269,3620
317.9364051270112,3663
320.3194589697242,3720
322.70185607883093,3863
325.0835966610754,3683
327.4646809232805,3620
329.8451090723478,3479
332.2248813152577,3519
334.6039978590701,3589
336.9824589109231,3659
339.36026467803447,3620
341.7374153677,3459
344.113911187295,3278
346.48975234427337,3407
348.8649390461686,3420
351.2394715005918,3554
353.61334991523415,3448
355.9865744978655,3387
358.35914545633375,3663
360.73106299856715,3740
363.10232733257146,3594
365.47293866643247,3488
367.84289720831396,3377
370.2122031664593,3433
372.5808567491905,3320
374.9488581649083,3391
377.31620762209275,3278
379.6829053293021,3307
382.0489514951745,3376
384.4143463284262,3368
386.7790900378528,3410
389.14318283232853,3250
391.50662492080653,3330
393.86941651231916,3341
396.23155781597745,3408
398.5930490409713,3356
400.9538903965696,3394
403.3140820921202,3462
405.6736243370498,3372
408.03251734086336,3306
410.3907613131465,3260
412.74835646356166,3356
415.10530300185144,3329
417.4616011378372,3246
419.81725108141893,3366
422.1722530425758,3291
424.5266072313656,3175
426.880313857925,3328
429.2333731324701,3253
431.58578526529516,3364
433.9375504667738,3355
436.2886689473588,3271
438.63914091758113,3288
440.9889665880513,3285
443.33814616945835,3238
445.68667987257015,3157
448.03456790823395,3161
450.3818104873759,3194
452.72840782100013,3125
455.07436012019105,3219
457.41966759611057,3310
459.7643304600007,3205
462.10834892318155,3237
464.4517231970525,3263
466.79445349309174,3228
469.1365400228566,3270
471.4779829979826,3221
473.81878263018564,3248
476.15893913125876,3351
478.4984527130747,3321
480.8373235875855,3290
483.17555196682144,3310
485.5131380628919,3439
487.8500820879857,3495
490.1863842543697,3639
492.52204477439034,3742
494.8570638604725,3935
497.1914417251204,4242
499.52517858091653,4274
501.85827464052306,4491
504.19073011668036,4479
506.5225452222086,4306
508.85372017000566,4106
511.18425517304956,4400
513.514150444396,4427
515.8434061971808,5045
518.1720226446176,5764
520.4999999999999,5731
522.8273384766991,5298
525.1540382881666,5051
527.480099647932,4838
529.8055227696037,4367
532.1303078668694,3992
534.454455153496,3758
536.777964843328,3674
539.1008371502907,3465
541.4230722883866,3441
543.744670471698,3462
546.0656319143858,3559
548.3859568306899,3478
550.7056454349294,3427
553.0246979415016,3372
555.3431145648834,3305
557.6608955196306,3344
559.978041020377,3288
562.2945512818363,3330
564.6104265188006,3358
566.9256669461412,3386
569.2402727788082,3274
571.5542442318302,3386
573.8675815203156,3439
576.1802848594508,3475
578.4923544645015,3421
580.8037905508126,3565
583.114593333807,3507
585.4247630289875,3392
587.7342998519354,3364
590.0432040183106,3381
592.3514757438526,3495
594.6591152443794,3532
596.9661227357875,3425
599.2724984340531,3359
601.578242555231,3393
603.8833553154542,3281
606.1878369309362,3352
608.4916876179676,3292
610.7949075929192,3357
613.0974970722403,3375
615.3994562724587,3322
617.7007854101818,3294
620.0014847020951,3401
622.3015543649641,3371
624.6009946156324,3427
626.8998056710224,3424
629.1979877481361,3296
631.4955410640538,3406
633.7924658359349,3358
636.0887622810175,3363
638.3844306166192,3427
640.6794710601358,3498
642.9738838290426,3431
645.2676691408932,3452
647.5608272133207,3444
649.853358264037,3386
652.1452625108324,3491
654.4365401715764,3460
656.7271914642178,3500
659.0172166067838,3554
661.3066158173809,3520
663.5953893141935,3432
665.8835373154867,3542
668.1710600396028,3409
670.4579577049639,3401
672.7442305300709,3468
675.0298787335033,3552
677.3149025339197,3481
679.599302150058,3498
681.8830778007342,3426
684.1662297048437,3395
686.4487580813608,3479
688.7306631493387,3542
691.0119451279091,3583
693.2926042362834,3485
695.5726406937516,3489
697.8520547196814,3553
700.1308465335215,3514
702.4090163547982,3419
704.6865644031171,3420
706.9634908981619,3433
709.2397960596965,3401
711.5154801075631,3522
713.7905432616823,3589
716.0649857420548,3512
718.3388077687592,3405
720.612009561953,3435
722.8845913418733,3408
725.1565533288352,3411
727.427895743234,3503
729.6986188055427,3544
731.9687227363137,3462
734.238207756178,3411
736.5070740858458,3493
738.7753219461066,3409
741.0429515578281,3504
743.3099631419569,3394
745.5763569195191,3483
747.8421331116193,3539
750.1072919394409,3473
752.3718336242467,3489
754.6357583873777,3598
756.8990664502545,3457
759.1617580343765,3477
761.423833361321,3526
763.6852926527457,3510
765.9461361303862,3541
768.206364016058,3558
770.4659765316536,3560
772.7249738991469,3409
774.9833563405886,3619
777.2411240781092,3473
779.4982773339183,3567
781.7548163303044,3510
784.010741289634,3444
786.2660524343538,3682
788.5207499869881,3561
790.7748341701416,3587
793.0283052064964,3469
795.2811633188143,3501
797.5334087299362,3620
799.7850416627813,3622
802.0360623403484,3533
804.2864709857143,3585
806.5362678220353,3575
808.7854530725468,3566
811.0340269605625,3575
813.2819897094754,3525
815.5293415427581,3631
817.77608268396,3641
820.0222133567116,3643
822.2677337847211,3634
824.5126441917765,3569
826.7569448017433,3483
829.0006358385675,3606
831.2437175262731,3520
833.4861900889629,3559
835.7280537508192,3580
837.9693087361026,3672
840.2099552691533,3709
842.4499935743896,3601
844.689423876309,3670
846.9282463994886,3632
849.1664613685833,3639
851.4040690083276,3620
853.6410695435349,3679
855.877463199097,3640
858.1132501999847,3733
860.3484307712487,3683
862.5830051380175,3571
864.8169735254988,3676
867.0503361589791,3666
869.2830932638243,3595
871.5152450654786,3734
873.7467917894654,3538
875.9777336613873,3586
878.2080709069252,3686
880.4378037518389,3722
882.666932421968,3644
884.8954571432301,3632
887.1233781416219,3564
889.3506956432192,3697
891.5774098741766,3598
893.803521060728,3570
896.0290294291852,3665
898.2539352059397,3763
900.4782386174619,3679
902.7019398903011,3673
904.925039251085,3658
907.147536926521,3650
909.3694331433943,3642
911.59072812857,3590
913.8114221089921,3661
916.0315153116827,3641
918.2510079637437,3591
920.4699002923547,3573
922.6881925247761,3524
924.905884888345,3662
927.1229776104793,3619
929.3394709186747,3546
931.555365040506,3554
933.7706602036275,3411
935.9853566357709,3586
938.1994545647489,3632
940.4129542184515,3446
942.6258558248488,3565
944.8381596119883,3551
947.0498658079974,3489
949.2609746410825,3510
951.4714863395287,3626
953.6814011316998,3548
955.8907192460387,3654
958.0994409110671,3458
960.3075663553858,3578
962.5150958076741,3675
964.7220294966913,3533
966.928367651274,3521
969.1341105003388,3469
971.3392582728806,3590
973.5438111979742,3475
975.747769504772,3454
977.9511334225061,3484
980.153903180487,3500
982.3560790081052,3549
984.5576611348289,3514
986.7586497902058,3545
988.9590452038618,3549
991.158847605503,3482
993.3580572249133,3522
995.5566742919558,3386
997.7546990365728,3482
999.952131688785,3465
1002.1489724786926,3327
1004.3452216364743,3411
1006.5408793923874,3362
1008.7359459767691,3358
1010.9304216200343,3284
1013.1243065526781,3373
1015.3176010052733,3278
1017.510305208472,3331
1019.7024193930064,3303
1021.8939437896848,3323
1024.0848786293977,3312
1026.2752241431122,3278
1028.4649805618747,3401
1030.6541481168115,3304
1032.842727039127,3374
1035.0307175601051,3263
1037.2181199111074,3254
1039.4049343235752,3284
1041.591161029029,3261
1043.7768002590683,3326
1045.9618522453698,3333
1048.1463172196918,3405
1050.3301954138697,3362
1052.513487059818,3383
1054.69619238953,3394
1056.8783116350783,3227
1059.0598450286152,3282
1061.2407928023704,3297
1063.4211551886528,3344
1065.6009324198508,3339
1067.780124728432,3378
1069.9587323469414,3256
1072.1367555080046,3239
1074.314194444325,3261
1076.4910493886855,3266
1078.667320573947,3281
1080.843008233051,3299
1083.0181125990161,3258
1085.1926339049414,3127
1087.3665723840027,3168
1089.5399282694575,3309
1091.7127017946405,3173
1093.8848931929647,3251
1096.0565026979243,3253
1098.2275305430899,3243
1100.3979769621128,3240
1102.567842188722,3169
1104.737126456726,3159
1106.9058300000124,3081
1109.0739530525475,3131
1111.2414958483764,3226
1113.4084586216231,3196
1115.5748416064907,3166
1117.7406450372605,3227
1119.9058691482942,3200
1122.0705141740304,3220
1124.2345803489884,3206
1126.3980679077658,3305
1128.5609770850388,3185
1130.7233081155623,3211
1132.8850612341707,3195
1135.0462366757774,3208
1137.2068346753745,3251
1139.3668554680326,3214
1141.526299288901,3147
1143.68516637321,3186
1145.8434569562655,3158
1148.001171273455,3210
1150.158309560244,3296
1152.3148720521767,3245
1154.470858984876,3208
1156.626270594044,3198
1158.7811071154629,3209
1160.9353687849912,3120
1163.089055838569,3274
1165.242168512213,3152
1167.3947070420209,3276
1169.5466716641677,3206
1171.6980626149075,3192
1173.8488801305748,3136
1175.9991244475814,3112
1178.1487958024186,3216
1180.2978944316555,3116
1182.4464205719428,3058
1184.5943744600072,3018
1186.7417563326567,3227
1188.8885664267755,3160
1191.0348049793297,3130
1193.1804722273619,3071
1195.325568407995,3168
1197.4700937584303,3194
1199.614048515948,3193
1201.7574329179074,3114
1203.900247201746,3225
1206.042491604982,3164
1208.1841663652099,3270
1210.3252717201053,3164
1212.465807907422,3143
1214.6057751649923,3246
1216.7451737307279,3261
1218.8840038426192,3264
1221.0222657387353,3144
1223.1599596572241,3282
1225.2970858363137,3273
1227.4336445143094,3181
1229.5696359295966,3162
1231.705060320639,3180
1233.8399179259786,3170
1235.9742089842384,3350
1238.107933734118,3192
1240.2410924143974,3262
1242.373685263935,3222
1244.5057125216676,3202
1246.6371744266116,3327
1248.7680712178621,3287
1250.898403134593,3234
1253.028170416058,3283
1255.1573733015875,3308
1257.2860120305932,3327
1259.4140868425648,3333
1261.54159797707,3341
1263.6685456737569,3345
1265.7949301723515,3397
1267.9207517126597,3330
1270.046010534565,3375
1272.1707068780306,3387
1274.2948409830983,3293
1276.4184130898889,3230
1278.541423438603,3278
1280.6638722695184,3247
1282.785759822993,3252
1284.9070863394636,3291
1287.0278520594447,3236
1289.1480572235314,3347
1291.2677020723963,3319
1293.3867868467923,3357
1295.5053117875495,3371
1297.623277135579,3407
1299.740683131868,3451
1301.8575300174857,3342
1303.973818033578,3410
1306.0895474213703,3412
1308.2047184221678,3485
1310.3193312773528,3446
1312.4333862283888,3384
1314.5468835168163,3446
1316.659823384255,3372
1318.7722060724045,3371
1320.8840318230418,3279
1322.9953008780249,3392
1325.1060134792888,3449
1327.2161698688478,3448
1329.3257702887959,3431
1331.4348149813054,3300
1333.5433041886276,3339
1335.6512381530933,3480
1337.7586171171101,3380
1339.8654413231675,3444
1341.9717110138317,3454
1344.0774264317488,3403
1346.1825878196432,3322
1348.2871954203192,3453
1350.3912494766587,3413
1352.4947502316231,3465
1354.5976979282532,3388
1356.7000928096686,3376
1358.8019351190665,3348
1360.9032250997243,3386
1363.0039629949988,3313
1365.1041490483235,3404
1367.2037835032133,3462
1369.3028666032606,3371
1371.401398592137,3405
1373.4993797135926,3412
1375.5968102114575,3376
1377.6936903296396,3447
1379.7900203121262,3363
1381.8858004029835,3380
1383.9810308463561,3429
1386.075711886469,3461
1388.1698437676241,3476
1390.2634267342032,3450
1392.356461030667,3470
1394.4489469015557,3538
1396.5408845914872,3464
1398.6322743451592,3440
1400.7231164073469,3502
1402.813411022907,3508
1404.903158436773,3523
1406.9923588939578,3552
1409.0810126395531,3428
1411.1691199187303,3526
1413.2566809767386,3504
1415.343696058907,3580
1417.4301654106425,3503
1419.5160892774315,3543
1421.6014679048399,3563
1423.6863015385125,3481
1425.7705904241707,3479
1427.8543348076178,3590
1429.9375349347342,3552
1432.0201910514802,3683
1434.102303403894,3533
1436.1838722380944,3621
1438.2648978002767,3687
1440.3453803367174,3668
1442.4253200937692,3700
1444.5047173178677,3765
1446.5835722555234,3722
1448.6618851533285,3738
1450.739656257952,3793
1452.8168858161434,3773
1454.8935740747306,3885
1456.96972128062,3847
1459.045327680797,3841
1461.120393522327,3888
1463.1949190523528,3905
1465.2689045180973,3861
1467.3423501668608,3999
1469.415256246024,4115
1471.4876230030463,4056
1473.559450685465,4039
1475.6307395408976,4136
1477.7014898170391,4258
1479.771701761665,4132
1481.8413756226287,4118
1483.9105116478618,4183
1485.9791100853772,4399
1488.0471711832643,4277
1490.1146951896926,4299
1492.1816823529098,4425
1494.2481329212433,4352
1496.3140471430984,4398
1498.3794252669609,4551
1500.4442675413939,4463
1502.5085742150404,4470
1504.572345536622,4461
1506.6355817549388,4636
1508.6982831188702,4644
1510.7604498773744,4631
1512.8220822794883,4675
1514.8831805743293,4720
1516.9437450110909,4741
1519.003775839048,4776
1521.0632733075522,4868
1523.1222376660367,4775
1525.1806691640113,4882
1527.2385680510652,4982
1529.2959345768668,4968
1531.3527689911643,4985
1533.4090715437833,5141
1535.4648424846291,5251
1537.5200820636855,5234
1539.5747905310159,5308
1541.6289681367616,5318
1543.6826151311434,5359
1545.7357317644614,5393
1547.7883182870937,5538
1549.8403749494987,5532
1551.8919020022113,5626
1553.9428996958477,5627
1555.9933682811015,5702
1558.0433080087469,5691
1560.0927191296346,5831
1562.1416018946961,5870
1564.1899565549415,5700
1566.2377833614592,5752
1568.2850825654164,5731
1570.3318544180606,5644
1572.3780991707158,5436
1574.423817074788,5253
1576.4690083817595,5224
1578.5136733431923,5068
1580.5578122107272,4882
1582.601425236085,4725
1584.6445126710646,4635
1586.6870747675434,4453
1588.7291117774776,4456
1590.7706239529034,4290
1592.8116115459347,4228
1594.8520748087658,4159
1596.8920139936686,4127
1598.9314293529933,3934
1600.9703211391711,3910
1603.008689604711,3937
1605.0465350022005,3878
1607.0838575843068,3710
1609.1206576037753,3804
1611.1569353134305,3711
1613.1926909661765,3706
1615.2279248149953,3671
1617.2626371129481,3695
1619.2968281131757,3547
1621.3304980688963,3526
1623.3636472334088,3648
1625.39627586009,3545
1627.428384202396,3621
1629.459972513861,3613
1631.4910410480993,3499
1633.5215900588028,3538
1635.551619799744,3558
1637.5811305247717,3506
1639.6101224878166,3441
1641.6385959428862,3452
1643.6665511440683,3459
1645.693988345528,3473
1647.7209078015112,3457
1649.7473097663405,3398
1651.7731944944203,3488
1653.7985622402307,3531
1655.823413258333,3484
1657.847747803366,3553
1659.8715661300494,3442
1661.8948684931793,3532
1663.9176551476316,3445
1665.9399263483624,3351
1667.9616823504057,3484
1669.982923408873,3452
1672.0036497789574,3489
1674.0238617159293,3383
1676.043559475138,3334
1678.0627433120121,3402
1680.081413482059,3476
1682.0995702408654,3468
1684.117213844096,3443
1686.134344547495,3436
1688.1509626068864,3445
1690.1670682781705,3465
1692.182661817329,3482
1694.1977434804217,3444
1696.2123135235875,3537
1698.226372203043,3453
1700.2399197750851,3494
1702.2529564960905,3393
1704.2654826225112,3536
1706.277498410882,3476
1708.2890041178139,3437
1710.2999999999988,3405
1712.3104863142066,3410
1714.3204633172854,3463
1716.329931266163,3498
1718.3388904178469,3345
1720.3473410294214,3493
1722.3552833580516,3416
1724.3627176609807,3429
1726.3696441955308,3491
1728.3760632191033,3558
1730.3819749891782,3431
1732.3873797633146,3382
1734.3922777991502,3453
1736.3966693544012,3499
1738.4005546868639,3398
1740.4039340544127,3457
1742.406807715001,3520
1744.4091759266616,3349
1746.4110389475054,3447
1748.4123970357223,3389
1750.413250449582,3443
1752.4135994474318,3408
1754.4134442876993,3445
1756.4127852288902,3481
1758.4116225295893,3450
1760.4099564484595,3452
1762.407787244244,3376
1764.405115175764,3354
1766.4019405019203,3435
1768.3982634816916,3466
1770.3940843741357,3429
1772.3894034383907,3406
1774.3842209336717,3351
1776.378537119274,3320
1778.372352254571,3341
1780.3656665990156,3346
1782.3584804121397,3428
1784.3507939535534,3344
1786.3426074829463,3399
1788.3339212600863,3458
1790.3247355448211,3364
1792.3150505970766,3392
1794.3048666768573,3314
1796.2941840442477,3372
1798.2830029594106,3424
1800.2713236825884,3344
1802.2591464741004,3438
1804.2464715943465,3390
1806.2332993038058,3423
1808.2196298630352,3358
1810.2054635326708,3353
1812.190800573428,3421
1814.175641246101,3460
1816.1599858115628,3485
1818.1438345307652,3406
1820.127187664738,3406
1822.1100454745924,3456
1824.092408221516,3432
1826.0742761667766,3419
1828.055649571721,3422
1830.0365286977735,3391
1832.0169138064398,3424
1833.9968051593014,3392
1835.9762030180214,3554
1837.9551076443408,3409
1839.9335193000788,3347
1841.9114382471344,3512
1843.888864747485,3357
1845.8657990631878,3375
1847.842241456378,3381
1849.8181921892697,3371
1851.7936515241558,3363
1853.7686197234098,3357
1855.7430970494815,3389
1857.7170837649014,3367
1859.6905801322787,3412
1861.6635864143004,3387
1863.6361028737338,3420
1865.608129773424,3348
1867.5796673762961,3433
1869.5507159453537,3347
1871.521275743678,3450
1873.4913470344313,3409
1875.4609300808534,3475
1877.4300251462632,3482
1879.3986324940588,3460
1881.366752387717,3452
1883.3343850907936,3471
1885.3015308669228,3490
1887.268189979819,3393
1889.2343626932739,3418
1891.2000492711595,3499
1893.1652499774254,3429
1895.1299650761011,3415
1897.0941948312952,3459
1899.0579395071945,3402
1901.0211993680641,3360
1902.98397467825,3500
1904.9462657021745,3498
1906.9080727043415,3619
1908.869395949332,3472
1910.8302357018065,3581
1912.790592226504,3492
1914.7504657882428,3454
1916.7098566519212,3444
1918.6687650825133,3466
1920.6271913450764,3393
1922.5851357047422,3485
1924.5425984267245,3446
1926.499579776314,3463
1928.4560800188833,3498
1930.4120994198802,3436
1932.367638244833,3443
1934.32269675935,3475
1936.2772752291175,3555
1938.231373919899,3454
1940.1849930975404,3487
1942.1381330279637,3604
1944.0907939771696,3481
1946.0429762112412,3440
1947.9946799963363,3431
1949.9459055986945,3434
1951.896653284633,3469
1953.8469233205478,3504
1955.7967159729142,3477
1957.7460315082863,3526
1959.6948701932974,3493
1961.6432322946594,3396
1963.5911180791632,3524
1965.5385278136787,3434
1967.4854617651545,3517
1969.4319202006182,3505
1971.377903387176,3586
1973.3234115920136,3466
1975.268445082395,3460
1977.2130041256642,3424
1979.1570889892423,3479
1981.1006999406304,3473
1983.04383724741,3490
1984.986501177238,3495
1986.928691997853,3485
1988.8704099770712,3472
1990.811655382789,3492
1992.7524284829801,3456
1994.692729545698,3574
1996.6325588390755,3495
1998.5719166313224,3549
2000.5108031907307,3537
2002.4492187856677,3439
2004.387163684583,3501
2006.3246381560011,3503
2008.2616424685298,3414
2010.1981768908527,3506
2012.1342416917332,3415
2014.069837140014,3544
2016.0049635046162,3465
2017.9396210545406,3503
2019.8738100588666,3530
2021.8075307867502,3492
2023.740783507431,3544
2025.6735684902228,3511
2027.6058860045214,3543
2029.5377363198004,3503
2031.4691197056118,3530
2033.4000364315875,3461
2035.3304867674374,3510
2037.260470982952,3558
2039.189989347998,3556
2041.1190421325232,3429
2043.047629606554,3559
2044.9757520401945,3498
2046.9034097036288,3448
2048.8306028671195,3550
2050.7573318010086,3503
2052.683596775716,3537
2054.609398061742,3540
2056.5347359296647,3513
2058.4596106501403,3527
2060.384022493906,3546
2062.3079717317764,3457
2064.231458634646,3525
2066.1544834734873,3571
2068.077046519352,3564
2069.99914804337,3559
2071.9207883167524,3674
2073.8419676107865,3513
2075.7626861968406,3516
2077.6829443463607,3526
2079.6027423308715,3590
2081.522080421977,3451
2083.440958891362,3533
2085.359378010786,3519
2087.2773380520907,3526
2089.194839287196,3518
2091.111881988101,3519
2093.0284664268825,3479
2094.9445928756973,3574
2096.86026160678,3571
2098.775472892446,3475
2100.690227005088,3599
2102.604524217178,3546
2104.5183648012676,3612
2106.431749029985,3513
2108.34467717604,3581
2110.2571495122206,3586
2112.169166311393,3650
2114.080727846503,3453
2115.9918343905747,3471
2117.902486216711,3528
2119.8126835980956,3578
2121.722426807987,3506
2123.6317161197285,3514
2125.5405518067364,3541
2127.448934142509,3605
2129.356863400624,3548
2131.264339854737,3543
2133.1713637785815,3658
2135.077935445972,3622
2136.9840551308002,3544
2138.889723107037,3612
2140.7949396487334,3453
2142.699705030018,3515
2144.6040195250994,3665
2146.507883408264,3510
2148.4112969538774,3545
2150.3142604363848,3625
2152.2167741303097,3718
2154.1188383102535,3668
2156.0204532508997,3552
2157.9216192270064,3704
2159.822336513414,3639
2161.7226053850413,3601
2163.622426116884,3653
2165.5217989840185,3610
2167.4207242616,3568
2169.319202224862,3623
2171.2172331491165,3736
2173.1148173097563,3659
2175.0119549822507,3698
2176.90864644215,3657
2178.8048919650823,3607
2180.7006918267534,3595
2182.596046302952,3711
2184.4909556695407,3726
2186.3854202024645,3608
2188.279440177746,3582
2190.173015871487,3662
2192.066147559868,3607
2193.958835519149,3644
2195.851080025667,3635
2197.7428813558417,3639
2199.6342397861667,3604
2201.5251555932186,3687
2203.415629053651,3714
2205.3056604441986,3802
2207.19525004167,3737
2209.084398122958,3854
2210.9731049650327,3674
2212.861370844941,3663
2214.749196039812,3857
2216.636580826851,3749
2218.523525483344,3732
2220.410030286655,3760
2222.296095514226,3834
2224.1817214435805,3734
2226.066908352319,3832
2227.951656518121,3839
2229.835966218746,3774
2231.71983773203,3699
2233.6032713358913,3798
2235.486267308324,3712
2237.3688259274036,3817
2239.2509474712824,3840
2241.132632218193,3745
2243.013880446447,3716
2244.8946924344323,3725
2246.7750684606203,3742
2248.6550088035574,3768
2250.534513741871,3805
2252.413583554265,3752
2254.292218519526,3854
2256.170418916517,3785
2258.0481850241786,3771
2259.925517121534,3756
2261.8024154876825,3739
2263.678880401803,3643
2265.5549121431536,3681
2267.430510991071,3783
2269.305677224971,3719
2271.180411124348,3775
2273.0547129687766,3681
2274.9285830379076,3722
2276.8020216114737,3775
2278.6750289692845,3754
2280.5476053912294,3769
2282.4197511572766,3768
2284.2914665474727,3718
2286.162751841943,3788
2288.0336073208937,3846
2289.904033264608,3871
2291.774029953448,3877
2293.6435976678554,3893
2295.5127366883517,3754
2297.381447295534,3734
2299.2497297700825,3770
2301.1175843927526,3725
2302.9850114443825,3722
2304.852011205885,3653
2306.7185839582553,3730
2308.5847299825664,3643
2310.4504495599676,3634
2312.3157429716925,3679
2314.1806104990483,3659
2316.0450524234247,3767
2317.9090690262888,3596
2319.772660589186,3630
2321.635827393742,3531
2323.498569721661,3728
2325.3608878547248,3654
2327.2227820747967,3733
2329.0842526638157,3669
2330.945299903803,3623
2332.805924076857,3674
2334.6661254651535,3610
2336.525904350951,3700
2338.3852610165827,3611
2340.244195744464,3545
2342.102708817088,3673
2343.9608005170253,3688
2345.8184711269287,3644
2347.675720929526,3756
2349.532550207628,3692
2351.38895924412,3645
2353.24494832197,3600
2355.100517724223,3775
2356.955667734004,3659
2358.810398634514,3616
2360.664710709037,3745
2362.5186042409337,3647
2364.3720795136437,3654
2366.225136810686,3778
2368.0777764156583,3783
2369.929998612237,3658
2371.7818036841777,3752
2373.633191915315,3770
2375.484163589562,3609
2377.3347189909114,3686
2379.184858403434,3750
2381.03458211128,3704
2382.8838903986775,3728
2384.732783549936,3673
2386.5812618494406,3638
2388.4293255816588,3808
2390.2769750311327,3715
2392.1242104824883,3658
2393.971032220427,3651
2395.8174405297295,3755
2397.6634356952563,3722
2399.509018001947,3719
2401.3541877348193,3752
2403.1989451789705,3739
2405.043290619576,3728
2406.8872243418905,3718
2408.730746631247,3724
2410.5738577730594,3711
2412.4165580528183,3713
2414.258847756095,3753
2416.100727168537,3858
2417.9421965758734,3760
2419.783256263912,3774
2421.623906518538,3756
2423.4641476257157,3750
2425.303979871491,3652
2427.143403541984,3738
2428.9824189233977,3727
2430.821026302012,3724
2432.6592259641866,3743
2434.497018196361,3683
2436.33440328505,3764
2438.171381516851,3743
2440.00795317844,3754
2441.844118556569,3759
2443.6798779380724,3640
2445.5152316098606,3719
2447.3501798589255,3760
2449.1847229723357,3751
2451.0188612372403,3797
2452.8525949408663,3741
2454.6859243705203,3834
2456.518849813587,3691
2458.3513715575314,3649
2460.183489889895,3818
2462.015205098301,3852
2463.8465174704493,3703
2465.67742729412,3938
2467.5079348571717,3707
2469.338040447542,3823
2471.1677443532476,3675
2472.9970468623833,3786
2474.825948263123,3698
2476.6544488437207,3818
2478.482548892508,3816
2480.310248697896,3726
2482.137548548374,3803
2483.9644487325118,3795
2485.790949538956,3864
2487.617051256433,3858
2489.44275417375,3799
2491.26805857979,3787
2493.0929647635157,3865
2494.917473013971,3821
2496.741583620276,3926
2498.5652968716304,3844
2500.3886130573137,3775
2502.2115324666834,3865
2504.0340553891765,3845
2505.856182114308,3894
2507.6779129316733,3829
2509.499248130945,3920
2511.3201880018764,3821
2513.140732834298,3921
2514.9608829181198,3908
2516.780638543331,3939
2518.6,3845
2520.418967578273,3901
2522.237541568376,3867
2524.0557222606144,3896
2525.8735099453706,3858
2527.6909049131086,3828
2529.507907454368,3808
2531.32451785977,3888
2533.140736420014,4002
2534.9565634258774,3887
2536.771999168218,3957
2538.5870439379714,3880
2540.4016980261526,4091
2542.2159617238544,4010
2544.02983532225,3942
2545.8433191125914,4050
2547.656413386209,3988
2549.4691184345115,4066
2551.2814345489874,4003
2553.093362021204,4043
2554.904901142808,4088
2556.716052205523,4149
2558.526815501153,3970
2560.3371913215824,4083
2562.147179958771,4057
2563.956781704761,4010
2565.7659968516705,4093
2567.5748256916986,4080
2569.3832685171224,4085
2571.1913256202984,4062
2572.9989972936614,4116
2574.806283829725,4088
2576.613185521084,4126
2578.4197026604074,4093
2580.2258355404483,4207
2582.031584454035,4122
2583.836949694077,4184
2585.6419315535613,4145
2587.4465303255533,4284
2589.2507463032002,4241
2591.0545797797245,4143
2592.8580310484303,4276
2594.6611004026995,4155
2596.463788135992,4231
2598.266094541849,4205
2600.0680199138874,4283
2601.869564545807,4240
2603.670728731383,4263
2605.4715127644704,4187
2607.2719169390048,4295
2609.071941548998,4317
2610.8715868885433,4269
2612.670853251811,4191
2614.469740933052,4243
2616.268250226594,4317
2618.0663814268455,4180
2619.864134828292,4222
2621.6615107255006,4202
2623.458509413115,4246
2625.2551311858597,4355
2627.0513763385347,4208
2628.8472451660223,4166
2630.6427379632833,4176
2632.4378550253564,4184
2634.232596647359,4148
2636.026963124488,4171
2637.8209547520187,4265
2639.6145718253065,4109
2641.407814639785,4112
2643.200683490966,4310
2644.9931786744414,4067
2646.7853004858807,4118
2648.577049221034,4075
2650.3684251757277,4097
2652.1594286458712,4097
2653.9500599274484,4159
2655.740319316525,4059
2657.5302071092437,3970
2659.3197236018286,4108
2661.10886909058,4170
2662.8976438718782,4184
2664.686048242183,4045
2666.4740824980327,4061
2668.2617469360443,4106
2670.0490418529134,4110
2671.8359675454153,4097
2673.622524310403,4144
2675.408712444811,4132
2677.1945322456495,4013
2678.979984010009,3988
2680.76506803506,3968
2682.5497846180497,4022
2684.334134056306,4064
2686.1181166472343,3937
2687.9017326883213,3942
2689.6849824771293,4009
2691.4678663113013,4018
2693.2503844885596,4028
2695.032537306705,3986
2696.8143250636167,3976
2698.5957480572542,3899
2700.3768065856534,4019
2702.1575009469316,4016
2703.937831439283,3990
2705.717798360982,3974
2707.4974020103837,4057
2709.276642685917,3840
2711.055520686095,3936
2712.834036309506,3883
2714.612189854819,3982
2716.389981620782,3936
2718.1674119062204,3881
2719.944481010041,3979
2721.721189231226,4050
2723.4975368688415,3951
2725.273524222027,3934
2727.0491515900053,4002
2728.824419272075,3855
2730.5993275676146,4011
2732.3738767760838,3901
2734.148067197016,3914
2735.921899130031,3995
2737.6953728748194,3938
2739.468488731156,4009
2741.2412469988926,3967
2743.0136479779617,4010
2744.785691968372,4016
2746.5573792702116,3981
2748.3287101836504,3943
2750.099685008934,3972
2751.870304046388,3858
2753.640567596418,3922
2755.4104759595057,3863
2757.1800294362156,3902
2758.949228327187,3932
2760.7180729331412,4008
2762.486563554877,4142
2764.254700493272,3924
2766.022484049284,4008
2767.789914523947,3945
2769.5569922183786,4014
2771.3237174337705,4049
2773.090090471394,3855
2774.8561116326036,3927
2776.6217812188274,4001
2778.3870995315756,3926
2780.1520668724356,3922
2781.9166835430747,4023
2783.6809498452394,3904
2785.444866080754,4013
2787.2084325515225,3830
2788.971649559527,3938
2790.73451740683,3976
2792.4970363955713,3936
2794.2592068279705,4080
2796.0210290063264,3996
2797.7825032330147,3978
2799.543629810493,3952
2801.304409041296,3985
2803.0648412280366,3894
2804.8249266734088,4056
2806.5846656801846,4098
2808.344058551212,4012
2810.1031055894246,4020
2811.8618070978273,3983
2813.6201633795085,4012
2815.378174737636,3951
2817.1358414754536,3971
2818.893163896285,3998
2820.6501423035334,4007
2822.4067770006814,4006
2824.1630682912883,3929
2825.9190164789957,4115
2827.6746218675207,4013
2829.429884760661,4138
2831.184805462294,4044
2832.9393842763743,4072
2834.693621506936,4071
2836.4475174580916,4037
2838.201072434034,4014
2839.954286739034,3983
2841.707160677441,3978
2843.459694553685,3969
2845.2118886722724,3952
2846.96374333779,4022
2848.7152588549034,4062
2850.4664355283567,4058
2852.217273662973,4096
2853.9677735636546,4089
2855.7179355353833,3999
2857.4677598832186,4051
2859.217246912299,4091
2860.9663969278427,4032
2862.715210235146,4060
2864.4636871395846,3982
2866.211827946614,4046
2867.9596329617652,3955
2869.7071024906536,3952
2871.4542368389684,4078
2873.20103631248,3944
2874.947501217038,3954
2876.6936318585695,3929
2878.4394285430812,4035
2880.1848915766604,3973
2881.9300212654707,3997
2883.6748179157553,3910
2885.4192818338374,4070
2887.1634133261173,4000
2888.907212699077,3911
2890.6506802592744,4064
2892.393816313348,4141
2894.1366211680142,3999
2895.8790951300693,4010
2897.621238506388,4050
2899.363051603925,4042
2901.1045347297118,4084
2902.8456881908596,4022
2904.58651229456,4109
2906.327007348081,3994
2908.067173658772,3998
2909.8070115340597,4003
2911.5465212814497,3968
2913.285703208527,3994
2915.0245576229563,4028
2916.7630848324807,3950
2918.5012851449196,3899
2920.2391588681758,4088
2921.976706310227,4075
2923.7139277791334,3996
2925.4508235830313,3981
2927.187394030137,4106
2928.923639428745,4039
2930.6595600872306,4074
2932.395156314046,4061
2934.1304284177218,4108
2935.8653767068713,4157
2937.6000014901815,4053
2939.3343030764227,4038
2941.068281774442,4006
2942.8019378931644,3971
2944.5352717415976,4112
2946.2682836288236,4170
2948.0009738640065,4102
2949.7333427563885,4070
2951.465390615289,4102
2953.1971177501086,4103
2954.9285244703265,4081
2956.6596110855,4074
2958.3903779052657,4216
2960.1208252393385,4133
2961.8509533975125,4094
2963.5807626896617,4094
2965.3102534257378,4040
2967.0394259157715,4038
2968.768280469873,4016
2970.496817398232,4101
2972.2250370111146,4100
2973.952939618869,4108
2975.6805255319196,4031
2977.4077950607707,4116
2979.134748516006,4164
2980.861386208289,4188
2982.587708448359,4113
2984.313715547037,4259
2986.039407815222,4229
2987.764785563891,4308
2989.489849104102,4145
2991.2145987469908,4184
2992.9390348037705,4044
2994.6631575857346,4161
2996.3869674042576,4110
2998.1104645707887,4088
2999.83364939686,4171
3001.5565221940783,4164
3003.2790832741334,4048
3005.0013329487924,4075
3006.7232715298996,4102
3008.4448993293804,4000
3010.166216659239,4051
3011.887223831558,4094
3013.607921158498,3985
3015.3283089522993,4133
3017.0483875252826,4083
3018.7681571898443,4084
3020.4876182584626,4164
3022.2067710436927,4309
3023.9256158581707,4265
3025.644153014609,4116
3027.362382825801,4142
3029.0803056046193,4170
3030.797921664012,4024
3032.5152313170106,4108
3034.2322348767225,3994
3035.9489326563353,4220
3037.665324969115,4202
3039.3814121284063,4062
3041.097194447633,4154
3042.812672240299,4140
3044.5278458199855,4185
3046.2427155003525,4146
3047.9572815951406,4114
3049.671544418167,4217
3051.38550428333,4185
3053.0991615046073,4111
3054.812516396051,4157
3056.5255692717974,4064
3058.2383204460575,4056
3059.9507702331257,4108
3061.662918947372,4135
3063.3747669032446,4105
3065.0863144152736,4089
3066.7975617980674,4187
3068.508509366309,4232
3070.219157434767,4231
3071.9295063182844,4267
3073.639556331785,4135
3075.3493077902704,4199
3077.058761008821,4230
3078.7679163025964,4301
3080.476773986837,4287
3082.1853343768594,4273
3083.89359778806,4221
3085.6015645359153,4254
3087.3092349359786,4266
3089.016609303884,4266
3090.7236879553434,4190
3092.4304712061476,4211
3094.136959372166,4321
3095.843152769349,4178
3097.5490517137237,4206
3099.2546565213966,4206
3100.959967508554,4266
3102.66498499146,4343
3104.3697092864577,4232
3106.0741407099695,4197
3107.778279578498,4272
3109.482126208622,4155
3111.1856809170004,4229
3112.8889440203716,4184
3114.5919158355528,4231
3116.294596679439,4190
3117.996986869006,4335
3119.6990867213062,4123
3121.4008965534726,4242
3123.102416682717,4213
3124.803647426329,4364
3126.5045891016784,4268
3128.205242026213,4324
3129.90560651746,4278
3131.605682893025,4385
3133.3054714705922,4331
3135.0049725679282,4409
3136.7041865028714,4317
3138.4031135933465,4323
3140.101754157353,4281
3141.800108512971,4251
3143.498176978357,4320
3145.1959598717494,4253
3146.8934575114636,4251
3148.5906702158954,4261
3150.2875983035183,4202
3151.9842420928853,4254
3153.680601902627,4175
3155.376678051456,4353
3157.07247085816,4240
3158.767980641609,4178
3160.463207720748,4291
3162.158152414606,4224
3163.8528150422862,4233
3165.5471959229726,4300
3167.2412953759303,4234
3168.9351137204976,4271
3170.628651276098,4248
3172.3219083622307,4281
3174.014885298474,4242
3175.707582404485,4289
3177.4000000000005,4282
3179.092138404835,4335
3180.7839979388846,4412
3182.47557892212,4302
3184.166881674594,4252
3185.8579065164386,4250
3187.5486537678626,4316
3189.2391237491547,4278
3190.9293167806827,4285
3192.6192331828934,4307
3194.3088732763117,4200
3195.998237381542,4198
3197.687325819268,4298
3199.376138910251,4327
3201.064676975334,4306
3202.7529403354347,4196
3204.4409293115523,4301
3206.1286442247647,4328
3207.816085396229,4164
3209.5032531471825,4266
3211.190147798936,4132
3212.8767696728846,4224
3214.5631190905015,4286
3216.2491963733373,4158
3217.9350018430214,4163
3219.6205358212637,4187
3221.305798629851,4229
3222.990790590651,4148
3224.6755120256103,4214
3226.359963256751,4193
3228.0441446061795,4244
3229.7280563960758,4138
3231.411698948703,4261
3233.0950725863995,4179
3234.778177631587,4152
3236.461014406761,4264
3238.1435832345005,4438
3239.8258844374595,4215
3241.507918338374,4324
3243.1896852600576,4311
3244.8711855254023,4319
3246.552419457381,4281
3248.233387379042,4443
3249.914089613516,4364
3251.59452648401,4315
3253.274698313813,4256
3254.95460542629,4259
3256.6342481448855,4227
3258.313626793125,4237
3259.9927416946084,4221
3261.6715931730196,4173
3263.3501815521176,4312
3265.0285071557437,4239
3266.706570307815,4106
3268.3843713323286,4244
3270.0619105533615,4266
3271.739188295068,4303
3273.4162048816834,4497
3275.0929606375184,4350
3276.769455886966,4266
3278.445690954498,4255
3280.1216661646613,4283
3281.797381842087,4366
3283.4728383114807,4374
3285.1480358976296,4252
3286.8229749253996,4280
3288.4976557197333,4282
3290.172078605655,4252
3291.846243908266,4295
3293.5201519527463,4122
3295.193803064357,4185
3296.8671975684374,4343
3298.5403357904024,4202
3300.21321805575,4185
3301.8858446900567,4263
3303.558216018975,4396
3305.23033236824,4286
3306.9021940636603,4400
3308.57380143113,4258
3310.2451547966184,4215
3311.916254486174,4281
3313.5871008259246,4387
3315.2576941420766,4305
3316.9280347609147,4254
3318.5981230088046,4243
3320.2679592121895,4230
3321.9375436975924,4182
3323.606876791612,4211
3325.27595882093,4206
3326.944790112305,4237
3328.6133709925753,4270
3330.2817017886573,4186
3331.949782827547,4252
3333.617614436319,4324
3335.2851969421245,4309
3336.952530672199,4402
3338.619615953853,4479
3340.286453114475,4346
3341.9530424815357,4318
3343.619384382583,4423
3345.2854791452437,4330
3346.951327097224,4305
3348.6169285663073,4358
3350.2822838803577,4381
3351.947393367319,4475
3353.61225735521,4307
3355.2768761721345,4395
3356.9412501462693,4411
3358.605379605873,4244
3360.2692648792827,4327
3361.9329062949146,4509
3363.596304181263,4309
