CollectionTime,7/11/2024 11:51:40 AM
ExposureUsed,3
CalibratedSpectrum
-962.7078968117929,584
-959.9714848408522,594
-957.2358232597828,607
-954.5009119013725,596
-951.7667505983302,604
-949.0333391832855,638
-946.3006774887896,631
-943.5687653473143,609
-940.837602591253,578
-938.1071890529199,592
-935.3775245645503,602
-932.6486089583007,634
-929.9204420662485,646
-927.1930237203925,624
-924.4663537526524,634
-921.7404319948689,654
-919.0152582788041,646
-916.2908324361409,687
-913.5671542984834,657
-910.8442236973568,610
-908.1220404642074,602
-905.4006044304027,617
-902.679915427231,648
-899.959973285902,585
-897.2407778375464,581
-894.5223289132158,595
-891.8046263438832,594
-889.0876699604426,589
-886.3714595937089,605
-883.6559950744183,621
-880.9412762332282,601
-878.2273029007168,601
-875.5140749073835,574
-872.8015920836489,588
-870.0898542598545,565
-867.3788612662631,555
-864.6686129330585,592
-861.9591090903457,597
-859.2503495681506,593
-856.5423341964203,587
-853.8350628050229,604
-851.1285352237478,602
-848.4227512823054,616
-845.7177108103272,611
-843.0134136373656,576
-840.3098595928943,596
-837.6070485063082,621
-834.9049802069229,624
-832.2036545239757,592
-829.5030712866244,601
-826.8032303239481,588
-824.1041314649472,621
-821.4057745385428,599
-818.7081593735775,613
-816.0112857988148,585
-813.3151536429393,565
-810.6197627345566,611
-807.9251129021936,610
-805.2312039742981,610
-802.5380357792392,620
-799.8456081453069,601
-797.1539209007124,632
-794.462973873588,606
-791.772766891987,616
-789.083299783884,602
-786.3945723771743,603
-783.7065844996748,598
-781.0193359791231,596
-778.3328266431781,594
-775.6470563194197,615
-772.9620248353489,609
-770.2777320183878,616
-767.5941776958798,607
-764.9113616950891,643
-762.2292838432011,604
-759.5479439673222,630
-756.8673418944801,640
-754.1874774516235,651
-751.5083504656222,600
-748.8299607632671,629
-746.15230817127,609
-743.475392516264,650
-740.7992136248035,667
-738.1237713233636,630
-735.4490654383407,629
-732.7750957960521,647
-730.1018622227365,665
-727.4293645445534,663
-724.7576025875837,644
-722.0865761778291,626
-719.4162851412126,669
-716.7467293035781,675
-714.0779084906909,660
-711.409822528237,633
-708.7424712418238,649
-706.0758544569796,653
-703.4099719991541,675
-700.7448236937178,694
-698.0804093659622,742
-695.4167288411002,706
-692.7537819442656,645
-690.0915685005134,675
-687.4300883348199,669
-684.7693412720819,685
-682.1093271371178,706
-679.4500457546669,671
-676.7914969493897,663
-674.1336805458676,674
-671.4765963686034,689
-668.8202442420206,719
-666.1646239904642,686
-663.5097354382001,657
-660.8555784094151,687
-658.2021527282176,718
-655.5494582186366,712
-652.8974947046223,698
-650.2462620100463,718
-647.5957599587009,672
-644.9459883742998,662
-642.2969470804776,693
-639.6486359007902,739
-637.0010546587141,726
-634.3542031776476,735
-631.7080812809096,741
-629.0626887917401,707
-626.4180255333008,743
-623.7740913286734,722
-621.1308860008619,777
-618.4884093727904,734
-615.8466612673046,709
-613.2056415071715,731
-610.5653499150785,710
-607.9257863136347,733
-605.28695052537,710
-602.6488423727357,730
-600.0114616781036,705
-597.3748082637674,697
-594.7388819519412,745
-592.1036825647604,776
-589.4692099242818,848
-586.8354638524829,757
-584.2024441712624,720
-581.5701507024403,707
-578.9385832677575,741
-576.3077416888759,758
-573.6776257873787,767
-571.0482353847704,759
-568.4195703024757,786
-565.7916303618415,751
-563.164415384135,773
-560.5379251905453,782
-557.9121596021815,737
-555.2871184400748,760
-552.6628015251767,753
-550.0392086783606,758
-547.4163397204204,751
-544.794194472071,774
-542.1727727539491,770
-539.5520743866118,825
-536.9320991905377,806
-534.3128469861261,849
-531.6943175936979,886
-529.0765108334947,905
-526.4594265256793,917
-523.8430644903358,970
-521.2274245474689,1065
-518.612506517005,1122
-515.9983102187913,1117
-513.3848354725959,1129
-510.77208209810846,1210
-508.16004991493924,1209
-505.5487387426199,1281
-502.9381484006032,1482
-500.3282787082628,1488
-497.71912948489364,1537
-495.1107005497117,1579
-492.5029917218539,1412
-489.8960028203786,1287
-487.28973366426493,1166
-484.68418407241325,1082
-482.07935386364494,988
-479.47524285670266,973
-476.87185087025,956
-474.2691777228715,987
-471.66722323307334,943
-469.0659872192821,982
-466.4654694998459,971
-463.86566989303384,981
-461.26658821703614,950
-458.66822428996414,950
-456.07057792985,948
-453.4736489546475,952
-450.877437182231,948
-448.28194243039627,921
-445.68716451686,913
-443.09310325926003,925
-440.49975847515555,914
-437.9071299820263,923
-435.31521759727354,952
-432.72402113821954,932
-430.13354042210767,992
-427.5437752661022,1006
-424.95472548728867,959
-422.36639090267386,976
-419.7787713291855,973
-417.1918665836721,1049
-414.60567648290385,1043
-412.0202008435715,1001
-409.4354394822874,1059
-406.8513922155845,1028
-404.26805885991723,1056
-401.685439231661,1065
-399.103533147112,1016
-396.522340422488,987
-393.9418608739278,1017
-391.3620943174908,998
-388.7830405691583,943
-386.2046994448317,941
-383.6270707603344,912
-381.05015433141045,850
-378.473949973725,801
-375.8984575028645,711
-373.32367673433623,723
-370.74960748356875,727
-368.1762495659117,747
-365.60360279663576,613
-363.03166699093265,552
-360.4604419639154,517
-357.8899275306178,528
-355.32012350599507,538
-352.7510297049233,528
-350.1826459421999,491
-347.61497203254316,466
-345.04800779059235,490
-342.4817530309082,510
-339.91620756797226,563
-337.35137121618743,533
-334.7872437898774,546
-332.22382510328725,541
-329.66111497058273,492
-327.09911320585127,505
-324.53781962310075,512
-321.9772340362607,515
-319.4173562591816,470
-316.8581861056348,453
-314.2997233893127,454
-311.7419679238294,447
-309.1849195227194,488
-306.62857799943856,536
-304.0729431673641,577
-301.51801483979375,536
-298.963792829947,549
-296.41027695096386,546
-293.85746701590574,574
-291.3053628377552,586
-288.7539642294155,589
-286.2032710037115,557
-283.65328297338897,565
-281.1039999511146,603
-278.5554217494762,592
-276.007548180983,557
-273.4603790580651,548
-270.9139141930734,550
-268.3681533982807,527
-265.8230964858798,559
-263.27874326798565,592
-260.7350935566336,613
-258.1921471637804,590
-255.6499039013039,555
-253.10836358100266,669
-250.56752601459698,665
-248.02739101372765,605
-245.48795838995704,658
-242.94922795476816,608
-240.41119951956557,632
-237.8738728956746,687
-235.33724789434166,644
-232.80132432673452,622
-230.2661020039418,590
-227.73158073697357,635
-225.19776033676033,737
-222.66464061415422,632
-220.1322213799284,616
-217.60050244477725,580
-215.06948361931552,626
-212.53916471408013,729
-210.00954553952818,728
-207.48062590603843,702
-204.9524056239104,700
-202.4248845033651,713
-199.8980623545441,694
-197.37193898751036,708
-194.84651421224817,764
-192.32178783866232,721
-189.79775967657952,747
-187.27442953574644,846
-184.7517972258321,902
-182.2298625564256,855
-179.7086253370378,826
-177.18808537710026,757
-174.66824248596583,728
-172.14909647290835,739
-169.6306471471229,786
-167.11289431772548,814
-164.59583779375328,893
-162.07947738416453,775
-159.5638128978386,882
-157.04884414357605,882
-154.53457093009854,927
-152.02099306604828,834
-149.50811035998936,767
-146.99592262040665,805
-144.48442965570587,889
-141.97363127421409,906
-139.46352728417958,918
-136.95411749377126,949
-134.44540171107985,881
-131.93737974411636,817
-129.43005140081357,905
-126.92341648902493,1135
-124.41747481652521,1373
-121.91222619101006,1445
-119.40767042009657,1398
-116.90380731132257,1284
-114.40063667214702,1452
-111.8981583099503,1620
-109.3963720320337,1342
-106.89527764561933,1393
-104.39487495785067,2356
-101.89516377579241,3212
-99.39614390642998,4021
-96.89781515667039,3907
-94.40017733334128,3847
-91.90323024319173,4512
-89.40697369289148,6494
-86.91140748903172,6762
-84.41653143812482,5371
-81.92234534660395,4829
-79.42884902082358,6365
-76.93604226705907,12042
-74.4439248915071,21758
-71.95249670028534,31273
-69.46175749943245,33131
-66.97170709490854,29169
-64.48234529259423,23148
-61.99367189829195,15955
-59.50568671772464,10542
-57.01838955653636,8023
-54.53178022029283,7510
-52.045858514480074,7051
-49.560624244506016,8202
-47.07607721569923,8673
-44.59221723330904,8309
-42.10904410250669,8110
-39.62655762838392,7347
-37.14475761595372,7046
-34.66364387015028,6628
-32.18321619582866,5954
-29.70347439776515,6771
-27.224418280657005,7530
-24.74604764912317,9278
-22.26836230770266,14801
-19.7913620608565,29120
-17.315046712966478,47902
-14.83941606833514,64256
-12.36446993118659,65037
-9.89020810566592,65037
-7.416630395839093,65037
-4.94373660569363,65037
-2.471526539137585,65037
-6.821210263296962E-13,65037
2.47084320796705,65037
4.941003281093458,65037
7.410480415786196,65037
9.879274808531363,65037
12.347386655893956,65037
14.814816154518212,65037
17.28156350112681,65037
19.74762889252179,65037
22.21301252558385,21378
24.67771459727237,4019
27.141735304626195,2951
29.605074844762612,2906
32.06773341487792,2959
34.52971121224755,2882
36.99100843422559,2855
39.45162527824516,2445
41.91156194181792,2186
44.370818622535126,1834
46.82939551806646,1628
49.287292826160524,1898
51.74451074464503,2634
54.201049471426245,2765
56.65690920448981,1899
59.112090141899785,1565
61.56659248179983,1452
64.02041642241159,1360
66.4735621620365,1273
68.92602989905402,1302
71.37781983192338,1490
73.82893215918205,1658
76.27936707944684,1599
78.72912479141326,1405
81.17820549385567,1669
83.62660938562783,1960
86.07433666566146,1438
88.5213875329681,1108
90.96776218663751,1065
93.41346082583925,977
95.85848364982041,1081
98.30283085790859,1406
100.7465026495089,1311
103.18949922410604,1214
105.63182078126385,1069
108.07346752062438,988
110.51443964190923,950
112.95473734491827,929
115.39436082953114,1110
117.83331029570547,996
120.27158594347827,924
122.7091879729652,1150
125.1461165843615,1128
127.58237197794062,948
130.01795435405518,868
132.4528639131364,840
134.88710085569494,865
137.32066538231982,911
139.75355769367923,937
142.1857779905207,913
144.61732647366978,951
147.04820334403132,957
149.47840880258934,875
151.90794305040674,1032
154.33680628862487,1175
156.76499871846443,1365
159.19252054122433,1500
161.61937195828352,1580
164.04555317109896,1755
166.47106438120693,1925
168.89590579022217,2161
171.320077599839,2203
173.7435800118302,2397
176.16641322804742,2604
178.58857745042144,2746
181.01007288096173,2904
183.43089972175687,2780
185.85105817497413,2644
188.27054844285988,2672
190.6893707277394,2662
193.10752523201643,2802
195.5250121581745,2841
197.9418317087751,2885
200.3579840864594,2815
202.7734694939469,2874
205.18828813403627,3048
207.6024402096051,3028
210.01592592360964,2975
212.42874547908548,2996
214.84089907914665,2913
217.2523869269868,2890
219.66320922587727,2864
222.0733661791695,2785
224.48285799029293,2806
226.8916848627572,2846
229.29984700014882,2869
231.7073446061355,2889
234.11417788446204,2974
236.520347038953,2885
238.92585227351185,2921
241.33069379212054,2993
243.73487179884035,3032
246.1383864978112,3019
248.541238093252,2939
250.9434267894609,2920
253.34495279081432,2976
255.74581630176783,2864
258.1460175268563,3014
260.54555667069314,2879
262.9444339379703,2872
265.3426495334594,2945
267.7402036620107,2844
270.1370965285529,2892
272.53332833809407,2873
274.9288992957214,2709
277.32380960660055,2675
279.718059475976,2584
282.1116491091717,2694
284.5045787115897,2579
286.89684848871195,2512
289.2884586460981,2535
291.67940938938807,2634
294.0697009242996,2706
296.4593334566299,2586
298.84830719225477,2538
301.23662233712923,2508
303.6242790972866,2453
306.01127767884,2469
308.39761828798066,2447
310.78330113097934,2428
313.16832641418534,2368
315.5526943440269,2328
317.9364051270112,2377
320.3194589697242,2372
322.70185607883093,2459
325.0835966610754,2317
327.4646809232805,2270
329.8451090723478,2250
332.2248813152577,2227
334.6039978590701,2267
336.9824589109231,2285
339.36026467803447,2235
341.7374153677,2222
344.113911187295,2211
346.48975234427337,2189
348.8649390461686,2120
351.2394715005918,2198
353.61334991523415,2209
355.9865744978655,2148
358.35914545633375,2255
360.73106299856715,2197
363.10232733257146,2160
365.47293866643247,2165
367.84289720831396,2154
370.2122031664593,2071
372.5808567491905,2052
374.9488581649083,2085
377.31620762209275,2069
379.6829053293021,2116
382.0489514951745,2036
384.4143463284262,2110
386.7790900378528,2049
389.14318283232853,1955
391.50662492080653,2050
393.86941651231916,2054
396.23155781597745,2031
398.5930490409713,2022
400.9538903965696,2082
403.3140820921202,2024
405.6736243370498,2028
408.03251734086336,2091
410.3907613131465,2046
412.74835646356166,2036
415.10530300185144,1973
417.4616011378372,1997
419.81725108141893,1939
422.1722530425758,1958
424.5266072313656,1971
426.880313857925,1957
429.2333731324701,1906
431.58578526529516,1956
433.9375504667738,1962
436.2886689473588,1940
438.63914091758113,1938
440.9889665880513,1973
443.33814616945835,1963
445.68667987257015,1897
448.03456790823395,1940
450.3818104873759,1976
452.72840782100013,1864
455.07436012019105,1828
457.41966759611057,1923
459.7643304600007,1898
462.10834892318155,1949
464.4517231970525,1920
466.79445349309174,1968
469.1365400228566,1953
471.4779829979826,1993
473.81878263018564,1917
476.15893913125876,1962
478.4984527130747,1971
480.8373235875855,2000
483.17555196682144,2080
485.5131380628919,2198
487.8500820879857,2166
490.1863842543697,2402
492.52204477439034,2635
494.8570638604725,2684
497.1914417251204,2999
499.52517858091653,3161
501.85827464052306,3171
504.19073011668036,3074
506.5225452222086,3031
508.85372017000566,2912
511.18425517304956,3063
513.514150444396,3158
515.8434061971808,3738
518.1720226446176,4316
520.4999999999999,4466
522.8273384766991,4052
525.1540382881666,3859
527.480099647932,3497
529.8055227696037,3000
532.1303078668694,2422
534.454455153496,2198
536.777964843328,2091
539.1008371502907,2040
541.4230722883866,1994
543.744670471698,1910
546.0656319143858,1972
548.3859568306899,2025
550.7056454349294,1939
553.0246979415016,1863
555.3431145648834,1901
557.6608955196306,1905
559.978041020377,1953
562.2945512818363,1946
564.6104265188006,1910
566.9256669461412,1941
569.2402727788082,1884
571.5542442318302,1948
573.8675815203156,1949
576.1802848594508,1897
578.4923544645015,1964
580.8037905508126,2000
583.114593333807,1990
585.4247630289875,1928
587.7342998519354,1887
590.0432040183106,1938
592.3514757438526,1922
594.6591152443794,2022
596.9661227357875,2014
599.2724984340531,1990
601.578242555231,1922
603.8833553154542,2013
606.1878369309362,2069
608.4916876179676,1929
610.7949075929192,1877
613.0974970722403,2021
615.3994562724587,1933
617.7007854101818,1953
620.0014847020951,1965
622.3015543649641,1884
624.6009946156324,2021
626.8998056710224,1964
629.1979877481361,1924
631.4955410640538,2042
633.7924658359349,1982
636.0887622810175,1945
638.3844306166192,1983
640.6794710601358,2044
642.9738838290426,1994
645.2676691408932,2014
647.5608272133207,1946
649.853358264037,2031
652.1452625108324,1946
654.4365401715764,2011
656.7271914642178,2004
659.0172166067838,2084
661.3066158173809,2081
663.5953893141935,2059
665.8835373154867,1991
668.1710600396028,2015
670.4579577049639,2054
672.7442305300709,2004
675.0298787335033,1989
677.3149025339197,2001
679.599302150058,2008
681.8830778007342,1998
684.1662297048437,1994
686.4487580813608,1962
688.7306631493387,2024
691.0119451279091,2082
693.2926042362834,2046
695.5726406937516,2102
697.8520547196814,1961
700.1308465335215,1971
702.4090163547982,1970
704.6865644031171,2000
706.9634908981619,1998
709.2397960596965,2041
711.5154801075631,2062
713.7905432616823,1999
716.0649857420548,2088
718.3388077687592,2006
720.612009561953,1977
722.8845913418733,1945
725.1565533288352,1930
727.427895743234,1996
729.6986188055427,1978
731.9687227363137,2012
734.238207756178,2055
736.5070740858458,1918
738.7753219461066,1972
741.0429515578281,1954
743.3099631419569,2005
745.5763569195191,2069
747.8421331116193,1909
750.1072919394409,1992
752.3718336242467,1970
754.6357583873777,2052
756.8990664502545,1967
759.1617580343765,2000
761.423833361321,1953
763.6852926527457,1987
765.9461361303862,1986
768.206364016058,2003
770.4659765316536,2026
772.7249738991469,2007
774.9833563405886,2053
777.2411240781092,1934
779.4982773339183,2002
781.7548163303044,2041
784.010741289634,1995
786.2660524343538,2121
788.5207499869881,2061
790.7748341701416,2009
793.0283052064964,2036
795.2811633188143,2069
797.5334087299362,2022
799.7850416627813,2009
802.0360623403484,2019
804.2864709857143,2047
806.5362678220353,2006
808.7854530725468,2037
811.0340269605625,2018
813.2819897094754,2070
815.5293415427581,2084
817.77608268396,2134
820.0222133567116,2053
822.2677337847211,2081
824.5126441917765,2141
826.7569448017433,2030
829.0006358385675,1958
831.2437175262731,1979
833.4861900889629,2052
835.7280537508192,2045
837.9693087361026,2028
840.2099552691533,2008
842.4499935743896,2087
844.689423876309,2033
846.9282463994886,2023
849.1664613685833,2025
851.4040690083276,2008
853.6410695435349,2000
855.877463199097,2112
858.1132501999847,2021
860.3484307712487,2004
862.5830051380175,2104
864.8169735254988,2096
867.0503361589791,2070
869.2830932638243,2068
871.5152450654786,2117
873.7467917894654,2039
875.9777336613873,2036
878.2080709069252,2118
880.4378037518389,2117
882.666932421968,2053
884.8954571432301,2038
887.1233781416219,2078
889.3506956432192,2097
891.5774098741766,2100
893.803521060728,2095
896.0290294291852,2137
898.2539352059397,2068
900.4782386174619,2124
902.7019398903011,2088
904.925039251085,2138
907.147536926521,2139
909.3694331433943,2021
911.59072812857,2067
913.8114221089921,2058
916.0315153116827,2069
918.2510079637437,2064
920.4699002923547,2050
922.6881925247761,2042
924.905884888345,2054
927.1229776104793,2060
929.3394709186747,2032
931.555365040506,2006
933.7706602036275,2034
935.9853566357709,2046
938.1994545647489,2054
940.4129542184515,2061
942.6258558248488,1964
944.8381596119883,2028
947.0498658079974,1985
949.2609746410825,1970
951.4714863395287,2024
953.6814011316998,1950
955.8907192460387,2008
958.0994409110671,1986
960.3075663553858,2020
962.5150958076741,2051
964.7220294966913,1975
966.928367651274,1975
969.1341105003388,1953
971.3392582728806,1982
973.5438111979742,1888
975.747769504772,1948
977.9511334225061,1932
980.153903180487,1856
982.3560790081052,1915
984.5576611348289,1914
986.7586497902058,1877
988.9590452038618,1943
991.158847605503,1895
993.3580572249133,1913
995.5566742919558,1852
997.7546990365728,1822
999.952131688785,1807
1002.1489724786926,1749
1004.3452216364743,1728
1006.5408793923874,1789
1008.7359459767691,1728
1010.9304216200343,1756
1013.1243065526781,1720
1015.3176010052733,1722
1017.510305208472,1739
1019.7024193930064,1712
1021.8939437896848,1698
1024.0848786293977,1726
1026.2752241431122,1688
1028.4649805618747,1706
1030.6541481168115,1707
1032.842727039127,1653
1035.0307175601051,1686
1037.2181199111074,1692
1039.4049343235752,1713
1041.591161029029,1703
1043.7768002590683,1710
1045.9618522453698,1651
1048.1463172196918,1656
1050.3301954138697,1724
1052.513487059818,1678
1054.69619238953,1729
1056.8783116350783,1692
1059.0598450286152,1637
1061.2407928023704,1666
1063.4211551886528,1632
1065.6009324198508,1662
1067.780124728432,1657
1069.9587323469414,1639
1072.1367555080046,1619
1074.314194444325,1617
1076.4910493886855,1661
1078.667320573947,1626
1080.843008233051,1673
1083.0181125990161,1607
1085.1926339049414,1625
1087.3665723840027,1658
1089.5399282694575,1561
1091.7127017946405,1599
1093.8848931929647,1571
1096.0565026979243,1601
1098.2275305430899,1668
1100.3979769621128,1641
1102.567842188722,1571
1104.737126456726,1585
1106.9058300000124,1571
1109.0739530525475,1565
1111.2414958483764,1548
1113.4084586216231,1530
1115.5748416064907,1608
1117.7406450372605,1522
1119.9058691482942,1548
1122.0705141740304,1581
1124.2345803489884,1605
1126.3980679077658,1566
1128.5609770850388,1534
1130.7233081155623,1605
1132.8850612341707,1582
1135.0462366757774,1521
1137.2068346753745,1561
1139.3668554680326,1536
1141.526299288901,1563
1143.68516637321,1494
1145.8434569562655,1522
1148.001171273455,1513
1150.158309560244,1563
1152.3148720521767,1488
1154.470858984876,1531
1156.626270594044,1540
1158.7811071154629,1494
1160.9353687849912,1491
1163.089055838569,1520
1165.242168512213,1524
1167.3947070420209,1534
1169.5466716641677,1527
1171.6980626149075,1464
1173.8488801305748,1494
1175.9991244475814,1480
1178.1487958024186,1544
1180.2978944316555,1453
1182.4464205719428,1516
1184.5943744600072,1496
1186.7417563326567,1533
1188.8885664267755,1491
1191.0348049793297,1498
1193.1804722273619,1462
1195.325568407995,1567
1197.4700937584303,1449
1199.614048515948,1468
1201.7574329179074,1537
1203.900247201746,1500
1206.042491604982,1523
1208.1841663652099,1547
1210.3252717201053,1509
1212.465807907422,1493
1214.6057751649923,1567
1216.7451737307279,1518
1218.8840038426192,1482
1221.0222657387353,1486
1223.1599596572241,1423
1225.2970858363137,1527
1227.4336445143094,1517
1229.5696359295966,1508
1231.705060320639,1506
1233.8399179259786,1542
1235.9742089842384,1513
1238.107933734118,1566
1240.2410924143974,1519
1242.373685263935,1570
1244.5057125216676,1552
1246.6371744266116,1599
1248.7680712178621,1523
1250.898403134593,1508
1253.028170416058,1596
1255.1573733015875,1553
1257.2860120305932,1571
1259.4140868425648,1574
1261.54159797707,1584
1263.6685456737569,1568
1265.7949301723515,1567
1267.9207517126597,1600
1270.046010534565,1591
1272.1707068780306,1649
1274.2948409830983,1647
1276.4184130898889,1568
1278.541423438603,1586
1280.6638722695184,1545
1282.785759822993,1574
1284.9070863394636,1595
1287.0278520594447,1629
1289.1480572235314,1578
1291.2677020723963,1593
1293.3867868467923,1587
1295.5053117875495,1626
1297.623277135579,1677
1299.740683131868,1632
1301.8575300174857,1699
1303.973818033578,1706
1306.0895474213703,1651
1308.2047184221678,1638
1310.3193312773528,1629
1312.4333862283888,1635
1314.5468835168163,1669
1316.659823384255,1652
1318.7722060724045,1628
1320.8840318230418,1679
1322.9953008780249,1677
1325.1060134792888,1676
1327.2161698688478,1627
1329.3257702887959,1685
1331.4348149813054,1607
1333.5433041886276,1675
1335.6512381530933,1672
1337.7586171171101,1664
1339.8654413231675,1698
1341.9717110138317,1685
1344.0774264317488,1717
1346.1825878196432,1659
1348.2871954203192,1638
1350.3912494766587,1666
1352.4947502316231,1624
1354.5976979282532,1666
1356.7000928096686,1668
1358.8019351190665,1623
1360.9032250997243,1626
1363.0039629949988,1598
1365.1041490483235,1620
1367.2037835032133,1658
1369.3028666032606,1700
1371.401398592137,1626
1373.4993797135926,1656
1375.5968102114575,1682
1377.6936903296396,1631
1379.7900203121262,1664
1381.8858004029835,1611
1383.9810308463561,1649
1386.075711886469,1709
1388.1698437676241,1675
1390.2634267342032,1772
1392.356461030667,1667
1394.4489469015557,1695
1396.5408845914872,1701
1398.6322743451592,1746
1400.7231164073469,1755
1402.813411022907,1727
1404.903158436773,1755
1406.9923588939578,1783
1409.0810126395531,1809
1411.1691199187303,1717
1413.2566809767386,1726
1415.343696058907,1821
1417.4301654106425,1785
1419.5160892774315,1817
1421.6014679048399,1778
1423.6863015385125,1808
1425.7705904241707,1886
1427.8543348076178,1850
1429.9375349347342,1890
1432.0201910514802,1805
1434.102303403894,1891
1436.1838722380944,1842
1438.2648978002767,1912
1440.3453803367174,1892
1442.4253200937692,1901
1444.5047173178677,1994
1446.5835722555234,1964
1448.6618851533285,2050
1450.739656257952,2045
1452.8168858161434,2064
1454.8935740747306,2101
1456.96972128062,2118
1459.045327680797,2130
1461.120393522327,2197
1463.1949190523528,2156
1465.2689045180973,2246
1467.3423501668608,2280
1469.415256246024,2329
1471.4876230030463,2330
1473.559450685465,2357
1475.6307395408976,2405
1477.7014898170391,2314
1479.771701761665,2441
1481.8413756226287,2521
1483.9105116478618,2540
1485.9791100853772,2515
1488.0471711832643,2709
1490.1146951896926,2668
1492.1816823529098,2631
1494.2481329212433,2724
1496.3140471430984,2746
1498.3794252669609,2850
1500.4442675413939,2878
1502.5085742150404,2818
1504.572345536622,2923
1506.6355817549388,2993
1508.6982831188702,2956
1510.7604498773744,3057
1512.8220822794883,3043
1514.8831805743293,3052
1516.9437450110909,3072
1519.003775839048,3082
1521.0632733075522,3184
1523.1222376660367,3276
1525.1806691640113,3233
1527.2385680510652,3241
1529.2959345768668,3372
1531.3527689911643,3439
1533.4090715437833,3536
1535.4648424846291,3476
1537.5200820636855,3532
1539.5747905310159,3580
1541.6289681367616,3627
1543.6826151311434,3706
1545.7357317644614,3783
1547.7883182870937,3801
1549.8403749494987,3904
1551.8919020022113,3972
1553.9428996958477,4083
1555.9933682811015,4053
1558.0433080087469,4098
1560.0927191296346,4179
1562.1416018946961,4186
1564.1899565549415,4171
1566.2377833614592,4077
1568.2850825654164,3967
1570.3318544180606,3816
1572.3780991707158,3744
1574.423817074788,3619
1576.4690083817595,3434
1578.5136733431923,3262
1580.5578122107272,3185
1582.601425236085,3017
1584.6445126710646,2779
1586.6870747675434,2756
1588.7291117774776,2697
1590.7706239529034,2563
1592.8116115459347,2417
1594.8520748087658,2333
1596.8920139936686,2268
1598.9314293529933,2237
1600.9703211391711,2133
1603.008689604711,2120
1605.0465350022005,2032
1607.0838575843068,2011
1609.1206576037753,1980
1611.1569353134305,1906
1613.1926909661765,1915
1615.2279248149953,1874
1617.2626371129481,1833
1619.2968281131757,1747
1621.3304980688963,1801
1623.3636472334088,1823
1625.39627586009,1817
1627.428384202396,1794
1629.459972513861,1713
1631.4910410480993,1694
1633.5215900588028,1721
1635.551619799744,1671
1637.5811305247717,1697
1639.6101224878166,1684
1641.6385959428862,1618
1643.6665511440683,1664
1645.693988345528,1639
1647.7209078015112,1677
1649.7473097663405,1622
1651.7731944944203,1697
1653.7985622402307,1641
1655.823413258333,1586
1657.847747803366,1595
1659.8715661300494,1669
1661.8948684931793,1667
1663.9176551476316,1606
1665.9399263483624,1534
1667.9616823504057,1637
1669.982923408873,1607
1672.0036497789574,1594
1674.0238617159293,1612
1676.043559475138,1627
1678.0627433120121,1600
1680.081413482059,1559
1682.0995702408654,1622
1684.117213844096,1648
1686.134344547495,1586
1688.1509626068864,1611
1690.1670682781705,1546
1692.182661817329,1620
1694.1977434804217,1641
1696.2123135235875,1598
1698.226372203043,1609
1700.2399197750851,1582
1702.2529564960905,1611
1704.2654826225112,1648
1706.277498410882,1591
1708.2890041178139,1580
1710.2999999999988,1567
1712.3104863142066,1631
1714.3204633172854,1600
1716.329931266163,1555
1718.3388904178469,1529
1720.3473410294214,1616
1722.3552833580516,1545
1724.3627176609807,1621
1726.3696441955308,1571
1728.3760632191033,1545
1730.3819749891782,1569
1732.3873797633146,1490
1734.3922777991502,1532
1736.3966693544012,1501
1738.4005546868639,1533
1740.4039340544127,1541
1742.406807715001,1518
1744.4091759266616,1522
1746.4110389475054,1559
1748.4123970357223,1537
1750.413250449582,1488
1752.4135994474318,1547
1754.4134442876993,1543
1756.4127852288902,1564
1758.4116225295893,1495
1760.4099564484595,1500
1762.407787244244,1455
1764.405115175764,1523
1766.4019405019203,1441
1768.3982634816916,1472
1770.3940843741357,1504
1772.3894034383907,1502
1774.3842209336717,1479
1776.378537119274,1510
1778.372352254571,1458
1780.3656665990156,1381
1782.3584804121397,1467
1784.3507939535534,1492
1786.3426074829463,1458
1788.3339212600863,1510
1790.3247355448211,1459
1792.3150505970766,1495
1794.3048666768573,1505
1796.2941840442477,1437
1798.2830029594106,1468
1800.2713236825884,1443
1802.2591464741004,1442
1804.2464715943465,1429
1806.2332993038058,1421
1808.2196298630352,1470
1810.2054635326708,1446
1812.190800573428,1497
1814.175641246101,1453
1816.1599858115628,1489
1818.1438345307652,1417
1820.127187664738,1411
1822.1100454745924,1392
1824.092408221516,1433
1826.0742761667766,1387
1828.055649571721,1464
1830.0365286977735,1461
1832.0169138064398,1417
1833.9968051593014,1488
1835.9762030180214,1488
1837.9551076443408,1439
1839.9335193000788,1406
1841.9114382471344,1390
1843.888864747485,1415
1845.8657990631878,1460
1847.842241456378,1405
1849.8181921892697,1412
1851.7936515241558,1457
1853.7686197234098,1424
1855.7430970494815,1401
1857.7170837649014,1445
1859.6905801322787,1432
1861.6635864143004,1452
1863.6361028737338,1447
1865.608129773424,1464
1867.5796673762961,1389
1869.5507159453537,1490
1871.521275743678,1472
1873.4913470344313,1452
1875.4609300808534,1450
1877.4300251462632,1484
1879.3986324940588,1486
1881.366752387717,1467
1883.3343850907936,1434
1885.3015308669228,1520
1887.268189979819,1485
1889.2343626932739,1435
1891.2000492711595,1479
1893.1652499774254,1431
1895.1299650761011,1488
1897.0941948312952,1464
1899.0579395071945,1474
1901.0211993680641,1430
1902.98397467825,1476
1904.9462657021745,1504
1906.9080727043415,1472
1908.869395949332,1468
1910.8302357018065,1539
1912.790592226504,1452
1914.7504657882428,1470
1916.7098566519212,1543
1918.6687650825133,1499
1920.6271913450764,1477
1922.5851357047422,1485
1924.5425984267245,1489
1926.499579776314,1472
1928.4560800188833,1510
1930.4120994198802,1447
1932.367638244833,1439
1934.32269675935,1452
1936.2772752291175,1428
1938.231373919899,1443
1940.1849930975404,1440
1942.1381330279637,1501
1944.0907939771696,1472
1946.0429762112412,1487
1947.9946799963363,1525
1949.9459055986945,1474
1951.896653284633,1471
1953.8469233205478,1520
1955.7967159729142,1476
1957.7460315082863,1477
1959.6948701932974,1439
1961.6432322946594,1445
1963.5911180791632,1443
1965.5385278136787,1462
1967.4854617651545,1538
1969.4319202006182,1480
1971.377903387176,1501
1973.3234115920136,1409
1975.268445082395,1427
1977.2130041256642,1464
1979.1570889892423,1470
1981.1006999406304,1480
1983.04383724741,1465
1984.986501177238,1491
1986.928691997853,1449
1988.8704099770712,1453
1990.811655382789,1456
1992.7524284829801,1483
1994.692729545698,1442
1996.6325588390755,1399
1998.5719166313224,1478
2000.5108031907307,1440
2002.4492187856677,1483
2004.387163684583,1449
2006.3246381560011,1446
2008.2616424685298,1409
2010.1981768908527,1459
2012.1342416917332,1460
2014.069837140014,1481
2016.0049635046162,1464
2017.9396210545406,1446
2019.8738100588666,1426
2021.8075307867502,1391
2023.740783507431,1416
2025.6735684902228,1426
2027.6058860045214,1484
2029.5377363198004,1424
2031.4691197056118,1432
2033.4000364315875,1495
2035.3304867674374,1472
2037.260470982952,1438
2039.189989347998,1465
2041.1190421325232,1454
2043.047629606554,1450
2044.9757520401945,1413
2046.9034097036288,1381
2048.8306028671195,1388
2050.7573318010086,1463
2052.683596775716,1510
2054.609398061742,1430
2056.5347359296647,1431
2058.4596106501403,1437
2060.384022493906,1421
2062.3079717317764,1424
2064.231458634646,1396
2066.1544834734873,1393
2068.077046519352,1386
2069.99914804337,1437
2071.9207883167524,1435
2073.8419676107865,1368
2075.7626861968406,1420
2077.6829443463607,1429
2079.6027423308715,1409
2081.522080421977,1457
2083.440958891362,1465
2085.359378010786,1388
2087.2773380520907,1385
2089.194839287196,1374
2091.111881988101,1433
2093.0284664268825,1455
2094.9445928756973,1438
2096.86026160678,1417
2098.775472892446,1407
2100.690227005088,1459
2102.604524217178,1455
2104.5183648012676,1389
2106.431749029985,1441
2108.34467717604,1366
2110.2571495122206,1448
2112.169166311393,1419
2114.080727846503,1401
2115.9918343905747,1458
2117.902486216711,1428
2119.8126835980956,1408
2121.722426807987,1438
2123.6317161197285,1402
2125.5405518067364,1430
2127.448934142509,1414
2129.356863400624,1481
2131.264339854737,1497
2133.1713637785815,1489
2135.077935445972,1414
2136.9840551308002,1461
2138.889723107037,1384
2140.7949396487334,1412
2142.699705030018,1463
2144.6040195250994,1437
2146.507883408264,1472
2148.4112969538774,1448
2150.3142604363848,1433
2152.2167741303097,1460
2154.1188383102535,1450
2156.0204532508997,1447
2157.9216192270064,1476
2159.822336513414,1491
2161.7226053850413,1477
2163.622426116884,1489
2165.5217989840185,1478
2167.4207242616,1465
2169.319202224862,1495
2171.2172331491165,1472
2173.1148173097563,1407
2175.0119549822507,1509
2176.90864644215,1455
2178.8048919650823,1498
2180.7006918267534,1469
2182.596046302952,1442
2184.4909556695407,1504
2186.3854202024645,1489
2188.279440177746,1497
2190.173015871487,1495
2192.066147559868,1539
2193.958835519149,1515
2195.851080025667,1515
2197.7428813558417,1496
2199.6342397861667,1532
2201.5251555932186,1546
2203.415629053651,1477
2205.3056604441986,1544
2207.19525004167,1527
2209.084398122958,1562
2210.9731049650327,1544
2212.861370844941,1546
2214.749196039812,1513
2216.636580826851,1555
2218.523525483344,1593
2220.410030286655,1572
2222.296095514226,1613
2224.1817214435805,1604
2226.066908352319,1602
2227.951656518121,1579
2229.835966218746,1550
2231.71983773203,1513
2233.6032713358913,1574
2235.486267308324,1573
2237.3688259274036,1534
2239.2509474712824,1577
2241.132632218193,1557
2243.013880446447,1577
2244.8946924344323,1528
2246.7750684606203,1557
2248.6550088035574,1523
2250.534513741871,1539
2252.413583554265,1522
2254.292218519526,1569
2256.170418916517,1519
2258.0481850241786,1530
2259.925517121534,1522
2261.8024154876825,1488
2263.678880401803,1500
2265.5549121431536,1581
2267.430510991071,1594
2269.305677224971,1515
2271.180411124348,1518
2273.0547129687766,1505
2274.9285830379076,1471
2276.8020216114737,1462
2278.6750289692845,1511
2280.5476053912294,1579
2282.4197511572766,1574
2284.2914665474727,1629
2286.162751841943,1611
2288.0336073208937,1639
2289.904033264608,1598
2291.774029953448,1558
2293.6435976678554,1562
2295.5127366883517,1542
2297.381447295534,1508
2299.2497297700825,1505
2301.1175843927526,1406
2302.9850114443825,1428
2304.852011205885,1456
2306.7185839582553,1354
2308.5847299825664,1330
2310.4504495599676,1378
2312.3157429716925,1355
2314.1806104990483,1300
2316.0450524234247,1356
2317.9090690262888,1385
2319.772660589186,1347
2321.635827393742,1305
2323.498569721661,1333
2325.3608878547248,1353
2327.2227820747967,1377
2329.0842526638157,1326
2330.945299903803,1342
2332.805924076857,1343
2334.6661254651535,1311
2336.525904350951,1327
2338.3852610165827,1373
2340.244195744464,1320
2342.102708817088,1380
2343.9608005170253,1297
2345.8184711269287,1369
2347.675720929526,1330
2349.532550207628,1385
2351.38895924412,1365
2353.24494832197,1367
2355.100517724223,1330
2356.955667734004,1414
2358.810398634514,1431
2360.664710709037,1389
2362.5186042409337,1380
2364.3720795136437,1334
2366.225136810686,1328
2368.0777764156583,1391
2369.929998612237,1376
2371.7818036841777,1368
2373.633191915315,1434
2375.484163589562,1349
2377.3347189909114,1417
2379.184858403434,1338
2381.03458211128,1375
2382.8838903986775,1379
2384.732783549936,1394
2386.5812618494406,1372
2388.4293255816588,1444
2390.2769750311327,1405
2392.1242104824883,1337
2393.971032220427,1380
2395.8174405297295,1345
2397.6634356952563,1422
2399.509018001947,1320
2401.3541877348193,1342
2403.1989451789705,1337
2405.043290619576,1413
2406.8872243418905,1367
2408.730746631247,1360
2410.5738577730594,1351
2412.4165580528183,1394
2414.258847756095,1386
2416.100727168537,1389
2417.9421965758734,1354
2419.783256263912,1472
2421.623906518538,1394
2423.4641476257157,1359
2425.303979871491,1406
2427.143403541984,1444
2428.9824189233977,1382
2430.821026302012,1412
2432.6592259641866,1410
2434.497018196361,1404
2436.33440328505,1441
2438.171381516851,1359
2440.00795317844,1422
2441.844118556569,1415
2443.6798779380724,1423
2445.5152316098606,1414
2447.3501798589255,1406
2449.1847229723357,1416
2451.0188612372403,1376
2452.8525949408663,1376
2454.6859243705203,1344
2456.518849813587,1421
2458.3513715575314,1422
2460.183489889895,1406
2462.015205098301,1376
2463.8465174704493,1384
2465.67742729412,1394
2467.5079348571717,1387
2469.338040447542,1422
2471.1677443532476,1375
2472.9970468623833,1415
2474.825948263123,1409
2476.6544488437207,1392
2478.482548892508,1418
2480.310248697896,1457
2482.137548548374,1356
2483.9644487325118,1442
2485.790949538956,1408
2487.617051256433,1354
2489.44275417375,1384
2491.26805857979,1399
2493.0929647635157,1463
2494.917473013971,1437
2496.741583620276,1421
2498.5652968716304,1459
2500.3886130573137,1507
2502.2115324666834,1425
2504.0340553891765,1513
2505.856182114308,1520
2507.6779129316733,1457
2509.499248130945,1414
2511.3201880018764,1455
2513.140732834298,1462
2514.9608829181198,1453
2516.780638543331,1491
2518.6,1436
2520.418967578273,1501
2522.237541568376,1478
2524.0557222606144,1457
2525.8735099453706,1465
2527.6909049131086,1443
2529.507907454368,1462
2531.32451785977,1499
2533.140736420014,1508
2534.9565634258774,1507
2536.771999168218,1515
2538.5870439379714,1481
2540.4016980261526,1590
2542.2159617238544,1553
2544.02983532225,1566
2545.8433191125914,1573
2547.656413386209,1613
2549.4691184345115,1626
2551.2814345489874,1626
2553.093362021204,1598
2554.904901142808,1609
2556.716052205523,1640
2558.526815501153,1645
2560.3371913215824,1657
2562.147179958771,1621
2563.956781704761,1678
2565.7659968516705,1665
2567.5748256916986,1672
2569.3832685171224,1685
2571.1913256202984,1644
2572.9989972936614,1671
2574.806283829725,1719
2576.613185521084,1747
2578.4197026604074,1705
2580.2258355404483,1696
2582.031584454035,1732
2583.836949694077,1749
2585.6419315535613,1676
2587.4465303255533,1744
2589.2507463032002,1807
2591.0545797797245,1797
2592.8580310484303,1778
2594.6611004026995,1766
2596.463788135992,1822
2598.266094541849,1837
2600.0680199138874,1757
2601.869564545807,1765
2603.670728731383,1790
2605.4715127644704,1873
2607.2719169390048,1798
2609.071941548998,1789
2610.8715868885433,1810
2612.670853251811,1776
2614.469740933052,1841
2616.268250226594,1861
2618.0663814268455,1821
2619.864134828292,1794
2621.6615107255006,1814
2623.458509413115,1732
2625.2551311858597,1778
2627.0513763385347,1781
2628.8472451660223,1773
2630.6427379632833,1732
2632.4378550253564,1787
2634.232596647359,1819
2636.026963124488,1673
2637.8209547520187,1728
2639.6145718253065,1693
2641.407814639785,1761
2643.200683490966,1732
2644.9931786744414,1666
2646.7853004858807,1700
2648.577049221034,1632
2650.3684251757277,1640
2652.1594286458712,1629
2653.9500599274484,1628
2655.740319316525,1605
2657.5302071092437,1597
2659.3197236018286,1592
2661.10886909058,1594
2662.8976438718782,1576
2664.686048242183,1537
2666.4740824980327,1566
2668.2617469360443,1554
2670.0490418529134,1593
2671.8359675454153,1550
2673.622524310403,1571
2675.408712444811,1510
2677.1945322456495,1510
2678.979984010009,1461
2680.76506803506,1520
2682.5497846180497,1471
2684.334134056306,1458
2686.1181166472343,1503
2687.9017326883213,1453
2689.6849824771293,1502
2691.4678663113013,1481
2693.2503844885596,1486
2695.032537306705,1553
2696.8143250636167,1512
2698.5957480572542,1436
2700.3768065856534,1479
2702.1575009469316,1422
2703.937831439283,1424
2705.717798360982,1449
2707.4974020103837,1498
2709.276642685917,1464
2711.055520686095,1431
2712.834036309506,1421
2714.612189854819,1377
2716.389981620782,1368
2718.1674119062204,1363
2719.944481010041,1387
2721.721189231226,1473
2723.4975368688415,1472
2725.273524222027,1434
2727.0491515900053,1394
2728.824419272075,1377
2730.5993275676146,1392
2732.3738767760838,1436
2734.148067197016,1366
2735.921899130031,1375
2737.6953728748194,1374
2739.468488731156,1415
2741.2412469988926,1400
2743.0136479779617,1353
2744.785691968372,1427
2746.5573792702116,1407
2748.3287101836504,1366
2750.099685008934,1387
2751.870304046388,1322
2753.640567596418,1381
2755.4104759595057,1444
2757.1800294362156,1340
2758.949228327187,1447
2760.7180729331412,1456
2762.486563554877,1412
2764.254700493272,1364
2766.022484049284,1377
2767.789914523947,1360
2769.5569922183786,1397
2771.3237174337705,1350
2773.090090471394,1323
2774.8561116326036,1364
2776.6217812188274,1348
2778.3870995315756,1344
2780.1520668724356,1309
2781.9166835430747,1400
2783.6809498452394,1366
2785.444866080754,1324
2787.2084325515225,1380
2788.971649559527,1385
2790.73451740683,1352
2792.4970363955713,1372
2794.2592068279705,1434
2796.0210290063264,1331
2797.7825032330147,1388
2799.543629810493,1358
2801.304409041296,1388
2803.0648412280366,1410
2804.8249266734088,1338
2806.5846656801846,1413
2808.344058551212,1361
2810.1031055894246,1365
2811.8618070978273,1386
2813.6201633795085,1328
2815.378174737636,1445
2817.1358414754536,1326
2818.893163896285,1358
2820.6501423035334,1334
2822.4067770006814,1389
2824.1630682912883,1321
2825.9190164789957,1362
2827.6746218675207,1367
2829.429884760661,1356
2831.184805462294,1370
2832.9393842763743,1401
2834.693621506936,1365
2836.4475174580916,1346
2838.201072434034,1334
2839.954286739034,1345
2841.707160677441,1336
2843.459694553685,1292
2845.2118886722724,1320
2846.96374333779,1367
2848.7152588549034,1332
2850.4664355283567,1352
2852.217273662973,1355
2853.9677735636546,1429
2855.7179355353833,1365
2857.4677598832186,1398
2859.217246912299,1410
2860.9663969278427,1346
2862.715210235146,1351
2864.4636871395846,1328
2866.211827946614,1316
2867.9596329617652,1395
2869.7071024906536,1403
2871.4542368389684,1377
2873.20103631248,1364
2874.947501217038,1372
2876.6936318585695,1361
2878.4394285430812,1322
2880.1848915766604,1339
2881.9300212654707,1312
2883.6748179157553,1300
2885.4192818338374,1342
2887.1634133261173,1285
2888.907212699077,1365
2890.6506802592744,1362
2892.393816313348,1363
2894.1366211680142,1390
2895.8790951300693,1367
2897.621238506388,1370
2899.363051603925,1347
2901.1045347297118,1347
2902.8456881908596,1367
2904.58651229456,1336
2906.327007348081,1313
2908.067173658772,1342
2909.8070115340597,1310
2911.5465212814497,1349
2913.285703208527,1336
2915.0245576229563,1403
2916.7630848324807,1337
2918.5012851449196,1311
2920.2391588681758,1358
2921.976706310227,1370
2923.7139277791334,1315
2925.4508235830313,1342
2927.187394030137,1342
2928.923639428745,1342
2930.6595600872306,1380
2932.395156314046,1388
2934.1304284177218,1409
2935.8653767068713,1399
2937.6000014901815,1328
2939.3343030764227,1330
2941.068281774442,1351
2942.8019378931644,1357
2944.5352717415976,1351
2946.2682836288236,1356
2948.0009738640065,1323
2949.7333427563885,1360
2951.465390615289,1324
2953.1971177501086,1325
2954.9285244703265,1350
2956.6596110855,1348
2958.3903779052657,1329
2960.1208252393385,1387
2961.8509533975125,1354
2963.5807626896617,1366
2965.3102534257378,1353
2967.0394259157715,1372
2968.768280469873,1297
2970.496817398232,1354
2972.2250370111146,1363
2973.952939618869,1318
2975.6805255319196,1374
2977.4077950607707,1374
2979.134748516006,1392
2980.861386208289,1406
2982.587708448359,1410
2984.313715547037,1359
2986.039407815222,1335
2987.764785563891,1316
2989.489849104102,1348
2991.2145987469908,1365
2992.9390348037705,1365
2994.6631575857346,1407
2996.3869674042576,1326
2998.1104645707887,1365
2999.83364939686,1387
3001.5565221940783,1450
3003.2790832741334,1305
3005.0013329487924,1339
3006.7232715298996,1313
3008.4448993293804,1353
3010.166216659239,1298
3011.887223831558,1338
3013.607921158498,1342
3015.3283089522993,1352
3017.0483875252826,1368
3018.7681571898443,1338
3020.4876182584626,1334
3022.2067710436927,1352
3023.9256158581707,1398
3025.644153014609,1353
3027.362382825801,1314
3029.0803056046193,1320
3030.797921664012,1342
3032.5152313170106,1303
3034.2322348767225,1349
3035.9489326563353,1389
3037.665324969115,1297
3039.3814121284063,1336
3041.097194447633,1342
3042.812672240299,1370
3044.5278458199855,1409
3046.2427155003525,1371
3047.9572815951406,1387
3049.671544418167,1360
3051.38550428333,1354
3053.0991615046073,1388
3054.812516396051,1371
3056.5255692717974,1398
3058.2383204460575,1385
3059.9507702331257,1384
3061.662918947372,1388
3063.3747669032446,1343
3065.0863144152736,1396
3066.7975617980674,1401
3068.508509366309,1364
3070.219157434767,1360
3071.9295063182844,1379
3073.639556331785,1342
3075.3493077902704,1395
3077.058761008821,1358
3078.7679163025964,1406
3080.476773986837,1372
3082.1853343768594,1380
3083.89359778806,1366
3085.6015645359153,1393
3087.3092349359786,1358
3089.016609303884,1414
3090.7236879553434,1368
3092.4304712061476,1392
3094.136959372166,1362
3095.843152769349,1406
3097.5490517137237,1406
3099.2546565213966,1407
3100.959967508554,1399
3102.66498499146,1407
3104.3697092864577,1365
3106.0741407099695,1350
3107.778279578498,1329
3109.482126208622,1321
3111.1856809170004,1406
3112.8889440203716,1393
3114.5919158355528,1407
3116.294596679439,1368
3117.996986869006,1361
3119.6990867213062,1408
3121.4008965534726,1398
3123.102416682717,1361
3124.803647426329,1377
3126.5045891016784,1344
3128.205242026213,1393
3129.90560651746,1458
3131.605682893025,1430
3133.3054714705922,1371
3135.0049725679282,1388
3136.7041865028714,1393
3138.4031135933465,1375
3140.101754157353,1395
3141.800108512971,1406
3143.498176978357,1348
3145.1959598717494,1412
3146.8934575114636,1371
3148.5906702158954,1383
3150.2875983035183,1366
3151.9842420928853,1389
3153.680601902627,1378
3155.376678051456,1377
3157.07247085816,1391
3158.767980641609,1357
3160.463207720748,1375
3162.158152414606,1345
3163.8528150422862,1378
3165.5471959229726,1325
3167.2412953759303,1293
3168.9351137204976,1320
3170.628651276098,1358
3172.3219083622307,1393
3174.014885298474,1328
3175.707582404485,1360
3177.4000000000005,1364
3179.092138404835,1390
3180.7839979388846,1402
3182.47557892212,1376
3184.166881674594,1395
3185.8579065164386,1350
3187.5486537678626,1348
3189.2391237491547,1353
3190.9293167806827,1380
3192.6192331828934,1375
3194.3088732763117,1368
3195.998237381542,1367
3197.687325819268,1318
3199.376138910251,1344
3201.064676975334,1293
3202.7529403354347,1288
3204.4409293115523,1325
3206.1286442247647,1333
3207.816085396229,1299
3209.5032531471825,1343
3211.190147798936,1313
3212.8767696728846,1290
3214.5631190905015,1316
3216.2491963733373,1262
3217.9350018430214,1302
3219.6205358212637,1288
3221.305798629851,1350
3222.990790590651,1289
3224.6755120256103,1342
3226.359963256751,1274
3228.0441446061795,1280
3229.7280563960758,1365
3231.411698948703,1378
3233.0950725863995,1333
3234.778177631587,1309
3236.461014406761,1380
3238.1435832345005,1363
3239.8258844374595,1353
3241.507918338374,1309
3243.1896852600576,1365
3244.8711855254023,1395
3246.552419457381,1385
3248.233387379042,1344
3249.914089613516,1357
3251.59452648401,1304
3253.274698313813,1325
3254.95460542629,1338
3256.6342481448855,1303
3258.313626793125,1305
3259.9927416946084,1283
3261.6715931730196,1289
3263.3501815521176,1304
3265.0285071557437,1264
3266.706570307815,1276
3268.3843713323286,1254
3270.0619105533615,1325
3271.739188295068,1351
3273.4162048816834,1391
3275.0929606375184,1341
3276.769455886966,1340
3278.445690954498,1365
3280.1216661646613,1327
3281.797381842087,1323
3283.4728383114807,1334
3285.1480358976296,1337
3286.8229749253996,1348
3288.4976557197333,1352
3290.172078605655,1365
3291.846243908266,1339
3293.5201519527463,1378
3295.193803064357,1306
3296.8671975684374,1303
3298.5403357904024,1321
3300.21321805575,1319
3301.8858446900567,1299
3303.558216018975,1346
3305.23033236824,1362
3306.9021940636603,1345
3308.57380143113,1358
3310.2451547966184,1327
3311.916254486174,1386
3313.5871008259246,1299
3315.2576941420766,1293
3316.9280347609147,1333
3318.5981230088046,1281
3320.2679592121895,1293
3321.9375436975924,1332
3323.606876791612,1273
3325.27595882093,1303
3326.944790112305,1312
3328.6133709925753,1333
3330.2817017886573,1274
3331.949782827547,1332
3333.617614436319,1304
3335.2851969421245,1348
3336.952530672199,1357
3338.619615953853,1356
3340.286453114475,1354
3341.9530424815357,1357
3343.619384382583,1350
3345.2854791452437,1390
3346.951327097224,1335
3348.6169285663073,1324
3350.2822838803577,1331
3351.947393367319,1363
3353.61225735521,1379
3355.2768761721345,1292
3356.9412501462693,1311
3358.605379605873,1334
3360.2692648792827,1319
3361.9329062949146,1350
3363.596304181263,1262
