CollectionTime,7/11/2024 11:53:03 AM
ExposureUsed,3
CalibratedSpectrum
-962.7078968117929,951
-959.9714848408522,1019
-957.2358232597828,1030
-954.5009119013725,969
-951.7667505983302,995
-949.0333391832855,1104
-946.3006774887896,1153
-943.5687653473143,1052
-940.837602591253,1075
-938.1071890529199,1101
-935.3775245645503,997
-932.6486089583007,1138
-929.9204420662485,1061
-927.1930237203925,1055
-924.4663537526524,1018
-921.7404319948689,1073
-919.0152582788041,1150
-916.2908324361409,1161
-913.5671542984834,1060
-910.8442236973568,1006
-908.1220404642074,1037
-905.4006044304027,1086
-902.679915427231,1002
-899.959973285902,1063
-897.2407778375464,1008
-894.5223289132158,1061
-891.8046263438832,1068
-889.0876699604426,1062
-886.3714595937089,1025
-883.6559950744183,1042
-880.9412762332282,981
-878.2273029007168,1012
-875.5140749073835,1022
-872.8015920836489,1026
-870.0898542598545,955
-867.3788612662631,983
-864.6686129330585,998
-861.9591090903457,1050
-859.2503495681506,1080
-856.5423341964203,1028
-853.8350628050229,1069
-851.1285352237478,1019
-848.4227512823054,1085
-845.7177108103272,999
-843.0134136373656,1053
-840.3098595928943,993
-837.6070485063082,1051
-834.9049802069229,1028
-832.2036545239757,1014
-829.5030712866244,1061
-826.8032303239481,1004
-824.1041314649472,1029
-821.4057745385428,1026
-818.7081593735775,1068
-816.0112857988148,1073
-813.3151536429393,1023
-810.6197627345566,1026
-807.9251129021936,1056
-805.2312039742981,1062
-802.5380357792392,1035
-799.8456081453069,1062
-797.1539209007124,1094
-794.462973873588,1120
-791.772766891987,1052
-789.083299783884,1061
-786.3945723771743,1084
-783.7065844996748,1049
-781.0193359791231,1058
-778.3328266431781,1069
-775.6470563194197,1005
-772.9620248353489,1042
-770.2777320183878,1092
-767.5941776958798,1095
-764.9113616950891,1136
-762.2292838432011,1130
-759.5479439673222,1093
-756.8673418944801,1066
-754.1874774516235,1080
-751.5083504656222,1114
-748.8299607632671,1158
-746.15230817127,1112
-743.475392516264,1137
-740.7992136248035,1132
-738.1237713233636,1061
-735.4490654383407,1098
-732.7750957960521,1119
-730.1018622227365,1125
-727.4293645445534,1146
-724.7576025875837,1095
-722.0865761778291,1184
-719.4162851412126,1128
-716.7467293035781,1198
-714.0779084906909,1155
-711.409822528237,1120
-708.7424712418238,1107
-706.0758544569796,1109
-703.4099719991541,1219
-700.7448236937178,1251
-698.0804093659622,1252
-695.4167288411002,1154
-692.7537819442656,1127
-690.0915685005134,1126
-687.4300883348199,1132
-684.7693412720819,1141
-682.1093271371178,1269
-679.4500457546669,1220
-676.7914969493897,1140
-674.1336805458676,1156
-671.4765963686034,1201
-668.8202442420206,1257
-666.1646239904642,1182
-663.5097354382001,1109
-660.8555784094151,1177
-658.2021527282176,1111
-655.5494582186366,1203
-652.8974947046223,1177
-650.2462620100463,1234
-647.5957599587009,1222
-644.9459883742998,1244
-642.2969470804776,1220
-639.6486359007902,1267
-637.0010546587141,1255
-634.3542031776476,1305
-631.7080812809096,1253
-629.0626887917401,1251
-626.4180255333008,1253
-623.7740913286734,1252
-621.1308860008619,1292
-618.4884093727904,1253
-615.8466612673046,1247
-613.2056415071715,1254
-610.5653499150785,1263
-607.9257863136347,1254
-605.28695052537,1369
-602.6488423727357,1256
-600.0114616781036,1249
-597.3748082637674,1327
-594.7388819519412,1355
-592.1036825647604,1422
-589.4692099242818,1393
-586.8354638524829,1324
-584.2024441712624,1271
-581.5701507024403,1270
-578.9385832677575,1369
-576.3077416888759,1444
-573.6776257873787,1375
-571.0482353847704,1284
-568.4195703024757,1342
-565.7916303618415,1355
-563.164415384135,1463
-560.5379251905453,1410
-557.9121596021815,1400
-555.2871184400748,1307
-552.6628015251767,1333
-550.0392086783606,1340
-547.4163397204204,1377
-544.794194472071,1423
-542.1727727539491,1479
-539.5520743866118,1575
-536.9320991905377,1472
-534.3128469861261,1495
-531.6943175936979,1520
-529.0765108334947,1457
-526.4594265256793,1512
-523.8430644903358,1560
-521.2274245474689,1671
-518.612506517005,1705
-515.9983102187913,1570
-513.3848354725959,1653
-510.77208209810846,1683
-508.16004991493924,1692
-505.5487387426199,1900
-502.9381484006032,1973
-500.3282787082628,1970
-497.71912948489364,2038
-495.1107005497117,1960
-492.5029917218539,1803
-489.8960028203786,1766
-487.28973366426493,1628
-484.68418407241325,1604
-482.07935386364494,1516
-479.47524285670266,1526
-476.87185087025,1521
-474.2691777228715,1496
-471.66722323307334,1546
-469.0659872192821,1536
-466.4654694998459,1557
-463.86566989303384,1605
-461.26658821703614,1566
-458.66822428996414,1497
-456.07057792985,1527
-453.4736489546475,1577
-450.877437182231,1473
-448.28194243039627,1493
-445.68716451686,1420
-443.09310325926003,1529
-440.49975847515555,1490
-437.9071299820263,1432
-435.31521759727354,1545
-432.72402113821954,1598
-430.13354042210767,1576
-427.5437752661022,1585
-424.95472548728867,1613
-422.36639090267386,1603
-419.7787713291855,1625
-417.1918665836721,1671
-414.60567648290385,1622
-412.0202008435715,1646
-409.4354394822874,1650
-406.8513922155845,1590
-404.26805885991723,1591
-401.685439231661,1670
-399.103533147112,1715
-396.522340422488,1664
-393.9418608739278,1591
-391.3620943174908,1592
-388.7830405691583,1536
-386.2046994448317,1473
-383.6270707603344,1388
-381.05015433141045,1272
-378.473949973725,1239
-375.8984575028645,1241
-373.32367673433623,1121
-370.74960748356875,1130
-368.1762495659117,1024
-365.60360279663576,880
-363.03166699093265,784
-360.4604419639154,712
-357.8899275306178,636
-355.32012350599507,734
-352.7510297049233,702
-350.1826459421999,675
-347.61497203254316,712
-345.04800779059235,719
-342.4817530309082,621
-339.91620756797226,692
-337.35137121618743,842
-334.7872437898774,915
-332.22382510328725,768
-329.66111497058273,591
-327.09911320585127,584
-324.53781962310075,595
-321.9772340362607,653
-319.4173562591816,613
-316.8581861056348,532
-314.2997233893127,548
-311.7419679238294,545
-309.1849195227194,574
-306.62857799943856,748
-304.0729431673641,819
-301.51801483979375,762
-298.963792829947,701
-296.41027695096386,663
-293.85746701590574,693
-291.3053628377552,772
-288.7539642294155,798
-286.2032710037115,790
-283.65328297338897,704
-281.1039999511146,761
-278.5554217494762,769
-276.007548180983,679
-273.4603790580651,633
-270.9139141930734,645
-268.3681533982807,614
-265.8230964858798,681
-263.27874326798565,799
-260.7350935566336,808
-258.1921471637804,787
-255.6499039013039,808
-253.10836358100266,941
-250.56752601459698,1015
-248.02739101372765,1004
-245.48795838995704,1048
-242.94922795476816,980
-240.41119951956557,1108
-237.8738728956746,1096
-235.33724789434166,884
-232.80132432673452,823
-230.2661020039418,715
-227.73158073697357,870
-225.19776033676033,1065
-222.66464061415422,900
-220.1322213799284,833
-217.60050244477725,759
-215.06948361931552,920
-212.53916471408013,1173
-210.00954553952818,1219
-207.48062590603843,1094
-204.9524056239104,1022
-202.4248845033651,1116
-199.8980623545441,1045
-197.37193898751036,1059
-194.84651421224817,1085
-192.32178783866232,1199
-189.79775967657952,1165
-187.27442953574644,1323
-184.7517972258321,1400
-182.2298625564256,1397
-179.7086253370378,1233
-177.18808537710026,1023
-174.66824248596583,947
-172.14909647290835,1078
-169.6306471471229,1110
-167.11289431772548,1183
-164.59583779375328,1209
-162.07947738416453,1170
-159.5638128978386,1597
-157.04884414357605,1888
-154.53457093009854,1704
-152.02099306604828,1290
-149.50811035998936,1320
-146.99592262040665,1466
-144.48442965570587,2080
-141.97363127421409,2576
-139.46352728417958,2266
-136.95411749377126,2125
-134.44540171107985,1481
-131.93737974411636,1403
-129.43005140081357,1903
-126.92341648902493,3358
-124.41747481652521,5209
-121.91222619101006,6442
-119.40767042009657,4590
-116.90380731132257,2600
-114.40063667214702,2111
-111.8981583099503,2415
-109.3963720320337,3960
-106.89527764561933,10203
-104.39487495785067,20046
-101.89516377579241,25040
-99.39614390642998,25612
-96.89781515667039,26475
-94.40017733334128,38930
-91.90323024319173,60975
-89.40697369289148,63669
-86.91140748903172,44579
-84.41653143812482,23294
-81.92234534660395,11448
-79.42884902082358,26408
-76.93604226705907,58502
-74.4439248915071,65037
-71.95249670028534,65037
-69.46175749943245,65037
-66.97170709490854,54281
-64.48234529259423,36573
-61.99367189829195,21010
-59.50568671772464,12497
-57.01838955653636,9326
-54.53178022029283,8321
-52.045858514480074,8189
-49.560624244506016,9226
-47.07607721569923,9832
-44.59221723330904,9112
-42.10904410250669,9524
-39.62655762838392,10096
-37.14475761595372,10727
-34.66364387015028,10181
-32.18321619582866,9459
-29.70347439776515,9739
-27.224418280657005,10781
-24.74604764912317,14850
-22.26836230770266,26089
-19.7913620608565,58327
-17.315046712966478,65037
-14.83941606833514,65037
-12.36446993118659,65037
-9.89020810566592,65037
-7.416630395839093,65037
-4.94373660569363,65037
-2.471526539137585,65037
-6.821210263296962E-13,65037
2.47084320796705,65037
4.941003281093458,65037
7.410480415786196,65037
9.879274808531363,65037
12.347386655893956,65037
14.814816154518212,65037
17.28156350112681,65037
19.74762889252179,65037
22.21301252558385,65037
24.67771459727237,20937
27.141735304626195,5590
29.605074844762612,6100
32.06773341487792,6223
34.52971121224755,5114
36.99100843422559,4287
39.45162527824516,2942
41.91156194181792,2607
44.370818622535126,2640
46.82939551806646,2634
49.287292826160524,3692
51.74451074464503,6019
54.201049471426245,5059
56.65690920448981,2797
59.112090141899785,1953
61.56659248179983,1877
64.02041642241159,2129
66.4735621620365,2548
68.92602989905402,3456
71.37781983192338,4709
73.82893215918205,4186
76.27936707944684,2561
78.72912479141326,2071
81.17820549385567,2682
83.62660938562783,2798
86.07433666566146,1893
88.5213875329681,1633
90.96776218663751,1808
93.41346082583925,1884
95.85848364982041,2574
98.30283085790859,3356
100.7465026495089,2124
103.18949922410604,1575
105.63182078126385,1505
108.07346752062438,1189
110.51443964190923,1193
112.95473734491827,1475
115.39436082953114,1993
117.83331029570547,1646
120.27158594347827,1383
122.7091879729652,1514
125.1461165843615,1601
127.58237197794062,1386
130.01795435405518,1187
132.4528639131364,1320
134.88710085569494,1163
137.32066538231982,1193
139.75355769367923,1695
142.1857779905207,1844
144.61732647366978,1519
147.04820334403132,1292
149.47840880258934,1324
151.90794305040674,1469
154.33680628862487,1886
156.76499871846443,2016
159.19252054122433,1842
161.61937195828352,1883
164.04555317109896,2069
166.47106438120693,2217
168.89590579022217,2562
171.320077599839,2764
173.7435800118302,2978
176.16641322804742,3267
178.58857745042144,3428
181.01007288096173,3373
183.43089972175687,3352
185.85105817497413,3293
188.27054844285988,3322
190.6893707277394,3289
193.10752523201643,3599
195.5250121581745,3667
197.9418317087751,3643
200.3579840864594,3591
202.7734694939469,3611
205.18828813403627,3782
207.6024402096051,3978
210.01592592360964,3832
212.42874547908548,3858
214.84089907914665,3754
217.2523869269868,3676
219.66320922587727,3598
222.0733661791695,3566
224.48285799029293,3557
226.8916848627572,3725
229.29984700014882,3746
231.7073446061355,3679
234.11417788446204,3665
236.520347038953,3830
238.92585227351185,3910
241.33069379212054,3944
243.73487179884035,4042
246.1383864978112,3938
248.541238093252,3911
250.9434267894609,3794
253.34495279081432,3853
255.74581630176783,3664
258.1460175268563,3637
260.54555667069314,3734
262.9444339379703,3586
265.3426495334594,3763
267.7402036620107,3962
270.1370965285529,3954
272.53332833809407,3761
274.9288992957214,3547
277.32380960660055,3342
279.718059475976,3469
282.1116491091717,3507
284.5045787115897,3444
286.89684848871195,3345
289.2884586460981,3335
291.67940938938807,3443
294.0697009242996,3752
296.4593334566299,3666
298.84830719225477,3370
301.23662233712923,3372
303.6242790972866,3302
306.01127767884,3283
308.39761828798066,3274
310.78330113097934,3319
313.16832641418534,3268
315.5526943440269,3240
317.9364051270112,3261
320.3194589697242,3394
322.70185607883093,3495
325.0835966610754,3377
327.4646809232805,3068
329.8451090723478,3031
332.2248813152577,3148
334.6039978590701,3330
336.9824589109231,3301
339.36026467803447,3265
341.7374153677,3237
344.113911187295,3075
346.48975234427337,3073
348.8649390461686,3110
351.2394715005918,3105
353.61334991523415,3109
355.9865744978655,3055
358.35914545633375,3165
360.73106299856715,3336
363.10232733257146,3165
365.47293866643247,3043
367.84289720831396,3016
370.2122031664593,2991
372.5808567491905,3005
374.9488581649083,2967
377.31620762209275,2884
379.6829053293021,2862
382.0489514951745,2961
384.4143463284262,2999
386.7790900378528,2953
389.14318283232853,2921
391.50662492080653,2901
393.86941651231916,2947
396.23155781597745,3017
398.5930490409713,3060
400.9538903965696,3050
403.3140820921202,2983
405.6736243370498,2976
408.03251734086336,2893
410.3907613131465,2931
412.74835646356166,2934
415.10530300185144,2943
417.4616011378372,3011
419.81725108141893,2850
422.1722530425758,2906
424.5266072313656,2900
426.880313857925,2917
429.2333731324701,2800
431.58578526529516,2799
433.9375504667738,2876
436.2886689473588,2974
438.63914091758113,2938
440.9889665880513,2906
443.33814616945835,2775
445.68667987257015,2825
448.03456790823395,2771
450.3818104873759,2804
452.72840782100013,2679
455.07436012019105,2776
457.41966759611057,2787
459.7643304600007,2814
462.10834892318155,2878
464.4517231970525,2926
466.79445349309174,2845
469.1365400228566,2985
471.4779829979826,2900
473.81878263018564,2843
476.15893913125876,2957
478.4984527130747,2965
480.8373235875855,2935
483.17555196682144,2938
485.5131380628919,2987
487.8500820879857,3102
490.1863842543697,3274
492.52204477439034,3351
494.8570638604725,3564
497.1914417251204,3730
499.52517858091653,4012
501.85827464052306,3963
504.19073011668036,3956
506.5225452222086,3918
508.85372017000566,3843
511.18425517304956,3884
513.514150444396,3992
515.8434061971808,4628
518.1720226446176,5251
520.4999999999999,5336
522.8273384766991,4936
525.1540382881666,4815
527.480099647932,4507
529.8055227696037,3870
532.1303078668694,3557
534.454455153496,3250
536.777964843328,3102
539.1008371502907,3085
541.4230722883866,2977
543.744670471698,3006
546.0656319143858,3139
548.3859568306899,3060
550.7056454349294,2974
553.0246979415016,2943
555.3431145648834,3028
557.6608955196306,2993
559.978041020377,2985
562.2945512818363,2855
564.6104265188006,2885
566.9256669461412,2971
569.2402727788082,2972
571.5542442318302,3000
573.8675815203156,2924
576.1802848594508,2938
578.4923544645015,3058
580.8037905508126,3057
583.114593333807,3048
585.4247630289875,2912
587.7342998519354,3025
590.0432040183106,3045
592.3514757438526,3134
594.6591152443794,3023
596.9661227357875,3086
599.2724984340531,3096
601.578242555231,2971
603.8833553154542,2930
606.1878369309362,2945
608.4916876179676,2956
610.7949075929192,2965
613.0974970722403,2973
615.3994562724587,2958
617.7007854101818,2987
620.0014847020951,3042
622.3015543649641,2991
624.6009946156324,3026
626.8998056710224,3008
629.1979877481361,2963
631.4955410640538,3007
633.7924658359349,3039
636.0887622810175,2966
638.3844306166192,3066
640.6794710601358,3216
642.9738838290426,2992
645.2676691408932,2990
647.5608272133207,3028
649.853358264037,3001
652.1452625108324,3150
654.4365401715764,3097
656.7271914642178,3108
659.0172166067838,3090
661.3066158173809,3021
663.5953893141935,2978
665.8835373154867,3139
668.1710600396028,3052
670.4579577049639,3058
672.7442305300709,2970
675.0298787335033,2988
677.3149025339197,2994
679.599302150058,3065
681.8830778007342,2990
684.1662297048437,3128
686.4487580813608,3060
688.7306631493387,3026
691.0119451279091,3084
693.2926042362834,2975
695.5726406937516,3032
697.8520547196814,3018
700.1308465335215,2971
702.4090163547982,3022
704.6865644031171,3151
706.9634908981619,3033
709.2397960596965,3026
711.5154801075631,3042
713.7905432616823,3058
716.0649857420548,2996
718.3388077687592,3064
720.612009561953,3106
722.8845913418733,2970
725.1565533288352,3037
727.427895743234,2989
729.6986188055427,3136
731.9687227363137,3141
734.238207756178,3105
736.5070740858458,3036
738.7753219461066,3031
741.0429515578281,3128
743.3099631419569,3038
745.5763569195191,3000
747.8421331116193,3076
750.1072919394409,2951
752.3718336242467,3001
754.6357583873777,3155
756.8990664502545,3116
759.1617580343765,3038
761.423833361321,3011
763.6852926527457,3036
765.9461361303862,3129
768.206364016058,3119
770.4659765316536,3021
772.7249738991469,3061
774.9833563405886,3054
777.2411240781092,3094
779.4982773339183,3156
781.7548163303044,3157
784.010741289634,3089
786.2660524343538,3192
788.5207499869881,3173
790.7748341701416,3194
793.0283052064964,3138
795.2811633188143,3070
797.5334087299362,3035
799.7850416627813,3095
802.0360623403484,3084
804.2864709857143,3097
806.5362678220353,3028
808.7854530725468,3085
811.0340269605625,3161
813.2819897094754,3137
815.5293415427581,3164
817.77608268396,3207
820.0222133567116,3169
822.2677337847211,3286
824.5126441917765,3095
826.7569448017433,3122
829.0006358385675,3165
831.2437175262731,2999
833.4861900889629,2973
835.7280537508192,3100
837.9693087361026,3189
840.2099552691533,3227
842.4499935743896,3137
844.689423876309,3150
846.9282463994886,3262
849.1664613685833,3194
851.4040690083276,3187
853.6410695435349,3210
855.877463199097,3203
858.1132501999847,3111
860.3484307712487,3088
862.5830051380175,3166
864.8169735254988,3165
867.0503361589791,3161
869.2830932638243,3167
871.5152450654786,3162
873.7467917894654,3180
875.9777336613873,3201
878.2080709069252,3278
880.4378037518389,3280
882.666932421968,3262
884.8954571432301,3166
887.1233781416219,3204
889.3506956432192,3276
891.5774098741766,3200
893.803521060728,3228
896.0290294291852,3137
898.2539352059397,3188
900.4782386174619,3194
902.7019398903011,3160
904.925039251085,3174
907.147536926521,3190
909.3694331433943,3118
911.59072812857,3106
913.8114221089921,3215
916.0315153116827,3197
918.2510079637437,3153
920.4699002923547,3166
922.6881925247761,3125
924.905884888345,3196
927.1229776104793,3138
929.3394709186747,3085
931.555365040506,3075
933.7706602036275,3105
935.9853566357709,3083
938.1994545647489,3078
940.4129542184515,3113
942.6258558248488,3098
944.8381596119883,2985
947.0498658079974,3066
949.2609746410825,3167
951.4714863395287,3110
953.6814011316998,3143
955.8907192460387,3114
958.0994409110671,3011
960.3075663553858,3090
962.5150958076741,3182
964.7220294966913,3129
966.928367651274,3046
969.1341105003388,3179
971.3392582728806,3050
973.5438111979742,3017
975.747769504772,3001
977.9511334225061,2993
980.153903180487,2999
982.3560790081052,3041
984.5576611348289,3047
986.7586497902058,3011
988.9590452038618,3033
991.158847605503,3081
993.3580572249133,3021
995.5566742919558,2978
997.7546990365728,3117
999.952131688785,2920
1002.1489724786926,2932
1004.3452216364743,2969
1006.5408793923874,2910
1008.7359459767691,2850
1010.9304216200343,2930
1013.1243065526781,2968
1015.3176010052733,2931
1017.510305208472,2842
1019.7024193930064,2859
1021.8939437896848,2825
1024.0848786293977,2802
1026.2752241431122,2927
1028.4649805618747,2967
1030.6541481168115,2920
1032.842727039127,2909
1035.0307175601051,2911
1037.2181199111074,2741
1039.4049343235752,2752
1041.591161029029,2900
1043.7768002590683,2864
1045.9618522453698,2785
1048.1463172196918,2860
1050.3301954138697,2976
1052.513487059818,2894
1054.69619238953,2763
1056.8783116350783,2797
1059.0598450286152,2836
1061.2407928023704,2846
1063.4211551886528,2893
1065.6009324198508,2824
1067.780124728432,2806
1069.9587323469414,2716
1072.1367555080046,2799
1074.314194444325,2837
1076.4910493886855,2772
1078.667320573947,2848
1080.843008233051,2754
1083.0181125990161,2803
1085.1926339049414,2754
1087.3665723840027,2748
1089.5399282694575,2721
1091.7127017946405,2764
1093.8848931929647,2751
1096.0565026979243,2691
1098.2275305430899,2677
1100.3979769621128,2766
1102.567842188722,2740
1104.737126456726,2598
1106.9058300000124,2689
1109.0739530525475,2756
1111.2414958483764,2740
1113.4084586216231,2731
1115.5748416064907,2725
1117.7406450372605,2732
1119.9058691482942,2696
1122.0705141740304,2702
1124.2345803489884,2860
1126.3980679077658,2743
1128.5609770850388,2757
1130.7233081155623,2781
1132.8850612341707,2794
1135.0462366757774,2710
1137.2068346753745,2671
1139.3668554680326,2692
1141.526299288901,2718
1143.68516637321,2628
1145.8434569562655,2613
1148.001171273455,2694
1150.158309560244,2774
1152.3148720521767,2654
1154.470858984876,2719
1156.626270594044,2737
1158.7811071154629,2764
1160.9353687849912,2796
1163.089055838569,2693
1165.242168512213,2653
1167.3947070420209,2791
1169.5466716641677,2828
1171.6980626149075,2659
1173.8488801305748,2688
1175.9991244475814,2647
1178.1487958024186,2732
1180.2978944316555,2638
1182.4464205719428,2751
1184.5943744600072,2690
1186.7417563326567,2632
1188.8885664267755,2739
1191.0348049793297,2619
1193.1804722273619,2666
1195.325568407995,2741
1197.4700937584303,2768
1199.614048515948,2644
1201.7574329179074,2638
1203.900247201746,2704
1206.042491604982,2723
1208.1841663652099,2694
1210.3252717201053,2787
1212.465807907422,2771
1214.6057751649923,2735
1216.7451737307279,2744
1218.8840038426192,2718
1221.0222657387353,2726
1223.1599596572241,2713
1225.2970858363137,2736
1227.4336445143094,2724
1229.5696359295966,2743
1231.705060320639,2816
1233.8399179259786,2770
1235.9742089842384,2642
1238.107933734118,2799
1240.2410924143974,2779
1242.373685263935,2735
1244.5057125216676,2750
1246.6371744266116,2793
1248.7680712178621,2804
1250.898403134593,2841
1253.028170416058,2755
1255.1573733015875,2748
1257.2860120305932,2786
1259.4140868425648,2733
1261.54159797707,2853
1263.6685456737569,2891
1265.7949301723515,2821
1267.9207517126597,2766
1270.046010534565,2848
1272.1707068780306,2792
1274.2948409830983,2843
1276.4184130898889,2859
1278.541423438603,2758
1280.6638722695184,2794
1282.785759822993,2860
1284.9070863394636,2754
1287.0278520594447,2857
1289.1480572235314,2839
1291.2677020723963,2898
1293.3867868467923,2884
1295.5053117875495,2874
1297.623277135579,2877
1299.740683131868,2906
1301.8575300174857,2838
1303.973818033578,2936
1306.0895474213703,2910
1308.2047184221678,2967
1310.3193312773528,2923
1312.4333862283888,2867
1314.5468835168163,2805
1316.659823384255,2826
1318.7722060724045,2976
1320.8840318230418,2930
1322.9953008780249,2935
1325.1060134792888,2949
1327.2161698688478,2958
1329.3257702887959,2981
1331.4348149813054,2844
1333.5433041886276,2842
1335.6512381530933,2886
1337.7586171171101,3003
1339.8654413231675,2863
1341.9717110138317,2985
1344.0774264317488,2902
1346.1825878196432,2843
1348.2871954203192,2975
1350.3912494766587,2899
1352.4947502316231,2892
1354.5976979282532,2846
1356.7000928096686,2835
1358.8019351190665,2891
1360.9032250997243,2819
1363.0039629949988,2840
1365.1041490483235,2820
1367.2037835032133,2861
1369.3028666032606,2911
1371.401398592137,2988
1373.4993797135926,2900
1375.5968102114575,2979
1377.6936903296396,2778
1379.7900203121262,2953
1381.8858004029835,2939
1383.9810308463561,2957
1386.075711886469,2841
1388.1698437676241,2958
1390.2634267342032,2940
1392.356461030667,2969
1394.4489469015557,2938
1396.5408845914872,2949
1398.6322743451592,2915
1400.7231164073469,3047
1402.813411022907,3009
1404.903158436773,2975
1406.9923588939578,2965
1409.0810126395531,3056
1411.1691199187303,2945
1413.2566809767386,3021
1415.343696058907,3136
1417.4301654106425,2987
1419.5160892774315,3075
1421.6014679048399,3019
1423.6863015385125,3069
1425.7705904241707,3028
1427.8543348076178,3085
1429.9375349347342,3053
1432.0201910514802,3049
1434.102303403894,3128
1436.1838722380944,3118
1438.2648978002767,3123
1440.3453803367174,3147
1442.4253200937692,3196
1444.5047173178677,3089
1446.5835722555234,3189
1448.6618851533285,3271
1450.739656257952,3250
1452.8168858161434,3305
1454.8935740747306,3229
1456.96972128062,3350
1459.045327680797,3373
1461.120393522327,3311
1463.1949190523528,3335
1465.2689045180973,3435
1467.3423501668608,3541
1469.415256246024,3408
1471.4876230030463,3495
1473.559450685465,3572
1475.6307395408976,3606
1477.7014898170391,3655
1479.771701761665,3595
1481.8413756226287,3665
1483.9105116478618,3765
1485.9791100853772,3842
1488.0471711832643,3688
1490.1146951896926,3797
1492.1816823529098,3839
1494.2481329212433,3872
1496.3140471430984,3836
1498.3794252669609,3990
1500.4442675413939,3969
1502.5085742150404,3996
1504.572345536622,4134
1506.6355817549388,4073
1508.6982831188702,4008
1510.7604498773744,4066
1512.8220822794883,4150
1514.8831805743293,4303
1516.9437450110909,4163
1519.003775839048,4300
1521.0632733075522,4208
1523.1222376660367,4279
1525.1806691640113,4377
1527.2385680510652,4489
1529.2959345768668,4615
1531.3527689911643,4575
1533.4090715437833,4601
1535.4648424846291,4528
1537.5200820636855,4632
1539.5747905310159,4710
1541.6289681367616,4810
1543.6826151311434,4770
1545.7357317644614,4970
1547.7883182870937,4930
1549.8403749494987,4969
1551.8919020022113,5039
1553.9428996958477,4942
1555.9933682811015,5182
1558.0433080087469,5273
1560.0927191296346,5350
1562.1416018946961,5198
1564.1899565549415,5202
1566.2377833614592,5159
1568.2850825654164,5082
1570.3318544180606,5053
1572.3780991707158,4963
1574.423817074788,4640
1576.4690083817595,4609
1578.5136733431923,4382
1580.5578122107272,4376
1582.601425236085,4292
1584.6445126710646,4078
1586.6870747675434,3940
1588.7291117774776,3891
1590.7706239529034,3836
1592.8116115459347,3689
1594.8520748087658,3589
1596.8920139936686,3475
1598.9314293529933,3469
1600.9703211391711,3495
1603.008689604711,3490
1605.0465350022005,3379
1607.0838575843068,3205
1609.1206576037753,3311
1611.1569353134305,3267
1613.1926909661765,3149
1615.2279248149953,3124
1617.2626371129481,3143
1619.2968281131757,3109
1621.3304980688963,3115
1623.3636472334088,3112
1625.39627586009,3082
1627.428384202396,3030
1629.459972513861,3060
1631.4910410480993,2979
1633.5215900588028,3013
1635.551619799744,3031
1637.5811305247717,2918
1639.6101224878166,3039
1641.6385959428862,2977
1643.6665511440683,2974
1645.693988345528,3002
1647.7209078015112,3071
1649.7473097663405,2960
1651.7731944944203,2866
1653.7985622402307,3031
1655.823413258333,2980
1657.847747803366,2927
1659.8715661300494,2925
1661.8948684931793,2957
1663.9176551476316,2935
1665.9399263483624,2965
1667.9616823504057,2986
1669.982923408873,2969
1672.0036497789574,2977
1674.0238617159293,2959
1676.043559475138,2860
1678.0627433120121,2897
1680.081413482059,2873
1682.0995702408654,2967
1684.117213844096,3083
1686.134344547495,2979
1688.1509626068864,2968
1690.1670682781705,2977
1692.182661817329,2965
1694.1977434804217,2928
1696.2123135235875,2882
1698.226372203043,2872
1700.2399197750851,2919
1702.2529564960905,2891
1704.2654826225112,2979
1706.277498410882,3009
1708.2890041178139,2960
1710.2999999999988,3019
1712.3104863142066,2899
1714.3204633172854,2937
1716.329931266163,2919
1718.3388904178469,2917
1720.3473410294214,2976
1722.3552833580516,2889
1724.3627176609807,2923
1726.3696441955308,2949
1728.3760632191033,2846
1730.3819749891782,2957
1732.3873797633146,2905
1734.3922777991502,2859
1736.3966693544012,2924
1738.4005546868639,2876
1740.4039340544127,2836
1742.406807715001,2881
1744.4091759266616,2827
1746.4110389475054,2873
1748.4123970357223,2879
1750.413250449582,2960
1752.4135994474318,2905
1754.4134442876993,2921
1756.4127852288902,2861
1758.4116225295893,2887
1760.4099564484595,2871
1762.407787244244,2853
1764.405115175764,2914
1766.4019405019203,2883
1768.3982634816916,2927
1770.3940843741357,2876
1772.3894034383907,2754
1774.3842209336717,2873
1776.378537119274,2846
1778.372352254571,2867
1780.3656665990156,2934
1782.3584804121397,2901
1784.3507939535534,2832
1786.3426074829463,2812
1788.3339212600863,2878
1790.3247355448211,2896
1792.3150505970766,2826
1794.3048666768573,2860
1796.2941840442477,2893
1798.2830029594106,2970
1800.2713236825884,2859
1802.2591464741004,2824
1804.2464715943465,2798
1806.2332993038058,2847
1808.2196298630352,2817
1810.2054635326708,2892
1812.190800573428,2808
1814.175641246101,2895
1816.1599858115628,2823
1818.1438345307652,2901
1820.127187664738,2905
1822.1100454745924,2878
1824.092408221516,2868
1826.0742761667766,2753
1828.055649571721,2892
1830.0365286977735,2815
1832.0169138064398,2916
1833.9968051593014,2812
1835.9762030180214,2746
1837.9551076443408,2797
1839.9335193000788,2774
1841.9114382471344,2829
1843.888864747485,2888
1845.8657990631878,2879
1847.842241456378,2791
1849.8181921892697,2767
1851.7936515241558,2911
1853.7686197234098,2824
1855.7430970494815,2907
1857.7170837649014,2737
1859.6905801322787,2871
1861.6635864143004,2830
1863.6361028737338,2891
1865.608129773424,2850
1867.5796673762961,2839
1869.5507159453537,2973
1871.521275743678,2925
1873.4913470344313,2891
1875.4609300808534,2937
1877.4300251462632,2878
1879.3986324940588,2875
1881.366752387717,2997
1883.3343850907936,2940
1885.3015308669228,2938
1887.268189979819,2908
1889.2343626932739,2892
1891.2000492711595,2887
1893.1652499774254,2902
1895.1299650761011,2841
1897.0941948312952,2894
1899.0579395071945,2919
1901.0211993680641,2973
1902.98397467825,2982
1904.9462657021745,2957
1906.9080727043415,2917
1908.869395949332,2926
1910.8302357018065,2910
1912.790592226504,2908
1914.7504657882428,3013
1916.7098566519212,2751
1918.6687650825133,2909
1920.6271913450764,2861
1922.5851357047422,2921
1924.5425984267245,2952
1926.499579776314,2893
1928.4560800188833,2917
1930.4120994198802,2908
1932.367638244833,3011
1934.32269675935,2921
1936.2772752291175,3020
1938.231373919899,2952
1940.1849930975404,2931
1942.1381330279637,2896
1944.0907939771696,2902
1946.0429762112412,3035
1947.9946799963363,2903
1949.9459055986945,2990
1951.896653284633,2928
1953.8469233205478,2919
1955.7967159729142,2964
1957.7460315082863,2939
1959.6948701932974,2839
1961.6432322946594,2904
1963.5911180791632,2927
1965.5385278136787,2969
1967.4854617651545,2883
1969.4319202006182,2890
1971.377903387176,2955
1973.3234115920136,2929
1975.268445082395,2942
1977.2130041256642,2865
1979.1570889892423,3004
1981.1006999406304,2937
1983.04383724741,2998
1984.986501177238,2986
1986.928691997853,2893
1988.8704099770712,3013
1990.811655382789,2976
1992.7524284829801,2934
1994.692729545698,2954
1996.6325588390755,2946
1998.5719166313224,2958
2000.5108031907307,2965
2002.4492187856677,3003
2004.387163684583,2926
2006.3246381560011,2952
2008.2616424685298,2923
2010.1981768908527,2933
2012.1342416917332,2893
2014.069837140014,2958
2016.0049635046162,2956
2017.9396210545406,2903
2019.8738100588666,3017
2021.8075307867502,2925
2023.740783507431,2934
2025.6735684902228,2974
2027.6058860045214,2838
2029.5377363198004,2920
2031.4691197056118,2893
2033.4000364315875,2958
2035.3304867674374,2959
2037.260470982952,2895
2039.189989347998,2925
2041.1190421325232,2912
2043.047629606554,2923
2044.9757520401945,2939
2046.9034097036288,2940
2048.8306028671195,2878
2050.7573318010086,2956
2052.683596775716,2870
2054.609398061742,2995
2056.5347359296647,2954
2058.4596106501403,2924
2060.384022493906,2954
2062.3079717317764,2923
2064.231458634646,2903
2066.1544834734873,2883
2068.077046519352,2925
2069.99914804337,2915
2071.9207883167524,2940
2073.8419676107865,2980
2075.7626861968406,3027
2077.6829443463607,2990
2079.6027423308715,2958
2081.522080421977,3029
2083.440958891362,2927
2085.359378010786,2938
2087.2773380520907,3010
2089.194839287196,2997
2091.111881988101,3035
2093.0284664268825,2987
2094.9445928756973,2916
2096.86026160678,3011
2098.775472892446,3004
2100.690227005088,2947
2102.604524217178,3037
2104.5183648012676,2997
2106.431749029985,2905
2108.34467717604,2999
2110.2571495122206,2982
2112.169166311393,2924
2114.080727846503,2924
2115.9918343905747,2959
2117.902486216711,2975
2119.8126835980956,2935
2121.722426807987,2978
2123.6317161197285,2945
2125.5405518067364,3027
2127.448934142509,2944
2129.356863400624,2926
2131.264339854737,2928
2133.1713637785815,2997
2135.077935445972,3046
2136.9840551308002,2963
2138.889723107037,2931
2140.7949396487334,3017
2142.699705030018,3009
2144.6040195250994,2934
2146.507883408264,2969
2148.4112969538774,3121
2150.3142604363848,2984
2152.2167741303097,3039
2154.1188383102535,2942
2156.0204532508997,3017
2157.9216192270064,3013
2159.822336513414,3075
2161.7226053850413,3117
2163.622426116884,3027
2165.5217989840185,3032
2167.4207242616,3019
2169.319202224862,3035
2171.2172331491165,3026
2173.1148173097563,3002
2175.0119549822507,3073
2176.90864644215,3122
2178.8048919650823,2985
2180.7006918267534,3058
2182.596046302952,3073
2184.4909556695407,3097
2186.3854202024645,3118
2188.279440177746,3106
2190.173015871487,3033
2192.066147559868,3102
2193.958835519149,3103
2195.851080025667,3070
2197.7428813558417,3106
2199.6342397861667,3112
2201.5251555932186,3211
2203.415629053651,3068
2205.3056604441986,3096
2207.19525004167,3105
2209.084398122958,3033
2210.9731049650327,3128
2212.861370844941,3111
2214.749196039812,3175
2216.636580826851,3214
2218.523525483344,3139
2220.410030286655,3150
2222.296095514226,3161
2224.1817214435805,3313
2226.066908352319,3213
2227.951656518121,3113
2229.835966218746,3174
2231.71983773203,3206
2233.6032713358913,3156
2235.486267308324,3158
2237.3688259274036,3154
2239.2509474712824,3132
2241.132632218193,3129
2243.013880446447,3121
2244.8946924344323,3105
2246.7750684606203,3191
2248.6550088035574,3186
2250.534513741871,3127
2252.413583554265,3144
2254.292218519526,3094
2256.170418916517,3167
2258.0481850241786,3212
2259.925517121534,3059
2261.8024154876825,3165
2263.678880401803,3171
2265.5549121431536,3154
2267.430510991071,3284
2269.305677224971,3145
2271.180411124348,3110
2273.0547129687766,3154
2274.9285830379076,3089
2276.8020216114737,3202
2278.6750289692845,3050
2280.5476053912294,3193
2282.4197511572766,3125
2284.2914665474727,3215
2286.162751841943,3217
2288.0336073208937,3233
2289.904033264608,3164
2291.774029953448,3298
2293.6435976678554,3283
2295.5127366883517,3147
2297.381447295534,3175
2299.2497297700825,3189
2301.1175843927526,3115
2302.9850114443825,3148
2304.852011205885,2978
2306.7185839582553,3131
2308.5847299825664,3023
2310.4504495599676,3102
2312.3157429716925,3036
2314.1806104990483,3067
2316.0450524234247,3065
2317.9090690262888,3063
2319.772660589186,3050
2321.635827393742,3071
2323.498569721661,3126
2325.3608878547248,3011
2327.2227820747967,3046
2329.0842526638157,3085
2330.945299903803,3087
2332.805924076857,3027
2334.6661254651535,3016
2336.525904350951,3063
2338.3852610165827,3127
2340.244195744464,3061
2342.102708817088,3115
2343.9608005170253,3081
2345.8184711269287,3024
2347.675720929526,3036
2349.532550207628,3096
2351.38895924412,3048
2353.24494832197,3127
2355.100517724223,3147
2356.955667734004,3041
2358.810398634514,2996
2360.664710709037,3127
2362.5186042409337,3208
2364.3720795136437,3076
2366.225136810686,3167
2368.0777764156583,3034
2369.929998612237,3097
2371.7818036841777,3106
2373.633191915315,3158
2375.484163589562,3145
2377.3347189909114,3135
2379.184858403434,3127
2381.03458211128,3047
2382.8838903986775,3124
2384.732783549936,3134
2386.5812618494406,3170
2388.4293255816588,3140
2390.2769750311327,3082
2392.1242104824883,3099
2393.971032220427,3162
2395.8174405297295,3096
2397.6634356952563,3127
2399.509018001947,3119
2401.3541877348193,3121
2403.1989451789705,3108
2405.043290619576,3155
2406.8872243418905,3013
2408.730746631247,3134
2410.5738577730594,3141
2412.4165580528183,3112
2414.258847756095,3077
2416.100727168537,3171
2417.9421965758734,3110
2419.783256263912,3086
2421.623906518538,3123
2423.4641476257157,3101
2425.303979871491,3117
2427.143403541984,3097
2428.9824189233977,3119
2430.821026302012,3056
2432.6592259641866,3157
2434.497018196361,3068
2436.33440328505,3068
2438.171381516851,3033
2440.00795317844,3143
2441.844118556569,3161
2443.6798779380724,3172
2445.5152316098606,3201
2447.3501798589255,3212
2449.1847229723357,3224
2451.0188612372403,3206
2452.8525949408663,3156
2454.6859243705203,3195
2456.518849813587,3105
2458.3513715575314,3085
2460.183489889895,3140
2462.015205098301,3086
2463.8465174704493,3047
2465.67742729412,3228
2467.5079348571717,3195
2469.338040447542,3142
2471.1677443532476,3232
2472.9970468623833,3196
2474.825948263123,3137
2476.6544488437207,3169
2478.482548892508,3100
2480.310248697896,3168
2482.137548548374,3196
2483.9644487325118,3164
2485.790949538956,3129
2487.617051256433,3111
2489.44275417375,3126
2491.26805857979,3178
2493.0929647635157,3246
2494.917473013971,3193
2496.741583620276,3180
2498.5652968716304,3250
2500.3886130573137,3212
2502.2115324666834,3279
2504.0340553891765,3229
2505.856182114308,3238
2507.6779129316733,3212
2509.499248130945,3282
2511.3201880018764,3317
2513.140732834298,3225
2514.9608829181198,3277
2516.780638543331,3265
2518.6,3399
2520.418967578273,3261
2522.237541568376,3225
2524.0557222606144,3245
2525.8735099453706,3215
2527.6909049131086,3230
2529.507907454368,3189
2531.32451785977,3307
2533.140736420014,3334
2534.9565634258774,3312
2536.771999168218,3407
2538.5870439379714,3369
2540.4016980261526,3395
2542.2159617238544,3340
2544.02983532225,3327
2545.8433191125914,3332
2547.656413386209,3358
2549.4691184345115,3333
2551.2814345489874,3414
2553.093362021204,3392
2554.904901142808,3397
2556.716052205523,3449
2558.526815501153,3374
2560.3371913215824,3460
2562.147179958771,3477
2563.956781704761,3419
2565.7659968516705,3352
2567.5748256916986,3378
2569.3832685171224,3419
2571.1913256202984,3461
2572.9989972936614,3440
2574.806283829725,3481
2576.613185521084,3534
2578.4197026604074,3406
2580.2258355404483,3504
2582.031584454035,3486
2583.836949694077,3553
2585.6419315535613,3455
2587.4465303255533,3583
2589.2507463032002,3577
2591.0545797797245,3593
2592.8580310484303,3594
2594.6611004026995,3586
2596.463788135992,3681
2598.266094541849,3663
2600.0680199138874,3539
2601.869564545807,3598
2603.670728731383,3574
2605.4715127644704,3601
2607.2719169390048,3639
2609.071941548998,3579
2610.8715868885433,3610
2612.670853251811,3610
2614.469740933052,3620
2616.268250226594,3663
2618.0663814268455,3568
2619.864134828292,3641
2621.6615107255006,3573
2623.458509413115,3748
2625.2551311858597,3670
2627.0513763385347,3696
2628.8472451660223,3531
2630.6427379632833,3619
2632.4378550253564,3560
2634.232596647359,3714
2636.026963124488,3526
2637.8209547520187,3537
2639.6145718253065,3527
2641.407814639785,3469
2643.200683490966,3555
2644.9931786744414,3510
2646.7853004858807,3371
2648.577049221034,3456
2650.3684251757277,3478
2652.1594286458712,3486
2653.9500599274484,3500
2655.740319316525,3520
2657.5302071092437,3430
2659.3197236018286,3399
2661.10886909058,3486
2662.8976438718782,3348
2664.686048242183,3508
2666.4740824980327,3472
2668.2617469360443,3437
2670.0490418529134,3397
2671.8359675454153,3419
2673.622524310403,3339
2675.408712444811,3321
2677.1945322456495,3360
2678.979984010009,3409
2680.76506803506,3378
2682.5497846180497,3312
2684.334134056306,3322
2686.1181166472343,3401
2687.9017326883213,3292
2689.6849824771293,3365
2691.4678663113013,3345
2693.2503844885596,3441
2695.032537306705,3314
2696.8143250636167,3397
2698.5957480572542,3423
2700.3768065856534,3322
2702.1575009469316,3293
2703.937831439283,3339
2705.717798360982,3363
2707.4974020103837,3241
2709.276642685917,3318
2711.055520686095,3317
2712.834036309506,3419
2714.612189854819,3332
2716.389981620782,3314
2718.1674119062204,3323
2719.944481010041,3193
2721.721189231226,3254
2723.4975368688415,3311
2725.273524222027,3370
2727.0491515900053,3285
2728.824419272075,3326
2730.5993275676146,3267
2732.3738767760838,3232
2734.148067197016,3266
2735.921899130031,3240
2737.6953728748194,3352
2739.468488731156,3244
2741.2412469988926,3353
2743.0136479779617,3228
2744.785691968372,3260
2746.5573792702116,3203
2748.3287101836504,3248
2750.099685008934,3319
2751.870304046388,3356
2753.640567596418,3288
2755.4104759595057,3251
2757.1800294362156,3260
2758.949228327187,3271
2760.7180729331412,3311
2762.486563554877,3309
2764.254700493272,3288
2766.022484049284,3297
2767.789914523947,3203
2769.5569922183786,3355
2771.3237174337705,3213
2773.090090471394,3360
2774.8561116326036,3309
2776.6217812188274,3273
2778.3870995315756,3286
2780.1520668724356,3374
2781.9166835430747,3271
2783.6809498452394,3274
2785.444866080754,3203
2787.2084325515225,3297
2788.971649559527,3320
2790.73451740683,3245
2792.4970363955713,3332
2794.2592068279705,3249
2796.0210290063264,3327
2797.7825032330147,3295
2799.543629810493,3329
2801.304409041296,3252
2803.0648412280366,3360
2804.8249266734088,3423
2806.5846656801846,3341
2808.344058551212,3374
2810.1031055894246,3303
2811.8618070978273,3307
2813.6201633795085,3239
2815.378174737636,3378
2817.1358414754536,3416
2818.893163896285,3349
2820.6501423035334,3340
2822.4067770006814,3310
2824.1630682912883,3323
2825.9190164789957,3362
2827.6746218675207,3387
2829.429884760661,3398
2831.184805462294,3262
2832.9393842763743,3253
2834.693621506936,3334
2836.4475174580916,3370
2838.201072434034,3250
2839.954286739034,3334
2841.707160677441,3417
2843.459694553685,3307
2845.2118886722724,3342
2846.96374333779,3345
2848.7152588549034,3353
2850.4664355283567,3331
2852.217273662973,3317
2853.9677735636546,3266
2855.7179355353833,3394
2857.4677598832186,3346
2859.217246912299,3291
2860.9663969278427,3331
2862.715210235146,3404
2864.4636871395846,3315
2866.211827946614,3407
2867.9596329617652,3419
2869.7071024906536,3267
2871.4542368389684,3457
2873.20103631248,3258
2874.947501217038,3330
2876.6936318585695,3363
2878.4394285430812,3342
2880.1848915766604,3427
2881.9300212654707,3287
2883.6748179157553,3369
2885.4192818338374,3325
2887.1634133261173,3378
2888.907212699077,3366
2890.6506802592744,3369
2892.393816313348,3441
2894.1366211680142,3285
2895.8790951300693,3395
2897.621238506388,3351
2899.363051603925,3324
2901.1045347297118,3321
2902.8456881908596,3351
2904.58651229456,3425
2906.327007348081,3378
2908.067173658772,3365
2909.8070115340597,3398
2911.5465212814497,3343
2913.285703208527,3349
2915.0245576229563,3324
2916.7630848324807,3312
2918.5012851449196,3295
2920.2391588681758,3342
2921.976706310227,3259
2923.7139277791334,3284
2925.4508235830313,3341
2927.187394030137,3294
2928.923639428745,3386
2930.6595600872306,3406
2932.395156314046,3422
2934.1304284177218,3320
2935.8653767068713,3470
2937.6000014901815,3238
2939.3343030764227,3413
2941.068281774442,3543
2942.8019378931644,3401
2944.5352717415976,3400
2946.2682836288236,3349
2948.0009738640065,3421
2949.7333427563885,3336
2951.465390615289,3431
2953.1971177501086,3419
2954.9285244703265,3317
2956.6596110855,3385
2958.3903779052657,3430
2960.1208252393385,3350
2961.8509533975125,3375
2963.5807626896617,3372
2965.3102534257378,3423
2967.0394259157715,3480
2968.768280469873,3452
2970.496817398232,3380
2972.2250370111146,3395
2973.952939618869,3452
2975.6805255319196,3503
2977.4077950607707,3383
2979.134748516006,3520
2980.861386208289,3481
2982.587708448359,3491
2984.313715547037,3479
2986.039407815222,3392
2987.764785563891,3301
2989.489849104102,3442
2991.2145987469908,3433
2992.9390348037705,3413
2994.6631575857346,3460
2996.3869674042576,3489
2998.1104645707887,3420
2999.83364939686,3519
3001.5565221940783,3459
3003.2790832741334,3424
3005.0013329487924,3417
3006.7232715298996,3428
3008.4448993293804,3313
3010.166216659239,3438
3011.887223831558,3442
3013.607921158498,3385
3015.3283089522993,3365
3017.0483875252826,3512
3018.7681571898443,3425
3020.4876182584626,3429
3022.2067710436927,3470
3023.9256158581707,3458
3025.644153014609,3421
3027.362382825801,3439
3029.0803056046193,3411
3030.797921664012,3475
3032.5152313170106,3335
3034.2322348767225,3443
3035.9489326563353,3405
3037.665324969115,3373
3039.3814121284063,3476
3041.097194447633,3461
3042.812672240299,3532
3044.5278458199855,3469
3046.2427155003525,3457
3047.9572815951406,3560
3049.671544418167,3557
3051.38550428333,3480
3053.0991615046073,3400
3054.812516396051,3359
3056.5255692717974,3378
3058.2383204460575,3481
3059.9507702331257,3486
3061.662918947372,3435
3063.3747669032446,3396
3065.0863144152736,3454
3066.7975617980674,3479
3068.508509366309,3553
3070.219157434767,3469
3071.9295063182844,3552
3073.639556331785,3461
3075.3493077902704,3486
3077.058761008821,3472
3078.7679163025964,3374
3080.476773986837,3541
3082.1853343768594,3505
3083.89359778806,3478
3085.6015645359153,3513
3087.3092349359786,3408
3089.016609303884,3446
3090.7236879553434,3495
3092.4304712061476,3496
3094.136959372166,3484
3095.843152769349,3465
3097.5490517137237,3525
3099.2546565213966,3461
3100.959967508554,3545
3102.66498499146,3523
3104.3697092864577,3567
3106.0741407099695,3510
3107.778279578498,3450
3109.482126208622,3550
3111.1856809170004,3551
3112.8889440203716,3522
3114.5919158355528,3601
3116.294596679439,3464
3117.996986869006,3626
3119.6990867213062,3558
3121.4008965534726,3538
3123.102416682717,3631
3124.803647426329,3506
3126.5045891016784,3675
3128.205242026213,3528
3129.90560651746,3521
3131.605682893025,3620
3133.3054714705922,3500
3135.0049725679282,3562
3136.7041865028714,3543
3138.4031135933465,3509
3140.101754157353,3576
3141.800108512971,3534
3143.498176978357,3572
3145.1959598717494,3594
3146.8934575114636,3517
3148.5906702158954,3430
3150.2875983035183,3470
3151.9842420928853,3492
3153.680601902627,3502
3155.376678051456,3437
3157.07247085816,3423
3158.767980641609,3450
3160.463207720748,3538
3162.158152414606,3512
3163.8528150422862,3501
3165.5471959229726,3571
3167.2412953759303,3441
3168.9351137204976,3591
3170.628651276098,3479
3172.3219083622307,3572
3174.014885298474,3504
3175.707582404485,3503
3177.4000000000005,3584
3179.092138404835,3511
3180.7839979388846,3553
3182.47557892212,3507
3184.166881674594,3443
3185.8579065164386,3507
3187.5486537678626,3556
3189.2391237491547,3582
3190.9293167806827,3606
3192.6192331828934,3578
3194.3088732763117,3618
3195.998237381542,3540
3197.687325819268,3589
3199.376138910251,3510
3201.064676975334,3493
3202.7529403354347,3495
3204.4409293115523,3525
3206.1286442247647,3615
3207.816085396229,3482
3209.5032531471825,3558
3211.190147798936,3519
3212.8767696728846,3562
3214.5631190905015,3500
3216.2491963733373,3445
3217.9350018430214,3542
3219.6205358212637,3620
3221.305798629851,3386
3222.990790590651,3475
3224.6755120256103,3354
3226.359963256751,3484
3228.0441446061795,3526
3229.7280563960758,3511
3231.411698948703,3551
3233.0950725863995,3501
3234.778177631587,3487
3236.461014406761,3578
3238.1435832345005,3580
3239.8258844374595,3445
3241.507918338374,3524
3243.1896852600576,3533
3244.8711855254023,3480
3246.552419457381,3441
3248.233387379042,3595
3249.914089613516,3613
3251.59452648401,3592
3253.274698313813,3549
3254.95460542629,3408
3256.6342481448855,3467
3258.313626793125,3585
3259.9927416946084,3500
3261.6715931730196,3509
3263.3501815521176,3497
3265.0285071557437,3529
3266.706570307815,3548
3268.3843713323286,3562
3270.0619105533615,3478
3271.739188295068,3551
3273.4162048816834,3513
3275.0929606375184,3571
3276.769455886966,3540
3278.445690954498,3511
3280.1216661646613,3681
3281.797381842087,3542
3283.4728383114807,3571
3285.1480358976296,3529
3286.8229749253996,3532
3288.4976557197333,3432
3290.172078605655,3472
3291.846243908266,3445
3293.5201519527463,3419
3295.193803064357,3488
3296.8671975684374,3540
3298.5403357904024,3462
3300.21321805575,3525
3301.8858446900567,3608
3303.558216018975,3633
3305.23033236824,3633
3306.9021940636603,3635
3308.57380143113,3512
3310.2451547966184,3570
3311.916254486174,3557
3313.5871008259246,3607
3315.2576941420766,3588
3316.9280347609147,3543
3318.5981230088046,3460
3320.2679592121895,3441
3321.9375436975924,3478
3323.606876791612,3418
3325.27595882093,3522
3326.944790112305,3486
3328.6133709925753,3520
3330.2817017886573,3583
3331.949782827547,3485
3333.617614436319,3598
3335.2851969421245,3642
3336.952530672199,3574
3338.619615953853,3532
3340.286453114475,3706
3341.9530424815357,3712
3343.619384382583,3572
3345.2854791452437,3587
3346.951327097224,3515
3348.6169285663073,3609
3350.2822838803577,3652
3351.947393367319,3665
3353.61225735521,3593
3355.2768761721345,3594
3356.9412501462693,3645
3358.605379605873,3570
3360.2692648792827,3579
3361.9329062949146,3606
3363.596304181263,3465
