CollectionTime,7/11/2024 11:49:52 AM
ExposureUsed,3
CalibratedSpectrum
-962.7078968117929,592
-959.9714848408522,636
-957.2358232597828,640
-954.5009119013725,597
-951.7667505983302,627
-949.0333391832855,666
-946.3006774887896,641
-943.5687653473143,629
-940.837602591253,619
-938.1071890529199,617
-935.3775245645503,632
-932.6486089583007,656
-929.9204420662485,698
-927.1930237203925,654
-924.4663537526524,640
-921.7404319948689,648
-919.0152582788041,689
-916.2908324361409,749
-913.5671542984834,625
-910.8442236973568,624
-908.1220404642074,640
-905.4006044304027,677
-902.679915427231,618
-899.959973285902,594
-897.2407778375464,648
-894.5223289132158,634
-891.8046263438832,644
-889.0876699604426,658
-886.3714595937089,644
-883.6559950744183,635
-880.9412762332282,649
-878.2273029007168,629
-875.5140749073835,647
-872.8015920836489,647
-870.0898542598545,628
-867.3788612662631,634
-864.6686129330585,649
-861.9591090903457,638
-859.2503495681506,585
-856.5423341964203,611
-853.8350628050229,607
-851.1285352237478,621
-848.4227512823054,612
-845.7177108103272,629
-843.0134136373656,616
-840.3098595928943,621
-837.6070485063082,632
-834.9049802069229,660
-832.2036545239757,624
-829.5030712866244,645
-826.8032303239481,659
-824.1041314649472,637
-821.4057745385428,632
-818.7081593735775,646
-816.0112857988148,622
-813.3151536429393,641
-810.6197627345566,603
-807.9251129021936,611
-805.2312039742981,624
-802.5380357792392,617
-799.8456081453069,639
-797.1539209007124,661
-794.462973873588,687
-791.772766891987,660
-789.083299783884,618
-786.3945723771743,655
-783.7065844996748,611
-781.0193359791231,628
-778.3328266431781,634
-775.6470563194197,646
-772.9620248353489,626
-770.2777320183878,635
-767.5941776958798,687
-764.9113616950891,660
-762.2292838432011,672
-759.5479439673222,620
-756.8673418944801,649
-754.1874774516235,658
-751.5083504656222,637
-748.8299607632671,691
-746.15230817127,648
-743.475392516264,699
-740.7992136248035,664
-738.1237713233636,647
-735.4490654383407,649
-732.7750957960521,685
-730.1018622227365,677
-727.4293645445534,677
-724.7576025875837,672
-722.0865761778291,663
-719.4162851412126,726
-716.7467293035781,719
-714.0779084906909,673
-711.409822528237,688
-708.7424712418238,685
-706.0758544569796,713
-703.4099719991541,732
-700.7448236937178,730
-698.0804093659622,707
-695.4167288411002,658
-692.7537819442656,693
-690.0915685005134,704
-687.4300883348199,675
-684.7693412720819,669
-682.1093271371178,723
-679.4500457546669,673
-676.7914969493897,654
-674.1336805458676,681
-671.4765963686034,700
-668.8202442420206,703
-666.1646239904642,718
-663.5097354382001,732
-660.8555784094151,757
-658.2021527282176,717
-655.5494582186366,722
-652.8974947046223,725
-650.2462620100463,704
-647.5957599587009,715
-644.9459883742998,760
-642.2969470804776,738
-639.6486359007902,749
-637.0010546587141,789
-634.3542031776476,752
-631.7080812809096,741
-629.0626887917401,753
-626.4180255333008,749
-623.7740913286734,803
-621.1308860008619,799
-618.4884093727904,762
-615.8466612673046,723
-613.2056415071715,758
-610.5653499150785,729
-607.9257863136347,783
-605.28695052537,753
-602.6488423727357,713
-600.0114616781036,737
-597.3748082637674,746
-594.7388819519412,778
-592.1036825647604,823
-589.4692099242818,812
-586.8354638524829,817
-584.2024441712624,801
-581.5701507024403,776
-578.9385832677575,739
-576.3077416888759,800
-573.6776257873787,780
-571.0482353847704,793
-568.4195703024757,773
-565.7916303618415,794
-563.164415384135,786
-560.5379251905453,784
-557.9121596021815,734
-555.2871184400748,770
-552.6628015251767,782
-550.0392086783606,809
-547.4163397204204,818
-544.794194472071,803
-542.1727727539491,837
-539.5520743866118,861
-536.9320991905377,867
-534.3128469861261,885
-531.6943175936979,906
-529.0765108334947,886
-526.4594265256793,963
-523.8430644903358,1072
-521.2274245474689,1044
-518.612506517005,1103
-515.9983102187913,1143
-513.3848354725959,1146
-510.77208209810846,1212
-508.16004991493924,1322
-505.5487387426199,1411
-502.9381484006032,1574
-500.3282787082628,1588
-497.71912948489364,1594
-495.1107005497117,1592
-492.5029917218539,1441
-489.8960028203786,1332
-487.28973366426493,1195
-484.68418407241325,1130
-482.07935386364494,1023
-479.47524285670266,1011
-476.87185087025,994
-474.2691777228715,988
-471.66722323307334,1011
-469.0659872192821,993
-466.4654694998459,1036
-463.86566989303384,986
-461.26658821703614,1024
-458.66822428996414,972
-456.07057792985,1005
-453.4736489546475,980
-450.877437182231,955
-448.28194243039627,962
-445.68716451686,980
-443.09310325926003,928
-440.49975847515555,973
-437.9071299820263,958
-435.31521759727354,1032
-432.72402113821954,1045
-430.13354042210767,992
-427.5437752661022,1003
-424.95472548728867,1028
-422.36639090267386,1006
-419.7787713291855,1059
-417.1918665836721,1104
-414.60567648290385,1051
-412.0202008435715,1014
-409.4354394822874,1117
-406.8513922155845,1052
-404.26805885991723,1066
-401.685439231661,1069
-399.103533147112,1062
-396.522340422488,1059
-393.9418608739278,1016
-391.3620943174908,1017
-388.7830405691583,1027
-386.2046994448317,950
-383.6270707603344,946
-381.05015433141045,795
-378.473949973725,825
-375.8984575028645,768
-373.32367673433623,703
-370.74960748356875,712
-368.1762495659117,715
-365.60360279663576,650
-363.03166699093265,588
-360.4604419639154,562
-357.8899275306178,534
-355.32012350599507,534
-352.7510297049233,532
-350.1826459421999,500
-347.61497203254316,496
-345.04800779059235,524
-342.4817530309082,559
-339.91620756797226,561
-337.35137121618743,589
-334.7872437898774,606
-332.22382510328725,607
-329.66111497058273,491
-327.09911320585127,491
-324.53781962310075,519
-321.9772340362607,548
-319.4173562591816,482
-316.8581861056348,496
-314.2997233893127,501
-311.7419679238294,472
-309.1849195227194,567
-306.62857799943856,598
-304.0729431673641,589
-301.51801483979375,564
-298.963792829947,595
-296.41027695096386,607
-293.85746701590574,598
-291.3053628377552,612
-288.7539642294155,645
-286.2032710037115,579
-283.65328297338897,560
-281.1039999511146,694
-278.5554217494762,709
-276.007548180983,576
-273.4603790580651,516
-270.9139141930734,565
-268.3681533982807,586
-265.8230964858798,566
-263.27874326798565,597
-260.7350935566336,645
-258.1921471637804,628
-255.6499039013039,640
-253.10836358100266,644
-250.56752601459698,663
-248.02739101372765,642
-245.48795838995704,694
-242.94922795476816,706
-240.41119951956557,663
-237.8738728956746,782
-235.33724789434166,675
-232.80132432673452,656
-230.2661020039418,628
-227.73158073697357,664
-225.19776033676033,747
-222.66464061415422,760
-220.1322213799284,651
-217.60050244477725,632
-215.06948361931552,648
-212.53916471408013,824
-210.00954553952818,883
-207.48062590603843,788
-204.9524056239104,730
-202.4248845033651,807
-199.8980623545441,724
-197.37193898751036,737
-194.84651421224817,762
-192.32178783866232,805
-189.79775967657952,840
-187.27442953574644,870
-184.7517972258321,989
-182.2298625564256,953
-179.7086253370378,920
-177.18808537710026,852
-174.66824248596583,840
-172.14909647290835,803
-169.6306471471229,788
-167.11289431772548,864
-164.59583779375328,901
-162.07947738416453,856
-159.5638128978386,897
-157.04884414357605,1043
-154.53457093009854,1055
-152.02099306604828,926
-149.50811035998936,933
-146.99592262040665,996
-144.48442965570587,1044
-141.97363127421409,1143
-139.46352728417958,992
-136.95411749377126,981
-134.44540171107985,1039
-131.93737974411636,926
-129.43005140081357,1036
-126.92341648902493,1435
-124.41747481652521,1603
-121.91222619101006,1524
-119.40767042009657,1469
-116.90380731132257,1589
-114.40063667214702,1868
-111.8981583099503,1910
-109.3963720320337,1534
-106.89527764561933,1725
-104.39487495785067,2515
-101.89516377579241,3573
-99.39614390642998,4343
-96.89781515667039,4473
-94.40017733334128,4204
-91.90323024319173,4021
-89.40697369289148,5528
-86.91140748903172,7372
-84.41653143812482,6536
-81.92234534660395,4723
-79.42884902082358,6196
-76.93604226705907,12556
-74.4439248915071,21496
-71.95249670028534,31379
-69.46175749943245,35253
-66.97170709490854,29866
-64.48234529259423,21218
-61.99367189829195,14512
-59.50568671772464,10650
-57.01838955653636,7585
-54.53178022029283,5625
-52.045858514480074,6268
-49.560624244506016,8124
-47.07607721569923,10084
-44.59221723330904,11607
-42.10904410250669,12685
-39.62655762838392,14559
-37.14475761595372,12597
-34.66364387015028,11990
-32.18321619582866,11967
-29.70347439776515,11240
-27.224418280657005,11209
-24.74604764912317,12635
-22.26836230770266,19981
-19.7913620608565,38613
-17.315046712966478,65036
-14.83941606833514,65036
-12.36446993118659,65036
-9.89020810566592,65036
-7.416630395839093,65036
-4.94373660569363,65036
-2.471526539137585,65036
-6.821210263296962E-13,65036
2.47084320796705,65036
4.941003281093458,65036
7.410480415786196,65036
9.879274808531363,65036
12.347386655893956,65036
14.814816154518212,65036
17.28156350112681,65036
19.74762889252179,65036
22.21301252558385,21850
24.67771459727237,4609
27.141735304626195,3183
29.605074844762612,3194
32.06773341487792,2867
34.52971121224755,2944
36.99100843422559,3418
39.45162527824516,3077
41.91156194181792,2296
44.370818622535126,1985
46.82939551806646,1932
49.287292826160524,2101
51.74451074464503,2991
54.201049471426245,2963
56.65690920448981,1872
59.112090141899785,1504
61.56659248179983,1447
64.02041642241159,1491
66.4735621620365,1502
68.92602989905402,1519
71.37781983192338,1599
73.82893215918205,1582
76.27936707944684,1531
78.72912479141326,1356
81.17820549385567,1538
83.62660938562783,1861
86.07433666566146,1538
88.5213875329681,1243
90.96776218663751,1154
93.41346082583925,1009
95.85848364982041,1292
98.30283085790859,1699
100.7465026495089,1454
103.18949922410604,1226
105.63182078126385,1099
108.07346752062438,1128
110.51443964190923,1014
112.95473734491827,1074
115.39436082953114,1138
117.83331029570547,1041
120.27158594347827,1076
122.7091879729652,1404
125.1461165843615,1188
127.58237197794062,1020
130.01795435405518,988
132.4528639131364,1088
134.88710085569494,1016
137.32066538231982,999
139.75355769367923,942
142.1857779905207,949
144.61732647366978,915
147.04820334403132,975
149.47840880258934,1115
151.90794305040674,1165
154.33680628862487,1339
156.76499871846443,1524
159.19252054122433,1563
161.61937195828352,1676
164.04555317109896,1830
166.47106438120693,2072
168.89590579022217,2289
171.320077599839,2416
173.7435800118302,2656
176.16641322804742,2695
178.58857745042144,2843
181.01007288096173,2912
183.43089972175687,2807
185.85105817497413,2780
188.27054844285988,2728
190.6893707277394,2672
193.10752523201643,2850
195.5250121581745,2885
197.9418317087751,2999
200.3579840864594,2947
202.7734694939469,2901
205.18828813403627,3086
207.6024402096051,3089
210.01592592360964,3074
212.42874547908548,3014
214.84089907914665,3019
217.2523869269868,3000
219.66320922587727,2928
222.0733661791695,2847
224.48285799029293,2887
226.8916848627572,2871
229.29984700014882,2944
231.7073446061355,2964
234.11417788446204,2817
236.520347038953,3077
238.92585227351185,3056
241.33069379212054,3056
243.73487179884035,3192
246.1383864978112,3137
248.541238093252,3043
250.9434267894609,3073
253.34495279081432,3139
255.74581630176783,3028
258.1460175268563,3051
260.54555667069314,3056
262.9444339379703,3033
265.3426495334594,2996
267.7402036620107,3065
270.1370965285529,2954
272.53332833809407,2845
274.9288992957214,2809
277.32380960660055,2696
279.718059475976,2760
282.1116491091717,2740
284.5045787115897,2714
286.89684848871195,2625
289.2884586460981,2591
291.67940938938807,2704
294.0697009242996,2816
296.4593334566299,2784
298.84830719225477,2627
301.23662233712923,2612
303.6242790972866,2617
306.01127767884,2587
308.39761828798066,2556
310.78330113097934,2627
313.16832641418534,2562
315.5526943440269,2400
317.9364051270112,2370
320.3194589697242,2439
322.70185607883093,2472
325.0835966610754,2436
327.4646809232805,2357
329.8451090723478,2281
332.2248813152577,2396
334.6039978590701,2400
336.9824589109231,2352
339.36026467803447,2346
341.7374153677,2307
344.113911187295,2276
346.48975234427337,2209
348.8649390461686,2257
351.2394715005918,2302
353.61334991523415,2368
355.9865744978655,2186
358.35914545633375,2271
360.73106299856715,2277
363.10232733257146,2296
365.47293866643247,2219
367.84289720831396,2193
370.2122031664593,2185
372.5808567491905,2174
374.9488581649083,2236
377.31620762209275,2093
379.6829053293021,2172
382.0489514951745,2155
384.4143463284262,2199
386.7790900378528,2085
389.14318283232853,2176
391.50662492080653,2132
393.86941651231916,2098
396.23155781597745,2142
398.5930490409713,2095
400.9538903965696,2127
403.3140820921202,2165
405.6736243370498,2069
408.03251734086336,2125
410.3907613131465,2005
412.74835646356166,2035
415.10530300185144,2055
417.4616011378372,2015
419.81725108141893,2086
422.1722530425758,2126
424.5266072313656,2007
426.880313857925,2030
429.2333731324701,1985
431.58578526529516,2005
433.9375504667738,2085
436.2886689473588,1991
438.63914091758113,2033
440.9889665880513,1960
443.33814616945835,2029
445.68667987257015,1984
448.03456790823395,2053
450.3818104873759,2073
452.72840782100013,2031
455.07436012019105,2013
457.41966759611057,1970
459.7643304600007,1986
462.10834892318155,1984
464.4517231970525,1982
466.79445349309174,2042
469.1365400228566,2031
471.4779829979826,1994
473.81878263018564,1976
476.15893913125876,2044
478.4984527130747,2117
480.8373235875855,2099
483.17555196682144,2254
485.5131380628919,2195
487.8500820879857,2296
490.1863842543697,2532
492.52204477439034,2602
494.8570638604725,2858
497.1914417251204,3132
499.52517858091653,3219
501.85827464052306,3292
504.19073011668036,3316
506.5225452222086,3073
508.85372017000566,3034
511.18425517304956,2993
513.514150444396,3296
515.8434061971808,3894
518.1720226446176,4487
520.4999999999999,4520
522.8273384766991,4327
525.1540382881666,4031
527.480099647932,3660
529.8055227696037,3025
532.1303078668694,2560
534.454455153496,2296
536.777964843328,2189
539.1008371502907,2143
541.4230722883866,2017
543.744670471698,2095
546.0656319143858,2043
548.3859568306899,2062
550.7056454349294,2067
553.0246979415016,2026
555.3431145648834,1961
557.6608955196306,2031
559.978041020377,1956
562.2945512818363,2041
564.6104265188006,1962
566.9256669461412,1936
569.2402727788082,1994
571.5542442318302,2072
573.8675815203156,1969
576.1802848594508,2021
578.4923544645015,2097
580.8037905508126,2092
583.114593333807,2073
585.4247630289875,2013
587.7342998519354,1964
590.0432040183106,2029
592.3514757438526,2060
594.6591152443794,2051
596.9661227357875,2048
599.2724984340531,2139
601.578242555231,2070
603.8833553154542,2057
606.1878369309362,2030
608.4916876179676,2090
610.7949075929192,2085
613.0974970722403,1992
615.3994562724587,2058
617.7007854101818,1969
620.0014847020951,1979
622.3015543649641,2026
624.6009946156324,2006
626.8998056710224,2072
629.1979877481361,2002
631.4955410640538,2054
633.7924658359349,2082
636.0887622810175,2049
638.3844306166192,2151
640.6794710601358,2121
642.9738838290426,2130
645.2676691408932,2079
647.5608272133207,2122
649.853358264037,2131
652.1452625108324,2077
654.4365401715764,2084
656.7271914642178,2093
659.0172166067838,2107
661.3066158173809,2088
663.5953893141935,2117
665.8835373154867,2098
668.1710600396028,2192
670.4579577049639,2177
672.7442305300709,2081
675.0298787335033,2158
677.3149025339197,2147
679.599302150058,2089
681.8830778007342,2048
684.1662297048437,2118
686.4487580813608,2097
688.7306631493387,2208
691.0119451279091,2207
693.2926042362834,2232
695.5726406937516,2141
697.8520547196814,2148
700.1308465335215,2104
702.4090163547982,2062
704.6865644031171,2101
706.9634908981619,2122
709.2397960596965,2056
711.5154801075631,2102
713.7905432616823,2223
716.0649857420548,2150
718.3388077687592,2119
720.612009561953,1990
722.8845913418733,2096
725.1565533288352,2140
727.427895743234,2162
729.6986188055427,2047
731.9687227363137,2108
734.238207756178,2120
736.5070740858458,2089
738.7753219461066,2089
741.0429515578281,2180
743.3099631419569,2073
745.5763569195191,2132
747.8421331116193,2141
750.1072919394409,2058
752.3718336242467,2143
754.6357583873777,2117
756.8990664502545,2114
759.1617580343765,2091
761.423833361321,2152
763.6852926527457,2141
765.9461361303862,2180
768.206364016058,2092
770.4659765316536,2078
772.7249738991469,2108
774.9833563405886,2159
777.2411240781092,2112
779.4982773339183,2131
781.7548163303044,2194
784.010741289634,2180
786.2660524343538,2172
788.5207499869881,2176
790.7748341701416,2159
793.0283052064964,2183
795.2811633188143,2085
797.5334087299362,2165
799.7850416627813,2130
802.0360623403484,2188
804.2864709857143,2074
806.5362678220353,2120
808.7854530725468,2141
811.0340269605625,2178
813.2819897094754,2215
815.5293415427581,2161
817.77608268396,2150
820.0222133567116,2149
822.2677337847211,2103
824.5126441917765,2154
826.7569448017433,2172
829.0006358385675,2125
831.2437175262731,2189
833.4861900889629,2095
835.7280537508192,2133
837.9693087361026,2135
840.2099552691533,2117
842.4499935743896,2143
844.689423876309,2148
846.9282463994886,2093
849.1664613685833,2247
851.4040690083276,2192
853.6410695435349,2176
855.877463199097,2099
858.1132501999847,2125
860.3484307712487,2133
862.5830051380175,2134
864.8169735254988,2236
867.0503361589791,2103
869.2830932638243,2198
871.5152450654786,2195
873.7467917894654,2165
875.9777336613873,2142
878.2080709069252,2227
880.4378037518389,2144
882.666932421968,2192
884.8954571432301,2161
887.1233781416219,2237
889.3506956432192,2266
891.5774098741766,2203
893.803521060728,2292
896.0290294291852,2129
898.2539352059397,2207
900.4782386174619,2236
902.7019398903011,2142
904.925039251085,2160
907.147536926521,2186
909.3694331433943,2138
911.59072812857,2183
913.8114221089921,2116
916.0315153116827,2146
918.2510079637437,2158
920.4699002923547,2118
922.6881925247761,2108
924.905884888345,2170
927.1229776104793,2095
929.3394709186747,2171
931.555365040506,2116
933.7706602036275,2113
935.9853566357709,2109
938.1994545647489,2141
940.4129542184515,2171
942.6258558248488,2123
944.8381596119883,2006
947.0498658079974,2113
949.2609746410825,2051
951.4714863395287,2069
953.6814011316998,2014
955.8907192460387,2062
958.0994409110671,2077
960.3075663553858,2067
962.5150958076741,2093
964.7220294966913,2029
966.928367651274,2035
969.1341105003388,2050
971.3392582728806,2078
973.5438111979742,1983
975.747769504772,2002
977.9511334225061,1995
980.153903180487,2008
982.3560790081052,1991
984.5576611348289,2016
986.7586497902058,2020
988.9590452038618,2068
991.158847605503,2006
993.3580572249133,1923
995.5566742919558,1897
997.7546990365728,1879
999.952131688785,1901
1002.1489724786926,1794
1004.3452216364743,1888
1006.5408793923874,1846
1008.7359459767691,1776
1010.9304216200343,1811
1013.1243065526781,1768
1015.3176010052733,1798
1017.510305208472,1780
1019.7024193930064,1795
1021.8939437896848,1828
1024.0848786293977,1829
1026.2752241431122,1760
1028.4649805618747,1775
1030.6541481168115,1772
1032.842727039127,1732
1035.0307175601051,1768
1037.2181199111074,1805
1039.4049343235752,1750
1041.591161029029,1756
1043.7768002590683,1796
1045.9618522453698,1745
1048.1463172196918,1781
1050.3301954138697,1785
1052.513487059818,1717
1054.69619238953,1721
1056.8783116350783,1703
1059.0598450286152,1754
1061.2407928023704,1785
1063.4211551886528,1741
1065.6009324198508,1692
1067.780124728432,1712
1069.9587323469414,1735
1072.1367555080046,1768
1074.314194444325,1788
1076.4910493886855,1762
1078.667320573947,1692
1080.843008233051,1667
1083.0181125990161,1676
1085.1926339049414,1627
1087.3665723840027,1717
1089.5399282694575,1667
1091.7127017946405,1656
1093.8848931929647,1670
1096.0565026979243,1683
1098.2275305430899,1634
1100.3979769621128,1713
1102.567842188722,1656
1104.737126456726,1653
1106.9058300000124,1641
1109.0739530525475,1504
1111.2414958483764,1648
1113.4084586216231,1651
1115.5748416064907,1592
1117.7406450372605,1660
1119.9058691482942,1659
1122.0705141740304,1598
1124.2345803489884,1630
1126.3980679077658,1497
1128.5609770850388,1555
1130.7233081155623,1635
1132.8850612341707,1620
1135.0462366757774,1591
1137.2068346753745,1676
1139.3668554680326,1633
1141.526299288901,1597
1143.68516637321,1607
1145.8434569562655,1635
1148.001171273455,1618
1150.158309560244,1635
1152.3148720521767,1627
1154.470858984876,1620
1156.626270594044,1635
1158.7811071154629,1540
1160.9353687849912,1562
1163.089055838569,1624
1165.242168512213,1556
1167.3947070420209,1593
1169.5466716641677,1606
1171.6980626149075,1588
1173.8488801305748,1604
1175.9991244475814,1552
1178.1487958024186,1594
1180.2978944316555,1566
1182.4464205719428,1570
1184.5943744600072,1614
1186.7417563326567,1549
1188.8885664267755,1541
1191.0348049793297,1523
1193.1804722273619,1561
1195.325568407995,1592
1197.4700937584303,1642
1199.614048515948,1590
1201.7574329179074,1522
1203.900247201746,1549
1206.042491604982,1597
1208.1841663652099,1570
1210.3252717201053,1624
1212.465807907422,1582
1214.6057751649923,1604
1216.7451737307279,1550
1218.8840038426192,1593
1221.0222657387353,1607
1223.1599596572241,1528
1225.2970858363137,1559
1227.4336445143094,1634
1229.5696359295966,1579
1231.705060320639,1634
1233.8399179259786,1651
1235.9742089842384,1591
1238.107933734118,1579
1240.2410924143974,1592
1242.373685263935,1622
1244.5057125216676,1711
1246.6371744266116,1719
1248.7680712178621,1647
1250.898403134593,1709
1253.028170416058,1592
1255.1573733015875,1666
1257.2860120305932,1604
1259.4140868425648,1568
1261.54159797707,1712
1263.6685456737569,1613
1265.7949301723515,1653
1267.9207517126597,1695
1270.046010534565,1701
1272.1707068780306,1663
1274.2948409830983,1643
1276.4184130898889,1649
1278.541423438603,1718
1280.6638722695184,1731
1282.785759822993,1658
1284.9070863394636,1685
1287.0278520594447,1739
1289.1480572235314,1659
1291.2677020723963,1690
1293.3867868467923,1689
1295.5053117875495,1677
1297.623277135579,1760
1299.740683131868,1718
1301.8575300174857,1737
1303.973818033578,1754
1306.0895474213703,1721
1308.2047184221678,1743
1310.3193312773528,1786
1312.4333862283888,1737
1314.5468835168163,1736
1316.659823384255,1768
1318.7722060724045,1751
1320.8840318230418,1786
1322.9953008780249,1741
1325.1060134792888,1721
1327.2161698688478,1751
1329.3257702887959,1715
1331.4348149813054,1712
1333.5433041886276,1764
1335.6512381530933,1823
1337.7586171171101,1751
1339.8654413231675,1771
1341.9717110138317,1737
1344.0774264317488,1791
1346.1825878196432,1785
1348.2871954203192,1747
1350.3912494766587,1694
1352.4947502316231,1717
1354.5976979282532,1756
1356.7000928096686,1745
1358.8019351190665,1766
1360.9032250997243,1738
1363.0039629949988,1715
1365.1041490483235,1707
1367.2037835032133,1712
1369.3028666032606,1711
1371.401398592137,1739
1373.4993797135926,1740
1375.5968102114575,1751
1377.6936903296396,1736
1379.7900203121262,1720
1381.8858004029835,1745
1383.9810308463561,1721
1386.075711886469,1720
1388.1698437676241,1762
1390.2634267342032,1793
1392.356461030667,1809
1394.4489469015557,1708
1396.5408845914872,1775
1398.6322743451592,1837
1400.7231164073469,1876
1402.813411022907,1763
1404.903158436773,1851
1406.9923588939578,1797
1409.0810126395531,1872
1411.1691199187303,1816
1413.2566809767386,1869
1415.343696058907,1903
1417.4301654106425,1887
1419.5160892774315,1922
1421.6014679048399,1882
1423.6863015385125,1902
1425.7705904241707,1922
1427.8543348076178,1905
1429.9375349347342,1923
1432.0201910514802,1971
1434.102303403894,1955
1436.1838722380944,1979
1438.2648978002767,1947
1440.3453803367174,1944
1442.4253200937692,2008
1444.5047173178677,2033
1446.5835722555234,2073
1448.6618851533285,2195
1450.739656257952,2091
1452.8168858161434,2184
1454.8935740747306,2236
1456.96972128062,2206
1459.045327680797,2181
1461.120393522327,2288
1463.1949190523528,2275
1465.2689045180973,2378
1467.3423501668608,2292
1469.415256246024,2366
1471.4876230030463,2496
1473.559450685465,2467
1475.6307395408976,2368
1477.7014898170391,2579
1479.771701761665,2504
1481.8413756226287,2564
1483.9105116478618,2664
1485.9791100853772,2664
1488.0471711832643,2650
1490.1146951896926,2768
1492.1816823529098,2763
1494.2481329212433,2821
1496.3140471430984,2863
1498.3794252669609,2843
1500.4442675413939,2887
1502.5085742150404,2963
1504.572345536622,2965
1506.6355817549388,2985
1508.6982831188702,3049
1510.7604498773744,2973
1512.8220822794883,3029
1514.8831805743293,3078
1516.9437450110909,3109
1519.003775839048,3092
1521.0632733075522,3165
1523.1222376660367,3227
1525.1806691640113,3349
1527.2385680510652,3453
1529.2959345768668,3483
1531.3527689911643,3403
1533.4090715437833,3520
1535.4648424846291,3530
1537.5200820636855,3596
1539.5747905310159,3577
1541.6289681367616,3670
1543.6826151311434,3691
1545.7357317644614,3880
1547.7883182870937,3721
1549.8403749494987,3861
1551.8919020022113,4050
1553.9428996958477,4058
1555.9933682811015,4101
1558.0433080087469,4071
1560.0927191296346,4213
1562.1416018946961,4161
1564.1899565549415,4089
1566.2377833614592,4157
1568.2850825654164,3992
1570.3318544180606,3886
1572.3780991707158,3735
1574.423817074788,3603
1576.4690083817595,3427
1578.5136733431923,3318
1580.5578122107272,3173
1582.601425236085,3054
1584.6445126710646,2810
1586.6870747675434,2794
1588.7291117774776,2667
1590.7706239529034,2632
1592.8116115459347,2499
1594.8520748087658,2453
1596.8920139936686,2364
1598.9314293529933,2291
1600.9703211391711,2256
1603.008689604711,2211
1605.0465350022005,2177
1607.0838575843068,2088
1609.1206576037753,2131
1611.1569353134305,2038
1613.1926909661765,2040
1615.2279248149953,2024
1617.2626371129481,1958
1619.2968281131757,1903
1621.3304980688963,1916
1623.3636472334088,1839
1625.39627586009,1810
1627.428384202396,1808
1629.459972513861,1862
1631.4910410480993,1824
1633.5215900588028,1772
1635.551619799744,1812
1637.5811305247717,1730
1639.6101224878166,1768
1641.6385959428862,1797
1643.6665511440683,1782
1645.693988345528,1750
1647.7209078015112,1792
1649.7473097663405,1781
1651.7731944944203,1737
1653.7985622402307,1749
1655.823413258333,1790
1657.847747803366,1702
1659.8715661300494,1702
1661.8948684931793,1715
1663.9176551476316,1674
1665.9399263483624,1712
1667.9616823504057,1671
1669.982923408873,1726
1672.0036497789574,1759
1674.0238617159293,1663
1676.043559475138,1716
1678.0627433120121,1737
1680.081413482059,1675
1682.0995702408654,1668
1684.117213844096,1713
1686.134344547495,1748
1688.1509626068864,1651
1690.1670682781705,1661
1692.182661817329,1672
1694.1977434804217,1770
1696.2123135235875,1660
1698.226372203043,1656
1700.2399197750851,1756
1702.2529564960905,1669
1704.2654826225112,1700
1706.277498410882,1664
1708.2890041178139,1659
1710.2999999999988,1693
1712.3104863142066,1697
1714.3204633172854,1665
1716.329931266163,1720
1718.3388904178469,1618
1720.3473410294214,1689
1722.3552833580516,1647
1724.3627176609807,1684
1726.3696441955308,1723
1728.3760632191033,1579
1730.3819749891782,1700
1732.3873797633146,1607
1734.3922777991502,1645
1736.3966693544012,1586
1738.4005546868639,1585
1740.4039340544127,1604
1742.406807715001,1674
1744.4091759266616,1614
1746.4110389475054,1652
1748.4123970357223,1606
1750.413250449582,1655
1752.4135994474318,1662
1754.4134442876993,1632
1756.4127852288902,1619
1758.4116225295893,1630
1760.4099564484595,1595
1762.407787244244,1589
1764.405115175764,1629
1766.4019405019203,1588
1768.3982634816916,1562
1770.3940843741357,1539
1772.3894034383907,1551
1774.3842209336717,1538
1776.378537119274,1476
1778.372352254571,1507
1780.3656665990156,1546
1782.3584804121397,1562
1784.3507939535534,1574
1786.3426074829463,1567
1788.3339212600863,1583
1790.3247355448211,1596
1792.3150505970766,1571
1794.3048666768573,1565
1796.2941840442477,1644
1798.2830029594106,1507
1800.2713236825884,1612
1802.2591464741004,1544
1804.2464715943465,1527
1806.2332993038058,1588
1808.2196298630352,1547
1810.2054635326708,1546
1812.190800573428,1567
1814.175641246101,1575
1816.1599858115628,1472
1818.1438345307652,1520
1820.127187664738,1599
1822.1100454745924,1587
1824.092408221516,1568
1826.0742761667766,1577
1828.055649571721,1505
1830.0365286977735,1579
1832.0169138064398,1568
1833.9968051593014,1528
1835.9762030180214,1614
1837.9551076443408,1558
1839.9335193000788,1535
1841.9114382471344,1518
1843.888864747485,1543
1845.8657990631878,1563
1847.842241456378,1538
1849.8181921892697,1509
1851.7936515241558,1495
1853.7686197234098,1557
1855.7430970494815,1496
1857.7170837649014,1514
1859.6905801322787,1541
1861.6635864143004,1517
1863.6361028737338,1511
1865.608129773424,1448
1867.5796673762961,1528
1869.5507159453537,1543
1871.521275743678,1519
1873.4913470344313,1527
1875.4609300808534,1556
1877.4300251462632,1513
1879.3986324940588,1522
1881.366752387717,1520
1883.3343850907936,1550
1885.3015308669228,1571
1887.268189979819,1581
1889.2343626932739,1561
1891.2000492711595,1524
1893.1652499774254,1568
1895.1299650761011,1587
1897.0941948312952,1556
1899.0579395071945,1561
1901.0211993680641,1548
1902.98397467825,1566
1904.9462657021745,1582
1906.9080727043415,1543
1908.869395949332,1577
1910.8302357018065,1512
1912.790592226504,1540
1914.7504657882428,1490
1916.7098566519212,1575
1918.6687650825133,1518
1920.6271913450764,1590
1922.5851357047422,1492
1924.5425984267245,1501
1926.499579776314,1507
1928.4560800188833,1523
1930.4120994198802,1489
1932.367638244833,1540
1934.32269675935,1557
1936.2772752291175,1513
1938.231373919899,1576
1940.1849930975404,1555
1942.1381330279637,1574
1944.0907939771696,1555
1946.0429762112412,1521
1947.9946799963363,1553
1949.9459055986945,1501
1951.896653284633,1561
1953.8469233205478,1512
1955.7967159729142,1514
1957.7460315082863,1520
1959.6948701932974,1574
1961.6432322946594,1553
1963.5911180791632,1551
1965.5385278136787,1572
1967.4854617651545,1576
1969.4319202006182,1569
1971.377903387176,1619
1973.3234115920136,1552
1975.268445082395,1529
1977.2130041256642,1535
1979.1570889892423,1653
1981.1006999406304,1537
1983.04383724741,1554
1984.986501177238,1568
1986.928691997853,1542
1988.8704099770712,1538
1990.811655382789,1514
1992.7524284829801,1570
1994.692729545698,1579
1996.6325588390755,1556
1998.5719166313224,1486
2000.5108031907307,1493
2002.4492187856677,1578
2004.387163684583,1538
2006.3246381560011,1619
2008.2616424685298,1580
2010.1981768908527,1540
2012.1342416917332,1566
2014.069837140014,1464
2016.0049635046162,1523
2017.9396210545406,1566
2019.8738100588666,1534
2021.8075307867502,1484
2023.740783507431,1587
2025.6735684902228,1569
2027.6058860045214,1522
2029.5377363198004,1517
2031.4691197056118,1485
2033.4000364315875,1511
2035.3304867674374,1551
2037.260470982952,1557
2039.189989347998,1523
2041.1190421325232,1487
2043.047629606554,1495
2044.9757520401945,1449
2046.9034097036288,1543
2048.8306028671195,1530
2050.7573318010086,1543
2052.683596775716,1551
2054.609398061742,1472
2056.5347359296647,1473
2058.4596106501403,1512
2060.384022493906,1556
2062.3079717317764,1522
2064.231458634646,1528
2066.1544834734873,1529
2068.077046519352,1486
2069.99914804337,1552
2071.9207883167524,1509
2073.8419676107865,1543
2075.7626861968406,1504
2077.6829443463607,1439
2079.6027423308715,1558
2081.522080421977,1520
2083.440958891362,1549
2085.359378010786,1436
2087.2773380520907,1528
2089.194839287196,1506
2091.111881988101,1523
2093.0284664268825,1528
2094.9445928756973,1501
2096.86026160678,1539
2098.775472892446,1495
2100.690227005088,1480
2102.604524217178,1549
2104.5183648012676,1595
2106.431749029985,1537
2108.34467717604,1485
2110.2571495122206,1500
2112.169166311393,1536
2114.080727846503,1485
2115.9918343905747,1455
2117.902486216711,1522
2119.8126835980956,1517
2121.722426807987,1522
2123.6317161197285,1549
2125.5405518067364,1488
2127.448934142509,1510
2129.356863400624,1563
2131.264339854737,1582
2133.1713637785815,1523
2135.077935445972,1556
2136.9840551308002,1582
2138.889723107037,1545
2140.7949396487334,1520
2142.699705030018,1557
2144.6040195250994,1608
2146.507883408264,1516
2148.4112969538774,1549
2150.3142604363848,1540
2152.2167741303097,1564
2154.1188383102535,1590
2156.0204532508997,1533
2157.9216192270064,1554
2159.822336513414,1626
2161.7226053850413,1546
2163.622426116884,1538
2165.5217989840185,1516
2167.4207242616,1589
2169.319202224862,1601
2171.2172331491165,1560
2173.1148173097563,1616
2175.0119549822507,1560
2176.90864644215,1607
2178.8048919650823,1571
2180.7006918267534,1528
2182.596046302952,1593
2184.4909556695407,1643
2186.3854202024645,1569
2188.279440177746,1621
2190.173015871487,1686
2192.066147559868,1653
2193.958835519149,1630
2195.851080025667,1597
2197.7428813558417,1667
2199.6342397861667,1626
2201.5251555932186,1630
2203.415629053651,1615
2205.3056604441986,1662
2207.19525004167,1666
2209.084398122958,1614
2210.9731049650327,1682
2212.861370844941,1704
2214.749196039812,1649
2216.636580826851,1676
2218.523525483344,1771
2220.410030286655,1701
2222.296095514226,1721
2224.1817214435805,1664
2226.066908352319,1669
2227.951656518121,1642
2229.835966218746,1717
2231.71983773203,1689
2233.6032713358913,1695
2235.486267308324,1713
2237.3688259274036,1652
2239.2509474712824,1681
2241.132632218193,1697
2243.013880446447,1696
2244.8946924344323,1701
2246.7750684606203,1623
2248.6550088035574,1701
2250.534513741871,1768
2252.413583554265,1616
2254.292218519526,1656
2256.170418916517,1601
2258.0481850241786,1650
2259.925517121534,1617
2261.8024154876825,1660
2263.678880401803,1711
2265.5549121431536,1632
2267.430510991071,1669
2269.305677224971,1617
2271.180411124348,1629
2273.0547129687766,1652
2274.9285830379076,1636
2276.8020216114737,1627
2278.6750289692845,1680
2280.5476053912294,1641
2282.4197511572766,1710
2284.2914665474727,1801
2286.162751841943,1719
2288.0336073208937,1743
2289.904033264608,1728
2291.774029953448,1658
2293.6435976678554,1721
2295.5127366883517,1666
2297.381447295534,1622
2299.2497297700825,1556
2301.1175843927526,1575
2302.9850114443825,1549
2304.852011205885,1464
2306.7185839582553,1471
2308.5847299825664,1469
2310.4504495599676,1454
2312.3157429716925,1460
2314.1806104990483,1447
2316.0450524234247,1358
2317.9090690262888,1444
2319.772660589186,1481
2321.635827393742,1484
2323.498569721661,1468
2325.3608878547248,1507
2327.2227820747967,1454
2329.0842526638157,1395
2330.945299903803,1430
2332.805924076857,1413
2334.6661254651535,1393
2336.525904350951,1440
2338.3852610165827,1438
2340.244195744464,1453
2342.102708817088,1412
2343.9608005170253,1410
2345.8184711269287,1499
2347.675720929526,1407
2349.532550207628,1443
2351.38895924412,1431
2353.24494832197,1461
2355.100517724223,1382
2356.955667734004,1430
2358.810398634514,1429
2360.664710709037,1454
2362.5186042409337,1483
2364.3720795136437,1451
2366.225136810686,1441
2368.0777764156583,1499
2369.929998612237,1472
2371.7818036841777,1436
2373.633191915315,1446
2375.484163589562,1451
2377.3347189909114,1477
2379.184858403434,1484
2381.03458211128,1484
2382.8838903986775,1524
2384.732783549936,1468
2386.5812618494406,1493
2388.4293255816588,1491
2390.2769750311327,1488
2392.1242104824883,1437
2393.971032220427,1483
2395.8174405297295,1479
2397.6634356952563,1491
2399.509018001947,1490
2401.3541877348193,1495
2403.1989451789705,1515
2405.043290619576,1460
2406.8872243418905,1405
2408.730746631247,1507
2410.5738577730594,1455
2412.4165580528183,1441
2414.258847756095,1447
2416.100727168537,1471
2417.9421965758734,1438
2419.783256263912,1527
2421.623906518538,1507
2423.4641476257157,1495
2425.303979871491,1486
2427.143403541984,1444
2428.9824189233977,1469
2430.821026302012,1433
2432.6592259641866,1469
2434.497018196361,1468
2436.33440328505,1494
2438.171381516851,1500
2440.00795317844,1525
2441.844118556569,1471
2443.6798779380724,1538
2445.5152316098606,1467
2447.3501798589255,1517
2449.1847229723357,1509
2451.0188612372403,1465
2452.8525949408663,1461
2454.6859243705203,1508
2456.518849813587,1520
2458.3513715575314,1480
2460.183489889895,1455
2462.015205098301,1513
2463.8465174704493,1535
2465.67742729412,1548
2467.5079348571717,1491
2469.338040447542,1485
2471.1677443532476,1473
2472.9970468623833,1548
2474.825948263123,1504
2476.6544488437207,1479
2478.482548892508,1504
2480.310248697896,1486
2482.137548548374,1468
2483.9644487325118,1494
2485.790949538956,1495
2487.617051256433,1487
2489.44275417375,1506
2491.26805857979,1558
2493.0929647635157,1562
2494.917473013971,1541
2496.741583620276,1542
2498.5652968716304,1523
2500.3886130573137,1507
2502.2115324666834,1528
2504.0340553891765,1530
2505.856182114308,1574
2507.6779129316733,1541
2509.499248130945,1550
2511.3201880018764,1487
2513.140732834298,1569
2514.9608829181198,1553
2516.780638543331,1599
2518.6,1524
2520.418967578273,1570
2522.237541568376,1578
2524.0557222606144,1544
2525.8735099453706,1571
2527.6909049131086,1568
2529.507907454368,1613
2531.32451785977,1648
2533.140736420014,1593
2534.9565634258774,1597
2536.771999168218,1662
2538.5870439379714,1635
2540.4016980261526,1648
2542.2159617238544,1631
2544.02983532225,1687
2545.8433191125914,1631
2547.656413386209,1715
2549.4691184345115,1726
2551.2814345489874,1645
2553.093362021204,1700
2554.904901142808,1666
2556.716052205523,1734
2558.526815501153,1693
2560.3371913215824,1735
2562.147179958771,1724
2563.956781704761,1714
2565.7659968516705,1688
2567.5748256916986,1700
2569.3832685171224,1800
2571.1913256202984,1721
2572.9989972936614,1785
2574.806283829725,1792
2576.613185521084,1836
2578.4197026604074,1774
2580.2258355404483,1839
2582.031584454035,1833
2583.836949694077,1885
2585.6419315535613,1870
2587.4465303255533,1883
2589.2507463032002,1827
2591.0545797797245,1878
2592.8580310484303,1865
2594.6611004026995,1902
2596.463788135992,1922
2598.266094541849,1905
2600.0680199138874,1886
2601.869564545807,1876
2603.670728731383,1861
2605.4715127644704,1854
2607.2719169390048,1917
2609.071941548998,1833
2610.8715868885433,1853
2612.670853251811,1871
2614.469740933052,1900
2616.268250226594,1884
2618.0663814268455,1903
2619.864134828292,1884
2621.6615107255006,1857
2623.458509413115,1834
2625.2551311858597,1869
2627.0513763385347,1841
2628.8472451660223,1841
2630.6427379632833,1837
2632.4378550253564,1847
2634.232596647359,1882
2636.026963124488,1874
2637.8209547520187,1719
2639.6145718253065,1763
2641.407814639785,1727
2643.200683490966,1815
2644.9931786744414,1716
2646.7853004858807,1697
2648.577049221034,1779
2650.3684251757277,1731
2652.1594286458712,1682
2653.9500599274484,1717
2655.740319316525,1689
2657.5302071092437,1684
2659.3197236018286,1688
2661.10886909058,1733
2662.8976438718782,1673
2664.686048242183,1679
2666.4740824980327,1668
2668.2617469360443,1649
2670.0490418529134,1698
2671.8359675454153,1648
2673.622524310403,1652
2675.408712444811,1594
2677.1945322456495,1666
2678.979984010009,1592
2680.76506803506,1616
2682.5497846180497,1589
2684.334134056306,1590
2686.1181166472343,1519
2687.9017326883213,1507
2689.6849824771293,1534
2691.4678663113013,1548
2693.2503844885596,1527
2695.032537306705,1569
2696.8143250636167,1523
2698.5957480572542,1523
2700.3768065856534,1564
2702.1575009469316,1606
2703.937831439283,1563
2705.717798360982,1511
2707.4974020103837,1571
2709.276642685917,1514
2711.055520686095,1540
2712.834036309506,1506
2714.612189854819,1540
2716.389981620782,1506
2718.1674119062204,1483
2719.944481010041,1495
2721.721189231226,1486
2723.4975368688415,1492
2725.273524222027,1459
2727.0491515900053,1513
2728.824419272075,1562
2730.5993275676146,1484
2732.3738767760838,1474
2734.148067197016,1520
2735.921899130031,1485
2737.6953728748194,1489
2739.468488731156,1469
2741.2412469988926,1398
2743.0136479779617,1467
2744.785691968372,1513
2746.5573792702116,1497
2748.3287101836504,1411
2750.099685008934,1455
2751.870304046388,1451
2753.640567596418,1499
2755.4104759595057,1512
2757.1800294362156,1471
2758.949228327187,1473
2760.7180729331412,1477
2762.486563554877,1503
2764.254700493272,1506
2766.022484049284,1459
2767.789914523947,1442
2769.5569922183786,1381
2771.3237174337705,1449
2773.090090471394,1399
2774.8561116326036,1435
2776.6217812188274,1472
2778.3870995315756,1438
2780.1520668724356,1436
2781.9166835430747,1420
2783.6809498452394,1480
2785.444866080754,1505
2787.2084325515225,1430
2788.971649559527,1441
2790.73451740683,1457
2792.4970363955713,1440
2794.2592068279705,1423
2796.0210290063264,1468
2797.7825032330147,1486
2799.543629810493,1453
2801.304409041296,1480
2803.0648412280366,1481
2804.8249266734088,1431
2806.5846656801846,1451
2808.344058551212,1482
2810.1031055894246,1500
2811.8618070978273,1449
2813.6201633795085,1477
2815.378174737636,1463
2817.1358414754536,1502
2818.893163896285,1476
2820.6501423035334,1439
2822.4067770006814,1423
2824.1630682912883,1479
2825.9190164789957,1503
2827.6746218675207,1467
2829.429884760661,1492
2831.184805462294,1477
2832.9393842763743,1458
2834.693621506936,1442
2836.4475174580916,1522
2838.201072434034,1506
2839.954286739034,1447
2841.707160677441,1469
2843.459694553685,1464
2845.2118886722724,1467
2846.96374333779,1466
2848.7152588549034,1487
2850.4664355283567,1471
2852.217273662973,1490
2853.9677735636546,1477
2855.7179355353833,1440
2857.4677598832186,1432
2859.217246912299,1456
2860.9663969278427,1467
2862.715210235146,1465
2864.4636871395846,1437
2866.211827946614,1454
2867.9596329617652,1434
2869.7071024906536,1417
2871.4542368389684,1487
2873.20103631248,1475
2874.947501217038,1434
2876.6936318585695,1487
2878.4394285430812,1433
2880.1848915766604,1492
2881.9300212654707,1479
2883.6748179157553,1465
2885.4192818338374,1483
2887.1634133261173,1482
2888.907212699077,1526
2890.6506802592744,1487
2892.393816313348,1468
2894.1366211680142,1425
2895.8790951300693,1441
2897.621238506388,1456
2899.363051603925,1410
2901.1045347297118,1490
2902.8456881908596,1424
2904.58651229456,1435
2906.327007348081,1444
2908.067173658772,1540
2909.8070115340597,1425
2911.5465212814497,1491
2913.285703208527,1447
2915.0245576229563,1466
2916.7630848324807,1480
2918.5012851449196,1460
2920.2391588681758,1497
2921.976706310227,1422
2923.7139277791334,1460
2925.4508235830313,1419
2927.187394030137,1530
2928.923639428745,1461
2930.6595600872306,1489
2932.395156314046,1443
2934.1304284177218,1459
2935.8653767068713,1433
2937.6000014901815,1423
2939.3343030764227,1438
2941.068281774442,1481
2942.8019378931644,1412
2944.5352717415976,1471
2946.2682836288236,1491
2948.0009738640065,1466
2949.7333427563885,1469
2951.465390615289,1458
2953.1971177501086,1447
2954.9285244703265,1510
2956.6596110855,1512
2958.3903779052657,1429
2960.1208252393385,1450
2961.8509533975125,1437
2963.5807626896617,1420
2965.3102534257378,1443
2967.0394259157715,1453
2968.768280469873,1424
2970.496817398232,1493
2972.2250370111146,1497
2973.952939618869,1477
2975.6805255319196,1476
2977.4077950607707,1454
2979.134748516006,1508
2980.861386208289,1503
2982.587708448359,1485
2984.313715547037,1499
2986.039407815222,1533
2987.764785563891,1440
2989.489849104102,1440
2991.2145987469908,1464
2992.9390348037705,1498
2994.6631575857346,1450
2996.3869674042576,1478
2998.1104645707887,1415
2999.83364939686,1445
3001.5565221940783,1467
3003.2790832741334,1444
3005.0013329487924,1434
3006.7232715298996,1444
3008.4448993293804,1469
3010.166216659239,1430
3011.887223831558,1406
3013.607921158498,1488
3015.3283089522993,1417
3017.0483875252826,1435
3018.7681571898443,1491
3020.4876182584626,1459
3022.2067710436927,1475
3023.9256158581707,1476
3025.644153014609,1483
3027.362382825801,1477
3029.0803056046193,1470
3030.797921664012,1438
3032.5152313170106,1436
3034.2322348767225,1475
3035.9489326563353,1468
3037.665324969115,1444
3039.3814121284063,1393
3041.097194447633,1510
3042.812672240299,1444
3044.5278458199855,1433
3046.2427155003525,1437
3047.9572815951406,1523
3049.671544418167,1498
3051.38550428333,1489
3053.0991615046073,1494
3054.812516396051,1448
3056.5255692717974,1455
3058.2383204460575,1475
3059.9507702331257,1405
3061.662918947372,1491
3063.3747669032446,1452
3065.0863144152736,1478
3066.7975617980674,1491
3068.508509366309,1489
3070.219157434767,1487
3071.9295063182844,1441
3073.639556331785,1497
3075.3493077902704,1480
3077.058761008821,1469
3078.7679163025964,1478
3080.476773986837,1504
3082.1853343768594,1466
3083.89359778806,1456
3085.6015645359153,1489
3087.3092349359786,1503
3089.016609303884,1499
3090.7236879553434,1497
3092.4304712061476,1526
3094.136959372166,1510
3095.843152769349,1496
3097.5490517137237,1477
3099.2546565213966,1429
3100.959967508554,1507
3102.66498499146,1472
3104.3697092864577,1428
3106.0741407099695,1487
3107.778279578498,1439
3109.482126208622,1508
3111.1856809170004,1464
3112.8889440203716,1482
3114.5919158355528,1473
3116.294596679439,1485
3117.996986869006,1459
3119.6990867213062,1487
3121.4008965534726,1568
3123.102416682717,1544
3124.803647426329,1463
3126.5045891016784,1492
3128.205242026213,1526
3129.90560651746,1531
3131.605682893025,1495
3133.3054714705922,1422
3135.0049725679282,1571
3136.7041865028714,1480
3138.4031135933465,1522
3140.101754157353,1512
3141.800108512971,1504
3143.498176978357,1450
3145.1959598717494,1420
3146.8934575114636,1415
3148.5906702158954,1455
3150.2875983035183,1430
3151.9842420928853,1452
3153.680601902627,1521
3155.376678051456,1478
3157.07247085816,1483
3158.767980641609,1433
3160.463207720748,1548
3162.158152414606,1491
3163.8528150422862,1536
3165.5471959229726,1472
3167.2412953759303,1525
3168.9351137204976,1482
3170.628651276098,1465
3172.3219083622307,1493
3174.014885298474,1464
3175.707582404485,1517
3177.4000000000005,1426
3179.092138404835,1470
3180.7839979388846,1511
3182.47557892212,1515
3184.166881674594,1462
3185.8579065164386,1472
3187.5486537678626,1472
3189.2391237491547,1456
3190.9293167806827,1437
3192.6192331828934,1445
3194.3088732763117,1472
3195.998237381542,1421
3197.687325819268,1447
3199.376138910251,1477
3201.064676975334,1356
3202.7529403354347,1465
3204.4409293115523,1485
3206.1286442247647,1430
3207.816085396229,1474
3209.5032531471825,1447
3211.190147798936,1445
3212.8767696728846,1415
3214.5631190905015,1373
3216.2491963733373,1427
3217.9350018430214,1484
3219.6205358212637,1430
3221.305798629851,1389
3222.990790590651,1402
3224.6755120256103,1376
3226.359963256751,1410
3228.0441446061795,1420
3229.7280563960758,1462
3231.411698948703,1419
3233.0950725863995,1410
3234.778177631587,1437
3236.461014406761,1491
3238.1435832345005,1466
3239.8258844374595,1456
3241.507918338374,1430
3243.1896852600576,1476
3244.8711855254023,1449
3246.552419457381,1529
3248.233387379042,1454
3249.914089613516,1442
3251.59452648401,1467
3253.274698313813,1473
3254.95460542629,1467
3256.6342481448855,1460
3258.313626793125,1436
3259.9927416946084,1407
3261.6715931730196,1415
3263.3501815521176,1386
3265.0285071557437,1521
3266.706570307815,1461
3268.3843713323286,1448
3270.0619105533615,1479
3271.739188295068,1499
3273.4162048816834,1416
3275.0929606375184,1424
3276.769455886966,1430
3278.445690954498,1450
3280.1216661646613,1520
3281.797381842087,1475
3283.4728383114807,1511
3285.1480358976296,1508
3286.8229749253996,1496
3288.4976557197333,1482
3290.172078605655,1422
3291.846243908266,1466
3293.5201519527463,1384
3295.193803064357,1379
3296.8671975684374,1424
3298.5403357904024,1460
3300.21321805575,1413
3301.8858446900567,1423
3303.558216018975,1411
3305.23033236824,1451
3306.9021940636603,1457
3308.57380143113,1453
3310.2451547966184,1458
3311.916254486174,1486
3313.5871008259246,1519
3315.2576941420766,1507
3316.9280347609147,1463
3318.5981230088046,1468
3320.2679592121895,1437
3321.9375436975924,1494
3323.606876791612,1415
3325.27595882093,1419
3326.944790112305,1443
3328.6133709925753,1453
3330.2817017886573,1384
3331.949782827547,1499
3333.617614436319,1446
3335.2851969421245,1455
3336.952530672199,1471
3338.619615953853,1415
3340.286453114475,1459
3341.9530424815357,1449
3343.619384382583,1478
3345.2854791452437,1467
3346.951327097224,1433
3348.6169285663073,1458
3350.2822838803577,1472
3351.947393367319,1416
3353.61225735521,1455
3355.2768761721345,1448
3356.9412501462693,1451
3358.605379605873,1489
3360.2692648792827,1449
3361.9329062949146,1478
3363.596304181263,1469
