CollectionTime,7/11/2024 11:51:50 AM
ExposureUsed,3
CalibratedSpectrum
-962.7078968117929,569
-959.9714848408522,607
-957.2358232597828,592
-954.5009119013725,590
-951.7667505983302,600
-949.0333391832855,651
-946.3006774887896,639
-943.5687653473143,639
-940.837602591253,602
-938.1071890529199,617
-935.3775245645503,617
-932.6486089583007,610
-929.9204420662485,619
-927.1930237203925,614
-924.4663537526524,615
-921.7404319948689,640
-919.0152582788041,660
-916.2908324361409,692
-913.5671542984834,623
-910.8442236973568,607
-908.1220404642074,624
-905.4006044304027,639
-902.679915427231,651
-899.959973285902,629
-897.2407778375464,628
-894.5223289132158,633
-891.8046263438832,598
-889.0876699604426,596
-886.3714595937089,619
-883.6559950744183,639
-880.9412762332282,609
-878.2273029007168,625
-875.5140749073835,592
-872.8015920836489,588
-870.0898542598545,566
-867.3788612662631,597
-864.6686129330585,613
-861.9591090903457,638
-859.2503495681506,619
-856.5423341964203,607
-853.8350628050229,582
-851.1285352237478,578
-848.4227512823054,593
-845.7177108103272,639
-843.0134136373656,614
-840.3098595928943,605
-837.6070485063082,645
-834.9049802069229,587
-832.2036545239757,620
-829.5030712866244,648
-826.8032303239481,611
-824.1041314649472,637
-821.4057745385428,637
-818.7081593735775,642
-816.0112857988148,585
-813.3151536429393,622
-810.6197627345566,606
-807.9251129021936,607
-805.2312039742981,579
-802.5380357792392,597
-799.8456081453069,607
-797.1539209007124,630
-794.462973873588,621
-791.772766891987,673
-789.083299783884,642
-786.3945723771743,601
-783.7065844996748,611
-781.0193359791231,629
-778.3328266431781,630
-775.6470563194197,605
-772.9620248353489,580
-770.2777320183878,583
-767.5941776958798,603
-764.9113616950891,656
-762.2292838432011,620
-759.5479439673222,600
-756.8673418944801,641
-754.1874774516235,630
-751.5083504656222,666
-748.8299607632671,640
-746.15230817127,625
-743.475392516264,620
-740.7992136248035,684
-738.1237713233636,620
-735.4490654383407,642
-732.7750957960521,651
-730.1018622227365,660
-727.4293645445534,649
-724.7576025875837,664
-722.0865761778291,652
-719.4162851412126,676
-716.7467293035781,700
-714.0779084906909,665
-711.409822528237,645
-708.7424712418238,644
-706.0758544569796,693
-703.4099719991541,666
-700.7448236937178,705
-698.0804093659622,701
-695.4167288411002,701
-692.7537819442656,678
-690.0915685005134,666
-687.4300883348199,634
-684.7693412720819,710
-682.1093271371178,683
-679.4500457546669,642
-676.7914969493897,617
-674.1336805458676,662
-671.4765963686034,719
-668.8202442420206,690
-666.1646239904642,719
-663.5097354382001,704
-660.8555784094151,679
-658.2021527282176,699
-655.5494582186366,700
-652.8974947046223,696
-650.2462620100463,691
-647.5957599587009,685
-644.9459883742998,708
-642.2969470804776,696
-639.6486359007902,696
-637.0010546587141,736
-634.3542031776476,723
-631.7080812809096,713
-629.0626887917401,742
-626.4180255333008,742
-623.7740913286734,733
-621.1308860008619,705
-618.4884093727904,711
-615.8466612673046,728
-613.2056415071715,724
-610.5653499150785,746
-607.9257863136347,737
-605.28695052537,760
-602.6488423727357,708
-600.0114616781036,673
-597.3748082637674,727
-594.7388819519412,779
-592.1036825647604,807
-589.4692099242818,794
-586.8354638524829,787
-584.2024441712624,736
-581.5701507024403,736
-578.9385832677575,735
-576.3077416888759,764
-573.6776257873787,749
-571.0482353847704,752
-568.4195703024757,758
-565.7916303618415,749
-563.164415384135,781
-560.5379251905453,750
-557.9121596021815,794
-555.2871184400748,725
-552.6628015251767,781
-550.0392086783606,809
-547.4163397204204,816
-544.794194472071,769
-542.1727727539491,799
-539.5520743866118,846
-536.9320991905377,832
-534.3128469861261,853
-531.6943175936979,849
-529.0765108334947,879
-526.4594265256793,963
-523.8430644903358,1012
-521.2274245474689,1056
-518.612506517005,1110
-515.9983102187913,1070
-513.3848354725959,1149
-510.77208209810846,1147
-508.16004991493924,1199
-505.5487387426199,1335
-502.9381484006032,1477
-500.3282787082628,1573
-497.71912948489364,1557
-495.1107005497117,1512
-492.5029917218539,1369
-489.8960028203786,1273
-487.28973366426493,1187
-484.68418407241325,1106
-482.07935386364494,999
-479.47524285670266,1019
-476.87185087025,988
-474.2691777228715,1003
-471.66722323307334,992
-469.0659872192821,984
-466.4654694998459,981
-463.86566989303384,937
-461.26658821703614,951
-458.66822428996414,936
-456.07057792985,971
-453.4736489546475,961
-450.877437182231,936
-448.28194243039627,914
-445.68716451686,901
-443.09310325926003,933
-440.49975847515555,931
-437.9071299820263,924
-435.31521759727354,961
-432.72402113821954,1025
-430.13354042210767,988
-427.5437752661022,987
-424.95472548728867,936
-422.36639090267386,959
-419.7787713291855,1021
-417.1918665836721,1091
-414.60567648290385,995
-412.0202008435715,1009
-409.4354394822874,1034
-406.8513922155845,1071
-404.26805885991723,1028
-401.685439231661,1009
-399.103533147112,1034
-396.522340422488,999
-393.9418608739278,1007
-391.3620943174908,988
-388.7830405691583,1007
-386.2046994448317,925
-383.6270707603344,947
-381.05015433141045,834
-378.473949973725,801
-375.8984575028645,740
-373.32367673433623,712
-370.74960748356875,719
-368.1762495659117,717
-365.60360279663576,614
-363.03166699093265,574
-360.4604419639154,519
-357.8899275306178,505
-355.32012350599507,529
-352.7510297049233,521
-350.1826459421999,514
-347.61497203254316,490
-345.04800779059235,484
-342.4817530309082,518
-339.91620756797226,559
-337.35137121618743,563
-334.7872437898774,575
-332.22382510328725,559
-329.66111497058273,500
-327.09911320585127,496
-324.53781962310075,528
-321.9772340362607,548
-319.4173562591816,474
-316.8581861056348,476
-314.2997233893127,453
-311.7419679238294,447
-309.1849195227194,514
-306.62857799943856,546
-304.0729431673641,600
-301.51801483979375,573
-298.963792829947,599
-296.41027695096386,564
-293.85746701590574,574
-291.3053628377552,652
-288.7539642294155,620
-286.2032710037115,601
-283.65328297338897,574
-281.1039999511146,622
-278.5554217494762,640
-276.007548180983,560
-273.4603790580651,543
-270.9139141930734,564
-268.3681533982807,541
-265.8230964858798,572
-263.27874326798565,648
-260.7350935566336,610
-258.1921471637804,592
-255.6499039013039,570
-253.10836358100266,669
-250.56752601459698,655
-248.02739101372765,625
-245.48795838995704,667
-242.94922795476816,657
-240.41119951956557,697
-237.8738728956746,762
-235.33724789434166,667
-232.80132432673452,614
-230.2661020039418,566
-227.73158073697357,684
-225.19776033676033,699
-222.66464061415422,647
-220.1322213799284,591
-217.60050244477725,581
-215.06948361931552,641
-212.53916471408013,725
-210.00954553952818,805
-207.48062590603843,685
-204.9524056239104,663
-202.4248845033651,770
-199.8980623545441,732
-197.37193898751036,724
-194.84651421224817,771
-192.32178783866232,771
-189.79775967657952,766
-187.27442953574644,913
-184.7517972258321,1006
-182.2298625564256,936
-179.7086253370378,794
-177.18808537710026,756
-174.66824248596583,746
-172.14909647290835,766
-169.6306471471229,849
-167.11289431772548,863
-164.59583779375328,1003
-162.07947738416453,796
-159.5638128978386,870
-157.04884414357605,928
-154.53457093009854,936
-152.02099306604828,864
-149.50811035998936,818
-146.99592262040665,855
-144.48442965570587,941
-141.97363127421409,996
-139.46352728417958,1057
-136.95411749377126,1017
-134.44540171107985,922
-131.93737974411636,922
-129.43005140081357,943
-126.92341648902493,1111
-124.41747481652521,1367
-121.91222619101006,1443
-119.40767042009657,1417
-116.90380731132257,1359
-114.40063667214702,1591
-111.8981583099503,1736
-109.3963720320337,1411
-106.89527764561933,1524
-104.39487495785067,2466
-101.89516377579241,3193
-99.39614390642998,3912
-96.89781515667039,3830
-94.40017733334128,3993
-91.90323024319173,4821
-89.40697369289148,6864
-86.91140748903172,6899
-84.41653143812482,5950
-81.92234534660395,5459
-79.42884902082358,6696
-76.93604226705907,12123
-74.4439248915071,21807
-71.95249670028534,31989
-69.46175749943245,34517
-66.97170709490854,30867
-64.48234529259423,24686
-61.99367189829195,16952
-59.50568671772464,10922
-57.01838955653636,7632
-54.53178022029283,6839
-52.045858514480074,5871
-49.560624244506016,6689
-47.07607721569923,8023
-44.59221723330904,8819
-42.10904410250669,9561
-39.62655762838392,9088
-37.14475761595372,8597
-34.66364387015028,7637
-32.18321619582866,7254
-29.70347439776515,7989
-27.224418280657005,8668
-24.74604764912317,10776
-22.26836230770266,17493
-19.7913620608565,34421
-17.315046712966478,57973
-14.83941606833514,65036
-12.36446993118659,65036
-9.89020810566592,65036
-7.416630395839093,65036
-4.94373660569363,65036
-2.471526539137585,65036
-6.821210263296962E-13,65036
2.47084320796705,65036
4.941003281093458,65036
7.410480415786196,65036
9.879274808531363,65036
12.347386655893956,65036
14.814816154518212,65036
17.28156350112681,65036
19.74762889252179,65036
22.21301252558385,21576
24.67771459727237,4197
27.141735304626195,2963
29.605074844762612,3079
32.06773341487792,3273
34.52971121224755,3229
36.99100843422559,2999
39.45162527824516,2761
41.91156194181792,2321
44.370818622535126,2166
46.82939551806646,1924
49.287292826160524,1949
51.74451074464503,2541
54.201049471426245,2947
56.65690920448981,2175
59.112090141899785,1719
61.56659248179983,1415
64.02041642241159,1420
66.4735621620365,1306
68.92602989905402,1299
71.37781983192338,1595
73.82893215918205,1762
76.27936707944684,1680
78.72912479141326,1351
81.17820549385567,1587
83.62660938562783,1822
86.07433666566146,1469
88.5213875329681,1173
90.96776218663751,1223
93.41346082583925,1104
95.85848364982041,1164
98.30283085790859,1665
100.7465026495089,1489
103.18949922410604,1229
105.63182078126385,1141
108.07346752062438,1032
110.51443964190923,998
112.95473734491827,980
115.39436082953114,1201
117.83331029570547,1128
120.27158594347827,1099
122.7091879729652,1289
125.1461165843615,1257
127.58237197794062,946
130.01795435405518,920
132.4528639131364,934
134.88710085569494,886
137.32066538231982,899
139.75355769367923,942
142.1857779905207,893
144.61732647366978,962
147.04820334403132,937
149.47840880258934,920
151.90794305040674,1065
154.33680628862487,1230
156.76499871846443,1508
159.19252054122433,1528
161.61937195828352,1555
164.04555317109896,1768
166.47106438120693,1934
168.89590579022217,2246
171.320077599839,2294
173.7435800118302,2408
176.16641322804742,2578
178.58857745042144,2722
181.01007288096173,2866
183.43089972175687,2762
185.85105817497413,2712
188.27054844285988,2714
190.6893707277394,2701
193.10752523201643,2824
195.5250121581745,2875
197.9418317087751,2980
200.3579840864594,2887
202.7734694939469,2957
205.18828813403627,3058
207.6024402096051,3034
210.01592592360964,3086
212.42874547908548,2980
214.84089907914665,3005
217.2523869269868,2862
219.66320922587727,2855
222.0733661791695,2822
224.48285799029293,2787
226.8916848627572,2799
229.29984700014882,2872
231.7073446061355,2852
234.11417788446204,2921
236.520347038953,2874
238.92585227351185,2898
241.33069379212054,2836
243.73487179884035,2996
246.1383864978112,3029
248.541238093252,2857
250.9434267894609,3007
253.34495279081432,3056
255.74581630176783,2953
258.1460175268563,3001
260.54555667069314,2919
262.9444339379703,2914
265.3426495334594,2928
267.7402036620107,2906
270.1370965285529,2878
272.53332833809407,2818
274.9288992957214,2704
277.32380960660055,2540
279.718059475976,2726
282.1116491091717,2653
284.5045787115897,2571
286.89684848871195,2636
289.2884586460981,2576
291.67940938938807,2669
294.0697009242996,2688
296.4593334566299,2667
298.84830719225477,2593
301.23662233712923,2545
303.6242790972866,2490
306.01127767884,2482
308.39761828798066,2487
310.78330113097934,2438
313.16832641418534,2374
315.5526943440269,2394
317.9364051270112,2390
320.3194589697242,2387
322.70185607883093,2413
325.0835966610754,2380
327.4646809232805,2276
329.8451090723478,2194
332.2248813152577,2295
334.6039978590701,2273
336.9824589109231,2271
339.36026467803447,2222
341.7374153677,2175
344.113911187295,2204
346.48975234427337,2247
348.8649390461686,2186
351.2394715005918,2177
353.61334991523415,2122
355.9865744978655,2102
358.35914545633375,2237
360.73106299856715,2156
363.10232733257146,2164
365.47293866643247,2127
367.84289720831396,2090
370.2122031664593,2072
372.5808567491905,2116
374.9488581649083,2120
377.31620762209275,2012
379.6829053293021,2000
382.0489514951745,2089
384.4143463284262,2068
386.7790900378528,2011
389.14318283232853,2051
391.50662492080653,2064
393.86941651231916,2079
396.23155781597745,2068
398.5930490409713,2111
400.9538903965696,2028
403.3140820921202,2053
405.6736243370498,2059
408.03251734086336,2067
410.3907613131465,1998
412.74835646356166,1995
415.10530300185144,2001
417.4616011378372,1976
419.81725108141893,1986
422.1722530425758,2004
424.5266072313656,1915
426.880313857925,1946
429.2333731324701,1974
431.58578526529516,1971
433.9375504667738,1978
436.2886689473588,1971
438.63914091758113,1970
440.9889665880513,1924
443.33814616945835,1873
445.68667987257015,1924
448.03456790823395,1964
450.3818104873759,2000
452.72840782100013,1898
455.07436012019105,1919
457.41966759611057,1967
459.7643304600007,1952
462.10834892318155,1986
464.4517231970525,1984
466.79445349309174,1948
469.1365400228566,1912
471.4779829979826,1945
473.81878263018564,1960
476.15893913125876,1981
478.4984527130747,1993
480.8373235875855,2013
483.17555196682144,2071
485.5131380628919,2143
487.8500820879857,2208
490.1863842543697,2332
492.52204477439034,2548
494.8570638604725,2810
497.1914417251204,3042
499.52517858091653,3159
501.85827464052306,3167
504.19073011668036,3178
506.5225452222086,3043
508.85372017000566,2935
511.18425517304956,3015
513.514150444396,3092
515.8434061971808,3756
518.1720226446176,4327
520.4999999999999,4428
522.8273384766991,4157
525.1540382881666,3955
527.480099647932,3463
529.8055227696037,2994
532.1303078668694,2416
534.454455153496,2209
536.777964843328,2186
539.1008371502907,2112
541.4230722883866,1998
543.744670471698,1916
546.0656319143858,1969
548.3859568306899,2025
550.7056454349294,1899
553.0246979415016,1947
555.3431145648834,1943
557.6608955196306,1959
559.978041020377,1939
562.2945512818363,1889
564.6104265188006,1966
566.9256669461412,1885
569.2402727788082,1928
571.5542442318302,1854
573.8675815203156,1928
576.1802848594508,1962
578.4923544645015,2018
580.8037905508126,1925
583.114593333807,1881
585.4247630289875,2004
587.7342998519354,1913
590.0432040183106,1890
592.3514757438526,1958
594.6591152443794,1988
596.9661227357875,1982
599.2724984340531,1953
601.578242555231,2002
603.8833553154542,2005
606.1878369309362,1964
608.4916876179676,1926
610.7949075929192,1915
613.0974970722403,2032
615.3994562724587,1948
617.7007854101818,1916
620.0014847020951,1949
622.3015543649641,1996
624.6009946156324,2016
626.8998056710224,1955
629.1979877481361,1900
631.4955410640538,2030
633.7924658359349,1936
636.0887622810175,1948
638.3844306166192,1942
640.6794710601358,2006
642.9738838290426,1950
645.2676691408932,1977
647.5608272133207,1957
649.853358264037,2037
652.1452625108324,1971
654.4365401715764,1981
656.7271914642178,1992
659.0172166067838,2038
661.3066158173809,2108
663.5953893141935,2009
665.8835373154867,2071
668.1710600396028,2067
670.4579577049639,2021
672.7442305300709,2066
675.0298787335033,1924
677.3149025339197,1984
679.599302150058,1969
681.8830778007342,2058
684.1662297048437,1977
686.4487580813608,2055
688.7306631493387,2030
691.0119451279091,2047
693.2926042362834,2105
695.5726406937516,1983
697.8520547196814,1979
700.1308465335215,1963
702.4090163547982,2032
704.6865644031171,1996
706.9634908981619,2036
709.2397960596965,1988
711.5154801075631,1994
713.7905432616823,1989
716.0649857420548,1967
718.3388077687592,2037
720.612009561953,2006
722.8845913418733,1966
725.1565533288352,1943
727.427895743234,2033
729.6986188055427,2000
731.9687227363137,1963
734.238207756178,1967
736.5070740858458,1987
738.7753219461066,1938
741.0429515578281,1979
743.3099631419569,2019
745.5763569195191,2036
747.8421331116193,1987
750.1072919394409,1959
752.3718336242467,2070
754.6357583873777,2024
756.8990664502545,2000
759.1617580343765,2068
761.423833361321,2062
763.6852926527457,1980
765.9461361303862,1988
768.206364016058,2047
770.4659765316536,2041
772.7249738991469,2003
774.9833563405886,2082
777.2411240781092,1910
779.4982773339183,1986
781.7548163303044,2035
784.010741289634,2077
786.2660524343538,2108
788.5207499869881,2029
790.7748341701416,2052
793.0283052064964,2075
795.2811633188143,2100
797.5334087299362,2095
799.7850416627813,2049
802.0360623403484,2092
804.2864709857143,2062
806.5362678220353,2082
808.7854530725468,2026
811.0340269605625,2000
813.2819897094754,2098
815.5293415427581,2048
817.77608268396,2131
820.0222133567116,2043
822.2677337847211,2001
824.5126441917765,2144
826.7569448017433,2061
829.0006358385675,2011
831.2437175262731,2049
833.4861900889629,2061
835.7280537508192,2045
837.9693087361026,2073
840.2099552691533,2087
842.4499935743896,2024
844.689423876309,2016
846.9282463994886,2077
849.1664613685833,2064
851.4040690083276,1988
853.6410695435349,2034
855.877463199097,2043
858.1132501999847,2056
860.3484307712487,2093
862.5830051380175,2068
864.8169735254988,2018
867.0503361589791,2075
869.2830932638243,2164
871.5152450654786,2124
873.7467917894654,2106
875.9777336613873,2151
878.2080709069252,2145
880.4378037518389,2144
882.666932421968,2191
884.8954571432301,2140
887.1233781416219,2171
889.3506956432192,2185
891.5774098741766,2071
893.803521060728,2076
896.0290294291852,2100
898.2539352059397,2122
900.4782386174619,2127
902.7019398903011,2090
904.925039251085,2085
907.147536926521,2014
909.3694331433943,2006
911.59072812857,2010
913.8114221089921,2021
916.0315153116827,1986
918.2510079637437,2121
920.4699002923547,2054
922.6881925247761,2097
924.905884888345,2034
927.1229776104793,2036
929.3394709186747,2027
931.555365040506,1974
933.7706602036275,2056
935.9853566357709,2024
938.1994545647489,1973
940.4129542184515,2107
942.6258558248488,2078
944.8381596119883,2023
947.0498658079974,2049
949.2609746410825,2005
951.4714863395287,1988
953.6814011316998,2001
955.8907192460387,1951
958.0994409110671,1971
960.3075663553858,1944
962.5150958076741,1966
964.7220294966913,1953
966.928367651274,1906
969.1341105003388,1882
971.3392582728806,1889
973.5438111979742,1915
975.747769504772,1867
977.9511334225061,1894
980.153903180487,1851
982.3560790081052,1913
984.5576611348289,1858
986.7586497902058,1886
988.9590452038618,1858
991.158847605503,1859
993.3580572249133,1841
995.5566742919558,1819
997.7546990365728,1834
999.952131688785,1817
1002.1489724786926,1782
1004.3452216364743,1813
1006.5408793923874,1767
1008.7359459767691,1809
1010.9304216200343,1726
1013.1243065526781,1695
1015.3176010052733,1729
1017.510305208472,1780
1019.7024193930064,1709
1021.8939437896848,1709
1024.0848786293977,1712
1026.2752241431122,1735
1028.4649805618747,1709
1030.6541481168115,1709
1032.842727039127,1750
1035.0307175601051,1666
1037.2181199111074,1648
1039.4049343235752,1656
1041.591161029029,1703
1043.7768002590683,1733
1045.9618522453698,1663
1048.1463172196918,1682
1050.3301954138697,1649
1052.513487059818,1672
1054.69619238953,1671
1056.8783116350783,1618
1059.0598450286152,1699
1061.2407928023704,1674
1063.4211551886528,1700
1065.6009324198508,1649
1067.780124728432,1610
1069.9587323469414,1596
1072.1367555080046,1671
1074.314194444325,1648
1076.4910493886855,1636
1078.667320573947,1594
1080.843008233051,1641
1083.0181125990161,1600
1085.1926339049414,1567
1087.3665723840027,1581
1089.5399282694575,1561
1091.7127017946405,1700
1093.8848931929647,1613
1096.0565026979243,1539
1098.2275305430899,1587
1100.3979769621128,1570
1102.567842188722,1520
1104.737126456726,1535
1106.9058300000124,1573
1109.0739530525475,1606
1111.2414958483764,1584
1113.4084586216231,1549
1115.5748416064907,1506
1117.7406450372605,1559
1119.9058691482942,1531
1122.0705141740304,1515
1124.2345803489884,1510
1126.3980679077658,1531
1128.5609770850388,1582
1130.7233081155623,1607
1132.8850612341707,1576
1135.0462366757774,1519
1137.2068346753745,1544
1139.3668554680326,1504
1141.526299288901,1566
1143.68516637321,1515
1145.8434569562655,1470
1148.001171273455,1579
1150.158309560244,1490
1152.3148720521767,1470
1154.470858984876,1512
1156.626270594044,1561
1158.7811071154629,1509
1160.9353687849912,1444
1163.089055838569,1527
1165.242168512213,1472
1167.3947070420209,1550
1169.5466716641677,1498
1171.6980626149075,1473
1173.8488801305748,1497
1175.9991244475814,1447
1178.1487958024186,1553
1180.2978944316555,1516
1182.4464205719428,1534
1184.5943744600072,1508
1186.7417563326567,1457
1188.8885664267755,1507
1191.0348049793297,1544
1193.1804722273619,1441
1195.325568407995,1446
1197.4700937584303,1463
1199.614048515948,1465
1201.7574329179074,1477
1203.900247201746,1456
1206.042491604982,1519
1208.1841663652099,1510
1210.3252717201053,1547
1212.465807907422,1418
1214.6057751649923,1511
1216.7451737307279,1558
1218.8840038426192,1516
1221.0222657387353,1521
1223.1599596572241,1533
1225.2970858363137,1488
1227.4336445143094,1409
1229.5696359295966,1445
1231.705060320639,1551
1233.8399179259786,1533
1235.9742089842384,1530
1238.107933734118,1549
1240.2410924143974,1475
1242.373685263935,1502
1244.5057125216676,1537
1246.6371744266116,1533
1248.7680712178621,1588
1250.898403134593,1592
1253.028170416058,1524
1255.1573733015875,1518
1257.2860120305932,1484
1259.4140868425648,1533
1261.54159797707,1540
1263.6685456737569,1572
1265.7949301723515,1508
1267.9207517126597,1522
1270.046010534565,1598
1272.1707068780306,1553
1274.2948409830983,1567
1276.4184130898889,1550
1278.541423438603,1566
1280.6638722695184,1556
1282.785759822993,1616
1284.9070863394636,1587
1287.0278520594447,1615
1289.1480572235314,1623
1291.2677020723963,1666
1293.3867868467923,1595
1295.5053117875495,1626
1297.623277135579,1593
1299.740683131868,1610
1301.8575300174857,1647
1303.973818033578,1657
1306.0895474213703,1660
1308.2047184221678,1660
1310.3193312773528,1645
1312.4333862283888,1649
1314.5468835168163,1646
1316.659823384255,1613
1318.7722060724045,1619
1320.8840318230418,1596
1322.9953008780249,1652
1325.1060134792888,1683
1327.2161698688478,1706
1329.3257702887959,1626
1331.4348149813054,1625
1333.5433041886276,1681
1335.6512381530933,1680
1337.7586171171101,1645
1339.8654413231675,1720
1341.9717110138317,1644
1344.0774264317488,1626
1346.1825878196432,1593
1348.2871954203192,1592
1350.3912494766587,1634
1352.4947502316231,1648
1354.5976979282532,1680
1356.7000928096686,1636
1358.8019351190665,1693
1360.9032250997243,1591
1363.0039629949988,1623
1365.1041490483235,1619
1367.2037835032133,1676
1369.3028666032606,1668
1371.401398592137,1620
1373.4993797135926,1681
1375.5968102114575,1688
1377.6936903296396,1700
1379.7900203121262,1668
1381.8858004029835,1665
1383.9810308463561,1689
1386.075711886469,1674
1388.1698437676241,1683
1390.2634267342032,1724
1392.356461030667,1679
1394.4489469015557,1713
1396.5408845914872,1718
1398.6322743451592,1726
1400.7231164073469,1685
1402.813411022907,1720
1404.903158436773,1673
1406.9923588939578,1751
1409.0810126395531,1760
1411.1691199187303,1706
1413.2566809767386,1766
1415.343696058907,1746
1417.4301654106425,1785
1419.5160892774315,1768
1421.6014679048399,1810
1423.6863015385125,1761
1425.7705904241707,1789
1427.8543348076178,1819
1429.9375349347342,1809
1432.0201910514802,1867
1434.102303403894,1872
1436.1838722380944,1856
1438.2648978002767,1825
1440.3453803367174,1889
1442.4253200937692,1966
1444.5047173178677,1935
1446.5835722555234,1900
1448.6618851533285,2080
1450.739656257952,2021
1452.8168858161434,2035
1454.8935740747306,2036
1456.96972128062,2078
1459.045327680797,2099
1461.120393522327,2132
1463.1949190523528,2217
1465.2689045180973,2258
1467.3423501668608,2206
1469.415256246024,2268
1471.4876230030463,2261
1473.559450685465,2423
1475.6307395408976,2364
1477.7014898170391,2355
1479.771701761665,2458
1481.8413756226287,2427
1483.9105116478618,2508
1485.9791100853772,2608
1488.0471711832643,2562
1490.1146951896926,2656
1492.1816823529098,2656
1494.2481329212433,2671
1496.3140471430984,2813
1498.3794252669609,2787
1500.4442675413939,2796
1502.5085742150404,2870
1504.572345536622,2875
1506.6355817549388,2862
1508.6982831188702,2908
1510.7604498773744,2920
1512.8220822794883,3079
1514.8831805743293,2996
1516.9437450110909,3060
1519.003775839048,3152
1521.0632733075522,3148
1523.1222376660367,3245
1525.1806691640113,3195
1527.2385680510652,3297
1529.2959345768668,3434
1531.3527689911643,3494
1533.4090715437833,3507
1535.4648424846291,3488
1537.5200820636855,3552
1539.5747905310159,3610
1541.6289681367616,3655
1543.6826151311434,3735
1545.7357317644614,3796
1547.7883182870937,3849
1549.8403749494987,3919
1551.8919020022113,3963
1553.9428996958477,4054
1555.9933682811015,4208
1558.0433080087469,4201
1560.0927191296346,4224
1562.1416018946961,4160
1564.1899565549415,4182
1566.2377833614592,4067
1568.2850825654164,3957
1570.3318544180606,3845
1572.3780991707158,3730
1574.423817074788,3600
1576.4690083817595,3399
1578.5136733431923,3148
1580.5578122107272,3124
1582.601425236085,2947
1584.6445126710646,2759
1586.6870747675434,2644
1588.7291117774776,2647
1590.7706239529034,2562
1592.8116115459347,2466
1594.8520748087658,2434
1596.8920139936686,2299
1598.9314293529933,2230
1600.9703211391711,2093
1603.008689604711,2092
1605.0465350022005,2009
1607.0838575843068,1960
1609.1206576037753,1933
1611.1569353134305,1977
1613.1926909661765,1900
1615.2279248149953,1894
1617.2626371129481,1863
1619.2968281131757,1804
1621.3304980688963,1825
1623.3636472334088,1770
1625.39627586009,1816
1627.428384202396,1756
1629.459972513861,1748
1631.4910410480993,1659
1633.5215900588028,1675
1635.551619799744,1723
1637.5811305247717,1659
1639.6101224878166,1629
1641.6385959428862,1637
1643.6665511440683,1597
1645.693988345528,1650
1647.7209078015112,1625
1649.7473097663405,1611
1651.7731944944203,1650
1653.7985622402307,1631
1655.823413258333,1637
1657.847747803366,1633
1659.8715661300494,1594
1661.8948684931793,1565
1663.9176551476316,1578
1665.9399263483624,1595
1667.9616823504057,1597
1669.982923408873,1559
1672.0036497789574,1559
1674.0238617159293,1578
1676.043559475138,1543
1678.0627433120121,1633
1680.081413482059,1624
1682.0995702408654,1609
1684.117213844096,1665
1686.134344547495,1509
1688.1509626068864,1604
1690.1670682781705,1575
1692.182661817329,1655
1694.1977434804217,1579
1696.2123135235875,1523
1698.226372203043,1581
1700.2399197750851,1563
1702.2529564960905,1648
1704.2654826225112,1523
1706.277498410882,1586
1708.2890041178139,1589
1710.2999999999988,1624
1712.3104863142066,1579
1714.3204633172854,1526
1716.329931266163,1533
1718.3388904178469,1569
1720.3473410294214,1593
1722.3552833580516,1556
1724.3627176609807,1588
1726.3696441955308,1553
1728.3760632191033,1547
1730.3819749891782,1535
1732.3873797633146,1521
1734.3922777991502,1583
1736.3966693544012,1499
1738.4005546868639,1556
1740.4039340544127,1479
1742.406807715001,1511
1744.4091759266616,1516
1746.4110389475054,1474
1748.4123970357223,1460
1750.413250449582,1482
1752.4135994474318,1483
1754.4134442876993,1409
1756.4127852288902,1454
1758.4116225295893,1408
1760.4099564484595,1442
1762.407787244244,1470
1764.405115175764,1532
1766.4019405019203,1533
1768.3982634816916,1548
1770.3940843741357,1440
1772.3894034383907,1378
1774.3842209336717,1455
1776.378537119274,1431
1778.372352254571,1455
1780.3656665990156,1426
1782.3584804121397,1411
1784.3507939535534,1470
1786.3426074829463,1452
1788.3339212600863,1431
1790.3247355448211,1444
1792.3150505970766,1457
1794.3048666768573,1435
1796.2941840442477,1408
1798.2830029594106,1408
1800.2713236825884,1449
1802.2591464741004,1460
1804.2464715943465,1447
1806.2332993038058,1443
1808.2196298630352,1441
1810.2054635326708,1441
1812.190800573428,1440
1814.175641246101,1399
1816.1599858115628,1407
1818.1438345307652,1453
1820.127187664738,1365
1822.1100454745924,1420
1824.092408221516,1452
1826.0742761667766,1448
1828.055649571721,1404
1830.0365286977735,1454
1832.0169138064398,1375
1833.9968051593014,1430
1835.9762030180214,1499
1837.9551076443408,1441
1839.9335193000788,1431
1841.9114382471344,1435
1843.888864747485,1391
1845.8657990631878,1448
1847.842241456378,1472
1849.8181921892697,1443
1851.7936515241558,1416
1853.7686197234098,1416
1855.7430970494815,1457
1857.7170837649014,1437
1859.6905801322787,1412
1861.6635864143004,1428
1863.6361028737338,1418
1865.608129773424,1467
1867.5796673762961,1453
1869.5507159453537,1437
1871.521275743678,1448
1873.4913470344313,1430
1875.4609300808534,1427
1877.4300251462632,1492
1879.3986324940588,1437
1881.366752387717,1471
1883.3343850907936,1439
1885.3015308669228,1416
1887.268189979819,1387
1889.2343626932739,1459
1891.2000492711595,1455
1893.1652499774254,1480
1895.1299650761011,1513
1897.0941948312952,1469
1899.0579395071945,1499
1901.0211993680641,1467
1902.98397467825,1455
1904.9462657021745,1447
1906.9080727043415,1460
1908.869395949332,1448
1910.8302357018065,1465
1912.790592226504,1459
1914.7504657882428,1395
1916.7098566519212,1457
1918.6687650825133,1484
1920.6271913450764,1453
1922.5851357047422,1423
1924.5425984267245,1455
1926.499579776314,1467
1928.4560800188833,1498
1930.4120994198802,1491
1932.367638244833,1476
1934.32269675935,1430
1936.2772752291175,1429
1938.231373919899,1452
1940.1849930975404,1390
1942.1381330279637,1451
1944.0907939771696,1520
1946.0429762112412,1412
1947.9946799963363,1476
1949.9459055986945,1435
1951.896653284633,1492
1953.8469233205478,1457
1955.7967159729142,1390
1957.7460315082863,1455
1959.6948701932974,1476
1961.6432322946594,1451
1963.5911180791632,1432
1965.5385278136787,1423
1967.4854617651545,1470
1969.4319202006182,1471
1971.377903387176,1455
1973.3234115920136,1385
1975.268445082395,1406
1977.2130041256642,1485
1979.1570889892423,1449
1981.1006999406304,1477
1983.04383724741,1441
1984.986501177238,1447
1986.928691997853,1481
1988.8704099770712,1450
1990.811655382789,1434
1992.7524284829801,1431
1994.692729545698,1480
1996.6325588390755,1471
1998.5719166313224,1419
2000.5108031907307,1514
2002.4492187856677,1455
2004.387163684583,1391
2006.3246381560011,1421
2008.2616424685298,1470
2010.1981768908527,1449
2012.1342416917332,1435
2014.069837140014,1443
2016.0049635046162,1414
2017.9396210545406,1425
2019.8738100588666,1459
2021.8075307867502,1374
2023.740783507431,1383
2025.6735684902228,1459
2027.6058860045214,1413
2029.5377363198004,1459
2031.4691197056118,1488
2033.4000364315875,1478
2035.3304867674374,1390
2037.260470982952,1412
2039.189989347998,1404
2041.1190421325232,1364
2043.047629606554,1386
2044.9757520401945,1439
2046.9034097036288,1443
2048.8306028671195,1431
2050.7573318010086,1412
2052.683596775716,1416
2054.609398061742,1387
2056.5347359296647,1400
2058.4596106501403,1409
2060.384022493906,1367
2062.3079717317764,1401
2064.231458634646,1444
2066.1544834734873,1331
2068.077046519352,1403
2069.99914804337,1385
2071.9207883167524,1385
2073.8419676107865,1451
2075.7626861968406,1413
2077.6829443463607,1400
2079.6027423308715,1468
2081.522080421977,1396
2083.440958891362,1436
2085.359378010786,1384
2087.2773380520907,1409
2089.194839287196,1368
2091.111881988101,1441
2093.0284664268825,1444
2094.9445928756973,1398
2096.86026160678,1385
2098.775472892446,1369
2100.690227005088,1396
2102.604524217178,1425
2104.5183648012676,1413
2106.431749029985,1403
2108.34467717604,1423
2110.2571495122206,1449
2112.169166311393,1337
2114.080727846503,1432
2115.9918343905747,1396
2117.902486216711,1427
2119.8126835980956,1399
2121.722426807987,1401
2123.6317161197285,1406
2125.5405518067364,1418
2127.448934142509,1410
2129.356863400624,1360
2131.264339854737,1426
2133.1713637785815,1399
2135.077935445972,1454
2136.9840551308002,1460
2138.889723107037,1441
2140.7949396487334,1429
2142.699705030018,1451
2144.6040195250994,1429
2146.507883408264,1503
2148.4112969538774,1462
2150.3142604363848,1399
2152.2167741303097,1428
2154.1188383102535,1419
2156.0204532508997,1473
2157.9216192270064,1419
2159.822336513414,1479
2161.7226053850413,1450
2163.622426116884,1389
2165.5217989840185,1494
2167.4207242616,1470
2169.319202224862,1374
2171.2172331491165,1469
2173.1148173097563,1432
2175.0119549822507,1504
2176.90864644215,1495
2178.8048919650823,1453
2180.7006918267534,1558
2182.596046302952,1452
2184.4909556695407,1472
2186.3854202024645,1562
2188.279440177746,1469
2190.173015871487,1543
2192.066147559868,1479
2193.958835519149,1476
2195.851080025667,1527
2197.7428813558417,1512
2199.6342397861667,1541
2201.5251555932186,1520
2203.415629053651,1508
2205.3056604441986,1520
2207.19525004167,1583
2209.084398122958,1542
2210.9731049650327,1572
2212.861370844941,1530
2214.749196039812,1504
2216.636580826851,1551
2218.523525483344,1609
2220.410030286655,1494
2222.296095514226,1612
2224.1817214435805,1564
2226.066908352319,1520
2227.951656518121,1550
2229.835966218746,1539
2231.71983773203,1554
2233.6032713358913,1567
2235.486267308324,1561
2237.3688259274036,1498
2239.2509474712824,1499
2241.132632218193,1517
2243.013880446447,1607
2244.8946924344323,1550
2246.7750684606203,1485
2248.6550088035574,1574
2250.534513741871,1529
2252.413583554265,1508
2254.292218519526,1553
2256.170418916517,1491
2258.0481850241786,1510
2259.925517121534,1491
2261.8024154876825,1602
2263.678880401803,1509
2265.5549121431536,1561
2267.430510991071,1531
2269.305677224971,1496
2271.180411124348,1459
2273.0547129687766,1513
2274.9285830379076,1551
2276.8020216114737,1529
2278.6750289692845,1554
2280.5476053912294,1532
2282.4197511572766,1627
2284.2914665474727,1543
2286.162751841943,1570
2288.0336073208937,1642
2289.904033264608,1581
2291.774029953448,1618
2293.6435976678554,1513
2295.5127366883517,1503
2297.381447295534,1419
2299.2497297700825,1463
2301.1175843927526,1507
2302.9850114443825,1488
2304.852011205885,1400
2306.7185839582553,1397
2308.5847299825664,1365
2310.4504495599676,1359
2312.3157429716925,1315
2314.1806104990483,1372
2316.0450524234247,1395
2317.9090690262888,1361
2319.772660589186,1363
2321.635827393742,1352
2323.498569721661,1326
2325.3608878547248,1289
2327.2227820747967,1319
2329.0842526638157,1357
2330.945299903803,1337
2332.805924076857,1348
2334.6661254651535,1295
2336.525904350951,1327
2338.3852610165827,1323
2340.244195744464,1333
2342.102708817088,1316
2343.9608005170253,1372
2345.8184711269287,1309
2347.675720929526,1337
2349.532550207628,1359
2351.38895924412,1334
2353.24494832197,1375
2355.100517724223,1366
2356.955667734004,1313
2358.810398634514,1356
2360.664710709037,1401
2362.5186042409337,1372
2364.3720795136437,1390
2366.225136810686,1336
2368.0777764156583,1413
2369.929998612237,1360
2371.7818036841777,1389
2373.633191915315,1335
2375.484163589562,1340
2377.3347189909114,1372
2379.184858403434,1374
2381.03458211128,1352
2382.8838903986775,1401
2384.732783549936,1399
2386.5812618494406,1349
2388.4293255816588,1368
2390.2769750311327,1324
2392.1242104824883,1336
2393.971032220427,1375
2395.8174405297295,1356
2397.6634356952563,1374
2399.509018001947,1357
2401.3541877348193,1407
2403.1989451789705,1437
2405.043290619576,1372
2406.8872243418905,1327
2408.730746631247,1419
2410.5738577730594,1401
2412.4165580528183,1336
2414.258847756095,1366
2416.100727168537,1355
2417.9421965758734,1385
2419.783256263912,1343
2421.623906518538,1410
2423.4641476257157,1348
2425.303979871491,1417
2427.143403541984,1343
2428.9824189233977,1372
2430.821026302012,1327
2432.6592259641866,1406
2434.497018196361,1358
2436.33440328505,1374
2438.171381516851,1365
2440.00795317844,1466
2441.844118556569,1398
2443.6798779380724,1368
2445.5152316098606,1389
2447.3501798589255,1388
2449.1847229723357,1397
2451.0188612372403,1370
2452.8525949408663,1351
2454.6859243705203,1387
2456.518849813587,1440
2458.3513715575314,1404
2460.183489889895,1357
2462.015205098301,1421
2463.8465174704493,1391
2465.67742729412,1432
2467.5079348571717,1392
2469.338040447542,1446
2471.1677443532476,1338
2472.9970468623833,1411
2474.825948263123,1387
2476.6544488437207,1352
2478.482548892508,1401
2480.310248697896,1371
2482.137548548374,1363
2483.9644487325118,1420
2485.790949538956,1403
2487.617051256433,1378
2489.44275417375,1406
2491.26805857979,1401
2493.0929647635157,1468
2494.917473013971,1397
2496.741583620276,1464
2498.5652968716304,1462
2500.3886130573137,1479
2502.2115324666834,1488
2504.0340553891765,1470
2505.856182114308,1447
2507.6779129316733,1468
2509.499248130945,1495
2511.3201880018764,1505
2513.140732834298,1476
2514.9608829181198,1451
2516.780638543331,1435
2518.6,1456
2520.418967578273,1454
2522.237541568376,1480
2524.0557222606144,1503
2525.8735099453706,1490
2527.6909049131086,1476
2529.507907454368,1487
2531.32451785977,1524
2533.140736420014,1521
2534.9565634258774,1552
2536.771999168218,1536
2538.5870439379714,1533
2540.4016980261526,1545
2542.2159617238544,1579
2544.02983532225,1561
2545.8433191125914,1554
2547.656413386209,1665
2549.4691184345115,1577
2551.2814345489874,1624
2553.093362021204,1646
2554.904901142808,1660
2556.716052205523,1674
2558.526815501153,1629
2560.3371913215824,1609
2562.147179958771,1625
2563.956781704761,1696
2565.7659968516705,1670
2567.5748256916986,1663
2569.3832685171224,1718
2571.1913256202984,1671
2572.9989972936614,1650
2574.806283829725,1746
2576.613185521084,1739
2578.4197026604074,1697
2580.2258355404483,1738
2582.031584454035,1731
2583.836949694077,1711
2585.6419315535613,1745
2587.4465303255533,1772
2589.2507463032002,1824
2591.0545797797245,1776
2592.8580310484303,1757
2594.6611004026995,1789
2596.463788135992,1728
2598.266094541849,1767
2600.0680199138874,1830
2601.869564545807,1810
2603.670728731383,1749
2605.4715127644704,1719
2607.2719169390048,1782
2609.071941548998,1744
2610.8715868885433,1804
2612.670853251811,1840
2614.469740933052,1894
2616.268250226594,1800
2618.0663814268455,1828
2619.864134828292,1764
2621.6615107255006,1790
2623.458509413115,1786
2625.2551311858597,1760
2627.0513763385347,1795
2628.8472451660223,1757
2630.6427379632833,1704
2632.4378550253564,1696
2634.232596647359,1712
2636.026963124488,1719
2637.8209547520187,1751
2639.6145718253065,1740
2641.407814639785,1687
2643.200683490966,1679
2644.9931786744414,1664
2646.7853004858807,1709
2648.577049221034,1624
2650.3684251757277,1644
2652.1594286458712,1617
2653.9500599274484,1620
2655.740319316525,1624
2657.5302071092437,1578
2659.3197236018286,1567
2661.10886909058,1564
2662.8976438718782,1553
2664.686048242183,1551
2666.4740824980327,1548
2668.2617469360443,1523
2670.0490418529134,1599
2671.8359675454153,1524
2673.622524310403,1569
2675.408712444811,1502
2677.1945322456495,1476
2678.979984010009,1422
2680.76506803506,1464
2682.5497846180497,1450
2684.334134056306,1425
2686.1181166472343,1402
2687.9017326883213,1464
2689.6849824771293,1447
2691.4678663113013,1407
2693.2503844885596,1457
2695.032537306705,1417
2696.8143250636167,1471
2698.5957480572542,1443
2700.3768065856534,1451
2702.1575009469316,1401
2703.937831439283,1437
2705.717798360982,1449
2707.4974020103837,1425
2709.276642685917,1406
2711.055520686095,1424
2712.834036309506,1400
2714.612189854819,1413
2716.389981620782,1355
2718.1674119062204,1360
2719.944481010041,1401
2721.721189231226,1318
2723.4975368688415,1361
2725.273524222027,1385
2727.0491515900053,1341
2728.824419272075,1437
2730.5993275676146,1389
2732.3738767760838,1364
2734.148067197016,1385
2735.921899130031,1378
2737.6953728748194,1355
2739.468488731156,1414
2741.2412469988926,1346
2743.0136479779617,1331
2744.785691968372,1363
2746.5573792702116,1360
2748.3287101836504,1321
2750.099685008934,1322
2751.870304046388,1293
2753.640567596418,1318
2755.4104759595057,1436
2757.1800294362156,1361
2758.949228327187,1351
2760.7180729331412,1320
2762.486563554877,1388
2764.254700493272,1359
2766.022484049284,1406
2767.789914523947,1325
2769.5569922183786,1321
2771.3237174337705,1371
2773.090090471394,1382
2774.8561116326036,1364
2776.6217812188274,1362
2778.3870995315756,1343
2780.1520668724356,1332
2781.9166835430747,1302
2783.6809498452394,1312
2785.444866080754,1364
2787.2084325515225,1354
2788.971649559527,1355
2790.73451740683,1337
2792.4970363955713,1317
2794.2592068279705,1357
2796.0210290063264,1350
2797.7825032330147,1364
2799.543629810493,1329
2801.304409041296,1358
2803.0648412280366,1352
2804.8249266734088,1372
2806.5846656801846,1355
2808.344058551212,1349
2810.1031055894246,1373
2811.8618070978273,1337
2813.6201633795085,1396
2815.378174737636,1322
2817.1358414754536,1339
2818.893163896285,1359
2820.6501423035334,1335
2822.4067770006814,1358
2824.1630682912883,1315
2825.9190164789957,1417
2827.6746218675207,1377
2829.429884760661,1371
2831.184805462294,1379
2832.9393842763743,1389
2834.693621506936,1348
2836.4475174580916,1375
2838.201072434034,1317
2839.954286739034,1327
2841.707160677441,1320
2843.459694553685,1366
2845.2118886722724,1317
2846.96374333779,1351
2848.7152588549034,1333
2850.4664355283567,1318
2852.217273662973,1352
2853.9677735636546,1375
2855.7179355353833,1300
2857.4677598832186,1357
2859.217246912299,1373
2860.9663969278427,1320
2862.715210235146,1352
2864.4636871395846,1283
2866.211827946614,1332
2867.9596329617652,1358
2869.7071024906536,1384
2871.4542368389684,1429
2873.20103631248,1321
2874.947501217038,1342
2876.6936318585695,1324
2878.4394285430812,1333
2880.1848915766604,1342
2881.9300212654707,1342
2883.6748179157553,1365
2885.4192818338374,1343
2887.1634133261173,1385
2888.907212699077,1376
2890.6506802592744,1411
2892.393816313348,1406
2894.1366211680142,1354
2895.8790951300693,1348
2897.621238506388,1344
2899.363051603925,1348
2901.1045347297118,1379
2902.8456881908596,1309
2904.58651229456,1306
2906.327007348081,1380
2908.067173658772,1352
2909.8070115340597,1315
2911.5465212814497,1285
2913.285703208527,1391
2915.0245576229563,1346
2916.7630848324807,1343
2918.5012851449196,1323
2920.2391588681758,1338
2921.976706310227,1373
2923.7139277791334,1345
2925.4508235830313,1339
2927.187394030137,1369
2928.923639428745,1341
2930.6595600872306,1338
2932.395156314046,1337
2934.1304284177218,1422
2935.8653767068713,1342
2937.6000014901815,1347
2939.3343030764227,1328
2941.068281774442,1384
2942.8019378931644,1368
2944.5352717415976,1376
2946.2682836288236,1387
2948.0009738640065,1352
2949.7333427563885,1383
2951.465390615289,1384
2953.1971177501086,1332
2954.9285244703265,1347
2956.6596110855,1326
2958.3903779052657,1314
2960.1208252393385,1319
2961.8509533975125,1296
2963.5807626896617,1355
2965.3102534257378,1369
2967.0394259157715,1308
2968.768280469873,1288
2970.496817398232,1382
2972.2250370111146,1391
2973.952939618869,1418
2975.6805255319196,1365
2977.4077950607707,1415
2979.134748516006,1404
2980.861386208289,1427
2982.587708448359,1438
2984.313715547037,1322
2986.039407815222,1372
2987.764785563891,1361
2989.489849104102,1297
2991.2145987469908,1328
2992.9390348037705,1336
2994.6631575857346,1317
2996.3869674042576,1363
2998.1104645707887,1341
2999.83364939686,1358
3001.5565221940783,1420
3003.2790832741334,1326
3005.0013329487924,1352
3006.7232715298996,1346
3008.4448993293804,1343
3010.166216659239,1365
3011.887223831558,1330
3013.607921158498,1347
3015.3283089522993,1345
3017.0483875252826,1287
3018.7681571898443,1317
3020.4876182584626,1389
3022.2067710436927,1395
3023.9256158581707,1364
3025.644153014609,1384
3027.362382825801,1355
3029.0803056046193,1313
3030.797921664012,1382
3032.5152313170106,1321
3034.2322348767225,1329
3035.9489326563353,1361
3037.665324969115,1373
3039.3814121284063,1312
3041.097194447633,1335
3042.812672240299,1304
3044.5278458199855,1361
3046.2427155003525,1359
3047.9572815951406,1328
3049.671544418167,1344
3051.38550428333,1302
3053.0991615046073,1302
3054.812516396051,1335
3056.5255692717974,1349
3058.2383204460575,1309
3059.9507702331257,1301
3061.662918947372,1366
3063.3747669032446,1358
3065.0863144152736,1342
3066.7975617980674,1378
3068.508509366309,1347
3070.219157434767,1339
3071.9295063182844,1344
3073.639556331785,1312
3075.3493077902704,1353
3077.058761008821,1427
3078.7679163025964,1295
3080.476773986837,1341
3082.1853343768594,1349
3083.89359778806,1412
3085.6015645359153,1308
3087.3092349359786,1386
3089.016609303884,1372
3090.7236879553434,1396
3092.4304712061476,1385
3094.136959372166,1368
3095.843152769349,1392
3097.5490517137237,1378
3099.2546565213966,1407
3100.959967508554,1339
3102.66498499146,1373
3104.3697092864577,1398
3106.0741407099695,1340
3107.778279578498,1338
3109.482126208622,1348
3111.1856809170004,1391
3112.8889440203716,1381
3114.5919158355528,1327
3116.294596679439,1367
3117.996986869006,1342
3119.6990867213062,1338
3121.4008965534726,1382
3123.102416682717,1365
3124.803647426329,1359
3126.5045891016784,1367
3128.205242026213,1364
3129.90560651746,1354
3131.605682893025,1391
3133.3054714705922,1392
3135.0049725679282,1419
3136.7041865028714,1420
3138.4031135933465,1308
3140.101754157353,1380
3141.800108512971,1382
3143.498176978357,1406
3145.1959598717494,1349
3146.8934575114636,1351
3148.5906702158954,1302
3150.2875983035183,1289
3151.9842420928853,1354
3153.680601902627,1338
3155.376678051456,1391
3157.07247085816,1391
3158.767980641609,1326
3160.463207720748,1385
3162.158152414606,1374
3163.8528150422862,1345
3165.5471959229726,1429
3167.2412953759303,1383
3168.9351137204976,1369
3170.628651276098,1326
3172.3219083622307,1386
3174.014885298474,1300
3175.707582404485,1371
3177.4000000000005,1332
3179.092138404835,1393
3180.7839979388846,1348
3182.47557892212,1316
3184.166881674594,1348
3185.8579065164386,1357
3187.5486537678626,1387
3189.2391237491547,1362
3190.9293167806827,1306
3192.6192331828934,1384
3194.3088732763117,1372
3195.998237381542,1296
3197.687325819268,1318
3199.376138910251,1368
3201.064676975334,1294
3202.7529403354347,1327
3204.4409293115523,1275
3206.1286442247647,1305
3207.816085396229,1352
3209.5032531471825,1253
3211.190147798936,1306
3212.8767696728846,1269
3214.5631190905015,1313
3216.2491963733373,1345
3217.9350018430214,1304
3219.6205358212637,1294
3221.305798629851,1326
3222.990790590651,1331
3224.6755120256103,1304
3226.359963256751,1304
3228.0441446061795,1352
3229.7280563960758,1298
3231.411698948703,1333
3233.0950725863995,1352
3234.778177631587,1368
3236.461014406761,1333
3238.1435832345005,1361
3239.8258844374595,1333
3241.507918338374,1371
3243.1896852600576,1312
3244.8711855254023,1299
3246.552419457381,1322
3248.233387379042,1317
3249.914089613516,1341
3251.59452648401,1265
3253.274698313813,1326
3254.95460542629,1301
3256.6342481448855,1257
3258.313626793125,1321
3259.9927416946084,1292
3261.6715931730196,1306
3263.3501815521176,1250
3265.0285071557437,1292
3266.706570307815,1300
3268.3843713323286,1368
3270.0619105533615,1349
3271.739188295068,1287
3273.4162048816834,1315
3275.0929606375184,1345
3276.769455886966,1299
3278.445690954498,1311
3280.1216661646613,1373
3281.797381842087,1334
3283.4728383114807,1274
3285.1480358976296,1350
3286.8229749253996,1322
3288.4976557197333,1359
3290.172078605655,1383
3291.846243908266,1336
3293.5201519527463,1364
3295.193803064357,1300
3296.8671975684374,1242
3298.5403357904024,1334
3300.21321805575,1311
3301.8858446900567,1320
3303.558216018975,1336
3305.23033236824,1339
3306.9021940636603,1370
3308.57380143113,1347
3310.2451547966184,1340
3311.916254486174,1365
3313.5871008259246,1294
3315.2576941420766,1367
3316.9280347609147,1278
3318.5981230088046,1288
3320.2679592121895,1277
3321.9375436975924,1253
3323.606876791612,1265
3325.27595882093,1287
3326.944790112305,1341
3328.6133709925753,1293
3330.2817017886573,1307
3331.949782827547,1301
3333.617614436319,1376
3335.2851969421245,1325
3336.952530672199,1392
3338.619615953853,1357
3340.286453114475,1317
3341.9530424815357,1299
3343.619384382583,1344
3345.2854791452437,1341
3346.951327097224,1328
3348.6169285663073,1329
3350.2822838803577,1332
3351.947393367319,1343
3353.61225735521,1274
3355.2768761721345,1320
3356.9412501462693,1266
3358.605379605873,1318
3360.2692648792827,1388
3361.9329062949146,1311
3363.596304181263,1278
