CollectionTime,9/20/2024 12:27:45 PM
ExposureUsed,3
CalibratedSpectrum
-962.7078968117929,651
-959.9714848408522,687
-957.2358232597828,732
-954.5009119013725,732
-951.7667505983302,762
-949.0333391832855,719
-946.3006774887896,762
-943.5687653473143,774
-940.837602591253,763
-938.1071890529199,769
-935.3775245645503,761
-932.6486089583007,787
-929.9204420662485,728
-927.1930237203925,736
-924.4663537526524,795
-921.7404319948689,798
-919.0152582788041,805
-916.2908324361409,827
-913.5671542984834,753
-910.8442236973568,734
-908.1220404642074,741
-905.4006044304027,751
-902.679915427231,734
-899.959973285902,757
-897.2407778375464,712
-894.5223289132158,759
-891.8046263438832,738
-889.0876699604426,727
-886.3714595937089,700
-883.6559950744183,697
-880.9412762332282,716
-878.2273029007168,717
-875.5140749073835,685
-872.8015920836489,683
-870.0898542598545,671
-867.3788612662631,679
-864.6686129330585,708
-861.9591090903457,671
-859.2503495681506,709
-856.5423341964203,678
-853.8350628050229,673
-851.1285352237478,712
-848.4227512823054,706
-845.7177108103272,716
-843.0134136373656,706
-840.3098595928943,751
-837.6070485063082,706
-834.9049802069229,733
-832.2036545239757,700
-829.5030712866244,692
-826.8032303239481,735
-824.1041314649472,733
-821.4057745385428,660
-818.7081593735775,705
-816.0112857988148,699
-813.3151536429393,717
-810.6197627345566,731
-807.9251129021936,738
-805.2312039742981,740
-802.5380357792392,736
-799.8456081453069,698
-797.1539209007124,734
-794.462973873588,712
-791.772766891987,724
-789.083299783884,734
-786.3945723771743,686
-783.7065844996748,687
-781.0193359791231,692
-778.3328266431781,731
-775.6470563194197,721
-772.9620248353489,719
-770.2777320183878,695
-767.5941776958798,725
-764.9113616950891,720
-762.2292838432011,718
-759.5479439673222,697
-756.8673418944801,748
-754.1874774516235,764
-751.5083504656222,755
-748.8299607632671,753
-746.15230817127,739
-743.475392516264,706
-740.7992136248035,742
-738.1237713233636,733
-735.4490654383407,701
-732.7750957960521,703
-730.1018622227365,744
-727.4293645445534,758
-724.7576025875837,778
-722.0865761778291,800
-719.4162851412126,775
-716.7467293035781,794
-714.0779084906909,807
-711.409822528237,841
-708.7424712418238,810
-706.0758544569796,792
-703.4099719991541,820
-700.7448236937178,805
-698.0804093659622,821
-695.4167288411002,805
-692.7537819442656,788
-690.0915685005134,769
-687.4300883348199,771
-684.7693412720819,874
-682.1093271371178,851
-679.4500457546669,801
-676.7914969493897,786
-674.1336805458676,847
-671.4765963686034,824
-668.8202442420206,803
-666.1646239904642,850
-663.5097354382001,839
-660.8555784094151,828
-658.2021527282176,820
-655.5494582186366,825
-652.8974947046223,832
-650.2462620100463,840
-647.5957599587009,822
-644.9459883742998,858
-642.2969470804776,868
-639.6486359007902,879
-637.0010546587141,890
-634.3542031776476,899
-631.7080812809096,859
-629.0626887917401,829
-626.4180255333008,829
-623.7740913286734,852
-621.1308860008619,878
-618.4884093727904,835
-615.8466612673046,861
-613.2056415071715,844
-610.5653499150785,860
-607.9257863136347,909
-605.28695052537,910
-602.6488423727357,911
-600.0114616781036,883
-597.3748082637674,913
-594.7388819519412,943
-592.1036825647604,913
-589.4692099242818,895
-586.8354638524829,862
-584.2024441712624,895
-581.5701507024403,909
-578.9385832677575,993
-576.3077416888759,922
-573.6776257873787,865
-571.0482353847704,834
-568.4195703024757,894
-565.7916303618415,903
-563.164415384135,898
-560.5379251905453,929
-557.9121596021815,879
-555.2871184400748,890
-552.6628015251767,940
-550.0392086783606,950
-547.4163397204204,955
-544.794194472071,927
-542.1727727539491,950
-539.5520743866118,967
-536.9320991905377,951
-534.3128469861261,1052
-531.6943175936979,1063
-529.0765108334947,1020
-526.4594265256793,1074
-523.8430644903358,1250
-521.2274245474689,1492
-518.612506517005,1603
-515.9983102187913,1581
-513.3848354725959,1592
-510.77208209810846,1628
-508.16004991493924,1676
-505.5487387426199,1808
-502.9381484006032,1964
-500.3282787082628,2036
-497.71912948489364,2055
-495.1107005497117,1924
-492.5029917218539,1770
-489.8960028203786,1590
-487.28973366426493,1443
-484.68418407241325,1303
-482.07935386364494,1237
-479.47524285670266,1203
-476.87185087025,1190
-474.2691777228715,1181
-471.66722323307334,1207
-469.0659872192821,1158
-466.4654694998459,1258
-463.86566989303384,1171
-461.26658821703614,1169
-458.66822428996414,1118
-456.07057792985,1166
-453.4736489546475,1166
-450.877437182231,1103
-448.28194243039627,1058
-445.68716451686,1084
-443.09310325926003,1092
-440.49975847515555,1020
-437.9071299820263,1096
-435.31521759727354,1159
-432.72402113821954,1118
-430.13354042210767,1130
-427.5437752661022,1120
-424.95472548728867,1157
-422.36639090267386,1155
-419.7787713291855,1151
-417.1918665836721,1155
-414.60567648290385,1200
-412.0202008435715,1187
-409.4354394822874,1290
-406.8513922155845,1240
-404.26805885991723,1217
-401.685439231661,1256
-399.103533147112,1194
-396.522340422488,1226
-393.9418608739278,1157
-391.3620943174908,1205
-388.7830405691583,1171
-386.2046994448317,1091
-383.6270707603344,1046
-381.05015433141045,1076
-378.473949973725,1041
-375.8984575028645,940
-373.32367673433623,862
-370.74960748356875,840
-368.1762495659117,774
-365.60360279663576,680
-363.03166699093265,668
-360.4604419639154,650
-357.8899275306178,635
-355.32012350599507,592
-352.7510297049233,581
-350.1826459421999,601
-347.61497203254316,556
-345.04800779059235,584
-342.4817530309082,586
-339.91620756797226,608
-337.35137121618743,594
-334.7872437898774,527
-332.22382510328725,539
-329.66111497058273,549
-327.09911320585127,546
-324.53781962310075,595
-321.9772340362607,553
-319.4173562591816,552
-316.8581861056348,590
-314.2997233893127,633
-311.7419679238294,663
-309.1849195227194,659
-306.62857799943856,670
-304.0729431673641,583
-301.51801483979375,621
-298.963792829947,611
-296.41027695096386,575
-293.85746701590574,600
-291.3053628377552,683
-288.7539642294155,718
-286.2032710037115,701
-283.65328297338897,702
-281.1039999511146,687
-278.5554217494762,701
-276.007548180983,827
-273.4603790580651,849
-270.9139141930734,745
-268.3681533982807,847
-265.8230964858798,860
-263.27874326798565,882
-260.7350935566336,835
-258.1921471637804,819
-255.6499039013039,1038
-253.10836358100266,959
-250.56752601459698,870
-248.02739101372765,898
-245.48795838995704,941
-242.94922795476816,810
-240.41119951956557,948
-237.8738728956746,908
-235.33724789434166,925
-232.80132432673452,848
-230.2661020039418,813
-227.73158073697357,892
-225.19776033676033,876
-222.66464061415422,1056
-220.1322213799284,1058
-217.60050244477725,954
-215.06948361931552,977
-212.53916471408013,1147
-210.00954553952818,1134
-207.48062590603843,969
-204.9524056239104,884
-202.4248845033651,976
-199.8980623545441,1012
-197.37193898751036,1029
-194.84651421224817,1076
-192.32178783866232,993
-189.79775967657952,912
-187.27442953574644,1098
-184.7517972258321,1132
-182.2298625564256,974
-179.7086253370378,908
-177.18808537710026,1046
-174.66824248596583,1201
-172.14909647290835,1244
-169.6306471471229,1308
-167.11289431772548,1222
-164.59583779375328,1112
-162.07947738416453,1295
-159.5638128978386,1672
-157.04884414357605,1675
-154.53457093009854,1738
-152.02099306604828,1299
-149.50811035998936,1237
-146.99592262040665,1611
-144.48442965570587,1641
-141.97363127421409,1713
-139.46352728417958,1763
-136.95411749377126,1721
-134.44540171107985,1670
-131.93737974411636,1575
-129.43005140081357,1503
-126.92341648902493,1820
-124.41747481652521,1836
-121.91222619101006,2302
-119.40767042009657,2721
-116.90380731132257,2871
-114.40063667214702,3330
-111.8981583099503,4361
-109.3963720320337,6514
-106.89527764561933,9239
-104.39487495785067,9743
-101.89516377579241,11992
-99.39614390642998,17012
-96.89781515667039,23502
-94.40017733334128,27165
-91.90323024319173,21142
-89.40697369289148,13849
-86.91140748903172,9537
-84.41653143812482,8469
-81.92234534660395,12732
-79.42884902082358,15922
-76.93604226705907,15544
-74.4439248915071,12785
-71.95249670028534,9695
-69.46175749943245,6970
-66.97170709490854,5425
-64.48234529259423,5479
-61.99367189829195,7055
-59.50568671772464,8647
-57.01838955653636,10974
-54.53178022029283,12204
-52.045858514480074,14428
-49.560624244506016,17476
-47.07607721569923,16646
-44.59221723330904,16520
-42.10904410250669,19662
-39.62655762838392,21649
-37.14475761595372,25569
-34.66364387015028,26015
-32.18321619582866,33117
-29.70347439776515,36332
-27.224418280657005,36210
-24.74604764912317,44604
-22.26836230770266,60110
-19.7913620608565,65035
-17.315046712966478,65035
-14.83941606833514,65035
-12.36446993118659,65035
-9.89020810566592,65035
-7.416630395839093,65035
-4.94373660569363,65035
-2.471526539137585,65035
-6.821210263296962E-13,65035
2.47084320796705,65035
4.941003281093458,65035
7.410480415786196,65035
9.879274808531363,65035
12.347386655893956,65035
14.814816154518212,65035
17.28156350112681,65035
19.74762889252179,65035
22.21301252558385,65035
24.67771459727237,24556
27.141735304626195,8691
29.605074844762612,7352
32.06773341487792,6278
34.52971121224755,5365
36.99100843422559,5146
39.45162527824516,4429
41.91156194181792,3920
44.370818622535126,4168
46.82939551806646,4594
49.287292826160524,6513
51.74451074464503,5295
54.201049471426245,4067
56.65690920448981,3438
59.112090141899785,2898
61.56659248179983,3290
64.02041642241159,2902
66.4735621620365,2906
68.92602989905402,3518
71.37781983192338,3757
73.82893215918205,3203
76.27936707944684,2458
78.72912479141326,2578
81.17820549385567,2120
83.62660938562783,1792
86.07433666566146,2108
88.5213875329681,2245
90.96776218663751,2304
93.41346082583925,2408
95.85848364982041,2638
98.30283085790859,2145
100.7465026495089,2007
103.18949922410604,1803
105.63182078126385,1689
108.07346752062438,1986
110.51443964190923,1778
112.95473734491827,1777
115.39436082953114,1704
117.83331029570547,1631
120.27158594347827,1890
122.7091879729652,1837
125.1461165843615,1790
127.58237197794062,1613
130.01795435405518,1573
132.4528639131364,1598
134.88710085569494,1663
137.32066538231982,1778
139.75355769367923,1726
142.1857779905207,1503
144.61732647366978,1269
147.04820334403132,1270
149.47840880258934,1519
151.90794305040674,1594
154.33680628862487,1564
156.76499871846443,1674
159.19252054122433,1882
161.61937195828352,2173
164.04555317109896,2348
166.47106438120693,2547
168.89590579022217,2776
171.320077599839,3048
173.7435800118302,3167
176.16641322804742,3268
178.58857745042144,3267
181.01007288096173,3384
183.43089972175687,3370
185.85105817497413,3349
188.27054844285988,3442
190.6893707277394,3329
193.10752523201643,3426
195.5250121581745,3542
197.9418317087751,3619
200.3579840864594,3532
202.7734694939469,3754
205.18828813403627,3653
207.6024402096051,3681
210.01592592360964,3730
212.42874547908548,3774
214.84089907914665,3690
217.2523869269868,3659
219.66320922587727,3699
222.0733661791695,3641
224.48285799029293,3522
226.8916848627572,3589
229.29984700014882,3685
231.7073446061355,3692
234.11417788446204,3757
236.520347038953,3690
238.92585227351185,3709
241.33069379212054,3919
243.73487179884035,3992
246.1383864978112,3906
248.541238093252,3896
250.9434267894609,3909
253.34495279081432,3871
255.74581630176783,3949
258.1460175268563,3922
260.54555667069314,3944
262.9444339379703,3873
265.3426495334594,3873
267.7402036620107,3796
270.1370965285529,3591
272.53332833809407,3471
274.9288992957214,3486
277.32380960660055,3257
279.718059475976,3356
282.1116491091717,3296
284.5045787115897,3147
286.89684848871195,3240
289.2884586460981,3251
291.67940938938807,3276
294.0697009242996,3251
296.4593334566299,3272
298.84830719225477,3173
301.23662233712923,3142
303.6242790972866,3123
306.01127767884,3096
308.39761828798066,3068
310.78330113097934,2945
313.16832641418534,2892
315.5526943440269,2870
317.9364051270112,2886
320.3194589697242,2817
322.70185607883093,2815
325.0835966610754,2751
327.4646809232805,2679
329.8451090723478,2716
332.2248813152577,2839
334.6039978590701,2705
336.9824589109231,2711
339.36026467803447,2652
341.7374153677,2586
344.113911187295,2519
346.48975234427337,2544
348.8649390461686,2587
351.2394715005918,2635
353.61334991523415,2604
355.9865744978655,2560
358.35914545633375,2580
360.73106299856715,2604
363.10232733257146,2543
365.47293866643247,2538
367.84289720831396,2480
370.2122031664593,2469
372.5808567491905,2428
374.9488581649083,2528
377.31620762209275,2426
379.6829053293021,2407
382.0489514951745,2438
384.4143463284262,2401
386.7790900378528,2454
389.14318283232853,2431
391.50662492080653,2455
393.86941651231916,2512
396.23155781597745,2443
398.5930490409713,2511
400.9538903965696,2436
403.3140820921202,2363
405.6736243370498,2349
408.03251734086336,2243
410.3907613131465,2329
412.74835646356166,2363
415.10530300185144,2430
417.4616011378372,2358
419.81725108141893,2405
422.1722530425758,2341
424.5266072313656,2455
426.880313857925,2315
429.2333731324701,2322
431.58578526529516,2252
433.9375504667738,2326
436.2886689473588,2280
438.63914091758113,2248
440.9889665880513,2237
443.33814616945835,2248
445.68667987257015,2252
448.03456790823395,2252
450.3818104873759,2258
452.72840782100013,2273
455.07436012019105,2303
457.41966759611057,2266
459.7643304600007,2311
462.10834892318155,2258
464.4517231970525,2283
466.79445349309174,2286
469.1365400228566,2258
471.4779829979826,2328
473.81878263018564,2297
476.15893913125876,2288
478.4984527130747,2520
480.8373235875855,2480
483.17555196682144,2523
485.5131380628919,2587
487.8500820879857,2641
490.1863842543697,2831
492.52204477439034,3056
494.8570638604725,3334
497.1914417251204,3681
499.52517858091653,4095
501.85827464052306,4203
504.19073011668036,4216
506.5225452222086,4104
508.85372017000566,4038
511.18425517304956,4025
513.514150444396,4383
515.8434061971808,5720
518.1720226446176,6785
520.4999999999999,7089
522.8273384766991,6627
525.1540382881666,6441
527.480099647932,5580
529.8055227696037,4604
532.1303078668694,3450
534.454455153496,2813
536.777964843328,2623
539.1008371502907,2495
541.4230722883866,2409
543.744670471698,2419
546.0656319143858,2391
548.3859568306899,2252
550.7056454349294,2287
553.0246979415016,2299
555.3431145648834,2223
557.6608955196306,2234
559.978041020377,2341
562.2945512818363,2258
564.6104265188006,2354
566.9256669461412,2288
569.2402727788082,2307
571.5542442318302,2304
573.8675815203156,2267
576.1802848594508,2258
578.4923544645015,2382
580.8037905508126,2292
583.114593333807,2378
585.4247630289875,2331
587.7342998519354,2309
590.0432040183106,2315
592.3514757438526,2253
594.6591152443794,2408
596.9661227357875,2349
599.2724984340531,2287
601.578242555231,2326
603.8833553154542,2261
606.1878369309362,2323
608.4916876179676,2278
610.7949075929192,2258
613.0974970722403,2343
615.3994562724587,2318
617.7007854101818,2371
620.0014847020951,2266
622.3015543649641,2355
624.6009946156324,2356
626.8998056710224,2315
629.1979877481361,2297
631.4955410640538,2288
633.7924658359349,2322
636.0887622810175,2351
638.3844306166192,2359
640.6794710601358,2367
642.9738838290426,2330
645.2676691408932,2350
647.5608272133207,2455
649.853358264037,2377
652.1452625108324,2434
654.4365401715764,2444
656.7271914642178,2351
659.0172166067838,2377
661.3066158173809,2448
663.5953893141935,2353
665.8835373154867,2480
668.1710600396028,2415
670.4579577049639,2409
672.7442305300709,2432
675.0298787335033,2351
677.3149025339197,2379
679.599302150058,2455
681.8830778007342,2351
684.1662297048437,2354
686.4487580813608,2339
688.7306631493387,2341
691.0119451279091,2336
693.2926042362834,2359
695.5726406937516,2389
697.8520547196814,2437
700.1308465335215,2382
702.4090163547982,2311
704.6865644031171,2360
706.9634908981619,2345
709.2397960596965,2328
711.5154801075631,2350
713.7905432616823,2414
716.0649857420548,2380
718.3388077687592,2381
720.612009561953,2367
722.8845913418733,2348
725.1565533288352,2274
727.427895743234,2320
729.6986188055427,2216
731.9687227363137,2336
734.238207756178,2329
736.5070740858458,2344
738.7753219461066,2281
741.0429515578281,2283
743.3099631419569,2260
745.5763569195191,2256
747.8421331116193,2351
750.1072919394409,2284
752.3718336242467,2301
754.6357583873777,2350
756.8990664502545,2332
759.1617580343765,2299
761.423833361321,2317
763.6852926527457,2379
765.9461361303862,2342
768.206364016058,2366
770.4659765316536,2235
772.7249738991469,2288
774.9833563405886,2376
777.2411240781092,2396
779.4982773339183,2343
781.7548163303044,2322
784.010741289634,2298
786.2660524343538,2587
788.5207499869881,2384
790.7748341701416,2389
793.0283052064964,2337
795.2811633188143,2351
797.5334087299362,2348
799.7850416627813,2443
802.0360623403484,2327
804.2864709857143,2383
806.5362678220353,2388
808.7854530725468,2344
811.0340269605625,2329
813.2819897094754,2390
815.5293415427581,2286
817.77608268396,2372
820.0222133567116,2406
822.2677337847211,2336
824.5126441917765,2294
826.7569448017433,2319
829.0006358385675,2392
831.2437175262731,2370
833.4861900889629,2383
835.7280537508192,2429
837.9693087361026,2307
840.2099552691533,2375
842.4499935743896,2373
844.689423876309,2332
846.9282463994886,2411
849.1664613685833,2370
851.4040690083276,2437
853.6410695435349,2356
855.877463199097,2328
858.1132501999847,2358
860.3484307712487,2392
862.5830051380175,2394
864.8169735254988,2464
867.0503361589791,2403
869.2830932638243,2454
871.5152450654786,2433
873.7467917894654,2391
875.9777336613873,2539
878.2080709069252,2473
880.4378037518389,2421
882.666932421968,2363
884.8954571432301,2491
887.1233781416219,2506
889.3506956432192,2529
891.5774098741766,2420
893.803521060728,2452
896.0290294291852,2544
898.2539352059397,2518
900.4782386174619,2475
902.7019398903011,2475
904.925039251085,2513
907.147536926521,2495
909.3694331433943,2469
911.59072812857,2484
913.8114221089921,2495
916.0315153116827,2419
918.2510079637437,2351
920.4699002923547,2458
922.6881925247761,2497
924.905884888345,2451
927.1229776104793,2421
929.3394709186747,2573
931.555365040506,2441
933.7706602036275,2498
935.9853566357709,2419
938.1994545647489,2515
940.4129542184515,2514
942.6258558248488,2513
944.8381596119883,2550
947.0498658079974,2505
949.2609746410825,2425
951.4714863395287,2424
953.6814011316998,2430
955.8907192460387,2422
958.0994409110671,2424
960.3075663553858,2362
962.5150958076741,2383
964.7220294966913,2356
966.928367651274,2423
969.1341105003388,2441
971.3392582728806,2371
973.5438111979742,2431
975.747769504772,2349
977.9511334225061,2366
980.153903180487,2297
982.3560790081052,2378
984.5576611348289,2327
986.7586497902058,2274
988.9590452038618,2249
991.158847605503,2232
993.3580572249133,2202
995.5566742919558,2161
997.7546990365728,2077
999.952131688785,2102
1002.1489724786926,2131
1004.3452216364743,2069
1006.5408793923874,2037
1008.7359459767691,2072
1010.9304216200343,2021
1013.1243065526781,2081
1015.3176010052733,1979
1017.510305208472,1964
1019.7024193930064,1910
1021.8939437896848,1961
1024.0848786293977,1990
1026.2752241431122,1958
1028.4649805618747,1971
1030.6541481168115,1992
1032.842727039127,1918
1035.0307175601051,1906
1037.2181199111074,1906
1039.4049343235752,2020
1041.591161029029,1960
1043.7768002590683,1925
1045.9618522453698,1883
1048.1463172196918,1898
1050.3301954138697,2015
1052.513487059818,1955
1054.69619238953,2000
1056.8783116350783,1903
1059.0598450286152,1871
1061.2407928023704,1906
1063.4211551886528,1925
1065.6009324198508,1882
1067.780124728432,1940
1069.9587323469414,1979
1072.1367555080046,1876
1074.314194444325,1909
1076.4910493886855,1885
1078.667320573947,1893
1080.843008233051,1910
1083.0181125990161,1934
1085.1926339049414,1878
1087.3665723840027,1825
1089.5399282694575,1864
1091.7127017946405,1817
1093.8848931929647,1939
1096.0565026979243,1774
1098.2275305430899,1825
1100.3979769621128,1838
1102.567842188722,1801
1104.737126456726,1772
1106.9058300000124,1754
1109.0739530525475,1748
1111.2414958483764,1790
1113.4084586216231,1743
1115.5748416064907,1799
1117.7406450372605,1820
1119.9058691482942,1758
1122.0705141740304,1741
1124.2345803489884,1801
1126.3980679077658,1751
1128.5609770850388,1748
1130.7233081155623,1814
1132.8850612341707,1798
1135.0462366757774,1800
1137.2068346753745,1805
1139.3668554680326,1790
1141.526299288901,1809
1143.68516637321,1784
1145.8434569562655,1770
1148.001171273455,1766
1150.158309560244,1732
1152.3148720521767,1766
1154.470858984876,1745
1156.626270594044,1693
1158.7811071154629,1795
1160.9353687849912,1752
1163.089055838569,1726
1165.242168512213,1756
1167.3947070420209,1777
1169.5466716641677,1673
1171.6980626149075,1768
1173.8488801305748,1647
1175.9991244475814,1737
1178.1487958024186,1693
1180.2978944316555,1708
1182.4464205719428,1705
1184.5943744600072,1781
1186.7417563326567,1799
1188.8885664267755,1728
1191.0348049793297,1725
1193.1804722273619,1725
1195.325568407995,1770
1197.4700937584303,1725
1199.614048515948,1718
1201.7574329179074,1710
1203.900247201746,1743
1206.042491604982,1741
1208.1841663652099,1758
1210.3252717201053,1787
1212.465807907422,1780
1214.6057751649923,1767
1216.7451737307279,1757
1218.8840038426192,1769
1221.0222657387353,1767
1223.1599596572241,1813
1225.2970858363137,1768
1227.4336445143094,1836
1229.5696359295966,1768
1231.705060320639,1811
1233.8399179259786,1762
1235.9742089842384,1756
1238.107933734118,1738
1240.2410924143974,1808
1242.373685263935,1794
1244.5057125216676,1722
1246.6371744266116,1762
1248.7680712178621,1840
1250.898403134593,1823
1253.028170416058,1882
1255.1573733015875,1812
1257.2860120305932,1775
1259.4140868425648,1772
1261.54159797707,1841
1263.6685456737569,1784
1265.7949301723515,1853
1267.9207517126597,1865
1270.046010534565,1861
1272.1707068780306,1876
1274.2948409830983,1940
1276.4184130898889,1908
1278.541423438603,1851
1280.6638722695184,1917
1282.785759822993,1894
1284.9070863394636,1911
1287.0278520594447,1858
1289.1480572235314,1844
1291.2677020723963,1985
1293.3867868467923,1886
1295.5053117875495,1857
1297.623277135579,1992
1299.740683131868,1903
1301.8575300174857,1971
1303.973818033578,1939
1306.0895474213703,1985
1308.2047184221678,1950
1310.3193312773528,1961
1312.4333862283888,1984
1314.5468835168163,1907
1316.659823384255,1996
1318.7722060724045,2035
1320.8840318230418,1989
1322.9953008780249,1958
1325.1060134792888,2013
1327.2161698688478,1981
1329.3257702887959,1935
1331.4348149813054,1990
1333.5433041886276,1986
1335.6512381530933,2018
1337.7586171171101,1945
1339.8654413231675,1990
1341.9717110138317,1993
1344.0774264317488,1936
1346.1825878196432,1962
1348.2871954203192,1953
1350.3912494766587,2019
1352.4947502316231,1999
1354.5976979282532,1963
1356.7000928096686,1970
1358.8019351190665,1944
1360.9032250997243,1970
1363.0039629949988,1973
1365.1041490483235,1932
1367.2037835032133,1922
1369.3028666032606,1981
1371.401398592137,1948
1373.4993797135926,1929
1375.5968102114575,2009
1377.6936903296396,2066
1379.7900203121262,2085
1381.8858004029835,1972
1383.9810308463561,1959
1386.075711886469,1947
1388.1698437676241,1919
1390.2634267342032,2017
1392.356461030667,2025
1394.4489469015557,2005
1396.5408845914872,2082
1398.6322743451592,2087
1400.7231164073469,2085
1402.813411022907,2094
1404.903158436773,2142
1406.9923588939578,2144
1409.0810126395531,2165
1411.1691199187303,2103
1413.2566809767386,2101
1415.343696058907,2165
1417.4301654106425,2204
1419.5160892774315,2176
1421.6014679048399,2179
1423.6863015385125,2195
1425.7705904241707,2224
1427.8543348076178,2307
1429.9375349347342,2245
1432.0201910514802,2268
1434.102303403894,2292
1436.1838722380944,2375
1438.2648978002767,2349
1440.3453803367174,2334
1442.4253200937692,2451
1444.5047173178677,2491
1446.5835722555234,2502
1448.6618851533285,2547
1450.739656257952,2528
1452.8168858161434,2567
1454.8935740747306,2618
1456.96972128062,2632
1459.045327680797,2721
1461.120393522327,2799
1463.1949190523528,2773
1465.2689045180973,2730
1467.3423501668608,2891
1469.415256246024,2880
1471.4876230030463,3102
1473.559450685465,3062
1475.6307395408976,3038
1477.7014898170391,3225
1479.771701761665,3267
1481.8413756226287,3222
1483.9105116478618,3436
1485.9791100853772,3399
1488.0471711832643,3404
1490.1146951896926,3483
1492.1816823529098,3606
1494.2481329212433,3645
1496.3140471430984,3639
1498.3794252669609,3736
1500.4442675413939,3821
1502.5085742150404,3670
1504.572345536622,3680
1506.6355817549388,3959
1508.6982831188702,3972
1510.7604498773744,3911
1512.8220822794883,4041
1514.8831805743293,4135
1516.9437450110909,4208
1519.003775839048,4160
1521.0632733075522,4396
1523.1222376660367,4316
1525.1806691640113,4455
1527.2385680510652,4559
1529.2959345768668,4572
1531.3527689911643,4683
1533.4090715437833,4753
1535.4648424846291,4745
1537.5200820636855,4967
1539.5747905310159,5064
1541.6289681367616,5120
1543.6826151311434,5108
1545.7357317644614,5294
1547.7883182870937,5242
1549.8403749494987,5331
1551.8919020022113,5478
1553.9428996958477,5641
1555.9933682811015,5733
1558.0433080087469,5945
1560.0927191296346,5958
1562.1416018946961,6002
1564.1899565549415,6024
1566.2377833614592,5884
1568.2850825654164,5724
1570.3318544180606,5641
1572.3780991707158,5410
1574.423817074788,5138
1576.4690083817595,4899
1578.5136733431923,4683
1580.5578122107272,4347
1582.601425236085,4229
1584.6445126710646,3958
1586.6870747675434,3711
1588.7291117774776,3608
1590.7706239529034,3311
1592.8116115459347,3136
1594.8520748087658,3021
1596.8920139936686,2989
1598.9314293529933,2831
1600.9703211391711,2808
1603.008689604711,2667
1605.0465350022005,2590
1607.0838575843068,2605
1609.1206576037753,2514
1611.1569353134305,2411
1613.1926909661765,2369
1615.2279248149953,2259
1617.2626371129481,2317
1619.2968281131757,2229
1621.3304980688963,2213
1623.3636472334088,2239
1625.39627586009,2188
1627.428384202396,2111
1629.459972513861,2058
1631.4910410480993,2024
1633.5215900588028,2018
1635.551619799744,2034
1637.5811305247717,1989
1639.6101224878166,1983
1641.6385959428862,1954
1643.6665511440683,1956
1645.693988345528,1990
1647.7209078015112,1956
1649.7473097663405,1985
1651.7731944944203,1963
1653.7985622402307,1968
1655.823413258333,2045
1657.847747803366,1872
1659.8715661300494,1932
1661.8948684931793,1939
1663.9176551476316,1896
1665.9399263483624,2007
1667.9616823504057,1903
1669.982923408873,1892
1672.0036497789574,1937
1674.0238617159293,1917
1676.043559475138,1888
1678.0627433120121,1867
1680.081413482059,1912
1682.0995702408654,1887
1684.117213844096,1930
1686.134344547495,1911
1688.1509626068864,1864
1690.1670682781705,1847
1692.182661817329,1895
1694.1977434804217,1774
1696.2123135235875,1930
1698.226372203043,1941
1700.2399197750851,1919
1702.2529564960905,1949
1704.2654826225112,1915
1706.277498410882,1938
1708.2890041178139,1897
1710.2999999999988,1897
1712.3104863142066,1823
1714.3204633172854,1826
1716.329931266163,1852
1718.3388904178469,1789
1720.3473410294214,1872
1722.3552833580516,1819
1724.3627176609807,1801
1726.3696441955308,1802
1728.3760632191033,1801
1730.3819749891782,1756
1732.3873797633146,1774
1734.3922777991502,1729
1736.3966693544012,1818
1738.4005546868639,1768
1740.4039340544127,1758
1742.406807715001,1782
1744.4091759266616,1824
1746.4110389475054,1762
1748.4123970357223,1748
1750.413250449582,1741
1752.4135994474318,1692
1754.4134442876993,1672
1756.4127852288902,1799
1758.4116225295893,1712
1760.4099564484595,1754
1762.407787244244,1740
1764.405115175764,1701
1766.4019405019203,1675
1768.3982634816916,1708
1770.3940843741357,1790
1772.3894034383907,1698
1774.3842209336717,1705
1776.378537119274,1638
1778.372352254571,1664
1780.3656665990156,1653
1782.3584804121397,1689
1784.3507939535534,1717
1786.3426074829463,1710
1788.3339212600863,1751
1790.3247355448211,1691
1792.3150505970766,1664
1794.3048666768573,1633
1796.2941840442477,1699
1798.2830029594106,1696
1800.2713236825884,1714
1802.2591464741004,1632
1804.2464715943465,1679
1806.2332993038058,1692
1808.2196298630352,1615
1810.2054635326708,1637
1812.190800573428,1664
1814.175641246101,1653
1816.1599858115628,1632
1818.1438345307652,1637
1820.127187664738,1642
1822.1100454745924,1623
1824.092408221516,1586
1826.0742761667766,1685
1828.055649571721,1713
1830.0365286977735,1625
1832.0169138064398,1679
1833.9968051593014,1671
1835.9762030180214,1662
1837.9551076443408,1660
1839.9335193000788,1626
1841.9114382471344,1638
1843.888864747485,1638
1845.8657990631878,1608
1847.842241456378,1673
1849.8181921892697,1586
1851.7936515241558,1658
1853.7686197234098,1621
1855.7430970494815,1689
1857.7170837649014,1633
1859.6905801322787,1615
1861.6635864143004,1656
1863.6361028737338,1660
1865.608129773424,1663
1867.5796673762961,1615
1869.5507159453537,1648
1871.521275743678,1657
1873.4913470344313,1615
1875.4609300808534,1626
1877.4300251462632,1693
1879.3986324940588,1671
1881.366752387717,1641
1883.3343850907936,1680
1885.3015308669228,1667
1887.268189979819,1665
1889.2343626932739,1656
1891.2000492711595,1689
1893.1652499774254,1708
1895.1299650761011,1694
1897.0941948312952,1633
1899.0579395071945,1679
1901.0211993680641,1663
1902.98397467825,1666
1904.9462657021745,1673
1906.9080727043415,1699
1908.869395949332,1639
1910.8302357018065,1657
1912.790592226504,1664
1914.7504657882428,1727
1916.7098566519212,1645
1918.6687650825133,1665
1920.6271913450764,1732
1922.5851357047422,1587
1924.5425984267245,1666
1926.499579776314,1633
1928.4560800188833,1671
1930.4120994198802,1643
1932.367638244833,1593
1934.32269675935,1644
1936.2772752291175,1587
1938.231373919899,1647
1940.1849930975404,1692
1942.1381330279637,1704
1944.0907939771696,1667
1946.0429762112412,1639
1947.9946799963363,1670
1949.9459055986945,1667
1951.896653284633,1621
1953.8469233205478,1648
1955.7967159729142,1662
1957.7460315082863,1606
1959.6948701932974,1613
1961.6432322946594,1648
1963.5911180791632,1549
1965.5385278136787,1643
1967.4854617651545,1662
1969.4319202006182,1627
1971.377903387176,1654
1973.3234115920136,1637
1975.268445082395,1651
1977.2130041256642,1605
1979.1570889892423,1592
1981.1006999406304,1637
1983.04383724741,1577
1984.986501177238,1676
1986.928691997853,1642
1988.8704099770712,1617
1990.811655382789,1634
1992.7524284829801,1605
1994.692729545698,1661
1996.6325588390755,1638
1998.5719166313224,1650
2000.5108031907307,1646
2002.4492187856677,1604
2004.387163684583,1624
2006.3246381560011,1622
2008.2616424685298,1618
2010.1981768908527,1655
2012.1342416917332,1617
2014.069837140014,1555
2016.0049635046162,1631
2017.9396210545406,1560
2019.8738100588666,1573
2021.8075307867502,1517
2023.740783507431,1579
2025.6735684902228,1577
2027.6058860045214,1569
2029.5377363198004,1596
2031.4691197056118,1599
2033.4000364315875,1609
2035.3304867674374,1580
2037.260470982952,1553
2039.189989347998,1545
2041.1190421325232,1572
2043.047629606554,1534
2044.9757520401945,1596
2046.9034097036288,1524
2048.8306028671195,1605
2050.7573318010086,1559
2052.683596775716,1505
2054.609398061742,1571
2056.5347359296647,1586
2058.4596106501403,1548
2060.384022493906,1617
2062.3079717317764,1610
2064.231458634646,1542
2066.1544834734873,1522
2068.077046519352,1498
2069.99914804337,1526
2071.9207883167524,1571
2073.8419676107865,1612
2075.7626861968406,1542
2077.6829443463607,1571
2079.6027423308715,1546
2081.522080421977,1562
2083.440958891362,1589
2085.359378010786,1563
2087.2773380520907,1560
2089.194839287196,1582
2091.111881988101,1590
2093.0284664268825,1545
2094.9445928756973,1579
2096.86026160678,1595
2098.775472892446,1558
2100.690227005088,1609
2102.604524217178,1541
2104.5183648012676,1550
2106.431749029985,1550
2108.34467717604,1584
2110.2571495122206,1580
2112.169166311393,1550
2114.080727846503,1575
2115.9918343905747,1589
2117.902486216711,1561
2119.8126835980956,1656
2121.722426807987,1620
2123.6317161197285,1562
2125.5405518067364,1588
2127.448934142509,1622
2129.356863400624,1559
2131.264339854737,1589
2133.1713637785815,1511
2135.077935445972,1657
2136.9840551308002,1603
2138.889723107037,1579
2140.7949396487334,1618
2142.699705030018,1597
2144.6040195250994,1622
2146.507883408264,1575
2148.4112969538774,1657
2150.3142604363848,1644
2152.2167741303097,1587
2154.1188383102535,1629
2156.0204532508997,1605
2157.9216192270064,1687
2159.822336513414,1614
2161.7226053850413,1644
2163.622426116884,1622
2165.5217989840185,1642
2167.4207242616,1602
2169.319202224862,1662
2171.2172331491165,1643
2173.1148173097563,1689
2175.0119549822507,1695
2176.90864644215,1630
2178.8048919650823,1664
2180.7006918267534,1666
2182.596046302952,1663
2184.4909556695407,1703
2186.3854202024645,1672
2188.279440177746,1719
2190.173015871487,1682
2192.066147559868,1609
2193.958835519149,1712
2195.851080025667,1696
2197.7428813558417,1680
2199.6342397861667,1659
2201.5251555932186,1681
2203.415629053651,1697
2205.3056604441986,1762
2207.19525004167,1753
2209.084398122958,1706
2210.9731049650327,1778
2212.861370844941,1771
2214.749196039812,1723
2216.636580826851,1714
2218.523525483344,1700
2220.410030286655,1753
2222.296095514226,1708
2224.1817214435805,1764
2226.066908352319,1707
2227.951656518121,1675
2229.835966218746,1726
2231.71983773203,1692
2233.6032713358913,1783
2235.486267308324,1731
2237.3688259274036,1771
2239.2509474712824,1684
2241.132632218193,1700
2243.013880446447,1765
2244.8946924344323,1727
2246.7750684606203,1756
2248.6550088035574,1744
2250.534513741871,1735
2252.413583554265,1705
2254.292218519526,1740
2256.170418916517,1648
2258.0481850241786,1672
2259.925517121534,1727
2261.8024154876825,1669
2263.678880401803,1679
2265.5549121431536,1716
2267.430510991071,1628
2269.305677224971,1731
2271.180411124348,1697
2273.0547129687766,1614
2274.9285830379076,1596
2276.8020216114737,1705
2278.6750289692845,1707
2280.5476053912294,1715
2282.4197511572766,1752
2284.2914665474727,1712
2286.162751841943,1692
2288.0336073208937,1774
2289.904033264608,1723
2291.774029953448,1764
2293.6435976678554,1696
2295.5127366883517,1637
2297.381447295534,1553
2299.2497297700825,1597
2301.1175843927526,1553
2302.9850114443825,1562
2304.852011205885,1541
2306.7185839582553,1513
2308.5847299825664,1490
2310.4504495599676,1488
2312.3157429716925,1483
2314.1806104990483,1503
2316.0450524234247,1466
2317.9090690262888,1450
2319.772660589186,1468
2321.635827393742,1454
2323.498569721661,1413
2325.3608878547248,1429
2327.2227820747967,1453
2329.0842526638157,1426
2330.945299903803,1404
2332.805924076857,1453
2334.6661254651535,1471
2336.525904350951,1390
2338.3852610165827,1421
2340.244195744464,1400
2342.102708817088,1444
2343.9608005170253,1448
2345.8184711269287,1425
2347.675720929526,1450
2349.532550207628,1452
2351.38895924412,1411
2353.24494832197,1439
2355.100517724223,1428
2356.955667734004,1429
2358.810398634514,1410
2360.664710709037,1477
2362.5186042409337,1485
2364.3720795136437,1457
2366.225136810686,1456
2368.0777764156583,1522
2369.929998612237,1527
2371.7818036841777,1485
2373.633191915315,1499
2375.484163589562,1455
2377.3347189909114,1506
2379.184858403434,1463
2381.03458211128,1473
2382.8838903986775,1511
2384.732783549936,1550
2386.5812618494406,1552
2388.4293255816588,1496
2390.2769750311327,1513
2392.1242104824883,1502
2393.971032220427,1482
2395.8174405297295,1508
2397.6634356952563,1558
2399.509018001947,1434
2401.3541877348193,1466
2403.1989451789705,1497
2405.043290619576,1554
2406.8872243418905,1447
2408.730746631247,1514
2410.5738577730594,1572
2412.4165580528183,1524
2414.258847756095,1531
2416.100727168537,1512
2417.9421965758734,1482
2419.783256263912,1474
2421.623906518538,1480
2423.4641476257157,1505
2425.303979871491,1544
2427.143403541984,1549
2428.9824189233977,1450
2430.821026302012,1535
2432.6592259641866,1515
2434.497018196361,1491
2436.33440328505,1533
2438.171381516851,1523
2440.00795317844,1585
2441.844118556569,1513
2443.6798779380724,1500
2445.5152316098606,1508
2447.3501798589255,1478
2449.1847229723357,1552
2451.0188612372403,1579
2452.8525949408663,1514
2454.6859243705203,1545
2456.518849813587,1537
2458.3513715575314,1507
2460.183489889895,1540
2462.015205098301,1487
2463.8465174704493,1519
2465.67742729412,1506
2467.5079348571717,1564
2469.338040447542,1496
2471.1677443532476,1555
2472.9970468623833,1524
2474.825948263123,1528
2476.6544488437207,1506
2478.482548892508,1577
2480.310248697896,1555
2482.137548548374,1523
2483.9644487325118,1503
2485.790949538956,1574
2487.617051256433,1547
2489.44275417375,1549
2491.26805857979,1563
2493.0929647635157,1543
2494.917473013971,1549
2496.741583620276,1581
2498.5652968716304,1562
2500.3886130573137,1574
2502.2115324666834,1657
2504.0340553891765,1603
2505.856182114308,1643
2507.6779129316733,1576
2509.499248130945,1619
2511.3201880018764,1626
2513.140732834298,1552
2514.9608829181198,1557
2516.780638543331,1624
2518.6,1623
2520.418967578273,1683
2522.237541568376,1598
2524.0557222606144,1650
2525.8735099453706,1627
2527.6909049131086,1653
2529.507907454368,1597
2531.32451785977,1697
2533.140736420014,1701
2534.9565634258774,1710
2536.771999168218,1698
2538.5870439379714,1694
2540.4016980261526,1703
2542.2159617238544,1731
2544.02983532225,1735
2545.8433191125914,1770
2547.656413386209,1782
2549.4691184345115,1785
2551.2814345489874,1757
2553.093362021204,1810
2554.904901142808,1856
2556.716052205523,1896
2558.526815501153,1839
2560.3371913215824,1887
2562.147179958771,1909
2563.956781704761,1991
2565.7659968516705,1955
2567.5748256916986,1844
2569.3832685171224,1898
2571.1913256202984,1912
2572.9989972936614,1930
2574.806283829725,1943
2576.613185521084,1904
2578.4197026604074,1900
2580.2258355404483,1987
2582.031584454035,1952
2583.836949694077,1991
2585.6419315535613,2046
2587.4465303255533,1984
2589.2507463032002,1995
2591.0545797797245,1994
2592.8580310484303,2061
2594.6611004026995,2085
2596.463788135992,2082
2598.266094541849,2096
2600.0680199138874,2125
2601.869564545807,2107
2603.670728731383,2084
2605.4715127644704,2058
2607.2719169390048,2078
2609.071941548998,2090
2610.8715868885433,2160
2612.670853251811,2147
2614.469740933052,2069
2616.268250226594,2126
2618.0663814268455,2070
2619.864134828292,2123
2621.6615107255006,2140
2623.458509413115,2110
2625.2551311858597,2000
2627.0513763385347,2134
2628.8472451660223,2076
2630.6427379632833,2102
2632.4378550253564,1974
2634.232596647359,1952
2636.026963124488,1964
2637.8209547520187,1914
2639.6145718253065,1978
2641.407814639785,1958
2643.200683490966,1933
2644.9931786744414,1902
2646.7853004858807,1840
2648.577049221034,1858
2650.3684251757277,1843
2652.1594286458712,1870
2653.9500599274484,1809
2655.740319316525,1818
2657.5302071092437,1799
2659.3197236018286,1767
2661.10886909058,1784
2662.8976438718782,1761
2664.686048242183,1681
2666.4740824980327,1741
2668.2617469360443,1774
2670.0490418529134,1695
2671.8359675454153,1703
2673.622524310403,1666
2675.408712444811,1672
2677.1945322456495,1665
2678.979984010009,1649
2680.76506803506,1646
2682.5497846180497,1631
2684.334134056306,1644
2686.1181166472343,1665
2687.9017326883213,1531
2689.6849824771293,1603
2691.4678663113013,1559
2693.2503844885596,1548
2695.032537306705,1594
2696.8143250636167,1589
2698.5957480572542,1531
2700.3768065856534,1529
2702.1575009469316,1671
2703.937831439283,1527
2705.717798360982,1545
2707.4974020103837,1531
2709.276642685917,1468
2711.055520686095,1527
2712.834036309506,1458
2714.612189854819,1494
2716.389981620782,1503
2718.1674119062204,1476
2719.944481010041,1539
2721.721189231226,1463
2723.4975368688415,1466
2725.273524222027,1451
2727.0491515900053,1466
2728.824419272075,1467
2730.5993275676146,1471
2732.3738767760838,1495
2734.148067197016,1487
2735.921899130031,1522
2737.6953728748194,1478
2739.468488731156,1393
2741.2412469988926,1509
2743.0136479779617,1468
2744.785691968372,1521
2746.5573792702116,1500
2748.3287101836504,1448
2750.099685008934,1454
2751.870304046388,1426
2753.640567596418,1509
2755.4104759595057,1457
2757.1800294362156,1484
2758.949228327187,1482
2760.7180729331412,1407
2762.486563554877,1442
2764.254700493272,1431
2766.022484049284,1433
2767.789914523947,1424
2769.5569922183786,1478
2771.3237174337705,1480
2773.090090471394,1568
2774.8561116326036,1457
2776.6217812188274,1460
2778.3870995315756,1451
2780.1520668724356,1433
2781.9166835430747,1424
2783.6809498452394,1399
2785.444866080754,1410
2787.2084325515225,1422
2788.971649559527,1367
2790.73451740683,1450
2792.4970363955713,1498
2794.2592068279705,1383
2796.0210290063264,1425
2797.7825032330147,1444
2799.543629810493,1438
2801.304409041296,1418
2803.0648412280366,1407
2804.8249266734088,1483
2806.5846656801846,1456
2808.344058551212,1402
2810.1031055894246,1447
2811.8618070978273,1416
2813.6201633795085,1406
2815.378174737636,1375
2817.1358414754536,1449
2818.893163896285,1417
2820.6501423035334,1423
2822.4067770006814,1440
2824.1630682912883,1405
2825.9190164789957,1452
2827.6746218675207,1411
2829.429884760661,1411
2831.184805462294,1402
2832.9393842763743,1497
2834.693621506936,1413
2836.4475174580916,1455
2838.201072434034,1392
2839.954286739034,1492
2841.707160677441,1421
2843.459694553685,1454
2845.2118886722724,1382
2846.96374333779,1497
2848.7152588549034,1436
2850.4664355283567,1429
2852.217273662973,1431
2853.9677735636546,1482
2855.7179355353833,1497
2857.4677598832186,1495
2859.217246912299,1354
2860.9663969278427,1512
2862.715210235146,1383
2864.4636871395846,1383
2866.211827946614,1386
2867.9596329617652,1414
2869.7071024906536,1418
2871.4542368389684,1377
2873.20103631248,1422
2874.947501217038,1386
2876.6936318585695,1446
2878.4394285430812,1458
2880.1848915766604,1401
2881.9300212654707,1451
2883.6748179157553,1450
2885.4192818338374,1394
2887.1634133261173,1397
2888.907212699077,1409
2890.6506802592744,1432
2892.393816313348,1445
2894.1366211680142,1430
2895.8790951300693,1399
2897.621238506388,1404
2899.363051603925,1443
2901.1045347297118,1380
2902.8456881908596,1379
2904.58651229456,1392
2906.327007348081,1401
2908.067173658772,1411
2909.8070115340597,1393
2911.5465212814497,1393
2913.285703208527,1477
2915.0245576229563,1409
2916.7630848324807,1406
2918.5012851449196,1416
2920.2391588681758,1418
2921.976706310227,1433
2923.7139277791334,1417
2925.4508235830313,1425
2927.187394030137,1420
2928.923639428745,1419
2930.6595600872306,1434
2932.395156314046,1478
2934.1304284177218,1436
2935.8653767068713,1422
2937.6000014901815,1420
2939.3343030764227,1402
2941.068281774442,1390
2942.8019378931644,1406
2944.5352717415976,1387
2946.2682836288236,1448
2948.0009738640065,1428
2949.7333427563885,1358
2951.465390615289,1427
2953.1971177501086,1400
2954.9285244703265,1375
2956.6596110855,1431
2958.3903779052657,1441
2960.1208252393385,1438
2961.8509533975125,1378
2963.5807626896617,1432
2965.3102534257378,1373
2967.0394259157715,1416
2968.768280469873,1392
2970.496817398232,1363
2972.2250370111146,1419
2973.952939618869,1498
2975.6805255319196,1423
2977.4077950607707,1461
2979.134748516006,1473
2980.861386208289,1447
2982.587708448359,1406
2984.313715547037,1376
2986.039407815222,1449
2987.764785563891,1410
2989.489849104102,1433
2991.2145987469908,1401
2992.9390348037705,1419
2994.6631575857346,1398
2996.3869674042576,1347
2998.1104645707887,1372
2999.83364939686,1433
3001.5565221940783,1412
3003.2790832741334,1394
3005.0013329487924,1407
3006.7232715298996,1432
3008.4448993293804,1422
3010.166216659239,1414
3011.887223831558,1413
3013.607921158498,1369
3015.3283089522993,1403
3017.0483875252826,1446
3018.7681571898443,1392
3020.4876182584626,1401
3022.2067710436927,1460
3023.9256158581707,1428
3025.644153014609,1392
3027.362382825801,1421
3029.0803056046193,1380
3030.797921664012,1381
3032.5152313170106,1346
3034.2322348767225,1394
3035.9489326563353,1408
3037.665324969115,1413
3039.3814121284063,1394
3041.097194447633,1358
3042.812672240299,1410
3044.5278458199855,1406
3046.2427155003525,1419
3047.9572815951406,1392
3049.671544418167,1422
3051.38550428333,1407
3053.0991615046073,1406
3054.812516396051,1384
3056.5255692717974,1365
3058.2383204460575,1395
3059.9507702331257,1461
3061.662918947372,1403
3063.3747669032446,1362
3065.0863144152736,1434
3066.7975617980674,1392
3068.508509366309,1405
3070.219157434767,1448
3071.9295063182844,1442
3073.639556331785,1433
3075.3493077902704,1451
3077.058761008821,1367
3078.7679163025964,1367
3080.476773986837,1427
3082.1853343768594,1403
3083.89359778806,1388
3085.6015645359153,1407
3087.3092349359786,1397
3089.016609303884,1351
3090.7236879553434,1430
3092.4304712061476,1374
3094.136959372166,1415
3095.843152769349,1438
3097.5490517137237,1400
3099.2546565213966,1448
3100.959967508554,1422
3102.66498499146,1461
3104.3697092864577,1385
3106.0741407099695,1429
3107.778279578498,1442
3109.482126208622,1351
3111.1856809170004,1427
3112.8889440203716,1433
3114.5919158355528,1453
3116.294596679439,1440
3117.996986869006,1478
3119.6990867213062,1414
3121.4008965534726,1455
3123.102416682717,1429
3124.803647426329,1415
3126.5045891016784,1409
3128.205242026213,1434
3129.90560651746,1511
3131.605682893025,1479
3133.3054714705922,1443
3135.0049725679282,1424
3136.7041865028714,1443
3138.4031135933465,1393
3140.101754157353,1448
3141.800108512971,1421
3143.498176978357,1473
3145.1959598717494,1372
3146.8934575114636,1409
3148.5906702158954,1405
3150.2875983035183,1422
3151.9842420928853,1395
3153.680601902627,1382
3155.376678051456,1419
3157.07247085816,1386
3158.767980641609,1377
3160.463207720748,1353
3162.158152414606,1389
3163.8528150422862,1367
3165.5471959229726,1359
3167.2412953759303,1383
3168.9351137204976,1362
3170.628651276098,1416
3172.3219083622307,1380
3174.014885298474,1422
3175.707582404485,1381
3177.4000000000005,1361
3179.092138404835,1371
3180.7839979388846,1371
3182.47557892212,1389
3184.166881674594,1349
3185.8579065164386,1458
3187.5486537678626,1443
3189.2391237491547,1460
3190.9293167806827,1453
3192.6192331828934,1395
3194.3088732763117,1384
3195.998237381542,1340
3197.687325819268,1350
3199.376138910251,1354
3201.064676975334,1382
3202.7529403354347,1365
3204.4409293115523,1391
3206.1286442247647,1333
3207.816085396229,1389
3209.5032531471825,1362
3211.190147798936,1387
3212.8767696728846,1368
3214.5631190905015,1323
3216.2491963733373,1266
3217.9350018430214,1325
3219.6205358212637,1367
3221.305798629851,1364
3222.990790590651,1316
3224.6755120256103,1351
3226.359963256751,1363
3228.0441446061795,1345
3229.7280563960758,1351
3231.411698948703,1299
3233.0950725863995,1361
3234.778177631587,1313
3236.461014406761,1390
3238.1435832345005,1374
3239.8258844374595,1378
3241.507918338374,1395
3243.1896852600576,1409
3244.8711855254023,1368
3246.552419457381,1355
3248.233387379042,1352
3249.914089613516,1386
3251.59452648401,1377
3253.274698313813,1353
3254.95460542629,1315
3256.6342481448855,1357
3258.313626793125,1294
3259.9927416946084,1355
3261.6715931730196,1326
3263.3501815521176,1326
3265.0285071557437,1379
3266.706570307815,1365
3268.3843713323286,1365
3270.0619105533615,1332
3271.739188295068,1287
3273.4162048816834,1300
3275.0929606375184,1327
3276.769455886966,1344
3278.445690954498,1393
3280.1216661646613,1374
3281.797381842087,1372
3283.4728383114807,1342
3285.1480358976296,1399
3286.8229749253996,1309
3288.4976557197333,1369
3290.172078605655,1290
3291.846243908266,1364
3293.5201519527463,1380
3295.193803064357,1368
3296.8671975684374,1390
3298.5403357904024,1313
3300.21321805575,1303
3301.8858446900567,1315
3303.558216018975,1342
3305.23033236824,1391
3306.9021940636603,1306
3308.57380143113,1337
3310.2451547966184,1342
3311.916254486174,1364
3313.5871008259246,1354
3315.2576941420766,1338
3316.9280347609147,1346
3318.5981230088046,1291
3320.2679592121895,1369
3321.9375436975924,1339
3323.606876791612,1292
3325.27595882093,1342
3326.944790112305,1308
3328.6133709925753,1404
3330.2817017886573,1387
3331.949782827547,1339
3333.617614436319,1322
3335.2851969421245,1321
3336.952530672199,1341
3338.619615953853,1355
3340.286453114475,1340
3341.9530424815357,1294
3343.619384382583,1393
3345.2854791452437,1305
3346.951327097224,1344
3348.6169285663073,1324
3350.2822838803577,1368
3351.947393367319,1365
3353.61225735521,1310
3355.2768761721345,1333
3356.9412501462693,1342
3358.605379605873,1383
3360.2692648792827,1357
3361.9329062949146,1361
3363.596304181263,1309
