CollectionTime,9/20/2024 12:30:10 PM
ExposureUsed,3
CalibratedSpectrum
-962.7078968117929,2420
-959.9714848408522,2570
-957.2358232597828,2616
-954.5009119013725,2576
-951.7667505983302,2668
-949.0333391832855,2609
-946.3006774887896,2588
-943.5687653473143,2600
-940.837602591253,2516
-938.1071890529199,2652
-935.3775245645503,2602
-932.6486089583007,2618
-929.9204420662485,2629
-927.1930237203925,2625
-924.4663537526524,2738
-921.7404319948689,2711
-919.0152582788041,2636
-916.2908324361409,2685
-913.5671542984834,2640
-910.8442236973568,2647
-908.1220404642074,2575
-905.4006044304027,2633
-902.679915427231,2593
-899.959973285902,2661
-897.2407778375464,2628
-894.5223289132158,2572
-891.8046263438832,2563
-889.0876699604426,2645
-886.3714595937089,2717
-883.6559950744183,2656
-880.9412762332282,2664
-878.2273029007168,2595
-875.5140749073835,2539
-872.8015920836489,2686
-870.0898542598545,2567
-867.3788612662631,2567
-864.6686129330585,2593
-861.9591090903457,2504
-859.2503495681506,2608
-856.5423341964203,2608
-853.8350628050229,2599
-851.1285352237478,2639
-848.4227512823054,2561
-845.7177108103272,2636
-843.0134136373656,2536
-840.3098595928943,2616
-837.6070485063082,2655
-834.9049802069229,2726
-832.2036545239757,2722
-829.5030712866244,2667
-826.8032303239481,2593
-824.1041314649472,2623
-821.4057745385428,2596
-818.7081593735775,2682
-816.0112857988148,2644
-813.3151536429393,2582
-810.6197627345566,2601
-807.9251129021936,2672
-805.2312039742981,2681
-802.5380357792392,2633
-799.8456081453069,2675
-797.1539209007124,2699
-794.462973873588,2747
-791.772766891987,2724
-789.083299783884,2550
-786.3945723771743,2643
-783.7065844996748,2678
-781.0193359791231,2711
-778.3328266431781,2755
-775.6470563194197,2611
-772.9620248353489,2605
-770.2777320183878,2637
-767.5941776958798,2693
-764.9113616950891,2738
-762.2292838432011,2717
-759.5479439673222,2654
-756.8673418944801,2764
-754.1874774516235,2665
-751.5083504656222,2669
-748.8299607632671,2651
-746.15230817127,2717
-743.475392516264,2741
-740.7992136248035,2711
-738.1237713233636,2682
-735.4490654383407,2701
-732.7750957960521,2683
-730.1018622227365,2726
-727.4293645445534,2694
-724.7576025875837,2733
-722.0865761778291,2791
-719.4162851412126,2736
-716.7467293035781,2812
-714.0779084906909,2839
-711.409822528237,2791
-708.7424712418238,2871
-706.0758544569796,2803
-703.4099719991541,2875
-700.7448236937178,2808
-698.0804093659622,2784
-695.4167288411002,2913
-692.7537819442656,2812
-690.0915685005134,2790
-687.4300883348199,2754
-684.7693412720819,2827
-682.1093271371178,2794
-679.4500457546669,2844
-676.7914969493897,2795
-674.1336805458676,2944
-671.4765963686034,2926
-668.8202442420206,2874
-666.1646239904642,2821
-663.5097354382001,2814
-660.8555784094151,2817
-658.2021527282176,2874
-655.5494582186366,2863
-652.8974947046223,2866
-650.2462620100463,2896
-647.5957599587009,2836
-644.9459883742998,3025
-642.2969470804776,2998
-639.6486359007902,2992
-637.0010546587141,2921
-634.3542031776476,2912
-631.7080812809096,2960
-629.0626887917401,2902
-626.4180255333008,2835
-623.7740913286734,2929
-621.1308860008619,2953
-618.4884093727904,2937
-615.8466612673046,2937
-613.2056415071715,2966
-610.5653499150785,2877
-607.9257863136347,2882
-605.28695052537,2929
-602.6488423727357,2893
-600.0114616781036,2960
-597.3748082637674,2957
-594.7388819519412,2884
-592.1036825647604,2900
-589.4692099242818,3042
-586.8354638524829,3032
-584.2024441712624,3053
-581.5701507024403,3051
-578.9385832677575,3023
-576.3077416888759,3071
-573.6776257873787,3051
-571.0482353847704,3075
-568.4195703024757,3058
-565.7916303618415,2949
-563.164415384135,3010
-560.5379251905453,2986
-557.9121596021815,3150
-555.2871184400748,3040
-552.6628015251767,3057
-550.0392086783606,3072
-547.4163397204204,2984
-544.794194472071,3136
-542.1727727539491,3075
-539.5520743866118,3137
-536.9320991905377,3109
-534.3128469861261,3151
-531.6943175936979,3203
-529.0765108334947,3143
-526.4594265256793,3208
-523.8430644903358,3405
-521.2274245474689,3638
-518.612506517005,3805
-515.9983102187913,3639
-513.3848354725959,3733
-510.77208209810846,3619
-508.16004991493924,3806
-505.5487387426199,3738
-502.9381484006032,3922
-500.3282787082628,4083
-497.71912948489364,4133
-495.1107005497117,4008
-492.5029917218539,3897
-489.8960028203786,3758
-487.28973366426493,3566
-484.68418407241325,3467
-482.07935386364494,3367
-479.47524285670266,3326
-476.87185087025,3290
-474.2691777228715,3328
-471.66722323307334,3387
-469.0659872192821,3336
-466.4654694998459,3361
-463.86566989303384,3369
-461.26658821703614,3288
-458.66822428996414,3347
-456.07057792985,3345
-453.4736489546475,3334
-450.877437182231,3359
-448.28194243039627,3294
-445.68716451686,3220
-443.09310325926003,3236
-440.49975847515555,3225
-437.9071299820263,3112
-435.31521759727354,3208
-432.72402113821954,3153
-430.13354042210767,3277
-427.5437752661022,3206
-424.95472548728867,3221
-422.36639090267386,3305
-419.7787713291855,3312
-417.1918665836721,3375
-414.60567648290385,3342
-412.0202008435715,3367
-409.4354394822874,3435
-406.8513922155845,3468
-404.26805885991723,3477
-401.685439231661,3427
-399.103533147112,3423
-396.522340422488,3373
-393.9418608739278,3375
-391.3620943174908,3109
-388.7830405691583,3046
-386.2046994448317,3002
-383.6270707603344,2752
-381.05015433141045,2652
-378.473949973725,2406
-375.8984575028645,2098
-373.32367673433623,1912
-370.74960748356875,1672
-368.1762495659117,1425
-365.60360279663576,1252
-363.03166699093265,1087
-360.4604419639154,935
-357.8899275306178,781
-355.32012350599507,672
-352.7510297049233,658
-350.1826459421999,656
-347.61497203254316,596
-345.04800779059235,574
-342.4817530309082,530
-339.91620756797226,505
-337.35137121618743,579
-334.7872437898774,612
-332.22382510328725,550
-329.66111497058273,568
-327.09911320585127,605
-324.53781962310075,655
-321.9772340362607,546
-319.4173562591816,605
-316.8581861056348,580
-314.2997233893127,583
-311.7419679238294,565
-309.1849195227194,652
-306.62857799943856,671
-304.0729431673641,679
-301.51801483979375,653
-298.963792829947,621
-296.41027695096386,594
-293.85746701590574,661
-291.3053628377552,699
-288.7539642294155,672
-286.2032710037115,678
-283.65328297338897,658
-281.1039999511146,670
-278.5554217494762,716
-276.007548180983,811
-273.4603790580651,802
-270.9139141930734,702
-268.3681533982807,747
-265.8230964858798,792
-263.27874326798565,793
-260.7350935566336,782
-258.1921471637804,778
-255.6499039013039,804
-253.10836358100266,897
-250.56752601459698,774
-248.02739101372765,887
-245.48795838995704,892
-242.94922795476816,898
-240.41119951956557,986
-237.8738728956746,951
-235.33724789434166,867
-232.80132432673452,840
-230.2661020039418,814
-227.73158073697357,913
-225.19776033676033,961
-222.66464061415422,1111
-220.1322213799284,928
-217.60050244477725,909
-215.06948361931552,868
-212.53916471408013,996
-210.00954553952818,1044
-207.48062590603843,905
-204.9524056239104,916
-202.4248845033651,1090
-199.8980623545441,960
-197.37193898751036,1028
-194.84651421224817,1089
-192.32178783866232,1122
-189.79775967657952,1130
-187.27442953574644,1076
-184.7517972258321,1001
-182.2298625564256,930
-179.7086253370378,909
-177.18808537710026,977
-174.66824248596583,1099
-172.14909647290835,1159
-169.6306471471229,1209
-167.11289431772548,1185
-164.59583779375328,1031
-162.07947738416453,1031
-159.5638128978386,1410
-157.04884414357605,1616
-154.53457093009854,1530
-152.02099306604828,1224
-149.50811035998936,1281
-146.99592262040665,1422
-144.48442965570587,1365
-141.97363127421409,1550
-139.46352728417958,1625
-136.95411749377126,1635
-134.44540171107985,1303
-131.93737974411636,1382
-129.43005140081357,1415
-126.92341648902493,1645
-124.41747481652521,1930
-121.91222619101006,2469
-119.40767042009657,2401
-116.90380731132257,2441
-114.40063667214702,2582
-111.8981583099503,3240
-109.3963720320337,4559
-106.89527764561933,6697
-104.39487495785067,8822
-101.89516377579241,13144
-99.39614390642998,19925
-96.89781515667039,28071
-94.40017733334128,32799
-91.90323024319173,30796
-89.40697369289148,27388
-86.91140748903172,22232
-84.41653143812482,13589
-81.92234534660395,11557
-79.42884902082358,12793
-76.93604226705907,15050
-74.4439248915071,17847
-71.95249670028534,18156
-69.46175749943245,15599
-66.97170709490854,11032
-64.48234529259423,7801
-61.99367189829195,7158
-59.50568671772464,8089
-57.01838955653636,9514
-54.53178022029283,8711
-52.045858514480074,9097
-49.560624244506016,10966
-47.07607721569923,10648
-44.59221723330904,9812
-42.10904410250669,9748
-39.62655762838392,13445
-37.14475761595372,20910
-34.66364387015028,25717
-32.18321619582866,32038
-29.70347439776515,31494
-27.224418280657005,29167
-24.74604764912317,35369
-22.26836230770266,45061
-19.7913620608565,61947
-17.315046712966478,65036
-14.83941606833514,65036
-12.36446993118659,65036
-9.89020810566592,65036
-7.416630395839093,65036
-4.94373660569363,65036
-2.471526539137585,65036
-6.821210263296962E-13,65036
2.47084320796705,65036
4.941003281093458,65036
7.410480415786196,65036
9.879274808531363,65036
12.347386655893956,65036
14.814816154518212,65036
17.28156350112681,65036
19.74762889252179,65036
22.21301252558385,65036
24.67771459727237,23600
27.141735304626195,7362
29.605074844762612,6055
32.06773341487792,6819
34.52971121224755,6789
36.99100843422559,5912
39.45162527824516,4533
41.91156194181792,3672
44.370818622535126,3675
46.82939551806646,4324
49.287292826160524,5810
51.74451074464503,5859
54.201049471426245,4909
56.65690920448981,3750
59.112090141899785,3134
61.56659248179983,2835
64.02041642241159,2274
66.4735621620365,2505
68.92602989905402,3431
71.37781983192338,4048
73.82893215918205,3822
76.27936707944684,2985
78.72912479141326,2466
81.17820549385567,2005
83.62660938562783,1858
86.07433666566146,2076
88.5213875329681,2064
90.96776218663751,1956
93.41346082583925,1979
95.85848364982041,2413
98.30283085790859,2340
100.7465026495089,2271
103.18949922410604,1896
105.63182078126385,1588
108.07346752062438,1665
110.51443964190923,1463
112.95473734491827,1757
115.39436082953114,1780
117.83331029570547,1603
120.27158594347827,1890
122.7091879729652,1835
125.1461165843615,1626
127.58237197794062,1644
130.01795435405518,1744
132.4528639131364,1599
134.88710085569494,1424
137.32066538231982,1772
139.75355769367923,1849
142.1857779905207,1799
144.61732647366978,1467
147.04820334403132,1344
149.47840880258934,1446
151.90794305040674,1869
154.33680628862487,2014
156.76499871846443,2381
159.19252054122433,2508
161.61937195828352,2782
164.04555317109896,3135
166.47106438120693,3501
168.89590579022217,3940
171.320077599839,4243
173.7435800118302,4436
176.16641322804742,4647
178.58857745042144,5012
181.01007288096173,5266
183.43089972175687,5151
185.85105817497413,5380
188.27054844285988,5728
190.6893707277394,5632
193.10752523201643,5774
195.5250121581745,5940
197.9418317087751,6090
200.3579840864594,6141
202.7734694939469,6199
205.18828813403627,6292
207.6024402096051,6488
210.01592592360964,6361
212.42874547908548,6312
214.84089907914665,6092
217.2523869269868,6149
219.66320922587727,6208
222.0733661791695,6156
224.48285799029293,6128
226.8916848627572,6220
229.29984700014882,6287
231.7073446061355,6193
234.11417788446204,6115
236.520347038953,6304
238.92585227351185,6328
241.33069379212054,6486
243.73487179884035,6412
246.1383864978112,6500
248.541238093252,6415
250.9434267894609,6495
253.34495279081432,6358
255.74581630176783,6457
258.1460175268563,6434
260.54555667069314,6292
262.9444339379703,6352
265.3426495334594,6225
267.7402036620107,6164
270.1370965285529,6243
272.53332833809407,6007
274.9288992957214,6042
277.32380960660055,5939
279.718059475976,5727
282.1116491091717,5947
284.5045787115897,5888
286.89684848871195,5909
289.2884586460981,5860
291.67940938938807,5847
294.0697009242996,5783
296.4593334566299,5926
298.84830719225477,5957
301.23662233712923,5812
303.6242790972866,5733
306.01127767884,5789
308.39761828798066,5769
310.78330113097934,5779
313.16832641418534,5703
315.5526943440269,5714
317.9364051270112,5663
320.3194589697242,5579
322.70185607883093,5484
325.0835966610754,5532
327.4646809232805,5488
329.8451090723478,5442
332.2248813152577,5495
334.6039978590701,5447
336.9824589109231,5439
339.36026467803447,5439
341.7374153677,5387
344.113911187295,5302
346.48975234427337,5363
348.8649390461686,5395
351.2394715005918,5256
353.61334991523415,5361
355.9865744978655,5359
358.35914545633375,5498
360.73106299856715,5492
363.10232733257146,5400
365.47293866643247,5333
367.84289720831396,5386
370.2122031664593,5330
372.5808567491905,5344
374.9488581649083,5358
377.31620762209275,5365
379.6829053293021,5337
382.0489514951745,5352
384.4143463284262,5325
386.7790900378528,5147
389.14318283232853,5272
391.50662492080653,5146
393.86941651231916,5166
396.23155781597745,5159
398.5930490409713,5171
400.9538903965696,5169
403.3140820921202,5100
405.6736243370498,5137
408.03251734086336,5165
410.3907613131465,5245
412.74835646356166,5261
415.10530300185144,5073
417.4616011378372,5168
419.81725108141893,5225
422.1722530425758,5094
424.5266072313656,5071
426.880313857925,5189
429.2333731324701,5255
431.58578526529516,5192
433.9375504667738,5222
436.2886689473588,5255
438.63914091758113,5180
440.9889665880513,5208
443.33814616945835,5155
445.68667987257015,5224
448.03456790823395,5107
450.3818104873759,5165
452.72840782100013,5112
455.07436012019105,5100
457.41966759611057,5108
459.7643304600007,5115
462.10834892318155,5044
464.4517231970525,5145
466.79445349309174,5145
469.1365400228566,5141
471.4779829979826,5125
473.81878263018564,5252
476.15893913125876,5205
478.4984527130747,5266
480.8373235875855,5277
483.17555196682144,5329
485.5131380628919,5224
487.8500820879857,5425
490.1863842543697,5772
492.52204477439034,5911
494.8570638604725,6054
497.1914417251204,6490
499.52517858091653,6634
501.85827464052306,6688
504.19073011668036,6806
506.5225452222086,6813
508.85372017000566,6610
511.18425517304956,6723
513.514150444396,7102
515.8434061971808,8512
518.1720226446176,9340
520.4999999999999,9607
522.8273384766991,9389
525.1540382881666,8917
527.480099647932,8455
529.8055227696037,7454
532.1303078668694,6228
534.454455153496,5704
536.777964843328,5543
539.1008371502907,5407
541.4230722883866,5239
543.744670471698,5276
546.0656319143858,5265
548.3859568306899,5199
550.7056454349294,5137
553.0246979415016,5184
555.3431145648834,5322
557.6608955196306,5168
559.978041020377,5036
562.2945512818363,5219
564.6104265188006,5296
566.9256669461412,5186
569.2402727788082,5345
571.5542442318302,5210
573.8675815203156,5272
576.1802848594508,5253
578.4923544645015,5253
580.8037905508126,5271
583.114593333807,5203
585.4247630289875,5257
587.7342998519354,5245
590.0432040183106,5428
592.3514757438526,5296
594.6591152443794,5179
596.9661227357875,5321
599.2724984340531,5239
601.578242555231,5383
603.8833553154542,5411
606.1878369309362,5285
608.4916876179676,5141
610.7949075929192,5208
613.0974970722403,5191
615.3994562724587,5365
617.7007854101818,5223
620.0014847020951,5159
622.3015543649641,5229
624.6009946156324,5386
626.8998056710224,5218
629.1979877481361,5214
631.4955410640538,5290
633.7924658359349,5328
636.0887622810175,5260
638.3844306166192,5236
640.6794710601358,5183
642.9738838290426,5403
645.2676691408932,5360
647.5608272133207,5497
649.853358264037,5396
652.1452625108324,5331
654.4365401715764,5410
656.7271914642178,5461
659.0172166067838,5440
661.3066158173809,5480
663.5953893141935,5378
665.8835373154867,5384
668.1710600396028,5474
670.4579577049639,5483
672.7442305300709,5439
675.0298787335033,5354
677.3149025339197,5322
679.599302150058,5391
681.8830778007342,5308
684.1662297048437,5407
686.4487580813608,5339
688.7306631493387,5400
691.0119451279091,5307
693.2926042362834,5540
695.5726406937516,5434
697.8520547196814,5368
700.1308465335215,5470
702.4090163547982,5301
704.6865644031171,5304
706.9634908981619,5440
709.2397960596965,5320
711.5154801075631,5467
713.7905432616823,5417
716.0649857420548,5358
718.3388077687592,5428
720.612009561953,5337
722.8845913418733,5405
725.1565533288352,5320
727.427895743234,5337
729.6986188055427,5344
731.9687227363137,5366
734.238207756178,5431
736.5070740858458,5332
738.7753219461066,5344
741.0429515578281,5370
743.3099631419569,5443
745.5763569195191,5322
747.8421331116193,5338
750.1072919394409,5343
752.3718336242467,5226
754.6357583873777,5306
756.8990664502545,5414
759.1617580343765,5337
761.423833361321,5381
763.6852926527457,5295
765.9461361303862,5359
768.206364016058,5510
770.4659765316536,5346
772.7249738991469,5328
774.9833563405886,5434
777.2411240781092,5506
779.4982773339183,5360
781.7548163303044,5406
784.010741289634,5398
786.2660524343538,5513
788.5207499869881,5266
790.7748341701416,5481
793.0283052064964,5483
795.2811633188143,5369
797.5334087299362,5499
799.7850416627813,5391
802.0360623403484,5399
804.2864709857143,5486
806.5362678220353,5445
808.7854530725468,5499
811.0340269605625,5505
813.2819897094754,5462
815.5293415427581,5504
817.77608268396,5454
820.0222133567116,5438
822.2677337847211,5503
824.5126441917765,5495
826.7569448017433,5453
829.0006358385675,5594
831.2437175262731,5434
833.4861900889629,5444
835.7280537508192,5410
837.9693087361026,5422
840.2099552691533,5504
842.4499935743896,5498
844.689423876309,5433
846.9282463994886,5417
849.1664613685833,5430
851.4040690083276,5510
853.6410695435349,5530
855.877463199097,5454
858.1132501999847,5567
860.3484307712487,5519
862.5830051380175,5440
864.8169735254988,5595
867.0503361589791,5457
869.2830932638243,5420
871.5152450654786,5484
873.7467917894654,5561
875.9777336613873,5492
878.2080709069252,5543
880.4378037518389,5581
882.666932421968,5562
884.8954571432301,5632
887.1233781416219,5515
889.3506956432192,5543
891.5774098741766,5615
893.803521060728,5579
896.0290294291852,5610
898.2539352059397,5532
900.4782386174619,5599
902.7019398903011,5697
904.925039251085,5551
907.147536926521,5484
909.3694331433943,5620
911.59072812857,5428
913.8114221089921,5458
916.0315153116827,5593
918.2510079637437,5531
920.4699002923547,5613
922.6881925247761,5574
924.905884888345,5518
927.1229776104793,5590
929.3394709186747,5619
931.555365040506,5460
933.7706602036275,5470
935.9853566357709,5447
938.1994545647489,5455
940.4129542184515,5451
942.6258558248488,5466
944.8381596119883,5542
947.0498658079974,5409
949.2609746410825,5540
951.4714863395287,5548
953.6814011316998,5590
955.8907192460387,5502
958.0994409110671,5484
960.3075663553858,5583
962.5150958076741,5616
964.7220294966913,5551
966.928367651274,5492
969.1341105003388,5532
971.3392582728806,5326
973.5438111979742,5443
975.747769504772,5518
977.9511334225061,5496
980.153903180487,5426
982.3560790081052,5487
984.5576611348289,5498
986.7586497902058,5343
988.9590452038618,5361
991.158847605503,5290
993.3580572249133,5332
995.5566742919558,5433
997.7546990365728,5269
999.952131688785,5380
1002.1489724786926,5279
1004.3452216364743,5234
1006.5408793923874,5082
1008.7359459767691,5163
1010.9304216200343,5173
1013.1243065526781,5167
1015.3176010052733,5050
1017.510305208472,5179
1019.7024193930064,5172
1021.8939437896848,5228
1024.0848786293977,5178
1026.2752241431122,5105
1028.4649805618747,5149
1030.6541481168115,5076
1032.842727039127,5223
1035.0307175601051,5163
1037.2181199111074,5116
1039.4049343235752,5190
1041.591161029029,5081
1043.7768002590683,5191
1045.9618522453698,5058
1048.1463172196918,4995
1050.3301954138697,5158
1052.513487059818,5188
1054.69619238953,5216
1056.8783116350783,5216
1059.0598450286152,5206
1061.2407928023704,5114
1063.4211551886528,5136
1065.6009324198508,5090
1067.780124728432,5048
1069.9587323469414,5122
1072.1367555080046,5161
1074.314194444325,5156
1076.4910493886855,5120
1078.667320573947,5156
1080.843008233051,5092
1083.0181125990161,5025
1085.1926339049414,5086
1087.3665723840027,4984
1089.5399282694575,5066
1091.7127017946405,5016
1093.8848931929647,5029
1096.0565026979243,5020
1098.2275305430899,5059
1100.3979769621128,5023
1102.567842188722,4949
1104.737126456726,5060
1106.9058300000124,4959
1109.0739530525475,5049
1111.2414958483764,5082
1113.4084586216231,4948
1115.5748416064907,4985
1117.7406450372605,4975
1119.9058691482942,4958
1122.0705141740304,5050
1124.2345803489884,5031
1126.3980679077658,5155
1128.5609770850388,4967
1130.7233081155623,4901
1132.8850612341707,5008
1135.0462366757774,5078
1137.2068346753745,5058
1139.3668554680326,5185
1141.526299288901,5133
1143.68516637321,4995
1145.8434569562655,5034
1148.001171273455,4943
1150.158309560244,4973
1152.3148720521767,5042
1154.470858984876,5048
1156.626270594044,5124
1158.7811071154629,5030
1160.9353687849912,5015
1163.089055838569,4913
1165.242168512213,4992
1167.3947070420209,4885
1169.5466716641677,4966
1171.6980626149075,4959
1173.8488801305748,4874
1175.9991244475814,4887
1178.1487958024186,4864
1180.2978944316555,4863
1182.4464205719428,4876
1184.5943744600072,4811
1186.7417563326567,4894
1188.8885664267755,4744
1191.0348049793297,4856
1193.1804722273619,4852
1195.325568407995,4879
1197.4700937584303,4873
1199.614048515948,4811
1201.7574329179074,5021
1203.900247201746,5008
1206.042491604982,4895
1208.1841663652099,5023
1210.3252717201053,5020
1212.465807907422,5050
1214.6057751649923,5017
1216.7451737307279,5077
1218.8840038426192,5096
1221.0222657387353,5062
1223.1599596572241,5211
1225.2970858363137,5124
1227.4336445143094,5081
1229.5696359295966,5068
1231.705060320639,5219
1233.8399179259786,5060
1235.9742089842384,5033
1238.107933734118,5090
1240.2410924143974,5075
1242.373685263935,5053
1244.5057125216676,5056
1246.6371744266116,5056
1248.7680712178621,4986
1250.898403134593,4947
1253.028170416058,5018
1255.1573733015875,5079
1257.2860120305932,5108
1259.4140868425648,5044
1261.54159797707,5047
1263.6685456737569,4997
1265.7949301723515,5001
1267.9207517126597,5030
1270.046010534565,5152
1272.1707068780306,5125
1274.2948409830983,5150
1276.4184130898889,5180
1278.541423438603,5089
1280.6638722695184,5063
1282.785759822993,5132
1284.9070863394636,5171
1287.0278520594447,5094
1289.1480572235314,5336
1291.2677020723963,5118
1293.3867868467923,5206
1295.5053117875495,5267
1297.623277135579,5245
1299.740683131868,5218
1301.8575300174857,5203
1303.973818033578,5386
1306.0895474213703,5255
1308.2047184221678,5278
1310.3193312773528,5427
1312.4333862283888,5281
1314.5468835168163,5328
1316.659823384255,5328
1318.7722060724045,5246
1320.8840318230418,5254
1322.9953008780249,5237
1325.1060134792888,5435
1327.2161698688478,5279
1329.3257702887959,5171
1331.4348149813054,5272
1333.5433041886276,5226
1335.6512381530933,5316
1337.7586171171101,5240
1339.8654413231675,5363
1341.9717110138317,5257
1344.0774264317488,5277
1346.1825878196432,5302
1348.2871954203192,5280
1350.3912494766587,5327
1352.4947502316231,5216
1354.5976979282532,5239
1356.7000928096686,5214
1358.8019351190665,5309
1360.9032250997243,5264
1363.0039629949988,5213
1365.1041490483235,5288
1367.2037835032133,5205
1369.3028666032606,5212
1371.401398592137,5301
1373.4993797135926,5291
1375.5968102114575,5268
1377.6936903296396,5369
1379.7900203121262,5368
1381.8858004029835,5373
1383.9810308463561,5276
1386.075711886469,5205
1388.1698437676241,5305
1390.2634267342032,5352
1392.356461030667,5328
1394.4489469015557,5511
1396.5408845914872,5382
1398.6322743451592,5298
1400.7231164073469,5355
1402.813411022907,5430
1404.903158436773,5518
1406.9923588939578,5433
1409.0810126395531,5396
1411.1691199187303,5319
1413.2566809767386,5437
1415.343696058907,5508
1417.4301654106425,5440
1419.5160892774315,5537
1421.6014679048399,5503
1423.6863015385125,5406
1425.7705904241707,5577
1427.8543348076178,5492
1429.9375349347342,5458
1432.0201910514802,5489
1434.102303403894,5638
1436.1838722380944,5534
1438.2648978002767,5592
1440.3453803367174,5517
1442.4253200937692,5585
1444.5047173178677,5607
1446.5835722555234,5829
1448.6618851533285,5759
1450.739656257952,5935
1452.8168858161434,5876
1454.8935740747306,5880
1456.96972128062,5921
1459.045327680797,6000
1461.120393522327,6048
1463.1949190523528,6003
1465.2689045180973,6004
1467.3423501668608,6134
1469.415256246024,6224
1471.4876230030463,6205
1473.559450685465,6514
1475.6307395408976,6457
1477.7014898170391,6526
1479.771701761665,6632
1481.8413756226287,6648
1483.9105116478618,6657
1485.9791100853772,6680
1488.0471711832643,6679
1490.1146951896926,6731
1492.1816823529098,6829
1494.2481329212433,6972
1496.3140471430984,6922
1498.3794252669609,6777
1500.4442675413939,6996
1502.5085742150404,7238
1504.572345536622,7247
1506.6355817549388,7201
1508.6982831188702,7331
1510.7604498773744,7465
1512.8220822794883,7516
1514.8831805743293,7523
1516.9437450110909,7572
1519.003775839048,7529
1521.0632733075522,7684
1523.1222376660367,7680
1525.1806691640113,7880
1527.2385680510652,7816
1529.2959345768668,8085
1531.3527689911643,8017
1533.4090715437833,8151
1535.4648424846291,8165
1537.5200820636855,8434
1539.5747905310159,8262
1541.6289681367616,8637
1543.6826151311434,8604
1545.7357317644614,8844
1547.7883182870937,8793
1549.8403749494987,8957
1551.8919020022113,9023
1553.9428996958477,9265
1555.9933682811015,9219
1558.0433080087469,9478
1560.0927191296346,9313
1562.1416018946961,9280
1564.1899565549415,9350
1566.2377833614592,9400
1568.2850825654164,9031
1570.3318544180606,8837
1572.3780991707158,8692
1574.423817074788,8394
1576.4690083817595,8283
1578.5136733431923,7926
1580.5578122107272,7672
1582.601425236085,7425
1584.6445126710646,7234
1586.6870747675434,7063
1588.7291117774776,6804
1590.7706239529034,6550
1592.8116115459347,6515
1594.8520748087658,6326
1596.8920139936686,6399
1598.9314293529933,6219
1600.9703211391711,6269
1603.008689604711,5995
1605.0465350022005,5942
1607.0838575843068,5797
1609.1206576037753,5745
1611.1569353134305,5726
1613.1926909661765,5758
1615.2279248149953,5690
1617.2626371129481,5735
1619.2968281131757,5613
1621.3304980688963,5769
1623.3636472334088,5591
1625.39627586009,5520
1627.428384202396,5432
1629.459972513861,5538
1631.4910410480993,5317
1633.5215900588028,5455
1635.551619799744,5453
1637.5811305247717,5424
1639.6101224878166,5382
1641.6385959428862,5430
1643.6665511440683,5416
1645.693988345528,5354
1647.7209078015112,5253
1649.7473097663405,5267
1651.7731944944203,5361
1653.7985622402307,5439
1655.823413258333,5273
1657.847747803366,5217
1659.8715661300494,5304
1661.8948684931793,5247
1663.9176551476316,5260
1665.9399263483624,5193
1667.9616823504057,5334
1669.982923408873,5316
1672.0036497789574,5254
1674.0238617159293,5229
1676.043559475138,5249
1678.0627433120121,5225
1680.081413482059,5129
1682.0995702408654,5350
1684.117213844096,5151
1686.134344547495,5155
1688.1509626068864,5158
1690.1670682781705,5224
1692.182661817329,5297
1694.1977434804217,5245
1696.2123135235875,5237
1698.226372203043,5351
1700.2399197750851,5331
1702.2529564960905,5182
1704.2654826225112,5296
1706.277498410882,5339
1708.2890041178139,5284
1710.2999999999988,5280
1712.3104863142066,5251
1714.3204633172854,5161
1716.329931266163,5190
1718.3388904178469,5241
1720.3473410294214,5235
1722.3552833580516,5149
1724.3627176609807,5192
1726.3696441955308,5156
1728.3760632191033,5153
1730.3819749891782,5073
1732.3873797633146,5258
1734.3922777991502,5136
1736.3966693544012,5096
1738.4005546868639,5075
1740.4039340544127,5227
1742.406807715001,5091
1744.4091759266616,5099
1746.4110389475054,5128
1748.4123970357223,5239
1750.413250449582,5112
1752.4135994474318,5230
1754.4134442876993,4901
1756.4127852288902,4983
1758.4116225295893,4994
1760.4099564484595,5133
1762.407787244244,5055
1764.405115175764,5089
1766.4019405019203,5027
1768.3982634816916,5045
1770.3940843741357,5090
1772.3894034383907,5142
1774.3842209336717,5082
1776.378537119274,5110
1778.372352254571,5042
1780.3656665990156,5189
1782.3584804121397,5076
1784.3507939535534,5111
1786.3426074829463,5025
1788.3339212600863,5137
1790.3247355448211,5147
1792.3150505970766,4946
1794.3048666768573,5069
1796.2941840442477,5040
1798.2830029594106,5149
1800.2713236825884,5004
1802.2591464741004,5091
1804.2464715943465,4974
1806.2332993038058,5052
1808.2196298630352,4845
1810.2054635326708,5006
1812.190800573428,5161
1814.175641246101,5106
1816.1599858115628,5155
1818.1438345307652,5063
1820.127187664738,5050
1822.1100454745924,5008
1824.092408221516,5004
1826.0742761667766,4965
1828.055649571721,4957
1830.0365286977735,5028
1832.0169138064398,5081
1833.9968051593014,5030
1835.9762030180214,4979
1837.9551076443408,5003
1839.9335193000788,5006
1841.9114382471344,4958
1843.888864747485,5030
1845.8657990631878,5000
1847.842241456378,4955
1849.8181921892697,5005
1851.7936515241558,5105
1853.7686197234098,5065
1855.7430970494815,4960
1857.7170837649014,4934
1859.6905801322787,4932
1861.6635864143004,5106
1863.6361028737338,5049
1865.608129773424,5084
1867.5796673762961,4989
1869.5507159453537,5046
1871.521275743678,5097
1873.4913470344313,5132
1875.4609300808534,5021
1877.4300251462632,5077
1879.3986324940588,5058
1881.366752387717,5036
1883.3343850907936,5061
1885.3015308669228,5074
1887.268189979819,5096
1889.2343626932739,5091
1891.2000492711595,5093
1893.1652499774254,5064
1895.1299650761011,5011
1897.0941948312952,5085
1899.0579395071945,5034
1901.0211993680641,5015
1902.98397467825,5102
1904.9462657021745,5134
1906.9080727043415,5099
1908.869395949332,5083
1910.8302357018065,5094
1912.790592226504,5130
1914.7504657882428,5130
1916.7098566519212,5129
1918.6687650825133,5126
1920.6271913450764,5180
1922.5851357047422,5062
1924.5425984267245,5022
1926.499579776314,5037
1928.4560800188833,5091
1930.4120994198802,5045
1932.367638244833,5083
1934.32269675935,5100
1936.2772752291175,5080
1938.231373919899,5125
1940.1849930975404,5075
1942.1381330279637,5008
1944.0907939771696,5115
1946.0429762112412,5006
1947.9946799963363,5054
1949.9459055986945,5068
1951.896653284633,5028
1953.8469233205478,5120
1955.7967159729142,5114
1957.7460315082863,5106
1959.6948701932974,4997
1961.6432322946594,4919
1963.5911180791632,5026
1965.5385278136787,5038
1967.4854617651545,5022
1969.4319202006182,5000
1971.377903387176,5175
1973.3234115920136,5090
1975.268445082395,5099
1977.2130041256642,5182
1979.1570889892423,5016
1981.1006999406304,5131
1983.04383724741,4969
1984.986501177238,5038
1986.928691997853,5098
1988.8704099770712,5101
1990.811655382789,5078
1992.7524284829801,5135
1994.692729545698,5006
1996.6325588390755,5147
1998.5719166313224,5008
2000.5108031907307,5122
2002.4492187856677,5048
2004.387163684583,4969
2006.3246381560011,5019
2008.2616424685298,4997
2010.1981768908527,5000
2012.1342416917332,4892
2014.069837140014,5021
2016.0049635046162,4948
2017.9396210545406,4845
2019.8738100588666,5034
2021.8075307867502,5012
2023.740783507431,5044
2025.6735684902228,5058
2027.6058860045214,5071
2029.5377363198004,5001
2031.4691197056118,5035
2033.4000364315875,5032
2035.3304867674374,5093
2037.260470982952,5169
2039.189989347998,5005
2041.1190421325232,4994
2043.047629606554,5011
2044.9757520401945,5013
2046.9034097036288,4936
2048.8306028671195,5043
2050.7573318010086,4987
2052.683596775716,5058
2054.609398061742,5123
2056.5347359296647,5042
2058.4596106501403,5102
2060.384022493906,5127
2062.3079717317764,5025
2064.231458634646,5060
2066.1544834734873,5074
2068.077046519352,5064
2069.99914804337,5126
2071.9207883167524,5167
2073.8419676107865,5206
2075.7626861968406,4956
2077.6829443463607,5071
2079.6027423308715,5051
2081.522080421977,5100
2083.440958891362,5068
2085.359378010786,5091
2087.2773380520907,5154
2089.194839287196,5202
2091.111881988101,5145
2093.0284664268825,5016
2094.9445928756973,4985
2096.86026160678,5023
2098.775472892446,4954
2100.690227005088,5044
2102.604524217178,5013
2104.5183648012676,5090
2106.431749029985,5005
2108.34467717604,5035
2110.2571495122206,5112
2112.169166311393,5082
2114.080727846503,5190
2115.9918343905747,5037
2117.902486216711,5092
2119.8126835980956,5055
2121.722426807987,5172
2123.6317161197285,5070
2125.5405518067364,5174
2127.448934142509,5124
2129.356863400624,5079
2131.264339854737,5169
2133.1713637785815,5201
2135.077935445972,5155
2136.9840551308002,5180
2138.889723107037,5175
2140.7949396487334,5174
2142.699705030018,5141
2144.6040195250994,5098
2146.507883408264,5099
2148.4112969538774,5196
2150.3142604363848,5261
2152.2167741303097,5238
2154.1188383102535,5113
2156.0204532508997,5255
2157.9216192270064,5167
2159.822336513414,5130
2161.7226053850413,5165
2163.622426116884,5133
2165.5217989840185,5292
2167.4207242616,5079
2169.319202224862,5173
2171.2172331491165,5170
2173.1148173097563,5263
2175.0119549822507,5262
2176.90864644215,5232
2178.8048919650823,5230
2180.7006918267534,5195
2182.596046302952,5197
2184.4909556695407,5213
2186.3854202024645,5206
2188.279440177746,5271
2190.173015871487,5122
2192.066147559868,5173
2193.958835519149,5182
2195.851080025667,5217
2197.7428813558417,5246
2199.6342397861667,5179
2201.5251555932186,5239
2203.415629053651,5229
2205.3056604441986,5292
2207.19525004167,5187
2209.084398122958,5378
2210.9731049650327,5291
2212.861370844941,5200
2214.749196039812,5222
2216.636580826851,5218
2218.523525483344,5224
2220.410030286655,5239
2222.296095514226,5190
2224.1817214435805,5266
2226.066908352319,5091
2227.951656518121,5201
2229.835966218746,5294
2231.71983773203,5279
2233.6032713358913,5247
2235.486267308324,5313
2237.3688259274036,5157
2239.2509474712824,5441
2241.132632218193,5392
2243.013880446447,5325
2244.8946924344323,5194
2246.7750684606203,5339
2248.6550088035574,5335
2250.534513741871,5250
2252.413583554265,5399
2254.292218519526,5332
2256.170418916517,5329
2258.0481850241786,5192
2259.925517121534,5322
2261.8024154876825,5248
2263.678880401803,5344
2265.5549121431536,5262
2267.430510991071,5295
2269.305677224971,5318
2271.180411124348,5145
2273.0547129687766,5191
2274.9285830379076,5263
2276.8020216114737,5283
2278.6750289692845,5499
2280.5476053912294,5262
2282.4197511572766,5401
2284.2914665474727,5430
2286.162751841943,5368
2288.0336073208937,5342
2289.904033264608,5472
2291.774029953448,5446
2293.6435976678554,5517
2295.5127366883517,5395
2297.381447295534,5242
2299.2497297700825,5216
2301.1175843927526,5249
2302.9850114443825,5144
2304.852011205885,5133
2306.7185839582553,5154
2308.5847299825664,5120
2310.4504495599676,4909
2312.3157429716925,5057
2314.1806104990483,4990
2316.0450524234247,5181
2317.9090690262888,5210
2319.772660589186,5223
2321.635827393742,5116
2323.498569721661,5171
2325.3608878547248,5179
2327.2227820747967,5177
2329.0842526638157,5162
2330.945299903803,5094
2332.805924076857,5116
2334.6661254651535,5119
2336.525904350951,5133
2338.3852610165827,5073
2340.244195744464,5033
2342.102708817088,5130
2343.9608005170253,5166
2345.8184711269287,4985
2347.675720929526,5028
2349.532550207628,5219
2351.38895924412,5127
2353.24494832197,5008
2355.100517724223,5206
2356.955667734004,5094
2358.810398634514,5137
2360.664710709037,5090
2362.5186042409337,5188
2364.3720795136437,5088
2366.225136810686,5076
2368.0777764156583,5111
2369.929998612237,5152
2371.7818036841777,5039
2373.633191915315,5108
2375.484163589562,5242
2377.3347189909114,5200
2379.184858403434,5111
2381.03458211128,5155
2382.8838903986775,5162
2384.732783549936,5115
2386.5812618494406,5173
2388.4293255816588,5223
2390.2769750311327,5174
2392.1242104824883,5140
2393.971032220427,5039
2395.8174405297295,5168
2397.6634356952563,5197
2399.509018001947,5049
2401.3541877348193,5251
2403.1989451789705,5091
2405.043290619576,5232
2406.8872243418905,5124
2408.730746631247,5109
2410.5738577730594,5174
2412.4165580528183,5055
2414.258847756095,5084
2416.100727168537,5178
2417.9421965758734,5088
2419.783256263912,5185
2421.623906518538,5226
2423.4641476257157,5175
2425.303979871491,5101
2427.143403541984,5176
2428.9824189233977,5395
2430.821026302012,5123
2432.6592259641866,5223
2434.497018196361,5092
2436.33440328505,5024
2438.171381516851,5166
2440.00795317844,5102
2441.844118556569,5023
2443.6798779380724,5123
2445.5152316098606,5207
2447.3501798589255,5257
2449.1847229723357,5224
2451.0188612372403,5147
2452.8525949408663,5155
2454.6859243705203,5245
2456.518849813587,5168
2458.3513715575314,5155
2460.183489889895,5185
2462.015205098301,5245
2463.8465174704493,5277
2465.67742729412,5243
2467.5079348571717,5312
2469.338040447542,5270
2471.1677443532476,5299
2472.9970468623833,5199
2474.825948263123,5271
2476.6544488437207,5311
2478.482548892508,5289
2480.310248697896,5266
2482.137548548374,5202
2483.9644487325118,5236
2485.790949538956,5318
2487.617051256433,5330
2489.44275417375,5220
2491.26805857979,5272
2493.0929647635157,5216
2494.917473013971,5209
2496.741583620276,5259
2498.5652968716304,5306
2500.3886130573137,5389
2502.2115324666834,5299
2504.0340553891765,5291
2505.856182114308,5361
2507.6779129316733,5401
2509.499248130945,5312
2511.3201880018764,5307
2513.140732834298,5216
2514.9608829181198,5354
2516.780638543331,5341
2518.6,5406
2520.418967578273,5182
2522.237541568376,5480
2524.0557222606144,5296
2525.8735099453706,5424
2527.6909049131086,5327
2529.507907454368,5305
2531.32451785977,5324
2533.140736420014,5407
2534.9565634258774,5414
2536.771999168218,5391
2538.5870439379714,5398
2540.4016980261526,5465
2542.2159617238544,5503
2544.02983532225,5487
2545.8433191125914,5565
2547.656413386209,5517
2549.4691184345115,5547
2551.2814345489874,5529
2553.093362021204,5328
2554.904901142808,5590
2556.716052205523,5555
2558.526815501153,5541
2560.3371913215824,5446
2562.147179958771,5571
2563.956781704761,5497
2565.7659968516705,5628
2567.5748256916986,5541
2569.3832685171224,5596
2571.1913256202984,5509
2572.9989972936614,5573
2574.806283829725,5659
2576.613185521084,5652
2578.4197026604074,5630
2580.2258355404483,5793
2582.031584454035,5662
2583.836949694077,5591
2585.6419315535613,5640
2587.4465303255533,5636
2589.2507463032002,5669
2591.0545797797245,5687
2592.8580310484303,5723
2594.6611004026995,5804
2596.463788135992,5772
2598.266094541849,5842
2600.0680199138874,5767
2601.869564545807,5800
2603.670728731383,5852
2605.4715127644704,5739
2607.2719169390048,5907
2609.071941548998,5912
2610.8715868885433,6042
2612.670853251811,5853
2614.469740933052,5780
2616.268250226594,5905
2618.0663814268455,5779
2619.864134828292,5738
2621.6615107255006,5866
2623.458509413115,5810
2625.2551311858597,5764
2627.0513763385347,5645
2628.8472451660223,5731
2630.6427379632833,5673
2632.4378550253564,5598
2634.232596647359,5629
2636.026963124488,5629
2637.8209547520187,5720
2639.6145718253065,5709
2641.407814639785,5658
2643.200683490966,5657
2644.9931786744414,5649
2646.7853004858807,5540
2648.577049221034,5624
2650.3684251757277,5534
2652.1594286458712,5476
2653.9500599274484,5522
2655.740319316525,5584
2657.5302071092437,5530
2659.3197236018286,5542
2661.10886909058,5434
2662.8976438718782,5491
2664.686048242183,5568
2666.4740824980327,5492
2668.2617469360443,5501
2670.0490418529134,5482
2671.8359675454153,5401
2673.622524310403,5358
2675.408712444811,5393
2677.1945322456495,5417
2678.979984010009,5452
2680.76506803506,5367
2682.5497846180497,5426
2684.334134056306,5289
2686.1181166472343,5409
2687.9017326883213,5217
2689.6849824771293,5335
2691.4678663113013,5197
2693.2503844885596,5370
2695.032537306705,5327
2696.8143250636167,5353
2698.5957480572542,5202
2700.3768065856534,5359
2702.1575009469316,5261
2703.937831439283,5236
2705.717798360982,5221
2707.4974020103837,5216
2709.276642685917,5231
2711.055520686095,5172
2712.834036309506,5309
2714.612189854819,5323
2716.389981620782,5255
2718.1674119062204,5277
2719.944481010041,5323
2721.721189231226,5377
2723.4975368688415,5187
2725.273524222027,5252
2727.0491515900053,5378
2728.824419272075,5224
2730.5993275676146,5125
2732.3738767760838,5180
2734.148067197016,5222
2735.921899130031,5157
2737.6953728748194,5173
2739.468488731156,5079
2741.2412469988926,5256
2743.0136479779617,5084
2744.785691968372,5222
2746.5573792702116,5165
2748.3287101836504,5142
2750.099685008934,5241
2751.870304046388,5209
2753.640567596418,5169
2755.4104759595057,5083
2757.1800294362156,5238
2758.949228327187,5269
2760.7180729331412,5144
2762.486563554877,5007
2764.254700493272,5126
2766.022484049284,5145
2767.789914523947,5313
2769.5569922183786,5382
2771.3237174337705,5301
2773.090090471394,5144
2774.8561116326036,5108
2776.6217812188274,5223
2778.3870995315756,5175
2780.1520668724356,5312
2781.9166835430747,5285
2783.6809498452394,5178
2785.444866080754,5243
2787.2084325515225,5322
2788.971649559527,5199
2790.73451740683,5232
2792.4970363955713,5210
2794.2592068279705,5157
2796.0210290063264,5174
2797.7825032330147,5141
2799.543629810493,5100
2801.304409041296,5200
2803.0648412280366,5184
2804.8249266734088,5159
2806.5846656801846,5179
2808.344058551212,5188
2810.1031055894246,5202
2811.8618070978273,5211
2813.6201633795085,5173
2815.378174737636,5305
2817.1358414754536,5337
2818.893163896285,5388
2820.6501423035334,5252
2822.4067770006814,5165
2824.1630682912883,5202
2825.9190164789957,5230
2827.6746218675207,5193
2829.429884760661,5232
2831.184805462294,5270
2832.9393842763743,5277
2834.693621506936,5257
2836.4475174580916,5222
2838.201072434034,5193
2839.954286739034,5271
2841.707160677441,5234
2843.459694553685,5174
2845.2118886722724,5221
2846.96374333779,5267
2848.7152588549034,5255
2850.4664355283567,5241
2852.217273662973,5190
2853.9677735636546,5177
2855.7179355353833,5301
2857.4677598832186,5184
2859.217246912299,5289
2860.9663969278427,5187
2862.715210235146,5212
2864.4636871395846,5300
2866.211827946614,5334
2867.9596329617652,5272
2869.7071024906536,5193
2871.4542368389684,5245
2873.20103631248,5235
2874.947501217038,5269
2876.6936318585695,5208
2878.4394285430812,5237
2880.1848915766604,5148
2881.9300212654707,5095
2883.6748179157553,5105
2885.4192818338374,5136
2887.1634133261173,5234
2888.907212699077,5195
2890.6506802592744,5203
2892.393816313348,5138
2894.1366211680142,5220
2895.8790951300693,5146
2897.621238506388,5361
2899.363051603925,5243
2901.1045347297118,5312
2902.8456881908596,5232
2904.58651229456,5227
2906.327007348081,5218
2908.067173658772,5108
2909.8070115340597,5198
2911.5465212814497,5260
2913.285703208527,5192
2915.0245576229563,5143
2916.7630848324807,5286
2918.5012851449196,5201
2920.2391588681758,5143
2921.976706310227,4996
2923.7139277791334,5014
2925.4508235830313,5204
2927.187394030137,5196
2928.923639428745,5233
2930.6595600872306,5205
2932.395156314046,5181
2934.1304284177218,5350
2935.8653767068713,5274
2937.6000014901815,5267
2939.3343030764227,5304
2941.068281774442,5223
2942.8019378931644,5237
2944.5352717415976,5215
2946.2682836288236,5215
2948.0009738640065,5302
2949.7333427563885,5270
2951.465390615289,5256
2953.1971177501086,5336
2954.9285244703265,5311
2956.6596110855,5155
2958.3903779052657,5202
2960.1208252393385,5132
2961.8509533975125,5175
2963.5807626896617,5203
2965.3102534257378,5152
2967.0394259157715,5174
2968.768280469873,5159
2970.496817398232,5185
2972.2250370111146,5188
2973.952939618869,5167
2975.6805255319196,5214
2977.4077950607707,5183
2979.134748516006,5197
2980.861386208289,5282
2982.587708448359,5282
2984.313715547037,5280
2986.039407815222,5267
2987.764785563891,5234
2989.489849104102,5332
2991.2145987469908,5264
2992.9390348037705,5259
2994.6631575857346,5319
2996.3869674042576,5264
2998.1104645707887,5268
2999.83364939686,5285
3001.5565221940783,5219
3003.2790832741334,5280
3005.0013329487924,5293
3006.7232715298996,5179
3008.4448993293804,5257
3010.166216659239,5291
3011.887223831558,5345
3013.607921158498,5262
3015.3283089522993,5231
3017.0483875252826,5142
3018.7681571898443,5253
3020.4876182584626,5328
3022.2067710436927,5248
3023.9256158581707,5226
3025.644153014609,5232
3027.362382825801,5199
3029.0803056046193,5247
3030.797921664012,5291
3032.5152313170106,5157
3034.2322348767225,5248
3035.9489326563353,5224
3037.665324969115,5235
3039.3814121284063,5341
3041.097194447633,5248
3042.812672240299,5265
3044.5278458199855,5307
3046.2427155003525,5274
3047.9572815951406,5255
3049.671544418167,5373
3051.38550428333,5327
3053.0991615046073,5288
3054.812516396051,5300
3056.5255692717974,5143
3058.2383204460575,5340
3059.9507702331257,5312
3061.662918947372,5188
3063.3747669032446,5308
3065.0863144152736,5163
3066.7975617980674,5150
3068.508509366309,5193
3070.219157434767,5248
3071.9295063182844,5206
3073.639556331785,5339
3075.3493077902704,5314
3077.058761008821,5416
3078.7679163025964,5398
3080.476773986837,5285
3082.1853343768594,5304
3083.89359778806,5355
3085.6015645359153,5284
3087.3092349359786,5304
3089.016609303884,5260
3090.7236879553434,5337
3092.4304712061476,5277
3094.136959372166,5346
3095.843152769349,5280
3097.5490517137237,5181
3099.2546565213966,5316
3100.959967508554,5301
3102.66498499146,5227
3104.3697092864577,5289
3106.0741407099695,5300
3107.778279578498,5376
3109.482126208622,5224
3111.1856809170004,5311
3112.8889440203716,5286
3114.5919158355528,5338
3116.294596679439,5318
3117.996986869006,5162
3119.6990867213062,5262
3121.4008965534726,5290
3123.102416682717,5305
3124.803647426329,5256
3126.5045891016784,5321
3128.205242026213,5295
3129.90560651746,5415
3131.605682893025,5231
3133.3054714705922,5272
3135.0049725679282,5460
3136.7041865028714,5300
3138.4031135933465,5272
3140.101754157353,5361
3141.800108512971,5283
3143.498176978357,5262
3145.1959598717494,5219
3146.8934575114636,5272
3148.5906702158954,5319
3150.2875983035183,5250
3151.9842420928853,5224
3153.680601902627,5197
3155.376678051456,5384
3157.07247085816,5333
3158.767980641609,5203
3160.463207720748,5156
3162.158152414606,5235
3163.8528150422862,5238
3165.5471959229726,5201
3167.2412953759303,5117
3168.9351137204976,5241
3170.628651276098,5284
3172.3219083622307,5302
3174.014885298474,5290
3175.707582404485,5396
3177.4000000000005,5353
3179.092138404835,5383
3180.7839979388846,5212
3182.47557892212,5229
3184.166881674594,5361
3185.8579065164386,5308
3187.5486537678626,5387
3189.2391237491547,5317
3190.9293167806827,5340
3192.6192331828934,5310
3194.3088732763117,5379
3195.998237381542,5310
3197.687325819268,5275
3199.376138910251,5331
3201.064676975334,5280
3202.7529403354347,5173
3204.4409293115523,5184
3206.1286442247647,5185
3207.816085396229,5194
3209.5032531471825,5229
3211.190147798936,5217
3212.8767696728846,5138
3214.5631190905015,5196
3216.2491963733373,5058
3217.9350018430214,5098
3219.6205358212637,5200
3221.305798629851,5165
3222.990790590651,5165
3224.6755120256103,5041
3226.359963256751,5150
3228.0441446061795,5113
3229.7280563960758,5229
3231.411698948703,5236
3233.0950725863995,5286
3234.778177631587,5134
3236.461014406761,5224
3238.1435832345005,5207
3239.8258844374595,5173
3241.507918338374,5253
3243.1896852600576,5248
3244.8711855254023,5197
3246.552419457381,5193
3248.233387379042,5245
3249.914089613516,5321
3251.59452648401,5378
3253.274698313813,5261
3254.95460542629,5156
3256.6342481448855,5204
3258.313626793125,5168
3259.9927416946084,5222
3261.6715931730196,5212
3263.3501815521176,5037
3265.0285071557437,5110
3266.706570307815,5119
3268.3843713323286,5250
3270.0619105533615,5167
3271.739188295068,5256
3273.4162048816834,5240
3275.0929606375184,5205
3276.769455886966,5190
3278.445690954498,5152
3280.1216661646613,5277
3281.797381842087,5292
3283.4728383114807,5319
3285.1480358976296,5194
3286.8229749253996,5169
3288.4976557197333,5229
3290.172078605655,5173
3291.846243908266,5166
3293.5201519527463,5088
3295.193803064357,5143
3296.8671975684374,5109
3298.5403357904024,5177
3300.21321805575,5309
3301.8858446900567,5190
3303.558216018975,5235
3305.23033236824,5224
3306.9021940636603,5178
3308.57380143113,5351
3310.2451547966184,5181
3311.916254486174,5308
3313.5871008259246,5286
3315.2576941420766,5292
3316.9280347609147,5160
3318.5981230088046,5177
3320.2679592121895,5215
3321.9375436975924,5093
3323.606876791612,5211
3325.27595882093,5109
3326.944790112305,5114
3328.6133709925753,5071
3330.2817017886573,5055
3331.949782827547,5278
3333.617614436319,5174
3335.2851969421245,5222
3336.952530672199,5269
3338.619615953853,5186
3340.286453114475,5436
3341.9530424815357,5329
3343.619384382583,5281
3345.2854791452437,5234
3346.951327097224,5288
3348.6169285663073,5190
3350.2822838803577,5211
3351.947393367319,5348
3353.61225735521,5244
3355.2768761721345,5162
3356.9412501462693,5346
3358.605379605873,5230
3360.2692648792827,5204
3361.9329062949146,5155
3363.596304181263,5303
