CollectionTime,9/20/2024 12:30:37 PM
ExposureUsed,3
CalibratedSpectrum
-962.7078968117929,1170
-959.9714848408522,1284
-957.2358232597828,1235
-954.5009119013725,1272
-951.7667505983302,1300
-949.0333391832855,1330
-946.3006774887896,1236
-943.5687653473143,1296
-940.837602591253,1348
-938.1071890529199,1276
-935.3775245645503,1310
-932.6486089583007,1346
-929.9204420662485,1296
-927.1930237203925,1243
-924.4663537526524,1311
-921.7404319948689,1342
-919.0152582788041,1376
-916.2908324361409,1361
-913.5671542984834,1360
-910.8442236973568,1299
-908.1220404642074,1269
-905.4006044304027,1309
-902.679915427231,1296
-899.959973285902,1284
-897.2407778375464,1305
-894.5223289132158,1305
-891.8046263438832,1270
-889.0876699604426,1302
-886.3714595937089,1293
-883.6559950744183,1292
-880.9412762332282,1341
-878.2273029007168,1320
-875.5140749073835,1293
-872.8015920836489,1300
-870.0898542598545,1249
-867.3788612662631,1296
-864.6686129330585,1251
-861.9591090903457,1296
-859.2503495681506,1283
-856.5423341964203,1285
-853.8350628050229,1281
-851.1285352237478,1359
-848.4227512823054,1341
-845.7177108103272,1331
-843.0134136373656,1309
-840.3098595928943,1319
-837.6070485063082,1321
-834.9049802069229,1301
-832.2036545239757,1281
-829.5030712866244,1310
-826.8032303239481,1364
-824.1041314649472,1362
-821.4057745385428,1351
-818.7081593735775,1303
-816.0112857988148,1324
-813.3151536429393,1303
-810.6197627345566,1314
-807.9251129021936,1314
-805.2312039742981,1298
-802.5380357792392,1408
-799.8456081453069,1338
-797.1539209007124,1376
-794.462973873588,1385
-791.772766891987,1379
-789.083299783884,1337
-786.3945723771743,1332
-783.7065844996748,1359
-781.0193359791231,1364
-778.3328266431781,1354
-775.6470563194197,1328
-772.9620248353489,1362
-770.2777320183878,1320
-767.5941776958798,1345
-764.9113616950891,1309
-762.2292838432011,1290
-759.5479439673222,1318
-756.8673418944801,1278
-754.1874774516235,1409
-751.5083504656222,1394
-748.8299607632671,1395
-746.15230817127,1365
-743.475392516264,1401
-740.7992136248035,1369
-738.1237713233636,1343
-735.4490654383407,1314
-732.7750957960521,1368
-730.1018622227365,1347
-727.4293645445534,1328
-724.7576025875837,1411
-722.0865761778291,1367
-719.4162851412126,1397
-716.7467293035781,1438
-714.0779084906909,1487
-711.409822528237,1478
-708.7424712418238,1416
-706.0758544569796,1438
-703.4099719991541,1482
-700.7448236937178,1545
-698.0804093659622,1473
-695.4167288411002,1446
-692.7537819442656,1488
-690.0915685005134,1390
-687.4300883348199,1484
-684.7693412720819,1502
-682.1093271371178,1455
-679.4500457546669,1505
-676.7914969493897,1449
-674.1336805458676,1451
-671.4765963686034,1517
-668.8202442420206,1495
-666.1646239904642,1515
-663.5097354382001,1544
-660.8555784094151,1524
-658.2021527282176,1525
-655.5494582186366,1500
-652.8974947046223,1534
-650.2462620100463,1572
-647.5957599587009,1489
-644.9459883742998,1595
-642.2969470804776,1624
-639.6486359007902,1552
-637.0010546587141,1597
-634.3542031776476,1620
-631.7080812809096,1599
-629.0626887917401,1511
-626.4180255333008,1555
-623.7740913286734,1553
-621.1308860008619,1579
-618.4884093727904,1566
-615.8466612673046,1550
-613.2056415071715,1504
-610.5653499150785,1556
-607.9257863136347,1608
-605.28695052537,1517
-602.6488423727357,1580
-600.0114616781036,1621
-597.3748082637674,1605
-594.7388819519412,1593
-592.1036825647604,1699
-589.4692099242818,1606
-586.8354638524829,1556
-584.2024441712624,1576
-581.5701507024403,1704
-578.9385832677575,1715
-576.3077416888759,1741
-573.6776257873787,1658
-571.0482353847704,1525
-568.4195703024757,1623
-565.7916303618415,1683
-563.164415384135,1633
-560.5379251905453,1652
-557.9121596021815,1600
-555.2871184400748,1661
-552.6628015251767,1640
-550.0392086783606,1697
-547.4163397204204,1685
-544.794194472071,1615
-542.1727727539491,1692
-539.5520743866118,1782
-536.9320991905377,1655
-534.3128469861261,1800
-531.6943175936979,1868
-529.0765108334947,1776
-526.4594265256793,1798
-523.8430644903358,2048
-521.2274245474689,2232
-518.612506517005,2315
-515.9983102187913,2280
-513.3848354725959,2313
-510.77208209810846,2264
-508.16004991493924,2427
-505.5487387426199,2429
-502.9381484006032,2585
-500.3282787082628,2597
-497.71912948489364,2658
-495.1107005497117,2638
-492.5029917218539,2411
-489.8960028203786,2313
-487.28973366426493,2144
-484.68418407241325,1996
-482.07935386364494,1960
-479.47524285670266,1941
-476.87185087025,1892
-474.2691777228715,1942
-471.66722323307334,1983
-469.0659872192821,1933
-466.4654694998459,1929
-463.86566989303384,1865
-461.26658821703614,1977
-458.66822428996414,1946
-456.07057792985,1887
-453.4736489546475,1900
-450.877437182231,1855
-448.28194243039627,1869
-445.68716451686,1858
-443.09310325926003,1835
-440.49975847515555,1746
-437.9071299820263,1836
-435.31521759727354,1881
-432.72402113821954,1852
-430.13354042210767,1835
-427.5437752661022,1829
-424.95472548728867,1855
-422.36639090267386,1919
-419.7787713291855,2016
-417.1918665836721,1975
-414.60567648290385,1996
-412.0202008435715,1944
-409.4354394822874,2017
-406.8513922155845,2019
-404.26805885991723,2087
-401.685439231661,2015
-399.103533147112,2000
-396.522340422488,1952
-393.9418608739278,1889
-391.3620943174908,1865
-388.7830405691583,1872
-386.2046994448317,1837
-383.6270707603344,1723
-381.05015433141045,1588
-378.473949973725,1580
-375.8984575028645,1453
-373.32367673433623,1308
-370.74960748356875,1204
-368.1762495659117,1066
-365.60360279663576,948
-363.03166699093265,852
-360.4604419639154,765
-357.8899275306178,668
-355.32012350599507,624
-352.7510297049233,598
-350.1826459421999,607
-347.61497203254316,597
-345.04800779059235,610
-342.4817530309082,568
-339.91620756797226,557
-337.35137121618743,581
-334.7872437898774,631
-332.22382510328725,570
-329.66111497058273,544
-327.09911320585127,571
-324.53781962310075,593
-321.9772340362607,574
-319.4173562591816,549
-316.8581861056348,580
-314.2997233893127,612
-311.7419679238294,640
-309.1849195227194,727
-306.62857799943856,717
-304.0729431673641,647
-301.51801483979375,707
-298.963792829947,640
-296.41027695096386,562
-293.85746701590574,608
-291.3053628377552,622
-288.7539642294155,633
-286.2032710037115,642
-283.65328297338897,696
-281.1039999511146,692
-278.5554217494762,760
-276.007548180983,830
-273.4603790580651,840
-270.9139141930734,760
-268.3681533982807,759
-265.8230964858798,848
-263.27874326798565,847
-260.7350935566336,801
-258.1921471637804,745
-255.6499039013039,876
-253.10836358100266,846
-250.56752601459698,756
-248.02739101372765,847
-245.48795838995704,848
-242.94922795476816,863
-240.41119951956557,929
-237.8738728956746,961
-235.33724789434166,870
-232.80132432673452,898
-230.2661020039418,795
-227.73158073697357,835
-225.19776033676033,902
-222.66464061415422,1078
-220.1322213799284,1054
-217.60050244477725,966
-215.06948361931552,914
-212.53916471408013,1062
-210.00954553952818,1046
-207.48062590603843,919
-204.9524056239104,918
-202.4248845033651,997
-199.8980623545441,950
-197.37193898751036,985
-194.84651421224817,981
-192.32178783866232,1027
-189.79775967657952,1009
-187.27442953574644,980
-184.7517972258321,1102
-182.2298625564256,981
-179.7086253370378,972
-177.18808537710026,948
-174.66824248596583,1021
-172.14909647290835,1141
-169.6306471471229,1278
-167.11289431772548,1166
-164.59583779375328,1044
-162.07947738416453,1147
-159.5638128978386,1362
-157.04884414357605,1433
-154.53457093009854,1515
-152.02099306604828,1182
-149.50811035998936,1201
-146.99592262040665,1432
-144.48442965570587,1532
-141.97363127421409,1535
-139.46352728417958,1442
-136.95411749377126,1365
-134.44540171107985,1338
-131.93737974411636,1443
-129.43005140081357,1376
-126.92341648902493,1590
-124.41747481652521,1644
-121.91222619101006,1870
-119.40767042009657,1863
-116.90380731132257,2246
-114.40063667214702,2803
-111.8981583099503,3735
-109.3963720320337,5966
-106.89527764561933,9018
-104.39487495785067,10084
-101.89516377579241,12659
-99.39614390642998,18528
-96.89781515667039,27391
-94.40017733334128,34867
-91.90323024319173,34913
-89.40697369289148,32613
-86.91140748903172,26768
-84.41653143812482,15836
-81.92234534660395,12197
-79.42884902082358,14341
-76.93604226705907,19048
-74.4439248915071,22709
-71.95249670028534,23527
-69.46175749943245,18941
-66.97170709490854,12361
-64.48234529259423,7876
-61.99367189829195,6929
-59.50568671772464,8079
-57.01838955653636,9319
-54.53178022029283,9498
-52.045858514480074,12840
-49.560624244506016,16024
-47.07607721569923,14159
-44.59221723330904,14830
-42.10904410250669,16484
-39.62655762838392,18003
-37.14475761595372,22886
-34.66364387015028,26509
-32.18321619582866,33411
-29.70347439776515,37151
-27.224418280657005,34750
-24.74604764912317,38643
-22.26836230770266,48928
-19.7913620608565,65036
-17.315046712966478,65036
-14.83941606833514,65036
-12.36446993118659,65036
-9.89020810566592,65036
-7.416630395839093,65036
-4.94373660569363,65036
-2.471526539137585,65036
-6.821210263296962E-13,65036
2.47084320796705,65036
4.941003281093458,65036
7.410480415786196,65036
9.879274808531363,65036
12.347386655893956,65036
14.814816154518212,65036
17.28156350112681,65036
19.74762889252179,65036
22.21301252558385,65036
24.67771459727237,24898
27.141735304626195,8080
29.605074844762612,7167
32.06773341487792,7078
34.52971121224755,6966
36.99100843422559,5874
39.45162527824516,4348
41.91156194181792,3402
44.370818622535126,3530
46.82939551806646,4268
49.287292826160524,5931
51.74451074464503,5993
54.201049471426245,4945
56.65690920448981,3537
59.112090141899785,3302
61.56659248179983,2942
64.02041642241159,2471
66.4735621620365,2802
68.92602989905402,3756
71.37781983192338,4305
73.82893215918205,4012
76.27936707944684,2927
78.72912479141326,2467
81.17820549385567,2041
83.62660938562783,1703
86.07433666566146,1915
88.5213875329681,2218
90.96776218663751,2027
93.41346082583925,2070
95.85848364982041,2654
98.30283085790859,2548
100.7465026495089,2113
103.18949922410604,1852
105.63182078126385,1610
108.07346752062438,1615
110.51443964190923,1656
112.95473734491827,1865
115.39436082953114,1801
117.83331029570547,1585
120.27158594347827,1917
122.7091879729652,1918
125.1461165843615,1748
127.58237197794062,1713
130.01795435405518,1567
132.4528639131364,1498
134.88710085569494,1568
137.32066538231982,1714
139.75355769367923,1779
142.1857779905207,1845
144.61732647366978,1468
147.04820334403132,1279
149.47840880258934,1492
151.90794305040674,1700
154.33680628862487,1835
156.76499871846443,1966
159.19252054122433,2017
161.61937195828352,2275
164.04555317109896,2556
166.47106438120693,2723
168.89590579022217,3039
171.320077599839,3237
173.7435800118302,3495
176.16641322804742,3654
178.58857745042144,3936
181.01007288096173,3795
183.43089972175687,3875
185.85105817497413,3940
188.27054844285988,4086
190.6893707277394,4155
193.10752523201643,4255
195.5250121581745,4384
197.9418317087751,4386
200.3579840864594,4410
202.7734694939469,4640
205.18828813403627,4717
207.6024402096051,4734
210.01592592360964,4650
212.42874547908548,4497
214.84089907914665,4408
217.2523869269868,4427
219.66320922587727,4540
222.0733661791695,4540
224.48285799029293,4478
226.8916848627572,4538
229.29984700014882,4660
231.7073446061355,4544
234.11417788446204,4534
236.520347038953,4622
238.92585227351185,4781
241.33069379212054,4964
243.73487179884035,4901
246.1383864978112,4871
248.541238093252,4695
250.9434267894609,4903
253.34495279081432,4718
255.74581630176783,4760
258.1460175268563,4623
260.54555667069314,4726
262.9444339379703,4631
265.3426495334594,4708
267.7402036620107,4817
270.1370965285529,4542
272.53332833809407,4419
274.9288992957214,4345
277.32380960660055,4258
279.718059475976,4182
282.1116491091717,4250
284.5045787115897,4091
286.89684848871195,4182
289.2884586460981,4365
291.67940938938807,4329
294.0697009242996,4320
296.4593334566299,4260
298.84830719225477,4292
301.23662233712923,4194
303.6242790972866,4001
306.01127767884,4108
308.39761828798066,4090
310.78330113097934,4033
313.16832641418534,3927
315.5526943440269,3966
317.9364051270112,3974
320.3194589697242,3925
322.70185607883093,3901
325.0835966610754,3810
327.4646809232805,3750
329.8451090723478,3857
332.2248813152577,3930
334.6039978590701,3742
336.9824589109231,3938
339.36026467803447,3826
341.7374153677,3678
344.113911187295,3762
346.48975234427337,3683
348.8649390461686,3718
351.2394715005918,3705
353.61334991523415,3721
355.9865744978655,3662
358.35914545633375,3767
360.73106299856715,3822
363.10232733257146,3711
365.47293866643247,3630
367.84289720831396,3729
370.2122031664593,3712
372.5808567491905,3608
374.9488581649083,3620
377.31620762209275,3528
379.6829053293021,3675
382.0489514951745,3524
384.4143463284262,3635
386.7790900378528,3485
389.14318283232853,3593
391.50662492080653,3570
393.86941651231916,3563
396.23155781597745,3633
398.5930490409713,3560
400.9538903965696,3575
403.3140820921202,3555
405.6736243370498,3544
408.03251734086336,3603
410.3907613131465,3504
412.74835646356166,3474
415.10530300185144,3547
417.4616011378372,3641
419.81725108141893,3565
422.1722530425758,3571
424.5266072313656,3445
426.880313857925,3489
429.2333731324701,3473
431.58578526529516,3438
433.9375504667738,3519
436.2886689473588,3511
438.63914091758113,3468
440.9889665880513,3501
443.33814616945835,3473
445.68667987257015,3349
448.03456790823395,3405
450.3818104873759,3479
452.72840782100013,3486
455.07436012019105,3445
457.41966759611057,3475
459.7643304600007,3461
462.10834892318155,3431
464.4517231970525,3492
466.79445349309174,3454
469.1365400228566,3472
471.4779829979826,3592
473.81878263018564,3413
476.15893913125876,3590
478.4984527130747,3644
480.8373235875855,3662
483.17555196682144,3672
485.5131380628919,3718
487.8500820879857,3748
490.1863842543697,4004
492.52204477439034,4184
494.8570638604725,4196
497.1914417251204,4675
499.52517858091653,4963
501.85827464052306,5014
504.19073011668036,5038
506.5225452222086,5041
508.85372017000566,4958
511.18425517304956,4996
513.514150444396,5510
515.8434061971808,6749
518.1720226446176,7760
520.4999999999999,8024
522.8273384766991,7708
525.1540382881666,7272
527.480099647932,6782
529.8055227696037,5591
532.1303078668694,4659
534.454455153496,4109
536.777964843328,3628
539.1008371502907,3781
541.4230722883866,3817
543.744670471698,3677
546.0656319143858,3666
548.3859568306899,3547
550.7056454349294,3505
553.0246979415016,3537
555.3431145648834,3544
557.6608955196306,3485
559.978041020377,3632
562.2945512818363,3534
564.6104265188006,3573
566.9256669461412,3618
569.2402727788082,3458
571.5542442318302,3591
573.8675815203156,3524
576.1802848594508,3620
578.4923544645015,3625
580.8037905508126,3517
583.114593333807,3531
585.4247630289875,3676
587.7342998519354,3564
590.0432040183106,3535
592.3514757438526,3636
594.6591152443794,3608
596.9661227357875,3592
599.2724984340531,3560
601.578242555231,3616
603.8833553154542,3628
606.1878369309362,3548
608.4916876179676,3577
610.7949075929192,3602
613.0974970722403,3501
615.3994562724587,3599
617.7007854101818,3504
620.0014847020951,3577
622.3015543649641,3581
624.6009946156324,3586
626.8998056710224,3679
629.1979877481361,3640
631.4955410640538,3530
633.7924658359349,3509
636.0887622810175,3679
638.3844306166192,3691
640.6794710601358,3668
642.9738838290426,3671
645.2676691408932,3732
647.5608272133207,3638
649.853358264037,3695
652.1452625108324,3713
654.4365401715764,3709
656.7271914642178,3727
659.0172166067838,3750
661.3066158173809,3769
663.5953893141935,3684
665.8835373154867,3652
668.1710600396028,3719
670.4579577049639,3694
672.7442305300709,3736
675.0298787335033,3710
677.3149025339197,3689
679.599302150058,3664
681.8830778007342,3585
684.1662297048437,3613
686.4487580813608,3712
688.7306631493387,3671
691.0119451279091,3696
693.2926042362834,3648
695.5726406937516,3713
697.8520547196814,3649
700.1308465335215,3741
702.4090163547982,3628
704.6865644031171,3760
706.9634908981619,3683
709.2397960596965,3701
711.5154801075631,3665
713.7905432616823,3583
716.0649857420548,3713
718.3388077687592,3670
720.612009561953,3678
722.8845913418733,3759
725.1565533288352,3726
727.427895743234,3570
729.6986188055427,3615
731.9687227363137,3656
734.238207756178,3689
736.5070740858458,3743
738.7753219461066,3696
741.0429515578281,3728
743.3099631419569,3733
745.5763569195191,3773
747.8421331116193,3747
750.1072919394409,3695
752.3718336242467,3649
754.6357583873777,3615
756.8990664502545,3611
759.1617580343765,3754
761.423833361321,3684
763.6852926527457,3687
765.9461361303862,3756
768.206364016058,3700
770.4659765316536,3786
772.7249738991469,3635
774.9833563405886,3850
777.2411240781092,3755
779.4982773339183,3615
781.7548163303044,3707
784.010741289634,3677
786.2660524343538,3850
788.5207499869881,3698
790.7748341701416,3768
793.0283052064964,3817
795.2811633188143,3735
797.5334087299362,3681
799.7850416627813,3816
802.0360623403484,3754
804.2864709857143,3789
806.5362678220353,3760
808.7854530725468,3826
811.0340269605625,3766
813.2819897094754,3805
815.5293415427581,3779
817.77608268396,3793
820.0222133567116,3736
822.2677337847211,3777
824.5126441917765,3748
826.7569448017433,3732
829.0006358385675,3773
831.2437175262731,3693
833.4861900889629,3840
835.7280537508192,3733
837.9693087361026,3763
840.2099552691533,3929
842.4499935743896,3791
844.689423876309,3794
846.9282463994886,3892
849.1664613685833,3729
851.4040690083276,3760
853.6410695435349,3881
855.877463199097,3810
858.1132501999847,3841
860.3484307712487,3850
862.5830051380175,3681
864.8169735254988,3827
867.0503361589791,3849
869.2830932638243,3881
871.5152450654786,3810
873.7467917894654,3948
875.9777336613873,3886
878.2080709069252,3877
880.4378037518389,3781
882.666932421968,3848
884.8954571432301,3951
887.1233781416219,3903
889.3506956432192,3801
891.5774098741766,3834
893.803521060728,3893
896.0290294291852,3887
898.2539352059397,3905
900.4782386174619,3922
902.7019398903011,3899
904.925039251085,3887
907.147536926521,3925
909.3694331433943,3829
911.59072812857,3914
913.8114221089921,3930
916.0315153116827,3860
918.2510079637437,3737
920.4699002923547,3962
922.6881925247761,3960
924.905884888345,3792
927.1229776104793,3833
929.3394709186747,3928
931.555365040506,3845
933.7706602036275,3793
935.9853566357709,3796
938.1994545647489,3846
940.4129542184515,3922
942.6258558248488,3963
944.8381596119883,3890
947.0498658079974,3924
949.2609746410825,3865
951.4714863395287,3893
953.6814011316998,3884
955.8907192460387,3865
958.0994409110671,3856
960.3075663553858,3899
962.5150958076741,4001
964.7220294966913,3823
966.928367651274,3992
969.1341105003388,3862
971.3392582728806,3722
973.5438111979742,3796
975.747769504772,3755
977.9511334225061,3845
980.153903180487,3834
982.3560790081052,3818
984.5576611348289,3789
986.7586497902058,3762
988.9590452038618,3815
991.158847605503,3621
993.3580572249133,3652
995.5566742919558,3646
997.7546990365728,3700
999.952131688785,3725
1002.1489724786926,3587
1004.3452216364743,3634
1006.5408793923874,3513
1008.7359459767691,3579
1010.9304216200343,3452
1013.1243065526781,3614
1015.3176010052733,3505
1017.510305208472,3582
1019.7024193930064,3495
1021.8939437896848,3406
1024.0848786293977,3530
1026.2752241431122,3472
1028.4649805618747,3492
1030.6541481168115,3519
1032.842727039127,3602
1035.0307175601051,3607
1037.2181199111074,3380
1039.4049343235752,3468
1041.591161029029,3485
1043.7768002590683,3682
1045.9618522453698,3534
1048.1463172196918,3492
1050.3301954138697,3487
1052.513487059818,3625
1054.69619238953,3487
1056.8783116350783,3468
1059.0598450286152,3555
1061.2407928023704,3492
1063.4211551886528,3484
1065.6009324198508,3493
1067.780124728432,3534
1069.9587323469414,3529
1072.1367555080046,3507
1074.314194444325,3458
1076.4910493886855,3529
1078.667320573947,3489
1080.843008233051,3406
1083.0181125990161,3536
1085.1926339049414,3438
1087.3665723840027,3432
1089.5399282694575,3450
1091.7127017946405,3530
1093.8848931929647,3342
1096.0565026979243,3377
1098.2275305430899,3522
1100.3979769621128,3416
1102.567842188722,3486
1104.737126456726,3364
1106.9058300000124,3379
1109.0739530525475,3387
1111.2414958483764,3398
1113.4084586216231,3348
1115.5748416064907,3288
1117.7406450372605,3384
1119.9058691482942,3420
1122.0705141740304,3504
1124.2345803489884,3382
1126.3980679077658,3424
1128.5609770850388,3344
1130.7233081155623,3436
1132.8850612341707,3429
1135.0462366757774,3381
1137.2068346753745,3428
1139.3668554680326,3319
1141.526299288901,3447
1143.68516637321,3435
1145.8434569562655,3330
1148.001171273455,3344
1150.158309560244,3451
1152.3148720521767,3395
1154.470858984876,3401
1156.626270594044,3434
1158.7811071154629,3420
1160.9353687849912,3454
1163.089055838569,3388
1165.242168512213,3482
1167.3947070420209,3365
1169.5466716641677,3377
1171.6980626149075,3391
1173.8488801305748,3564
1175.9991244475814,3472
1178.1487958024186,3435
1180.2978944316555,3467
1182.4464205719428,3354
1184.5943744600072,3263
1186.7417563326567,3316
1188.8885664267755,3391
1191.0348049793297,3337
1193.1804722273619,3409
1195.325568407995,3345
1197.4700937584303,3480
1199.614048515948,3398
1201.7574329179074,3447
1203.900247201746,3433
1206.042491604982,3480
1208.1841663652099,3471
1210.3252717201053,3411
1212.465807907422,3513
1214.6057751649923,3417
1216.7451737307279,3442
1218.8840038426192,3474
1221.0222657387353,3447
1223.1599596572241,3521
1225.2970858363137,3557
1227.4336445143094,3499
1229.5696359295966,3553
1231.705060320639,3525
1233.8399179259786,3536
1235.9742089842384,3496
1238.107933734118,3493
1240.2410924143974,3528
1242.373685263935,3528
1244.5057125216676,3499
1246.6371744266116,3480
1248.7680712178621,3634
1250.898403134593,3417
1253.028170416058,3571
1255.1573733015875,3507
1257.2860120305932,3574
1259.4140868425648,3474
1261.54159797707,3489
1263.6685456737569,3460
1265.7949301723515,3539
1267.9207517126597,3629
1270.046010534565,3545
1272.1707068780306,3618
1274.2948409830983,3616
1276.4184130898889,3636
1278.541423438603,3612
1280.6638722695184,3593
1282.785759822993,3599
1284.9070863394636,3583
1287.0278520594447,3645
1289.1480572235314,3697
1291.2677020723963,3605
1293.3867868467923,3633
1295.5053117875495,3656
1297.623277135579,3693
1299.740683131868,3759
1301.8575300174857,3707
1303.973818033578,3760
1306.0895474213703,3715
1308.2047184221678,3865
1310.3193312773528,3811
1312.4333862283888,3847
1314.5468835168163,3772
1316.659823384255,3808
1318.7722060724045,3794
1320.8840318230418,3744
1322.9953008780249,3716
1325.1060134792888,3773
1327.2161698688478,3692
1329.3257702887959,3784
1331.4348149813054,3709
1333.5433041886276,3860
1335.6512381530933,3717
1337.7586171171101,3768
1339.8654413231675,3681
1341.9717110138317,3674
1344.0774264317488,3755
1346.1825878196432,3677
1348.2871954203192,3745
1350.3912494766587,3762
1352.4947502316231,3806
1354.5976979282532,3695
1356.7000928096686,3625
1358.8019351190665,3681
1360.9032250997243,3712
1363.0039629949988,3763
1365.1041490483235,3635
1367.2037835032133,3743
1369.3028666032606,3730
1371.401398592137,3727
1373.4993797135926,3784
1375.5968102114575,3839
1377.6936903296396,3770
1379.7900203121262,3713
1381.8858004029835,3834
1383.9810308463561,3806
1386.075711886469,3835
1388.1698437676241,3772
1390.2634267342032,3849
1392.356461030667,3810
1394.4489469015557,3814
1396.5408845914872,3787
1398.6322743451592,3906
1400.7231164073469,3895
1402.813411022907,3800
1404.903158436773,3822
1406.9923588939578,3837
1409.0810126395531,4001
1411.1691199187303,3931
1413.2566809767386,3915
1415.343696058907,3990
1417.4301654106425,3954
1419.5160892774315,3887
1421.6014679048399,3956
1423.6863015385125,3982
1425.7705904241707,3950
1427.8543348076178,3971
1429.9375349347342,4004
1432.0201910514802,4109
1434.102303403894,4043
1436.1838722380944,4070
1438.2648978002767,4127
1440.3453803367174,4113
1442.4253200937692,4176
1444.5047173178677,4217
1446.5835722555234,4157
1448.6618851533285,4269
1450.739656257952,4245
1452.8168858161434,4368
1454.8935740747306,4499
1456.96972128062,4400
1459.045327680797,4421
1461.120393522327,4521
1463.1949190523528,4655
1465.2689045180973,4513
1467.3423501668608,4582
1469.415256246024,4691
1471.4876230030463,4650
1473.559450685465,4731
1475.6307395408976,4978
1477.7014898170391,4798
1479.771701761665,4880
1481.8413756226287,5016
1483.9105116478618,5032
1485.9791100853772,5137
1488.0471711832643,5077
1490.1146951896926,5221
1492.1816823529098,5351
1494.2481329212433,5329
1496.3140471430984,5380
1498.3794252669609,5435
1500.4442675413939,5347
1502.5085742150404,5418
1504.572345536622,5587
1506.6355817549388,5698
1508.6982831188702,5645
1510.7604498773744,5781
1512.8220822794883,5859
1514.8831805743293,5916
1516.9437450110909,6056
1519.003775839048,6073
1521.0632733075522,6221
1523.1222376660367,6155
1525.1806691640113,6221
1527.2385680510652,6294
1529.2959345768668,6403
1531.3527689911643,6653
1533.4090715437833,6515
1535.4648424846291,6628
1537.5200820636855,6732
1539.5747905310159,6922
1541.6289681367616,6831
1543.6826151311434,6946
1545.7357317644614,7026
1547.7883182870937,7124
1549.8403749494987,7073
1551.8919020022113,7305
1553.9428996958477,7513
1555.9933682811015,7636
1558.0433080087469,7584
1560.0927191296346,7687
1562.1416018946961,7628
1564.1899565549415,7632
1566.2377833614592,7579
1568.2850825654164,7549
1570.3318544180606,7194
1572.3780991707158,7239
1574.423817074788,6899
1576.4690083817595,6696
1578.5136733431923,6421
1580.5578122107272,6209
1582.601425236085,5987
1584.6445126710646,5790
1586.6870747675434,5548
1588.7291117774776,5354
1590.7706239529034,5229
1592.8116115459347,5028
1594.8520748087658,4942
1596.8920139936686,4938
1598.9314293529933,4817
1600.9703211391711,4629
1603.008689604711,4619
1605.0465350022005,4468
1607.0838575843068,4391
1609.1206576037753,4260
1611.1569353134305,4373
1613.1926909661765,4268
1615.2279248149953,4208
1617.2626371129481,4150
1619.2968281131757,4105
1621.3304980688963,4073
1623.3636472334088,4051
1625.39627586009,4016
1627.428384202396,4061
1629.459972513861,4048
1631.4910410480993,3818
1633.5215900588028,3923
1635.551619799744,3913
1637.5811305247717,3902
1639.6101224878166,3971
1641.6385959428862,3927
1643.6665511440683,4041
1645.693988345528,4021
1647.7209078015112,3919
1649.7473097663405,3938
1651.7731944944203,3824
1653.7985622402307,3834
1655.823413258333,3905
1657.847747803366,3874
1659.8715661300494,3753
1661.8948684931793,3815
1663.9176551476316,3833
1665.9399263483624,3779
1667.9616823504057,3893
1669.982923408873,3766
1672.0036497789574,3796
1674.0238617159293,3853
1676.043559475138,3820
1678.0627433120121,3786
1680.081413482059,3800
1682.0995702408654,3749
1684.117213844096,3897
1686.134344547495,3805
1688.1509626068864,3857
1690.1670682781705,3757
1692.182661817329,3798
1694.1977434804217,3810
1696.2123135235875,3742
1698.226372203043,3740
1700.2399197750851,3769
1702.2529564960905,3778
1704.2654826225112,3782
1706.277498410882,3733
1708.2890041178139,3860
1710.2999999999988,3792
1712.3104863142066,3769
1714.3204633172854,3872
1716.329931266163,3911
1718.3388904178469,3723
1720.3473410294214,3757
1722.3552833580516,3735
1724.3627176609807,3831
1726.3696441955308,3855
1728.3760632191033,3784
1730.3819749891782,3726
1732.3873797633146,3768
1734.3922777991502,3766
1736.3966693544012,3820
1738.4005546868639,3723
1740.4039340544127,3827
1742.406807715001,3682
1744.4091759266616,3664
1746.4110389475054,3732
1748.4123970357223,3645
1750.413250449582,3746
1752.4135994474318,3751
1754.4134442876993,3700
1756.4127852288902,3681
1758.4116225295893,3783
1760.4099564484595,3725
1762.407787244244,3634
1764.405115175764,3621
1766.4019405019203,3668
1768.3982634816916,3719
1770.3940843741357,3592
1772.3894034383907,3666
1774.3842209336717,3624
1776.378537119274,3638
1778.372352254571,3680
1780.3656665990156,3793
1782.3584804121397,3664
1784.3507939535534,3674
1786.3426074829463,3636
1788.3339212600863,3701
1790.3247355448211,3572
1792.3150505970766,3587
1794.3048666768573,3668
1796.2941840442477,3699
1798.2830029594106,3677
1800.2713236825884,3815
1802.2591464741004,3687
1804.2464715943465,3638
1806.2332993038058,3599
1808.2196298630352,3615
1810.2054635326708,3633
1812.190800573428,3677
1814.175641246101,3791
1816.1599858115628,3808
1818.1438345307652,3727
1820.127187664738,3730
1822.1100454745924,3687
1824.092408221516,3696
1826.0742761667766,3646
1828.055649571721,3710
1830.0365286977735,3648
1832.0169138064398,3822
1833.9968051593014,3670
1835.9762030180214,3647
1837.9551076443408,3616
1839.9335193000788,3661
1841.9114382471344,3665
1843.888864747485,3612
1845.8657990631878,3649
1847.842241456378,3648
1849.8181921892697,3638
1851.7936515241558,3587
1853.7686197234098,3747
1855.7430970494815,3689
1857.7170837649014,3566
1859.6905801322787,3584
1861.6635864143004,3522
1863.6361028737338,3643
1865.608129773424,3672
1867.5796673762961,3716
1869.5507159453537,3719
1871.521275743678,3710
1873.4913470344313,3726
1875.4609300808534,3686
1877.4300251462632,3698
1879.3986324940588,3783
1881.366752387717,3645
1883.3343850907936,3797
1885.3015308669228,3625
1887.268189979819,3799
1889.2343626932739,3804
1891.2000492711595,3683
1893.1652499774254,3716
1895.1299650761011,3752
1897.0941948312952,3730
1899.0579395071945,3787
1901.0211993680641,3666
1902.98397467825,3724
1904.9462657021745,3767
1906.9080727043415,3592
1908.869395949332,3836
1910.8302357018065,3695
1912.790592226504,3682
1914.7504657882428,3632
1916.7098566519212,3779
1918.6687650825133,3780
1920.6271913450764,3698
1922.5851357047422,3681
1924.5425984267245,3710
1926.499579776314,3669
1928.4560800188833,3745
1930.4120994198802,3835
1932.367638244833,3687
1934.32269675935,3672
1936.2772752291175,3833
1938.231373919899,3679
1940.1849930975404,3734
1942.1381330279637,3725
1944.0907939771696,3738
1946.0429762112412,3716
1947.9946799963363,3794
1949.9459055986945,3658
1951.896653284633,3739
1953.8469233205478,3741
1955.7967159729142,3646
1957.7460315082863,3764
1959.6948701932974,3845
1961.6432322946594,3659
1963.5911180791632,3675
1965.5385278136787,3803
1967.4854617651545,3704
1969.4319202006182,3714
1971.377903387176,3723
1973.3234115920136,3688
1975.268445082395,3692
1977.2130041256642,3717
1979.1570889892423,3702
1981.1006999406304,3776
1983.04383724741,3673
1984.986501177238,3751
1986.928691997853,3767
1988.8704099770712,3734
1990.811655382789,3736
1992.7524284829801,3641
1994.692729545698,3750
1996.6325588390755,3704
1998.5719166313224,3728
2000.5108031907307,3728
2002.4492187856677,3678
2004.387163684583,3678
2006.3246381560011,3711
2008.2616424685298,3774
2010.1981768908527,3660
2012.1342416917332,3659
2014.069837140014,3659
2016.0049635046162,3606
2017.9396210545406,3634
2019.8738100588666,3786
2021.8075307867502,3570
2023.740783507431,3763
2025.6735684902228,3702
2027.6058860045214,3741
2029.5377363198004,3624
2031.4691197056118,3696
2033.4000364315875,3696
2035.3304867674374,3597
2037.260470982952,3671
2039.189989347998,3656
2041.1190421325232,3666
2043.047629606554,3663
2044.9757520401945,3675
2046.9034097036288,3701
2048.8306028671195,3724
2050.7573318010086,3722
2052.683596775716,3670
2054.609398061742,3663
2056.5347359296647,3728
2058.4596106501403,3687
2060.384022493906,3709
2062.3079717317764,3714
2064.231458634646,3741
2066.1544834734873,3736
2068.077046519352,3664
2069.99914804337,3643
2071.9207883167524,3711
2073.8419676107865,3694
2075.7626861968406,3723
2077.6829443463607,3652
2079.6027423308715,3770
2081.522080421977,3788
2083.440958891362,3668
2085.359378010786,3727
2087.2773380520907,3652
2089.194839287196,3601
2091.111881988101,3647
2093.0284664268825,3667
2094.9445928756973,3667
2096.86026160678,3665
2098.775472892446,3709
2100.690227005088,3709
2102.604524217178,3695
2104.5183648012676,3676
2106.431749029985,3569
2108.34467717604,3663
2110.2571495122206,3726
2112.169166311393,3736
2114.080727846503,3786
2115.9918343905747,3778
2117.902486216711,3667
2119.8126835980956,3636
2121.722426807987,3768
2123.6317161197285,3793
2125.5405518067364,3820
2127.448934142509,3758
2129.356863400624,3677
2131.264339854737,3714
2133.1713637785815,3795
2135.077935445972,3787
2136.9840551308002,3774
2138.889723107037,3781
2140.7949396487334,3674
2142.699705030018,3788
2144.6040195250994,3789
2146.507883408264,3670
2148.4112969538774,3741
2150.3142604363848,3774
2152.2167741303097,3821
2154.1188383102535,3782
2156.0204532508997,3768
2157.9216192270064,3670
2159.822336513414,3698
2161.7226053850413,3691
2163.622426116884,3739
2165.5217989840185,3792
2167.4207242616,3778
2169.319202224862,3808
2171.2172331491165,3811
2173.1148173097563,3783
2175.0119549822507,3850
2176.90864644215,3843
2178.8048919650823,3783
2180.7006918267534,3874
2182.596046302952,3729
2184.4909556695407,3815
2186.3854202024645,3845
2188.279440177746,3798
2190.173015871487,3856
2192.066147559868,3773
2193.958835519149,3785
2195.851080025667,3892
2197.7428813558417,3861
2199.6342397861667,3819
2201.5251555932186,3826
2203.415629053651,3968
2205.3056604441986,3870
2207.19525004167,3799
2209.084398122958,3815
2210.9731049650327,3977
2212.861370844941,3818
2214.749196039812,3877
2216.636580826851,3874
2218.523525483344,3901
2220.410030286655,3975
2222.296095514226,3802
2224.1817214435805,3926
2226.066908352319,3866
2227.951656518121,3804
2229.835966218746,3780
2231.71983773203,3874
2233.6032713358913,3917
2235.486267308324,3897
2237.3688259274036,3869
2239.2509474712824,3871
2241.132632218193,3871
2243.013880446447,3937
2244.8946924344323,3836
2246.7750684606203,3787
2248.6550088035574,3864
2250.534513741871,3891
2252.413583554265,3853
2254.292218519526,3831
2256.170418916517,3911
2258.0481850241786,3901
2259.925517121534,3928
2261.8024154876825,3864
2263.678880401803,3886
2265.5549121431536,3960
2267.430510991071,3815
2269.305677224971,3875
2271.180411124348,3833
2273.0547129687766,3883
2274.9285830379076,3886
2276.8020216114737,3915
2278.6750289692845,3909
2280.5476053912294,3899
2282.4197511572766,3999
2284.2914665474727,3904
2286.162751841943,3980
2288.0336073208937,3890
2289.904033264608,3930
2291.774029953448,3937
2293.6435976678554,3857
2295.5127366883517,3905
2297.381447295534,3830
2299.2497297700825,3914
2301.1175843927526,3877
2302.9850114443825,3652
2304.852011205885,3698
2306.7185839582553,3767
2308.5847299825664,3736
2310.4504495599676,3647
2312.3157429716925,3732
2314.1806104990483,3654
2316.0450524234247,3653
2317.9090690262888,3761
2319.772660589186,3674
2321.635827393742,3700
2323.498569721661,3732
2325.3608878547248,3760
2327.2227820747967,3763
2329.0842526638157,3757
2330.945299903803,3773
2332.805924076857,3694
2334.6661254651535,3699
2336.525904350951,3770
2338.3852610165827,3815
2340.244195744464,3873
2342.102708817088,3781
2343.9608005170253,3765
2345.8184711269287,3722
2347.675720929526,3770
2349.532550207628,3692
2351.38895924412,3625
2353.24494832197,3676
2355.100517724223,3722
2356.955667734004,3753
2358.810398634514,3690
2360.664710709037,3670
2362.5186042409337,3756
2364.3720795136437,3773
2366.225136810686,3709
2368.0777764156583,3771
2369.929998612237,3794
2371.7818036841777,3627
2373.633191915315,3747
2375.484163589562,3792
2377.3347189909114,3833
2379.184858403434,3720
2381.03458211128,3697
2382.8838903986775,3765
2384.732783549936,3752
2386.5812618494406,3768
2388.4293255816588,3666
2390.2769750311327,3752
2392.1242104824883,3757
2393.971032220427,3809
2395.8174405297295,3798
2397.6634356952563,3822
2399.509018001947,3726
2401.3541877348193,3734
2403.1989451789705,3764
2405.043290619576,3803
2406.8872243418905,3805
2408.730746631247,3848
2410.5738577730594,3691
2412.4165580528183,3702
2414.258847756095,3815
2416.100727168537,3701
2417.9421965758734,3869
2419.783256263912,3724
2421.623906518538,3879
2423.4641476257157,3715
2425.303979871491,3749
2427.143403541984,3880
2428.9824189233977,3709
2430.821026302012,3710
2432.6592259641866,3785
2434.497018196361,3796
2436.33440328505,3787
2438.171381516851,3760
2440.00795317844,3787
2441.844118556569,3786
2443.6798779380724,3878
2445.5152316098606,3842
2447.3501798589255,3796
2449.1847229723357,3778
2451.0188612372403,3731
2452.8525949408663,3824
2454.6859243705203,3852
2456.518849813587,3802
2458.3513715575314,3699
2460.183489889895,3807
2462.015205098301,3770
2463.8465174704493,3835
2465.67742729412,3803
2467.5079348571717,3826
2469.338040447542,3805
2471.1677443532476,3839
2472.9970468623833,3857
2474.825948263123,3733
2476.6544488437207,3725
2478.482548892508,3786
2480.310248697896,3759
2482.137548548374,3801
2483.9644487325118,3771
2485.790949538956,3848
2487.617051256433,3876
2489.44275417375,3849
2491.26805857979,3775
2493.0929647635157,3809
2494.917473013971,3796
2496.741583620276,3905
2498.5652968716304,3887
2500.3886130573137,3969
2502.2115324666834,3848
2504.0340553891765,3887
2505.856182114308,3975
2507.6779129316733,3785
2509.499248130945,3836
2511.3201880018764,3815
2513.140732834298,3858
2514.9608829181198,3925
2516.780638543331,3815
2518.6,3898
2520.418967578273,3941
2522.237541568376,3912
2524.0557222606144,3925
2525.8735099453706,3869
2527.6909049131086,3941
2529.507907454368,3923
2531.32451785977,4009
2533.140736420014,3976
2534.9565634258774,3978
2536.771999168218,3955
2538.5870439379714,4037
2540.4016980261526,3912
2542.2159617238544,3992
2544.02983532225,4001
2545.8433191125914,3973
2547.656413386209,4085
2549.4691184345115,4068
2551.2814345489874,4095
2553.093362021204,4135
2554.904901142808,4018
2556.716052205523,4103
2558.526815501153,4103
2560.3371913215824,4182
2562.147179958771,4088
2563.956781704761,4015
2565.7659968516705,4173
2567.5748256916986,4201
2569.3832685171224,4146
2571.1913256202984,4156
2572.9989972936614,4076
2574.806283829725,4155
2576.613185521084,4251
2578.4197026604074,4263
2580.2258355404483,4279
2582.031584454035,4229
2583.836949694077,4195
2585.6419315535613,4220
2587.4465303255533,4298
2589.2507463032002,4244
2591.0545797797245,4319
2592.8580310484303,4304
2594.6611004026995,4278
2596.463788135992,4278
2598.266094541849,4224
2600.0680199138874,4294
2601.869564545807,4236
2603.670728731383,4360
2605.4715127644704,4358
2607.2719169390048,4446
2609.071941548998,4360
2610.8715868885433,4443
2612.670853251811,4319
2614.469740933052,4408
2616.268250226594,4373
2618.0663814268455,4353
2619.864134828292,4362
2621.6615107255006,4333
2623.458509413115,4293
2625.2551311858597,4267
2627.0513763385347,4292
2628.8472451660223,4234
2630.6427379632833,4197
2632.4378550253564,4283
2634.232596647359,4304
2636.026963124488,4299
2637.8209547520187,4151
2639.6145718253065,4306
2641.407814639785,4397
2643.200683490966,4161
2644.9931786744414,4175
2646.7853004858807,4090
2648.577049221034,4178
2650.3684251757277,4157
2652.1594286458712,4075
2653.9500599274484,4062
2655.740319316525,4163
2657.5302071092437,4147
2659.3197236018286,4132
2661.10886909058,4119
2662.8976438718782,4087
2664.686048242183,3960
2666.4740824980327,4058
2668.2617469360443,3974
2670.0490418529134,4036
2671.8359675454153,4006
2673.622524310403,3993
2675.408712444811,3991
2677.1945322456495,3955
2678.979984010009,4044
2680.76506803506,3936
2682.5497846180497,3881
2684.334134056306,3935
2686.1181166472343,3948
2687.9017326883213,3888
2689.6849824771293,3943
2691.4678663113013,3895
2693.2503844885596,4056
2695.032537306705,3837
2696.8143250636167,3907
2698.5957480572542,3844
2700.3768065856534,3783
2702.1575009469316,3858
2703.937831439283,3916
2705.717798360982,3899
2707.4974020103837,3872
2709.276642685917,3815
2711.055520686095,3795
2712.834036309506,3905
2714.612189854819,3832
2716.389981620782,3786
2718.1674119062204,3877
2719.944481010041,3886
2721.721189231226,3829
2723.4975368688415,3801
2725.273524222027,3763
2727.0491515900053,3779
2728.824419272075,3860
2730.5993275676146,3770
2732.3738767760838,3712
2734.148067197016,3720
2735.921899130031,3692
2737.6953728748194,3797
2739.468488731156,3747
2741.2412469988926,3729
2743.0136479779617,3734
2744.785691968372,3792
2746.5573792702116,3770
2748.3287101836504,3778
2750.099685008934,3672
2751.870304046388,3747
2753.640567596418,3851
2755.4104759595057,3753
2757.1800294362156,3711
2758.949228327187,3797
2760.7180729331412,3791
2762.486563554877,3652
2764.254700493272,3693
2766.022484049284,3745
2767.789914523947,3720
2769.5569922183786,3751
2771.3237174337705,3692
2773.090090471394,3782
2774.8561116326036,3865
2776.6217812188274,3775
2778.3870995315756,3684
2780.1520668724356,3714
2781.9166835430747,3632
2783.6809498452394,3698
2785.444866080754,3695
2787.2084325515225,3635
2788.971649559527,3673
2790.73451740683,3633
2792.4970363955713,3790
2794.2592068279705,3812
2796.0210290063264,3664
2797.7825032330147,3839
2799.543629810493,3757
2801.304409041296,3613
2803.0648412280366,3819
2804.8249266734088,3704
2806.5846656801846,3735
2808.344058551212,3793
2810.1031055894246,3798
2811.8618070978273,3796
2813.6201633795085,3776
2815.378174737636,3742
2817.1358414754536,3821
2818.893163896285,3846
2820.6501423035334,3773
2822.4067770006814,3784
2824.1630682912883,3741
2825.9190164789957,3800
2827.6746218675207,3742
2829.429884760661,3761
2831.184805462294,3796
2832.9393842763743,3802
2834.693621506936,3825
2836.4475174580916,3808
2838.201072434034,3814
2839.954286739034,3805
2841.707160677441,3766
2843.459694553685,3825
2845.2118886722724,3913
2846.96374333779,3792
2848.7152588549034,3737
2850.4664355283567,3737
2852.217273662973,3837
2853.9677735636546,3764
2855.7179355353833,3760
2857.4677598832186,3789
2859.217246912299,3769
2860.9663969278427,3790
2862.715210235146,3814
2864.4636871395846,3790
2866.211827946614,3761
2867.9596329617652,3820
2869.7071024906536,3674
2871.4542368389684,3839
2873.20103631248,3741
2874.947501217038,3717
2876.6936318585695,3730
2878.4394285430812,3719
2880.1848915766604,3689
2881.9300212654707,3747
2883.6748179157553,3715
2885.4192818338374,3605
2887.1634133261173,3655
2888.907212699077,3752
2890.6506802592744,3709
2892.393816313348,3753
2894.1366211680142,3702
2895.8790951300693,3792
2897.621238506388,3705
2899.363051603925,3711
2901.1045347297118,3786
2902.8456881908596,3746
2904.58651229456,3799
2906.327007348081,3788
2908.067173658772,3802
2909.8070115340597,3747
2911.5465212814497,3790
2913.285703208527,3632
2915.0245576229563,3748
2916.7630848324807,3778
2918.5012851449196,3678
2920.2391588681758,3636
2921.976706310227,3740
2923.7139277791334,3774
2925.4508235830313,3781
2927.187394030137,3741
2928.923639428745,3708
2930.6595600872306,3773
2932.395156314046,3850
2934.1304284177218,3720
2935.8653767068713,3792
2937.6000014901815,3800
2939.3343030764227,3831
2941.068281774442,3764
2942.8019378931644,3744
2944.5352717415976,3834
2946.2682836288236,3847
2948.0009738640065,3819
2949.7333427563885,3852
2951.465390615289,3817
2953.1971177501086,3753
2954.9285244703265,3819
2956.6596110855,3785
2958.3903779052657,3721
2960.1208252393385,3829
2961.8509533975125,3788
2963.5807626896617,3717
2965.3102534257378,3788
2967.0394259157715,3688
2968.768280469873,3781
2970.496817398232,3686
2972.2250370111146,3765
2973.952939618869,3782
2975.6805255319196,3841
2977.4077950607707,3730
2979.134748516006,3940
2980.861386208289,3851
2982.587708448359,3852
2984.313715547037,3809
2986.039407815222,3782
2987.764785563891,3798
2989.489849104102,3864
2991.2145987469908,3813
2992.9390348037705,3752
2994.6631575857346,3779
2996.3869674042576,3890
2998.1104645707887,3821
2999.83364939686,3720
3001.5565221940783,3801
3003.2790832741334,3691
3005.0013329487924,3805
3006.7232715298996,3801
3008.4448993293804,3721
3010.166216659239,3787
3011.887223831558,3779
3013.607921158498,3891
3015.3283089522993,3849
3017.0483875252826,3721
3018.7681571898443,3805
3020.4876182584626,3792
3022.2067710436927,3753
3023.9256158581707,3738
3025.644153014609,3845
3027.362382825801,3806
3029.0803056046193,3856
3030.797921664012,3814
3032.5152313170106,3794
3034.2322348767225,3844
3035.9489326563353,3796
3037.665324969115,3751
3039.3814121284063,3727
3041.097194447633,3776
3042.812672240299,3917
3044.5278458199855,3756
3046.2427155003525,3777
3047.9572815951406,3812
3049.671544418167,3867
3051.38550428333,3861
3053.0991615046073,3877
3054.812516396051,3772
3056.5255692717974,3759
3058.2383204460575,3845
3059.9507702331257,3735
3061.662918947372,3787
3063.3747669032446,3729
3065.0863144152736,3772
3066.7975617980674,3754
3068.508509366309,3813
3070.219157434767,3847
3071.9295063182844,3940
3073.639556331785,3751
3075.3493077902704,3688
3077.058761008821,3771
3078.7679163025964,3869
3080.476773986837,3778
3082.1853343768594,3831
3083.89359778806,3886
3085.6015645359153,3900
3087.3092349359786,3738
3089.016609303884,3811
3090.7236879553434,3869
3092.4304712061476,3824
3094.136959372166,3797
3095.843152769349,3817
3097.5490517137237,3824
3099.2546565213966,3816
3100.959967508554,3875
3102.66498499146,3875
3104.3697092864577,3745
3106.0741407099695,3764
3107.778279578498,3725
3109.482126208622,3848
3111.1856809170004,3859
3112.8889440203716,3927
3114.5919158355528,3781
3116.294596679439,3837
3117.996986869006,3920
3119.6990867213062,3864
3121.4008965534726,3833
3123.102416682717,3957
3124.803647426329,3843
3126.5045891016784,3842
3128.205242026213,3898
3129.90560651746,3923
3131.605682893025,3944
3133.3054714705922,3916
3135.0049725679282,3891
3136.7041865028714,3934
3138.4031135933465,3848
3140.101754157353,3741
3141.800108512971,3811
3143.498176978357,3849
3145.1959598717494,3849
3146.8934575114636,3794
3148.5906702158954,3920
3150.2875983035183,3798
3151.9842420928853,3835
3153.680601902627,3777
3155.376678051456,3744
3157.07247085816,3884
3158.767980641609,3806
3160.463207720748,3845
3162.158152414606,3832
3163.8528150422862,3880
3165.5471959229726,3886
3167.2412953759303,3842
3168.9351137204976,3918
3170.628651276098,3806
3172.3219083622307,3930
3174.014885298474,3750
3175.707582404485,3850
3177.4000000000005,4003
3179.092138404835,4008
3180.7839979388846,3917
3182.47557892212,3818
3184.166881674594,3855
3185.8579065164386,3855
3187.5486537678626,3823
3189.2391237491547,3820
3190.9293167806827,3838
3192.6192331828934,3843
3194.3088732763117,3892
3195.998237381542,3914
3197.687325819268,3919
3199.376138910251,3812
3201.064676975334,3837
3202.7529403354347,3789
3204.4409293115523,3848
3206.1286442247647,3952
3207.816085396229,3854
3209.5032531471825,3827
3211.190147798936,3772
3212.8767696728846,3825
3214.5631190905015,3840
3216.2491963733373,3859
3217.9350018430214,3727
3219.6205358212637,3854
3221.305798629851,3709
3222.990790590651,3700
3224.6755120256103,3740
3226.359963256751,3787
3228.0441446061795,3750
3229.7280563960758,3756
3231.411698948703,3756
3233.0950725863995,3811
3234.778177631587,3770
3236.461014406761,3864
3238.1435832345005,3839
3239.8258844374595,3833
3241.507918338374,3831
3243.1896852600576,3855
3244.8711855254023,3850
3246.552419457381,3770
3248.233387379042,3787
3249.914089613516,3756
3251.59452648401,3841
3253.274698313813,3781
3254.95460542629,3838
3256.6342481448855,3729
3258.313626793125,3732
3259.9927416946084,3814
3261.6715931730196,3856
3263.3501815521176,3776
3265.0285071557437,3832
3266.706570307815,3799
3268.3843713323286,3788
3270.0619105533615,3869
3271.739188295068,3895
3273.4162048816834,3895
3275.0929606375184,3812
3276.769455886966,3864
3278.445690954498,3975
3280.1216661646613,3877
3281.797381842087,3908
3283.4728383114807,3922
3285.1480358976296,3852
3286.8229749253996,3881
3288.4976557197333,3814
3290.172078605655,3807
3291.846243908266,3763
3293.5201519527463,3725
3295.193803064357,3735
3296.8671975684374,3805
3298.5403357904024,3775
3300.21321805575,3703
3301.8858446900567,3804
3303.558216018975,3810
3305.23033236824,3772
3306.9021940636603,3876
3308.57380143113,3832
3310.2451547966184,3808
3311.916254486174,3871
3313.5871008259246,3790
3315.2576941420766,3873
3316.9280347609147,3897
3318.5981230088046,3711
3320.2679592121895,3809
3321.9375436975924,3692
3323.606876791612,3848
3325.27595882093,3630
3326.944790112305,3744
3328.6133709925753,3714
3330.2817017886573,3772
3331.949782827547,3770
3333.617614436319,3860
3335.2851969421245,3875
3336.952530672199,3789
3338.619615953853,3847
3340.286453114475,3916
3341.9530424815357,3939
3343.619384382583,3843
3345.2854791452437,3974
3346.951327097224,3821
3348.6169285663073,3857
3350.2822838803577,3887
3351.947393367319,3892
3353.61225735521,3880
3355.2768761721345,3880
3356.9412501462693,3744
3358.605379605873,3913
3360.2692648792827,3901
3361.9329062949146,3878
3363.596304181263,3878
