CollectionTime,9/20/2024 12:26:56 PM
ExposureUsed,3
CalibratedSpectrum
-962.7078968117929,629
-959.9714848408522,697
-957.2358232597828,745
-954.5009119013725,728
-951.7667505983302,710
-949.0333391832855,709
-946.3006774887896,721
-943.5687653473143,724
-940.837602591253,728
-938.1071890529199,739
-935.3775245645503,695
-932.6486089583007,712
-929.9204420662485,738
-927.1930237203925,692
-924.4663537526524,732
-921.7404319948689,769
-919.0152582788041,754
-916.2908324361409,755
-913.5671542984834,722
-910.8442236973568,715
-908.1220404642074,697
-905.4006044304027,700
-902.679915427231,687
-899.959973285902,689
-897.2407778375464,716
-894.5223289132158,727
-891.8046263438832,702
-889.0876699604426,675
-886.3714595937089,689
-883.6559950744183,674
-880.9412762332282,727
-878.2273029007168,643
-875.5140749073835,678
-872.8015920836489,669
-870.0898542598545,663
-867.3788612662631,642
-864.6686129330585,688
-861.9591090903457,690
-859.2503495681506,654
-856.5423341964203,655
-853.8350628050229,699
-851.1285352237478,670
-848.4227512823054,666
-845.7177108103272,689
-843.0134136373656,703
-840.3098595928943,673
-837.6070485063082,664
-834.9049802069229,655
-832.2036545239757,663
-829.5030712866244,680
-826.8032303239481,657
-824.1041314649472,665
-821.4057745385428,664
-818.7081593735775,670
-816.0112857988148,689
-813.3151536429393,703
-810.6197627345566,684
-807.9251129021936,669
-805.2312039742981,666
-802.5380357792392,637
-799.8456081453069,686
-797.1539209007124,681
-794.462973873588,709
-791.772766891987,711
-789.083299783884,745
-786.3945723771743,678
-783.7065844996748,712
-781.0193359791231,713
-778.3328266431781,715
-775.6470563194197,690
-772.9620248353489,664
-770.2777320183878,674
-767.5941776958798,696
-764.9113616950891,683
-762.2292838432011,691
-759.5479439673222,680
-756.8673418944801,678
-754.1874774516235,694
-751.5083504656222,716
-748.8299607632671,722
-746.15230817127,670
-743.475392516264,690
-740.7992136248035,703
-738.1237713233636,709
-735.4490654383407,723
-732.7750957960521,702
-730.1018622227365,719
-727.4293645445534,709
-724.7576025875837,717
-722.0865761778291,723
-719.4162851412126,753
-716.7467293035781,750
-714.0779084906909,748
-711.409822528237,747
-708.7424712418238,755
-706.0758544569796,764
-703.4099719991541,816
-700.7448236937178,761
-698.0804093659622,767
-695.4167288411002,759
-692.7537819442656,757
-690.0915685005134,752
-687.4300883348199,770
-684.7693412720819,753
-682.1093271371178,788
-679.4500457546669,812
-676.7914969493897,785
-674.1336805458676,775
-671.4765963686034,779
-668.8202442420206,806
-666.1646239904642,755
-663.5097354382001,773
-660.8555784094151,803
-658.2021527282176,774
-655.5494582186366,818
-652.8974947046223,795
-650.2462620100463,839
-647.5957599587009,823
-644.9459883742998,823
-642.2969470804776,818
-639.6486359007902,822
-637.0010546587141,841
-634.3542031776476,853
-631.7080812809096,833
-629.0626887917401,826
-626.4180255333008,817
-623.7740913286734,799
-621.1308860008619,854
-618.4884093727904,838
-615.8466612673046,820
-613.2056415071715,847
-610.5653499150785,793
-607.9257863136347,820
-605.28695052537,845
-602.6488423727357,838
-600.0114616781036,816
-597.3748082637674,845
-594.7388819519412,843
-592.1036825647604,842
-589.4692099242818,827
-586.8354638524829,807
-584.2024441712624,813
-581.5701507024403,869
-578.9385832677575,879
-576.3077416888759,850
-573.6776257873787,864
-571.0482353847704,887
-568.4195703024757,877
-565.7916303618415,881
-563.164415384135,855
-560.5379251905453,870
-557.9121596021815,897
-555.2871184400748,835
-552.6628015251767,872
-550.0392086783606,896
-547.4163397204204,864
-544.794194472071,926
-542.1727727539491,937
-539.5520743866118,935
-536.9320991905377,959
-534.3128469861261,993
-531.6943175936979,977
-529.0765108334947,966
-526.4594265256793,1110
-523.8430644903358,1274
-521.2274245474689,1402
-518.612506517005,1469
-515.9983102187913,1591
-513.3848354725959,1548
-510.77208209810846,1559
-508.16004991493924,1681
-505.5487387426199,1703
-502.9381484006032,1914
-500.3282787082628,2063
-497.71912948489364,2072
-495.1107005497117,1994
-492.5029917218539,1790
-489.8960028203786,1619
-487.28973366426493,1496
-484.68418407241325,1272
-482.07935386364494,1205
-479.47524285670266,1192
-476.87185087025,1183
-474.2691777228715,1189
-471.66722323307334,1152
-469.0659872192821,1127
-466.4654694998459,1148
-463.86566989303384,1147
-461.26658821703614,1101
-458.66822428996414,1087
-456.07057792985,1130
-453.4736489546475,1109
-450.877437182231,1116
-448.28194243039627,1056
-445.68716451686,1027
-443.09310325926003,1048
-440.49975847515555,1033
-437.9071299820263,1027
-435.31521759727354,1083
-432.72402113821954,1094
-430.13354042210767,1075
-427.5437752661022,1075
-424.95472548728867,1072
-422.36639090267386,1118
-419.7787713291855,1177
-417.1918665836721,1131
-414.60567648290385,1176
-412.0202008435715,1156
-409.4354394822874,1145
-406.8513922155845,1195
-404.26805885991723,1170
-401.685439231661,1133
-399.103533147112,1181
-396.522340422488,1121
-393.9418608739278,1112
-391.3620943174908,1123
-388.7830405691583,1105
-386.2046994448317,1085
-383.6270707603344,1071
-381.05015433141045,983
-378.473949973725,929
-375.8984575028645,950
-373.32367673433623,842
-370.74960748356875,786
-368.1762495659117,738
-365.60360279663576,703
-363.03166699093265,694
-360.4604419639154,611
-357.8899275306178,576
-355.32012350599507,577
-352.7510297049233,556
-350.1826459421999,532
-347.61497203254316,558
-345.04800779059235,537
-342.4817530309082,519
-339.91620756797226,540
-337.35137121618743,555
-334.7872437898774,541
-332.22382510328725,527
-329.66111497058273,556
-327.09911320585127,606
-324.53781962310075,564
-321.9772340362607,506
-319.4173562591816,550
-316.8581861056348,573
-314.2997233893127,566
-311.7419679238294,545
-309.1849195227194,544
-306.62857799943856,610
-304.0729431673641,585
-301.51801483979375,614
-298.963792829947,555
-296.41027695096386,581
-293.85746701590574,651
-291.3053628377552,689
-288.7539642294155,643
-286.2032710037115,700
-283.65328297338897,677
-281.1039999511146,655
-278.5554217494762,684
-276.007548180983,828
-273.4603790580651,790
-270.9139141930734,709
-268.3681533982807,799
-265.8230964858798,843
-263.27874326798565,861
-260.7350935566336,784
-258.1921471637804,782
-255.6499039013039,910
-253.10836358100266,905
-250.56752601459698,815
-248.02739101372765,843
-245.48795838995704,943
-242.94922795476816,921
-240.41119951956557,942
-237.8738728956746,935
-235.33724789434166,949
-232.80132432673452,835
-230.2661020039418,793
-227.73158073697357,931
-225.19776033676033,1002
-222.66464061415422,1115
-220.1322213799284,926
-217.60050244477725,890
-215.06948361931552,957
-212.53916471408013,1059
-210.00954553952818,1191
-207.48062590603843,972
-204.9524056239104,880
-202.4248845033651,1009
-199.8980623545441,1066
-197.37193898751036,1062
-194.84651421224817,1077
-192.32178783866232,1081
-189.79775967657952,1012
-187.27442953574644,1191
-184.7517972258321,1098
-182.2298625564256,952
-179.7086253370378,883
-177.18808537710026,970
-174.66824248596583,1242
-172.14909647290835,1336
-169.6306471471229,1399
-167.11289431772548,1280
-164.59583779375328,1081
-162.07947738416453,1261
-159.5638128978386,1523
-157.04884414357605,1657
-154.53457093009854,1663
-152.02099306604828,1404
-149.50811035998936,1321
-146.99592262040665,1430
-144.48442965570587,1465
-141.97363127421409,1669
-139.46352728417958,1798
-136.95411749377126,1869
-134.44540171107985,1576
-131.93737974411636,1575
-129.43005140081357,1651
-126.92341648902493,1937
-124.41747481652521,2103
-121.91222619101006,2601
-119.40767042009657,3168
-116.90380731132257,3530
-114.40063667214702,3779
-111.8981583099503,4575
-109.3963720320337,6295
-106.89527764561933,8651
-104.39487495785067,9144
-101.89516377579241,11173
-99.39614390642998,16063
-96.89781515667039,23171
-94.40017733334128,26065
-91.90323024319173,20702
-89.40697369289148,12911
-86.91140748903172,8695
-84.41653143812482,7554
-81.92234534660395,12001
-79.42884902082358,15037
-76.93604226705907,14413
-74.4439248915071,11663
-71.95249670028534,8322
-69.46175749943245,6098
-66.97170709490854,5933
-64.48234529259423,6985
-61.99367189829195,8567
-59.50568671772464,9735
-57.01838955653636,11855
-54.53178022029283,13212
-52.045858514480074,12977
-49.560624244506016,13731
-47.07607721569923,15300
-44.59221723330904,13558
-42.10904410250669,12483
-39.62655762838392,14858
-37.14475761595372,20560
-34.66364387015028,23238
-32.18321619582866,29293
-29.70347439776515,27411
-27.224418280657005,26101
-24.74604764912317,37350
-22.26836230770266,57805
-19.7913620608565,65035
-17.315046712966478,65035
-14.83941606833514,65035
-12.36446993118659,65035
-9.89020810566592,65035
-7.416630395839093,65035
-4.94373660569363,65035
-2.471526539137585,65035
-6.821210263296962E-13,65035
2.47084320796705,65035
4.941003281093458,65035
7.410480415786196,65035
9.879274808531363,65035
12.347386655893956,65035
14.814816154518212,65035
17.28156350112681,65035
19.74762889252179,65035
22.21301252558385,32641
24.67771459727237,7737
27.141735304626195,6015
29.605074844762612,6173
32.06773341487792,6211
34.52971121224755,5128
36.99100843422559,4326
39.45162527824516,4560
41.91156194181792,3955
44.370818622535126,4153
46.82939551806646,4595
49.287292826160524,5741
51.74451074464503,5343
54.201049471426245,3513
56.65690920448981,2981
59.112090141899785,2705
61.56659248179983,3232
64.02041642241159,2658
66.4735621620365,2733
68.92602989905402,3308
71.37781983192338,3345
73.82893215918205,2768
76.27936707944684,2110
78.72912479141326,2249
81.17820549385567,2010
83.62660938562783,2010
86.07433666566146,2194
88.5213875329681,2177
90.96776218663751,2030
93.41346082583925,2173
95.85848364982041,2383
98.30283085790859,1988
100.7465026495089,2008
103.18949922410604,2034
105.63182078126385,1881
108.07346752062438,1794
110.51443964190923,1477
112.95473734491827,1579
115.39436082953114,1556
117.83331029570547,1496
120.27158594347827,1735
122.7091879729652,1735
125.1461165843615,1504
127.58237197794062,1446
130.01795435405518,1531
132.4528639131364,1599
134.88710085569494,1527
137.32066538231982,1833
139.75355769367923,1860
142.1857779905207,1494
144.61732647366978,1191
147.04820334403132,1230
149.47840880258934,1432
151.90794305040674,1674
154.33680628862487,1665
156.76499871846443,1750
159.19252054122433,1855
161.61937195828352,1991
164.04555317109896,2125
166.47106438120693,2342
168.89590579022217,2629
171.320077599839,2751
173.7435800118302,2863
176.16641322804742,3056
178.58857745042144,3150
181.01007288096173,3314
183.43089972175687,3261
185.85105817497413,3312
188.27054844285988,3293
190.6893707277394,3274
193.10752523201643,3168
195.5250121581745,3256
197.9418317087751,3401
200.3579840864594,3413
202.7734694939469,3567
205.18828813403627,3577
207.6024402096051,3631
210.01592592360964,3640
212.42874547908548,3635
214.84089907914665,3478
217.2523869269868,3426
219.66320922587727,3508
222.0733661791695,3467
224.48285799029293,3430
226.8916848627572,3387
229.29984700014882,3602
231.7073446061355,3580
234.11417788446204,3592
236.520347038953,3628
238.92585227351185,3712
241.33069379212054,3756
243.73487179884035,3747
246.1383864978112,3684
248.541238093252,3754
250.9434267894609,3779
253.34495279081432,3795
255.74581630176783,3749
258.1460175268563,3762
260.54555667069314,3708
262.9444339379703,3720
265.3426495334594,3762
267.7402036620107,3588
270.1370965285529,3500
272.53332833809407,3489
274.9288992957214,3204
277.32380960660055,3175
279.718059475976,3125
282.1116491091717,3330
284.5045787115897,3225
286.89684848871195,3120
289.2884586460981,3186
291.67940938938807,3188
294.0697009242996,3057
296.4593334566299,3175
298.84830719225477,3179
301.23662233712923,3196
303.6242790972866,3095
306.01127767884,2993
308.39761828798066,3079
310.78330113097934,2919
313.16832641418534,2867
315.5526943440269,2919
317.9364051270112,2820
320.3194589697242,2772
322.70185607883093,2787
325.0835966610754,2734
327.4646809232805,2693
329.8451090723478,2721
332.2248813152577,2716
334.6039978590701,2674
336.9824589109231,2764
339.36026467803447,2625
341.7374153677,2628
344.113911187295,2596
346.48975234427337,2534
348.8649390461686,2568
351.2394715005918,2540
353.61334991523415,2556
355.9865744978655,2571
358.35914545633375,2546
360.73106299856715,2581
363.10232733257146,2472
365.47293866643247,2461
367.84289720831396,2435
370.2122031664593,2485
372.5808567491905,2469
374.9488581649083,2387
377.31620762209275,2456
379.6829053293021,2454
382.0489514951745,2434
384.4143463284262,2428
386.7790900378528,2325
389.14318283232853,2397
391.50662492080653,2372
393.86941651231916,2437
396.23155781597745,2375
398.5930490409713,2391
400.9538903965696,2453
403.3140820921202,2373
405.6736243370498,2279
408.03251734086336,2290
410.3907613131465,2379
412.74835646356166,2346
415.10530300185144,2352
417.4616011378372,2277
419.81725108141893,2379
422.1722530425758,2325
424.5266072313656,2339
426.880313857925,2243
429.2333731324701,2330
431.58578526529516,2188
433.9375504667738,2245
436.2886689473588,2353
438.63914091758113,2354
440.9889665880513,2359
443.33814616945835,2313
445.68667987257015,2253
448.03456790823395,2284
450.3818104873759,2186
452.72840782100013,2279
455.07436012019105,2280
457.41966759611057,2263
459.7643304600007,2231
462.10834892318155,2220
464.4517231970525,2265
466.79445349309174,2250
469.1365400228566,2235
471.4779829979826,2294
473.81878263018564,2349
476.15893913125876,2307
478.4984527130747,2342
480.8373235875855,2387
483.17555196682144,2518
485.5131380628919,2595
487.8500820879857,2752
490.1863842543697,2811
492.52204477439034,3053
494.8570638604725,3431
497.1914417251204,3859
499.52517858091653,4022
501.85827464052306,4303
504.19073011668036,4236
506.5225452222086,4249
508.85372017000566,4177
511.18425517304956,4027
513.514150444396,4579
515.8434061971808,5854
518.1720226446176,6877
520.4999999999999,7175
522.8273384766991,6788
525.1540382881666,6425
527.480099647932,5732
529.8055227696037,4687
532.1303078668694,3553
534.454455153496,2881
536.777964843328,2531
539.1008371502907,2454
541.4230722883866,2426
543.744670471698,2420
546.0656319143858,2364
548.3859568306899,2315
550.7056454349294,2387
553.0246979415016,2250
555.3431145648834,2245
557.6608955196306,2325
559.978041020377,2264
562.2945512818363,2289
564.6104265188006,2279
566.9256669461412,2402
569.2402727788082,2245
571.5542442318302,2307
573.8675815203156,2377
576.1802848594508,2337
578.4923544645015,2337
580.8037905508126,2367
583.114593333807,2296
585.4247630289875,2304
587.7342998519354,2326
590.0432040183106,2423
592.3514757438526,2417
594.6591152443794,2366
596.9661227357875,2360
599.2724984340531,2309
601.578242555231,2375
603.8833553154542,2327
606.1878369309362,2296
608.4916876179676,2337
610.7949075929192,2299
613.0974970722403,2310
615.3994562724587,2297
617.7007854101818,2326
620.0014847020951,2309
622.3015543649641,2365
624.6009946156324,2301
626.8998056710224,2324
629.1979877481361,2328
631.4955410640538,2311
633.7924658359349,2285
636.0887622810175,2306
638.3844306166192,2358
640.6794710601358,2301
642.9738838290426,2367
645.2676691408932,2355
647.5608272133207,2285
649.853358264037,2366
652.1452625108324,2451
654.4365401715764,2435
656.7271914642178,2466
659.0172166067838,2341
661.3066158173809,2383
663.5953893141935,2395
665.8835373154867,2384
668.1710600396028,2426
670.4579577049639,2442
672.7442305300709,2429
675.0298787335033,2387
677.3149025339197,2411
679.599302150058,2398
681.8830778007342,2359
684.1662297048437,2351
686.4487580813608,2386
688.7306631493387,2404
691.0119451279091,2394
693.2926042362834,2415
695.5726406937516,2372
697.8520547196814,2451
700.1308465335215,2412
702.4090163547982,2347
704.6865644031171,2316
706.9634908981619,2365
709.2397960596965,2311
711.5154801075631,2356
713.7905432616823,2292
716.0649857420548,2329
718.3388077687592,2310
720.612009561953,2376
722.8845913418733,2360
725.1565533288352,2314
727.427895743234,2390
729.6986188055427,2276
731.9687227363137,2354
734.238207756178,2252
736.5070740858458,2260
738.7753219461066,2283
741.0429515578281,2299
743.3099631419569,2237
745.5763569195191,2316
747.8421331116193,2303
750.1072919394409,2321
752.3718336242467,2296
754.6357583873777,2242
756.8990664502545,2295
759.1617580343765,2330
761.423833361321,2291
763.6852926527457,2345
765.9461361303862,2352
768.206364016058,2281
770.4659765316536,2323
772.7249738991469,2333
774.9833563405886,2416
777.2411240781092,2400
779.4982773339183,2387
781.7548163303044,2289
784.010741289634,2321
786.2660524343538,2366
788.5207499869881,2392
790.7748341701416,2523
793.0283052064964,2366
795.2811633188143,2447
797.5334087299362,2442
799.7850416627813,2369
802.0360623403484,2422
804.2864709857143,2416
806.5362678220353,2335
808.7854530725468,2364
811.0340269605625,2380
813.2819897094754,2369
815.5293415427581,2320
817.77608268396,2305
820.0222133567116,2369
822.2677337847211,2342
824.5126441917765,2392
826.7569448017433,2419
829.0006358385675,2351
831.2437175262731,2358
833.4861900889629,2447
835.7280537508192,2347
837.9693087361026,2357
840.2099552691533,2408
842.4499935743896,2409
844.689423876309,2424
846.9282463994886,2343
849.1664613685833,2381
851.4040690083276,2326
853.6410695435349,2415
855.877463199097,2391
858.1132501999847,2374
860.3484307712487,2401
862.5830051380175,2402
864.8169735254988,2466
867.0503361589791,2373
869.2830932638243,2353
871.5152450654786,2399
873.7467917894654,2410
875.9777336613873,2404
878.2080709069252,2517
880.4378037518389,2394
882.666932421968,2402
884.8954571432301,2508
887.1233781416219,2464
889.3506956432192,2503
891.5774098741766,2439
893.803521060728,2473
896.0290294291852,2459
898.2539352059397,2467
900.4782386174619,2463
902.7019398903011,2462
904.925039251085,2503
907.147536926521,2477
909.3694331433943,2519
911.59072812857,2440
913.8114221089921,2469
916.0315153116827,2426
918.2510079637437,2379
920.4699002923547,2418
922.6881925247761,2343
924.905884888345,2384
927.1229776104793,2387
929.3394709186747,2397
931.555365040506,2388
933.7706602036275,2407
935.9853566357709,2418
938.1994545647489,2436
940.4129542184515,2513
942.6258558248488,2484
944.8381596119883,2480
947.0498658079974,2450
949.2609746410825,2409
951.4714863395287,2342
953.6814011316998,2473
955.8907192460387,2343
958.0994409110671,2397
960.3075663553858,2342
962.5150958076741,2397
964.7220294966913,2310
966.928367651274,2397
969.1341105003388,2389
971.3392582728806,2338
973.5438111979742,2375
975.747769504772,2337
977.9511334225061,2332
980.153903180487,2231
982.3560790081052,2279
984.5576611348289,2216
986.7586497902058,2269
988.9590452038618,2226
991.158847605503,2228
993.3580572249133,2198
995.5566742919558,2104
997.7546990365728,2118
999.952131688785,2144
1002.1489724786926,2102
1004.3452216364743,2028
1006.5408793923874,2029
1008.7359459767691,1972
1010.9304216200343,1975
1013.1243065526781,1941
1015.3176010052733,1989
1017.510305208472,1955
1019.7024193930064,2003
1021.8939437896848,1992
1024.0848786293977,1973
1026.2752241431122,1906
1028.4649805618747,2031
1030.6541481168115,1976
1032.842727039127,1924
1035.0307175601051,1940
1037.2181199111074,1966
1039.4049343235752,1962
1041.591161029029,1921
1043.7768002590683,1974
1045.9618522453698,1790
1048.1463172196918,1891
1050.3301954138697,1902
1052.513487059818,1922
1054.69619238953,1894
1056.8783116350783,1919
1059.0598450286152,1827
1061.2407928023704,1878
1063.4211551886528,1831
1065.6009324198508,1852
1067.780124728432,1849
1069.9587323469414,1867
1072.1367555080046,1901
1074.314194444325,1847
1076.4910493886855,1988
1078.667320573947,1803
1080.843008233051,1891
1083.0181125990161,1775
1085.1926339049414,1750
1087.3665723840027,1763
1089.5399282694575,1792
1091.7127017946405,1777
1093.8848931929647,1859
1096.0565026979243,1785
1098.2275305430899,1824
1100.3979769621128,1759
1102.567842188722,1797
1104.737126456726,1782
1106.9058300000124,1787
1109.0739530525475,1725
1111.2414958483764,1773
1113.4084586216231,1722
1115.5748416064907,1756
1117.7406450372605,1780
1119.9058691482942,1754
1122.0705141740304,1716
1124.2345803489884,1712
1126.3980679077658,1778
1128.5609770850388,1776
1130.7233081155623,1783
1132.8850612341707,1749
1135.0462366757774,1700
1137.2068346753745,1725
1139.3668554680326,1744
1141.526299288901,1700
1143.68516637321,1747
1145.8434569562655,1724
1148.001171273455,1710
1150.158309560244,1709
1152.3148720521767,1696
1154.470858984876,1766
1156.626270594044,1760
1158.7811071154629,1730
1160.9353687849912,1749
1163.089055838569,1700
1165.242168512213,1725
1167.3947070420209,1699
1169.5466716641677,1661
1171.6980626149075,1695
1173.8488801305748,1595
1175.9991244475814,1689
1178.1487958024186,1707
1180.2978944316555,1631
1182.4464205719428,1688
1184.5943744600072,1685
1186.7417563326567,1759
1188.8885664267755,1637
1191.0348049793297,1693
1193.1804722273619,1722
1195.325568407995,1699
1197.4700937584303,1666
1199.614048515948,1757
1201.7574329179074,1728
1203.900247201746,1747
1206.042491604982,1717
1208.1841663652099,1718
1210.3252717201053,1754
1212.465807907422,1812
1214.6057751649923,1742
1216.7451737307279,1757
1218.8840038426192,1655
1221.0222657387353,1766
1223.1599596572241,1771
1225.2970858363137,1739
1227.4336445143094,1826
1229.5696359295966,1719
1231.705060320639,1684
1233.8399179259786,1768
1235.9742089842384,1763
1238.107933734118,1780
1240.2410924143974,1732
1242.373685263935,1767
1244.5057125216676,1791
1246.6371744266116,1762
1248.7680712178621,1730
1250.898403134593,1756
1253.028170416058,1743
1255.1573733015875,1740
1257.2860120305932,1789
1259.4140868425648,1792
1261.54159797707,1775
1263.6685456737569,1795
1265.7949301723515,1763
1267.9207517126597,1759
1270.046010534565,1795
1272.1707068780306,1839
1274.2948409830983,1800
1276.4184130898889,1858
1278.541423438603,1830
1280.6638722695184,1869
1282.785759822993,1820
1284.9070863394636,1888
1287.0278520594447,1904
1289.1480572235314,1845
1291.2677020723963,1948
1293.3867868467923,1908
1295.5053117875495,1858
1297.623277135579,1823
1299.740683131868,1807
1301.8575300174857,1893
1303.973818033578,1921
1306.0895474213703,1968
1308.2047184221678,1921
1310.3193312773528,1895
1312.4333862283888,1972
1314.5468835168163,1971
1316.659823384255,1866
1318.7722060724045,1863
1320.8840318230418,1857
1322.9953008780249,1875
1325.1060134792888,1899
1327.2161698688478,1868
1329.3257702887959,1895
1331.4348149813054,1884
1333.5433041886276,1906
1335.6512381530933,1985
1337.7586171171101,1956
1339.8654413231675,1964
1341.9717110138317,1925
1344.0774264317488,1906
1346.1825878196432,1949
1348.2871954203192,1915
1350.3912494766587,1870
1352.4947502316231,1874
1354.5976979282532,1901
1356.7000928096686,1970
1358.8019351190665,1845
1360.9032250997243,1990
1363.0039629949988,1975
1365.1041490483235,1859
1367.2037835032133,1922
1369.3028666032606,1874
1371.401398592137,2029
1373.4993797135926,1938
1375.5968102114575,2048
1377.6936903296396,1894
1379.7900203121262,1909
1381.8858004029835,1987
1383.9810308463561,1923
1386.075711886469,1871
1388.1698437676241,1926
1390.2634267342032,1879
1392.356461030667,1967
1394.4489469015557,2030
1396.5408845914872,1950
1398.6322743451592,2024
1400.7231164073469,2007
1402.813411022907,1963
1404.903158436773,2031
1406.9923588939578,1978
1409.0810126395531,1976
1411.1691199187303,2043
1413.2566809767386,2057
1415.343696058907,1992
1417.4301654106425,2040
1419.5160892774315,2072
1421.6014679048399,2080
1423.6863015385125,2152
1425.7705904241707,2139
1427.8543348076178,2162
1429.9375349347342,2171
1432.0201910514802,2124
1434.102303403894,2174
1436.1838722380944,2229
1438.2648978002767,2222
1440.3453803367174,2252
1442.4253200937692,2223
1444.5047173178677,2334
1446.5835722555234,2365
1448.6618851533285,2425
1450.739656257952,2356
1452.8168858161434,2437
1454.8935740747306,2470
1456.96972128062,2602
1459.045327680797,2597
1461.120393522327,2602
1463.1949190523528,2616
1465.2689045180973,2656
1467.3423501668608,2692
1469.415256246024,2664
1471.4876230030463,2831
1473.559450685465,2873
1475.6307395408976,2872
1477.7014898170391,2950
1479.771701761665,2926
1481.8413756226287,2965
1483.9105116478618,2979
1485.9791100853772,3025
1488.0471711832643,3230
1490.1146951896926,3195
1492.1816823529098,3367
1494.2481329212433,3293
1496.3140471430984,3322
1498.3794252669609,3375
1500.4442675413939,3515
1502.5085742150404,3515
1504.572345536622,3572
1506.6355817549388,3566
1508.6982831188702,3567
1510.7604498773744,3564
1512.8220822794883,3583
1514.8831805743293,3715
1516.9437450110909,3824
1519.003775839048,3845
1521.0632733075522,3884
1523.1222376660367,3935
1525.1806691640113,4019
1527.2385680510652,4053
1529.2959345768668,4230
1531.3527689911643,4224
1533.4090715437833,4347
1535.4648424846291,4420
1537.5200820636855,4287
1539.5747905310159,4459
1541.6289681367616,4578
1543.6826151311434,4546
1545.7357317644614,4697
1547.7883182870937,4749
1549.8403749494987,4795
1551.8919020022113,4971
1553.9428996958477,4884
1555.9933682811015,5079
1558.0433080087469,5162
1560.0927191296346,5280
1562.1416018946961,5281
1564.1899565549415,5198
1566.2377833614592,5285
1568.2850825654164,5317
1570.3318544180606,5029
1572.3780991707158,4866
1574.423817074788,4675
1576.4690083817595,4542
1578.5136733431923,4249
1580.5578122107272,4011
1582.601425236085,3774
1584.6445126710646,3626
1586.6870747675434,3428
1588.7291117774776,3389
1590.7706239529034,3184
1592.8116115459347,3075
1594.8520748087658,2911
1596.8920139936686,2775
1598.9314293529933,2717
1600.9703211391711,2654
1603.008689604711,2578
1605.0465350022005,2496
1607.0838575843068,2460
1609.1206576037753,2327
1611.1569353134305,2273
1613.1926909661765,2215
1615.2279248149953,2263
1617.2626371129481,2204
1619.2968281131757,2165
1621.3304980688963,2133
1623.3636472334088,2137
1625.39627586009,2058
1627.428384202396,2077
1629.459972513861,2059
1631.4910410480993,2035
1633.5215900588028,2044
1635.551619799744,1987
1637.5811305247717,1966
1639.6101224878166,1914
1641.6385959428862,1972
1643.6665511440683,1984
1645.693988345528,1929
1647.7209078015112,1896
1649.7473097663405,1890
1651.7731944944203,1869
1653.7985622402307,1962
1655.823413258333,1864
1657.847747803366,1918
1659.8715661300494,1915
1661.8948684931793,1846
1663.9176551476316,1844
1665.9399263483624,1841
1667.9616823504057,1866
1669.982923408873,1927
1672.0036497789574,1822
1674.0238617159293,1920
1676.043559475138,1859
1678.0627433120121,1838
1680.081413482059,1868
1682.0995702408654,1827
1684.117213844096,1936
1686.134344547495,1772
1688.1509626068864,1868
1690.1670682781705,1820
1692.182661817329,1851
1694.1977434804217,1873
1696.2123135235875,1861
1698.226372203043,1806
1700.2399197750851,1794
1702.2529564960905,1875
1704.2654826225112,1854
1706.277498410882,1827
1708.2890041178139,1840
1710.2999999999988,1831
1712.3104863142066,1838
1714.3204633172854,1794
1716.329931266163,1822
1718.3388904178469,1781
1720.3473410294214,1831
1722.3552833580516,1795
1724.3627176609807,1800
1726.3696441955308,1789
1728.3760632191033,1730
1730.3819749891782,1803
1732.3873797633146,1782
1734.3922777991502,1764
1736.3966693544012,1838
1738.4005546868639,1769
1740.4039340544127,1800
1742.406807715001,1778
1744.4091759266616,1795
1746.4110389475054,1719
1748.4123970357223,1774
1750.413250449582,1680
1752.4135994474318,1640
1754.4134442876993,1753
1756.4127852288902,1738
1758.4116225295893,1740
1760.4099564484595,1690
1762.407787244244,1652
1764.405115175764,1675
1766.4019405019203,1710
1768.3982634816916,1620
1770.3940843741357,1669
1772.3894034383907,1666
1774.3842209336717,1720
1776.378537119274,1654
1778.372352254571,1699
1780.3656665990156,1644
1782.3584804121397,1697
1784.3507939535534,1756
1786.3426074829463,1696
1788.3339212600863,1683
1790.3247355448211,1747
1792.3150505970766,1697
1794.3048666768573,1709
1796.2941840442477,1704
1798.2830029594106,1683
1800.2713236825884,1636
1802.2591464741004,1585
1804.2464715943465,1708
1806.2332993038058,1672
1808.2196298630352,1685
1810.2054635326708,1722
1812.190800573428,1660
1814.175641246101,1680
1816.1599858115628,1688
1818.1438345307652,1669
1820.127187664738,1730
1822.1100454745924,1680
1824.092408221516,1656
1826.0742761667766,1599
1828.055649571721,1634
1830.0365286977735,1555
1832.0169138064398,1714
1833.9968051593014,1627
1835.9762030180214,1649
1837.9551076443408,1638
1839.9335193000788,1655
1841.9114382471344,1609
1843.888864747485,1619
1845.8657990631878,1686
1847.842241456378,1700
1849.8181921892697,1685
1851.7936515241558,1610
1853.7686197234098,1623
1855.7430970494815,1623
1857.7170837649014,1623
1859.6905801322787,1647
1861.6635864143004,1558
1863.6361028737338,1642
1865.608129773424,1667
1867.5796673762961,1610
1869.5507159453537,1630
1871.521275743678,1683
1873.4913470344313,1644
1875.4609300808534,1621
1877.4300251462632,1643
1879.3986324940588,1696
1881.366752387717,1681
1883.3343850907936,1723
1885.3015308669228,1670
1887.268189979819,1594
1889.2343626932739,1636
1891.2000492711595,1660
1893.1652499774254,1650
1895.1299650761011,1662
1897.0941948312952,1643
1899.0579395071945,1661
1901.0211993680641,1651
1902.98397467825,1647
1904.9462657021745,1669
1906.9080727043415,1791
1908.869395949332,1628
1910.8302357018065,1670
1912.790592226504,1638
1914.7504657882428,1678
1916.7098566519212,1591
1918.6687650825133,1646
1920.6271913450764,1715
1922.5851357047422,1647
1924.5425984267245,1731
1926.499579776314,1566
1928.4560800188833,1673
1930.4120994198802,1643
1932.367638244833,1730
1934.32269675935,1698
1936.2772752291175,1655
1938.231373919899,1724
1940.1849930975404,1591
1942.1381330279637,1575
1944.0907939771696,1664
1946.0429762112412,1635
1947.9946799963363,1640
1949.9459055986945,1625
1951.896653284633,1588
1953.8469233205478,1631
1955.7967159729142,1581
1957.7460315082863,1611
1959.6948701932974,1634
1961.6432322946594,1601
1963.5911180791632,1683
1965.5385278136787,1663
1967.4854617651545,1651
1969.4319202006182,1662
1971.377903387176,1599
1973.3234115920136,1630
1975.268445082395,1609
1977.2130041256642,1643
1979.1570889892423,1604
1981.1006999406304,1560
1983.04383724741,1578
1984.986501177238,1606
1986.928691997853,1649
1988.8704099770712,1610
1990.811655382789,1598
1992.7524284829801,1574
1994.692729545698,1559
1996.6325588390755,1559
1998.5719166313224,1536
2000.5108031907307,1571
2002.4492187856677,1611
2004.387163684583,1616
2006.3246381560011,1626
2008.2616424685298,1665
2010.1981768908527,1609
2012.1342416917332,1612
2014.069837140014,1606
2016.0049635046162,1590
2017.9396210545406,1615
2019.8738100588666,1590
2021.8075307867502,1602
2023.740783507431,1531
2025.6735684902228,1546
2027.6058860045214,1573
2029.5377363198004,1626
2031.4691197056118,1532
2033.4000364315875,1557
2035.3304867674374,1555
2037.260470982952,1501
2039.189989347998,1566
2041.1190421325232,1579
2043.047629606554,1541
2044.9757520401945,1574
2046.9034097036288,1518
2048.8306028671195,1555
2050.7573318010086,1582
2052.683596775716,1576
2054.609398061742,1523
2056.5347359296647,1540
2058.4596106501403,1558
2060.384022493906,1541
2062.3079717317764,1529
2064.231458634646,1559
2066.1544834734873,1573
2068.077046519352,1607
2069.99914804337,1562
2071.9207883167524,1527
2073.8419676107865,1576
2075.7626861968406,1562
2077.6829443463607,1573
2079.6027423308715,1550
2081.522080421977,1623
2083.440958891362,1562
2085.359378010786,1566
2087.2773380520907,1528
2089.194839287196,1655
2091.111881988101,1557
2093.0284664268825,1580
2094.9445928756973,1580
2096.86026160678,1553
2098.775472892446,1570
2100.690227005088,1579
2102.604524217178,1576
2104.5183648012676,1599
2106.431749029985,1537
2108.34467717604,1592
2110.2571495122206,1546
2112.169166311393,1586
2114.080727846503,1591
2115.9918343905747,1560
2117.902486216711,1643
2119.8126835980956,1618
2121.722426807987,1665
2123.6317161197285,1594
2125.5405518067364,1584
2127.448934142509,1589
2129.356863400624,1640
2131.264339854737,1601
2133.1713637785815,1665
2135.077935445972,1700
2136.9840551308002,1654
2138.889723107037,1648
2140.7949396487334,1674
2142.699705030018,1610
2144.6040195250994,1594
2146.507883408264,1661
2148.4112969538774,1679
2150.3142604363848,1650
2152.2167741303097,1642
2154.1188383102535,1637
2156.0204532508997,1645
2157.9216192270064,1676
2159.822336513414,1691
2161.7226053850413,1678
2163.622426116884,1656
2165.5217989840185,1690
2167.4207242616,1711
2169.319202224862,1711
2171.2172331491165,1653
2173.1148173097563,1700
2175.0119549822507,1657
2176.90864644215,1649
2178.8048919650823,1700
2180.7006918267534,1710
2182.596046302952,1734
2184.4909556695407,1695
2186.3854202024645,1724
2188.279440177746,1704
2190.173015871487,1707
2192.066147559868,1716
2193.958835519149,1630
2195.851080025667,1664
2197.7428813558417,1704
2199.6342397861667,1762
2201.5251555932186,1717
2203.415629053651,1706
2205.3056604441986,1817
2207.19525004167,1740
2209.084398122958,1749
2210.9731049650327,1715
2212.861370844941,1741
2214.749196039812,1777
2216.636580826851,1799
2218.523525483344,1775
2220.410030286655,1764
2222.296095514226,1823
2224.1817214435805,1704
2226.066908352319,1785
2227.951656518121,1796
2229.835966218746,1825
2231.71983773203,1786
2233.6032713358913,1737
2235.486267308324,1767
2237.3688259274036,1708
2239.2509474712824,1782
2241.132632218193,1729
2243.013880446447,1800
2244.8946924344323,1746
2246.7750684606203,1762
2248.6550088035574,1788
2250.534513741871,1726
2252.413583554265,1778
2254.292218519526,1805
2256.170418916517,1751
2258.0481850241786,1764
2259.925517121534,1700
2261.8024154876825,1736
2263.678880401803,1710
2265.5549121431536,1751
2267.430510991071,1726
2269.305677224971,1759
2271.180411124348,1735
2273.0547129687766,1687
2274.9285830379076,1644
2276.8020216114737,1715
2278.6750289692845,1702
2280.5476053912294,1784
2282.4197511572766,1790
2284.2914665474727,1734
2286.162751841943,1802
2288.0336073208937,1815
2289.904033264608,1779
2291.774029953448,1778
2293.6435976678554,1692
2295.5127366883517,1676
2297.381447295534,1672
2299.2497297700825,1599
2301.1175843927526,1613
2302.9850114443825,1559
2304.852011205885,1560
2306.7185839582553,1528
2308.5847299825664,1500
2310.4504495599676,1494
2312.3157429716925,1516
2314.1806104990483,1435
2316.0450524234247,1532
2317.9090690262888,1461
2319.772660589186,1433
2321.635827393742,1474
2323.498569721661,1423
2325.3608878547248,1438
2327.2227820747967,1479
2329.0842526638157,1451
2330.945299903803,1488
2332.805924076857,1473
2334.6661254651535,1422
2336.525904350951,1507
2338.3852610165827,1490
2340.244195744464,1432
2342.102708817088,1430
2343.9608005170253,1452
2345.8184711269287,1451
2347.675720929526,1535
2349.532550207628,1466
2351.38895924412,1427
2353.24494832197,1515
2355.100517724223,1440
2356.955667734004,1492
2358.810398634514,1467
2360.664710709037,1459
2362.5186042409337,1449
2364.3720795136437,1484
2366.225136810686,1522
2368.0777764156583,1526
2369.929998612237,1469
2371.7818036841777,1541
2373.633191915315,1493
2375.484163589562,1553
2377.3347189909114,1463
2379.184858403434,1489
2381.03458211128,1567
2382.8838903986775,1476
2384.732783549936,1509
2386.5812618494406,1521
2388.4293255816588,1494
2390.2769750311327,1511
2392.1242104824883,1513
2393.971032220427,1474
2395.8174405297295,1560
2397.6634356952563,1528
2399.509018001947,1466
2401.3541877348193,1509
2403.1989451789705,1489
2405.043290619576,1537
2406.8872243418905,1552
2408.730746631247,1521
2410.5738577730594,1554
2412.4165580528183,1452
2414.258847756095,1582
2416.100727168537,1525
2417.9421965758734,1490
2419.783256263912,1523
2421.623906518538,1482
2423.4641476257157,1539
2425.303979871491,1556
2427.143403541984,1486
2428.9824189233977,1538
2430.821026302012,1556
2432.6592259641866,1537
2434.497018196361,1570
2436.33440328505,1501
2438.171381516851,1471
2440.00795317844,1494
2441.844118556569,1556
2443.6798779380724,1501
2445.5152316098606,1546
2447.3501798589255,1490
2449.1847229723357,1497
2451.0188612372403,1515
2452.8525949408663,1492
2454.6859243705203,1452
2456.518849813587,1560
2458.3513715575314,1608
2460.183489889895,1582
2462.015205098301,1486
2463.8465174704493,1535
2465.67742729412,1536
2467.5079348571717,1500
2469.338040447542,1558
2471.1677443532476,1589
2472.9970468623833,1545
2474.825948263123,1535
2476.6544488437207,1550
2478.482548892508,1556
2480.310248697896,1591
2482.137548548374,1591
2483.9644487325118,1583
2485.790949538956,1512
2487.617051256433,1530
2489.44275417375,1524
2491.26805857979,1612
2493.0929647635157,1567
2494.917473013971,1534
2496.741583620276,1564
2498.5652968716304,1598
2500.3886130573137,1626
2502.2115324666834,1608
2504.0340553891765,1563
2505.856182114308,1603
2507.6779129316733,1564
2509.499248130945,1615
2511.3201880018764,1647
2513.140732834298,1675
2514.9608829181198,1610
2516.780638543331,1547
2518.6,1577
2520.418967578273,1664
2522.237541568376,1590
2524.0557222606144,1674
2525.8735099453706,1658
2527.6909049131086,1591
2529.507907454368,1620
2531.32451785977,1599
2533.140736420014,1727
2534.9565634258774,1693
2536.771999168218,1632
2538.5870439379714,1673
2540.4016980261526,1718
2542.2159617238544,1714
2544.02983532225,1764
2545.8433191125914,1786
2547.656413386209,1701
2549.4691184345115,1804
2551.2814345489874,1832
2553.093362021204,1762
2554.904901142808,1741
2556.716052205523,1821
2558.526815501153,1852
2560.3371913215824,1789
2562.147179958771,1840
2563.956781704761,1849
2565.7659968516705,1860
2567.5748256916986,1845
2569.3832685171224,1815
2571.1913256202984,1842
2572.9989972936614,1911
2574.806283829725,1877
2576.613185521084,1904
2578.4197026604074,2006
2580.2258355404483,1960
2582.031584454035,1991
2583.836949694077,1975
2585.6419315535613,1949
2587.4465303255533,2033
2589.2507463032002,1994
2591.0545797797245,1990
2592.8580310484303,2014
2594.6611004026995,2011
2596.463788135992,1971
2598.266094541849,2035
2600.0680199138874,2062
2601.869564545807,1990
2603.670728731383,1992
2605.4715127644704,2109
2607.2719169390048,2097
2609.071941548998,2077
2610.8715868885433,2110
2612.670853251811,2122
2614.469740933052,2170
2616.268250226594,2061
2618.0663814268455,2087
2619.864134828292,2072
2621.6615107255006,2100
2623.458509413115,2142
2625.2551311858597,2049
2627.0513763385347,1999
2628.8472451660223,1907
2630.6427379632833,1927
2632.4378550253564,1926
2634.232596647359,1924
2636.026963124488,1932
2637.8209547520187,1851
2639.6145718253065,1914
2641.407814639785,1892
2643.200683490966,1859
2644.9931786744414,1871
2646.7853004858807,1879
2648.577049221034,1803
2650.3684251757277,1863
2652.1594286458712,1752
2653.9500599274484,1821
2655.740319316525,1728
2657.5302071092437,1802
2659.3197236018286,1681
2661.10886909058,1693
2662.8976438718782,1758
2664.686048242183,1780
2666.4740824980327,1695
2668.2617469360443,1739
2670.0490418529134,1644
2671.8359675454153,1721
2673.622524310403,1669
2675.408712444811,1638
2677.1945322456495,1628
2678.979984010009,1589
2680.76506803506,1630
2682.5497846180497,1638
2684.334134056306,1602
2686.1181166472343,1659
2687.9017326883213,1574
2689.6849824771293,1648
2691.4678663113013,1592
2693.2503844885596,1586
2695.032537306705,1520
2696.8143250636167,1554
2698.5957480572542,1604
2700.3768065856534,1549
2702.1575009469316,1521
2703.937831439283,1483
2705.717798360982,1535
2707.4974020103837,1532
2709.276642685917,1473
2711.055520686095,1508
2712.834036309506,1570
2714.612189854819,1505
2716.389981620782,1541
2718.1674119062204,1474
2719.944481010041,1504
2721.721189231226,1495
2723.4975368688415,1507
2725.273524222027,1517
2727.0491515900053,1502
2728.824419272075,1535
2730.5993275676146,1451
2732.3738767760838,1509
2734.148067197016,1454
2735.921899130031,1490
2737.6953728748194,1513
2739.468488731156,1481
2741.2412469988926,1440
2743.0136479779617,1490
2744.785691968372,1492
2746.5573792702116,1420
2748.3287101836504,1496
2750.099685008934,1487
2751.870304046388,1468
2753.640567596418,1511
2755.4104759595057,1490
2757.1800294362156,1441
2758.949228327187,1469
2760.7180729331412,1432
2762.486563554877,1428
2764.254700493272,1484
2766.022484049284,1501
2767.789914523947,1387
2769.5569922183786,1513
2771.3237174337705,1497
2773.090090471394,1475
2774.8561116326036,1483
2776.6217812188274,1419
2778.3870995315756,1419
2780.1520668724356,1457
2781.9166835430747,1409
2783.6809498452394,1469
2785.444866080754,1484
2787.2084325515225,1442
2788.971649559527,1411
2790.73451740683,1433
2792.4970363955713,1416
2794.2592068279705,1448
2796.0210290063264,1431
2797.7825032330147,1440
2799.543629810493,1434
2801.304409041296,1429
2803.0648412280366,1459
2804.8249266734088,1459
2806.5846656801846,1497
2808.344058551212,1531
2810.1031055894246,1433
2811.8618070978273,1507
2813.6201633795085,1451
2815.378174737636,1401
2817.1358414754536,1479
2818.893163896285,1440
2820.6501423035334,1437
2822.4067770006814,1495
2824.1630682912883,1425
2825.9190164789957,1456
2827.6746218675207,1457
2829.429884760661,1437
2831.184805462294,1492
2832.9393842763743,1498
2834.693621506936,1486
2836.4475174580916,1422
2838.201072434034,1490
2839.954286739034,1438
2841.707160677441,1509
2843.459694553685,1464
2845.2118886722724,1440
2846.96374333779,1460
2848.7152588549034,1511
2850.4664355283567,1464
2852.217273662973,1414
2853.9677735636546,1455
2855.7179355353833,1537
2857.4677598832186,1445
2859.217246912299,1425
2860.9663969278427,1448
2862.715210235146,1369
2864.4636871395846,1460
2866.211827946614,1442
2867.9596329617652,1414
2869.7071024906536,1468
2871.4542368389684,1412
2873.20103631248,1419
2874.947501217038,1455
2876.6936318585695,1445
2878.4394285430812,1464
2880.1848915766604,1449
2881.9300212654707,1454
2883.6748179157553,1419
2885.4192818338374,1418
2887.1634133261173,1416
2888.907212699077,1454
2890.6506802592744,1472
2892.393816313348,1477
2894.1366211680142,1483
2895.8790951300693,1503
2897.621238506388,1432
2899.363051603925,1477
2901.1045347297118,1388
2902.8456881908596,1457
2904.58651229456,1423
2906.327007348081,1413
2908.067173658772,1439
2909.8070115340597,1465
2911.5465212814497,1459
2913.285703208527,1500
2915.0245576229563,1389
2916.7630848324807,1464
2918.5012851449196,1420
2920.2391588681758,1414
2921.976706310227,1406
2923.7139277791334,1404
2925.4508235830313,1392
2927.187394030137,1470
2928.923639428745,1436
2930.6595600872306,1418
2932.395156314046,1426
2934.1304284177218,1431
2935.8653767068713,1427
2937.6000014901815,1419
2939.3343030764227,1452
2941.068281774442,1474
2942.8019378931644,1467
2944.5352717415976,1415
2946.2682836288236,1396
2948.0009738640065,1415
2949.7333427563885,1447
2951.465390615289,1405
2953.1971177501086,1465
2954.9285244703265,1450
2956.6596110855,1422
2958.3903779052657,1510
2960.1208252393385,1462
2961.8509533975125,1415
2963.5807626896617,1416
2965.3102534257378,1360
2967.0394259157715,1434
2968.768280469873,1424
2970.496817398232,1468
2972.2250370111146,1437
2973.952939618869,1447
2975.6805255319196,1416
2977.4077950607707,1447
2979.134748516006,1486
2980.861386208289,1448
2982.587708448359,1410
2984.313715547037,1410
2986.039407815222,1420
2987.764785563891,1405
2989.489849104102,1455
2991.2145987469908,1414
2992.9390348037705,1394
2994.6631575857346,1402
2996.3869674042576,1402
2998.1104645707887,1409
2999.83364939686,1406
3001.5565221940783,1409
3003.2790832741334,1426
3005.0013329487924,1398
3006.7232715298996,1408
3008.4448993293804,1379
3010.166216659239,1454
3011.887223831558,1366
3013.607921158498,1433
3015.3283089522993,1424
3017.0483875252826,1403
3018.7681571898443,1374
3020.4876182584626,1356
3022.2067710436927,1448
3023.9256158581707,1449
3025.644153014609,1444
3027.362382825801,1411
3029.0803056046193,1398
3030.797921664012,1414
3032.5152313170106,1434
3034.2322348767225,1376
3035.9489326563353,1454
3037.665324969115,1406
3039.3814121284063,1417
3041.097194447633,1397
3042.812672240299,1425
3044.5278458199855,1443
3046.2427155003525,1400
3047.9572815951406,1457
3049.671544418167,1429
3051.38550428333,1422
3053.0991615046073,1348
3054.812516396051,1412
3056.5255692717974,1393
3058.2383204460575,1459
3059.9507702331257,1446
3061.662918947372,1366
3063.3747669032446,1410
3065.0863144152736,1380
3066.7975617980674,1409
3068.508509366309,1403
3070.219157434767,1398
3071.9295063182844,1363
3073.639556331785,1477
3075.3493077902704,1390
3077.058761008821,1452
3078.7679163025964,1479
3080.476773986837,1396
3082.1853343768594,1373
3083.89359778806,1428
3085.6015645359153,1463
3087.3092349359786,1476
3089.016609303884,1464
3090.7236879553434,1395
3092.4304712061476,1374
3094.136959372166,1429
3095.843152769349,1481
3097.5490517137237,1432
3099.2546565213966,1430
3100.959967508554,1422
3102.66498499146,1381
3104.3697092864577,1388
3106.0741407099695,1374
3107.778279578498,1443
3109.482126208622,1422
3111.1856809170004,1471
3112.8889440203716,1506
3114.5919158355528,1455
3116.294596679439,1455
3117.996986869006,1495
3119.6990867213062,1418
3121.4008965534726,1438
3123.102416682717,1537
3124.803647426329,1446
3126.5045891016784,1505
3128.205242026213,1440
3129.90560651746,1476
3131.605682893025,1411
3133.3054714705922,1481
3135.0049725679282,1446
3136.7041865028714,1437
3138.4031135933465,1420
3140.101754157353,1388
3141.800108512971,1429
3143.498176978357,1361
3145.1959598717494,1393
3146.8934575114636,1423
3148.5906702158954,1429
3150.2875983035183,1444
3151.9842420928853,1389
3153.680601902627,1431
3155.376678051456,1404
3157.07247085816,1416
3158.767980641609,1338
3160.463207720748,1392
3162.158152414606,1456
3163.8528150422862,1459
3165.5471959229726,1394
3167.2412953759303,1483
3168.9351137204976,1406
3170.628651276098,1415
3172.3219083622307,1418
3174.014885298474,1412
3175.707582404485,1452
3177.4000000000005,1347
3179.092138404835,1385
3180.7839979388846,1393
3182.47557892212,1409
3184.166881674594,1402
3185.8579065164386,1435
3187.5486537678626,1442
3189.2391237491547,1412
3190.9293167806827,1356
3192.6192331828934,1367
3194.3088732763117,1413
3195.998237381542,1355
3197.687325819268,1372
3199.376138910251,1396
3201.064676975334,1370
3202.7529403354347,1364
3204.4409293115523,1331
3206.1286442247647,1360
3207.816085396229,1352
3209.5032531471825,1349
3211.190147798936,1413
3212.8767696728846,1420
3214.5631190905015,1293
3216.2491963733373,1375
3217.9350018430214,1337
3219.6205358212637,1369
3221.305798629851,1341
3222.990790590651,1335
3224.6755120256103,1352
3226.359963256751,1379
3228.0441446061795,1359
3229.7280563960758,1338
3231.411698948703,1407
3233.0950725863995,1379
3234.778177631587,1351
3236.461014406761,1415
3238.1435832345005,1416
3239.8258844374595,1359
3241.507918338374,1433
3243.1896852600576,1396
3244.8711855254023,1373
3246.552419457381,1399
3248.233387379042,1345
3249.914089613516,1385
3251.59452648401,1413
3253.274698313813,1406
3254.95460542629,1382
3256.6342481448855,1352
3258.313626793125,1347
3259.9927416946084,1334
3261.6715931730196,1335
3263.3501815521176,1371
3265.0285071557437,1326
3266.706570307815,1355
3268.3843713323286,1309
3270.0619105533615,1347
3271.739188295068,1367
3273.4162048816834,1382
3275.0929606375184,1358
3276.769455886966,1393
3278.445690954498,1397
3280.1216661646613,1401
3281.797381842087,1400
3283.4728383114807,1445
3285.1480358976296,1356
3286.8229749253996,1377
3288.4976557197333,1347
3290.172078605655,1353
3291.846243908266,1332
3293.5201519527463,1349
3295.193803064357,1300
3296.8671975684374,1317
3298.5403357904024,1330
3300.21321805575,1366
3301.8858446900567,1324
3303.558216018975,1368
3305.23033236824,1391
3306.9021940636603,1323
3308.57380143113,1332
3310.2451547966184,1376
3311.916254486174,1379
3313.5871008259246,1340
3315.2576941420766,1395
3316.9280347609147,1376
3318.5981230088046,1380
3320.2679592121895,1367
3321.9375436975924,1294
3323.606876791612,1358
3325.27595882093,1366
3326.944790112305,1368
3328.6133709925753,1370
3330.2817017886573,1337
3331.949782827547,1372
3333.617614436319,1387
3335.2851969421245,1359
3336.952530672199,1393
3338.619615953853,1356
3340.286453114475,1376
3341.9530424815357,1441
3343.619384382583,1430
3345.2854791452437,1321
3346.951327097224,1327
3348.6169285663073,1383
3350.2822838803577,1366
3351.947393367319,1339
3353.61225735521,1329
3355.2768761721345,1391
3356.9412501462693,1389
3358.605379605873,1370
3360.2692648792827,1388
3361.9329062949146,1347
3363.596304181263,1371
