CollectionTime,9/20/2024 12:31:03 PM
ExposureUsed,3
CalibratedSpectrum
-962.7078968117929,1078
-959.9714848408522,1133
-957.2358232597828,1110
-954.5009119013725,1124
-951.7667505983302,1164
-949.0333391832855,1099
-946.3006774887896,1184
-943.5687653473143,1191
-940.837602591253,1178
-938.1071890529199,1166
-935.3775245645503,1177
-932.6486089583007,1240
-929.9204420662485,1204
-927.1930237203925,1146
-924.4663537526524,1141
-921.7404319948689,1166
-919.0152582788041,1239
-916.2908324361409,1225
-913.5671542984834,1232
-910.8442236973568,1158
-908.1220404642074,1162
-905.4006044304027,1176
-902.679915427231,1171
-899.959973285902,1178
-897.2407778375464,1164
-894.5223289132158,1119
-891.8046263438832,1181
-889.0876699604426,1166
-886.3714595937089,1079
-883.6559950744183,1121
-880.9412762332282,1129
-878.2273029007168,1121
-875.5140749073835,1149
-872.8015920836489,1138
-870.0898542598545,1084
-867.3788612662631,1122
-864.6686129330585,1138
-861.9591090903457,1134
-859.2503495681506,1131
-856.5423341964203,1111
-853.8350628050229,1136
-851.1285352237478,1083
-848.4227512823054,1157
-845.7177108103272,1190
-843.0134136373656,1119
-840.3098595928943,1124
-837.6070485063082,1092
-834.9049802069229,1126
-832.2036545239757,1184
-829.5030712866244,1175
-826.8032303239481,1222
-824.1041314649472,1158
-821.4057745385428,1169
-818.7081593735775,1181
-816.0112857988148,1170
-813.3151536429393,1134
-810.6197627345566,1164
-807.9251129021936,1141
-805.2312039742981,1134
-802.5380357792392,1188
-799.8456081453069,1150
-797.1539209007124,1145
-794.462973873588,1227
-791.772766891987,1134
-789.083299783884,1220
-786.3945723771743,1236
-783.7065844996748,1207
-781.0193359791231,1195
-778.3328266431781,1205
-775.6470563194197,1178
-772.9620248353489,1164
-770.2777320183878,1200
-767.5941776958798,1204
-764.9113616950891,1137
-762.2292838432011,1207
-759.5479439673222,1165
-756.8673418944801,1203
-754.1874774516235,1231
-751.5083504656222,1197
-748.8299607632671,1256
-746.15230817127,1251
-743.475392516264,1185
-740.7992136248035,1233
-738.1237713233636,1184
-735.4490654383407,1205
-732.7750957960521,1161
-730.1018622227365,1201
-727.4293645445534,1223
-724.7576025875837,1202
-722.0865761778291,1228
-719.4162851412126,1254
-716.7467293035781,1256
-714.0779084906909,1271
-711.409822528237,1306
-708.7424712418238,1293
-706.0758544569796,1207
-703.4099719991541,1296
-700.7448236937178,1269
-698.0804093659622,1269
-695.4167288411002,1274
-692.7537819442656,1265
-690.0915685005134,1243
-687.4300883348199,1249
-684.7693412720819,1293
-682.1093271371178,1358
-679.4500457546669,1321
-676.7914969493897,1289
-674.1336805458676,1307
-671.4765963686034,1305
-668.8202442420206,1294
-666.1646239904642,1287
-663.5097354382001,1327
-660.8555784094151,1356
-658.2021527282176,1322
-655.5494582186366,1298
-652.8974947046223,1329
-650.2462620100463,1270
-647.5957599587009,1377
-644.9459883742998,1382
-642.2969470804776,1391
-639.6486359007902,1369
-637.0010546587141,1367
-634.3542031776476,1393
-631.7080812809096,1406
-629.0626887917401,1326
-626.4180255333008,1371
-623.7740913286734,1400
-621.1308860008619,1416
-618.4884093727904,1400
-615.8466612673046,1358
-613.2056415071715,1354
-610.5653499150785,1400
-607.9257863136347,1373
-605.28695052537,1425
-602.6488423727357,1370
-600.0114616781036,1420
-597.3748082637674,1378
-594.7388819519412,1418
-592.1036825647604,1500
-589.4692099242818,1451
-586.8354638524829,1336
-584.2024441712624,1399
-581.5701507024403,1428
-578.9385832677575,1511
-576.3077416888759,1523
-573.6776257873787,1441
-571.0482353847704,1402
-568.4195703024757,1379
-565.7916303618415,1436
-563.164415384135,1434
-560.5379251905453,1397
-557.9121596021815,1414
-555.2871184400748,1440
-552.6628015251767,1480
-550.0392086783606,1464
-547.4163397204204,1425
-544.794194472071,1511
-542.1727727539491,1484
-539.5520743866118,1516
-536.9320991905377,1481
-534.3128469861261,1539
-531.6943175936979,1533
-529.0765108334947,1539
-526.4594265256793,1650
-523.8430644903358,1820
-521.2274245474689,1911
-518.612506517005,2014
-515.9983102187913,1939
-513.3848354725959,2065
-510.77208209810846,2049
-508.16004991493924,2081
-505.5487387426199,2212
-502.9381484006032,2279
-500.3282787082628,2396
-497.71912948489364,2306
-495.1107005497117,2203
-492.5029917218539,2098
-489.8960028203786,1992
-487.28973366426493,1764
-484.68418407241325,1736
-482.07935386364494,1724
-479.47524285670266,1650
-476.87185087025,1637
-474.2691777228715,1631
-471.66722323307334,1733
-469.0659872192821,1672
-466.4654694998459,1700
-463.86566989303384,1656
-461.26658821703614,1653
-458.66822428996414,1643
-456.07057792985,1657
-453.4736489546475,1679
-450.877437182231,1651
-448.28194243039627,1642
-445.68716451686,1629
-443.09310325926003,1596
-440.49975847515555,1622
-437.9071299820263,1624
-435.31521759727354,1605
-432.72402113821954,1634
-430.13354042210767,1607
-427.5437752661022,1637
-424.95472548728867,1645
-422.36639090267386,1725
-419.7787713291855,1790
-417.1918665836721,1684
-414.60567648290385,1652
-412.0202008435715,1725
-409.4354394822874,1745
-406.8513922155845,1804
-404.26805885991723,1748
-401.685439231661,1785
-399.103533147112,1745
-396.522340422488,1754
-393.9418608739278,1761
-391.3620943174908,1712
-388.7830405691583,1618
-386.2046994448317,1597
-383.6270707603344,1589
-381.05015433141045,1514
-378.473949973725,1400
-375.8984575028645,1221
-373.32367673433623,1177
-370.74960748356875,1107
-368.1762495659117,1006
-365.60360279663576,893
-363.03166699093265,823
-360.4604419639154,694
-357.8899275306178,646
-355.32012350599507,608
-352.7510297049233,586
-350.1826459421999,581
-347.61497203254316,567
-345.04800779059235,565
-342.4817530309082,556
-339.91620756797226,533
-337.35137121618743,540
-334.7872437898774,554
-332.22382510328725,531
-329.66111497058273,514
-327.09911320585127,520
-324.53781962310075,553
-321.9772340362607,581
-319.4173562591816,568
-316.8581861056348,561
-314.2997233893127,598
-311.7419679238294,591
-309.1849195227194,648
-306.62857799943856,644
-304.0729431673641,593
-301.51801483979375,651
-298.963792829947,627
-296.41027695096386,545
-293.85746701590574,585
-291.3053628377552,596
-288.7539642294155,591
-286.2032710037115,639
-283.65328297338897,711
-281.1039999511146,670
-278.5554217494762,681
-276.007548180983,732
-273.4603790580651,770
-270.9139141930734,672
-268.3681533982807,738
-265.8230964858798,727
-263.27874326798565,743
-260.7350935566336,761
-258.1921471637804,742
-255.6499039013039,858
-253.10836358100266,820
-250.56752601459698,770
-248.02739101372765,798
-245.48795838995704,847
-242.94922795476816,791
-240.41119951956557,877
-237.8738728956746,832
-235.33724789434166,816
-232.80132432673452,808
-230.2661020039418,730
-227.73158073697357,759
-225.19776033676033,845
-222.66464061415422,949
-220.1322213799284,900
-217.60050244477725,806
-215.06948361931552,870
-212.53916471408013,966
-210.00954553952818,964
-207.48062590603843,913
-204.9524056239104,850
-202.4248845033651,858
-199.8980623545441,830
-197.37193898751036,929
-194.84651421224817,941
-192.32178783866232,904
-189.79775967657952,896
-187.27442953574644,936
-184.7517972258321,1022
-182.2298625564256,899
-179.7086253370378,885
-177.18808537710026,855
-174.66824248596583,905
-172.14909647290835,958
-169.6306471471229,1089
-167.11289431772548,1058
-164.59583779375328,954
-162.07947738416453,1005
-159.5638128978386,1250
-157.04884414357605,1359
-154.53457093009854,1512
-152.02099306604828,1131
-149.50811035998936,1073
-146.99592262040665,1332
-144.48442965570587,1377
-141.97363127421409,1436
-139.46352728417958,1356
-136.95411749377126,1358
-134.44540171107985,1337
-131.93737974411636,1408
-129.43005140081357,1274
-126.92341648902493,1516
-124.41747481652521,1509
-121.91222619101006,1673
-119.40767042009657,1765
-116.90380731132257,2232
-114.40063667214702,2665
-111.8981583099503,3634
-109.3963720320337,5568
-106.89527764561933,8482
-104.39487495785067,9837
-101.89516377579241,12649
-99.39614390642998,18137
-96.89781515667039,26489
-94.40017733334128,33423
-91.90323024319173,34052
-89.40697369289148,32354
-86.91140748903172,26474
-84.41653143812482,15712
-81.92234534660395,12355
-79.42884902082358,14278
-76.93604226705907,18535
-74.4439248915071,21458
-71.95249670028534,21613
-69.46175749943245,16506
-66.97170709490854,10655
-64.48234529259423,6925
-61.99367189829195,6664
-59.50568671772464,8058
-57.01838955653636,9158
-54.53178022029283,9214
-52.045858514480074,12328
-49.560624244506016,14910
-47.07607721569923,14379
-44.59221723330904,14129
-42.10904410250669,15806
-39.62655762838392,16653
-37.14475761595372,19946
-34.66364387015028,23465
-32.18321619582866,28714
-29.70347439776515,31173
-27.224418280657005,30767
-24.74604764912317,37240
-22.26836230770266,47793
-19.7913620608565,62780
-17.315046712966478,65037
-14.83941606833514,65037
-12.36446993118659,65037
-9.89020810566592,65037
-7.416630395839093,65037
-4.94373660569363,65037
-2.471526539137585,65037
-6.821210263296962E-13,65037
2.47084320796705,65037
4.941003281093458,65037
7.410480415786196,65037
9.879274808531363,65037
12.347386655893956,65037
14.814816154518212,65037
17.28156350112681,65037
19.74762889252179,65037
22.21301252558385,65037
24.67771459727237,23825
27.141735304626195,7867
29.605074844762612,7459
32.06773341487792,7612
34.52971121224755,6888
36.99100843422559,5252
39.45162527824516,4184
41.91156194181792,3205
44.370818622535126,3061
46.82939551806646,3953
49.287292826160524,5493
51.74451074464503,5404
54.201049471426245,4345
56.65690920448981,3059
59.112090141899785,2565
61.56659248179983,2743
64.02041642241159,2530
66.4735621620365,2738
68.92602989905402,3788
71.37781983192338,4171
73.82893215918205,4019
76.27936707944684,2740
78.72912479141326,2413
81.17820549385567,2037
83.62660938562783,1647
86.07433666566146,1881
88.5213875329681,2154
90.96776218663751,2044
93.41346082583925,2019
95.85848364982041,2534
98.30283085790859,2240
100.7465026495089,1881
103.18949922410604,1717
105.63182078126385,1593
108.07346752062438,1586
110.51443964190923,1502
112.95473734491827,1680
115.39436082953114,1614
117.83331029570547,1498
120.27158594347827,1697
122.7091879729652,1686
125.1461165843615,1533
127.58237197794062,1427
130.01795435405518,1340
132.4528639131364,1347
134.88710085569494,1642
137.32066538231982,1686
139.75355769367923,1656
142.1857779905207,1691
144.61732647366978,1362
147.04820334403132,1260
149.47840880258934,1387
151.90794305040674,1570
154.33680628862487,1667
156.76499871846443,1684
159.19252054122433,1729
161.61937195828352,1985
164.04555317109896,2278
166.47106438120693,2649
168.89590579022217,2740
171.320077599839,2888
173.7435800118302,3088
176.16641322804742,3357
178.58857745042144,3564
181.01007288096173,3546
183.43089972175687,3545
185.85105817497413,3604
188.27054844285988,3772
190.6893707277394,3811
193.10752523201643,3941
195.5250121581745,3962
197.9418317087751,3937
200.3579840864594,3992
202.7734694939469,4070
205.18828813403627,4082
207.6024402096051,4271
210.01592592360964,4068
212.42874547908548,4051
214.84089907914665,4072
217.2523869269868,3977
219.66320922587727,3968
222.0733661791695,4024
224.48285799029293,3982
226.8916848627572,4030
229.29984700014882,4025
231.7073446061355,4107
234.11417788446204,4078
236.520347038953,4095
238.92585227351185,4197
241.33069379212054,4323
243.73487179884035,4323
246.1383864978112,4265
248.541238093252,4260
250.9434267894609,4248
253.34495279081432,4231
255.74581630176783,4300
258.1460175268563,4174
260.54555667069314,4266
262.9444339379703,4248
265.3426495334594,4242
267.7402036620107,4040
270.1370965285529,4003
272.53332833809407,3926
274.9288992957214,3837
277.32380960660055,3792
279.718059475976,3703
282.1116491091717,3749
284.5045787115897,3694
286.89684848871195,3668
289.2884586460981,3680
291.67940938938807,3753
294.0697009242996,3782
296.4593334566299,3758
298.84830719225477,3705
301.23662233712923,3682
303.6242790972866,3677
306.01127767884,3581
308.39761828798066,3500
310.78330113097934,3539
313.16832641418534,3393
315.5526943440269,3492
317.9364051270112,3439
320.3194589697242,3444
322.70185607883093,3347
325.0835966610754,3361
327.4646809232805,3409
329.8451090723478,3258
332.2248813152577,3272
334.6039978590701,3350
336.9824589109231,3331
339.36026467803447,3194
341.7374153677,3225
344.113911187295,3245
346.48975234427337,3299
348.8649390461686,3318
351.2394715005918,3218
353.61334991523415,3203
355.9865744978655,3231
358.35914545633375,3251
360.73106299856715,3225
363.10232733257146,3199
365.47293866643247,3097
367.84289720831396,3164
370.2122031664593,3204
372.5808567491905,3139
374.9488581649083,3156
377.31620762209275,3143
379.6829053293021,3068
382.0489514951745,3084
384.4143463284262,3050
386.7790900378528,3113
389.14318283232853,3032
391.50662492080653,3166
393.86941651231916,3148
396.23155781597745,3084
398.5930490409713,3074
400.9538903965696,3025
403.3140820921202,3097
405.6736243370498,3164
408.03251734086336,3004
410.3907613131465,3052
412.74835646356166,2975
415.10530300185144,3094
417.4616011378372,3070
419.81725108141893,3018
422.1722530425758,3087
424.5266072313656,2998
426.880313857925,3108
429.2333731324701,2931
431.58578526529516,3072
433.9375504667738,2985
436.2886689473588,2986
438.63914091758113,3034
440.9889665880513,2980
443.33814616945835,3009
445.68667987257015,3044
448.03456790823395,2942
450.3818104873759,2905
452.72840782100013,2901
455.07436012019105,2990
457.41966759611057,2993
459.7643304600007,2910
462.10834892318155,2993
464.4517231970525,2952
466.79445349309174,2913
469.1365400228566,2918
471.4779829979826,2984
473.81878263018564,2948
476.15893913125876,2986
478.4984527130747,3082
480.8373235875855,3201
483.17555196682144,3238
485.5131380628919,3134
487.8500820879857,3278
490.1863842543697,3341
492.52204477439034,3623
494.8570638604725,3832
497.1914417251204,4034
499.52517858091653,4237
501.85827464052306,4511
504.19073011668036,4588
506.5225452222086,4546
508.85372017000566,4528
511.18425517304956,4550
513.514150444396,4920
515.8434061971808,6106
518.1720226446176,6957
520.4999999999999,7327
522.8273384766991,7025
525.1540382881666,6473
527.480099647932,5934
529.8055227696037,4984
532.1303078668694,4046
534.454455153496,3512
536.777964843328,3361
539.1008371502907,3269
541.4230722883866,3238
543.744670471698,3102
546.0656319143858,2994
548.3859568306899,3155
550.7056454349294,2970
553.0246979415016,3042
555.3431145648834,3004
557.6608955196306,3047
559.978041020377,2970
562.2945512818363,3025
564.6104265188006,2933
566.9256669461412,3113
569.2402727788082,3072
571.5542442318302,3046
573.8675815203156,2989
576.1802848594508,3126
578.4923544645015,3032
580.8037905508126,3114
583.114593333807,3135
585.4247630289875,3129
587.7342998519354,3008
590.0432040183106,3169
592.3514757438526,3125
594.6591152443794,3099
596.9661227357875,3116
599.2724984340531,3098
601.578242555231,3095
603.8833553154542,3093
606.1878369309362,2949
608.4916876179676,3015
610.7949075929192,3003
613.0974970722403,2936
615.3994562724587,2972
617.7007854101818,3055
620.0014847020951,3067
622.3015543649641,3060
624.6009946156324,3055
626.8998056710224,3011
629.1979877481361,3040
631.4955410640538,2999
633.7924658359349,2978
636.0887622810175,3073
638.3844306166192,3060
640.6794710601358,3047
642.9738838290426,3164
645.2676691408932,3172
647.5608272133207,3138
649.853358264037,3158
652.1452625108324,3186
654.4365401715764,3209
656.7271914642178,3163
659.0172166067838,3240
661.3066158173809,3130
663.5953893141935,3153
665.8835373154867,3233
668.1710600396028,3115
670.4579577049639,3183
672.7442305300709,3139
675.0298787335033,3171
677.3149025339197,3193
679.599302150058,3163
681.8830778007342,3169
684.1662297048437,3230
686.4487580813608,3182
688.7306631493387,3143
691.0119451279091,3210
693.2926042362834,3163
695.5726406937516,3236
697.8520547196814,3167
700.1308465335215,3189
702.4090163547982,3072
704.6865644031171,3144
706.9634908981619,3258
709.2397960596965,3155
711.5154801075631,3129
713.7905432616823,3198
716.0649857420548,3114
718.3388077687592,3119
720.612009561953,3143
722.8845913418733,3167
725.1565533288352,3179
727.427895743234,3111
729.6986188055427,3100
731.9687227363137,3172
734.238207756178,3170
736.5070740858458,3064
738.7753219461066,3150
741.0429515578281,3219
743.3099631419569,3165
745.5763569195191,3173
747.8421331116193,3106
750.1072919394409,3080
752.3718336242467,3222
754.6357583873777,3113
756.8990664502545,3196
759.1617580343765,3137
761.423833361321,3137
763.6852926527457,3141
765.9461361303862,3287
768.206364016058,3188
770.4659765316536,3147
772.7249738991469,3123
774.9833563405886,3166
777.2411240781092,3191
779.4982773339183,3201
781.7548163303044,3230
784.010741289634,3221
786.2660524343538,3254
788.5207499869881,3211
790.7748341701416,3244
793.0283052064964,3228
795.2811633188143,3184
797.5334087299362,3143
799.7850416627813,3320
802.0360623403484,3218
804.2864709857143,3205
806.5362678220353,3246
808.7854530725468,3292
811.0340269605625,3252
813.2819897094754,3210
815.5293415427581,3169
817.77608268396,3196
820.0222133567116,3269
822.2677337847211,3232
824.5126441917765,3209
826.7569448017433,3203
829.0006358385675,3312
831.2437175262731,3228
833.4861900889629,3218
835.7280537508192,3180
837.9693087361026,3230
840.2099552691533,3248
842.4499935743896,3244
844.689423876309,3262
846.9282463994886,3244
849.1664613685833,3236
851.4040690083276,3227
853.6410695435349,3264
855.877463199097,3277
858.1132501999847,3304
860.3484307712487,3279
862.5830051380175,3296
864.8169735254988,3287
867.0503361589791,3318
869.2830932638243,3205
871.5152450654786,3314
873.7467917894654,3308
875.9777336613873,3396
878.2080709069252,3387
880.4378037518389,3275
882.666932421968,3323
884.8954571432301,3288
887.1233781416219,3332
889.3506956432192,3305
891.5774098741766,3316
893.803521060728,3369
896.0290294291852,3379
898.2539352059397,3414
900.4782386174619,3241
902.7019398903011,3383
904.925039251085,3313
907.147536926521,3400
909.3694331433943,3395
911.59072812857,3351
913.8114221089921,3344
916.0315153116827,3321
918.2510079637437,3299
920.4699002923547,3300
922.6881925247761,3312
924.905884888345,3434
927.1229776104793,3275
929.3394709186747,3276
931.555365040506,3293
933.7706602036275,3405
935.9853566357709,3232
938.1994545647489,3289
940.4129542184515,3375
942.6258558248488,3329
944.8381596119883,3317
947.0498658079974,3454
949.2609746410825,3311
951.4714863395287,3410
953.6814011316998,3303
955.8907192460387,3333
958.0994409110671,3343
960.3075663553858,3334
962.5150958076741,3265
964.7220294966913,3311
966.928367651274,3428
969.1341105003388,3290
971.3392582728806,3291
973.5438111979742,3414
975.747769504772,3279
977.9511334225061,3257
980.153903180487,3268
982.3560790081052,3316
984.5576611348289,3240
986.7586497902058,3093
988.9590452038618,3156
991.158847605503,3228
993.3580572249133,3130
995.5566742919558,3255
997.7546990365728,3135
999.952131688785,3062
1002.1489724786926,3086
1004.3452216364743,3070
1006.5408793923874,3031
1008.7359459767691,3071
1010.9304216200343,3116
1013.1243065526781,2974
1015.3176010052733,3019
1017.510305208472,2852
1019.7024193930064,2951
1021.8939437896848,2992
1024.0848786293977,3011
1026.2752241431122,3069
1028.4649805618747,3058
1030.6541481168115,2990
1032.842727039127,3016
1035.0307175601051,3028
1037.2181199111074,2894
1039.4049343235752,2983
1041.591161029029,3016
1043.7768002590683,2980
1045.9618522453698,3100
1048.1463172196918,2981
1050.3301954138697,2972
1052.513487059818,3032
1054.69619238953,3060
1056.8783116350783,2938
1059.0598450286152,3005
1061.2407928023704,3013
1063.4211551886528,3041
1065.6009324198508,3017
1067.780124728432,2997
1069.9587323469414,2956
1072.1367555080046,3042
1074.314194444325,2933
1076.4910493886855,2945
1078.667320573947,2979
1080.843008233051,2917
1083.0181125990161,2993
1085.1926339049414,2854
1087.3665723840027,2916
1089.5399282694575,2955
1091.7127017946405,2901
1093.8848931929647,2835
1096.0565026979243,2921
1098.2275305430899,2896
1100.3979769621128,2925
1102.567842188722,2980
1104.737126456726,2802
1106.9058300000124,2897
1109.0739530525475,2897
1111.2414958483764,2910
1113.4084586216231,2998
1115.5748416064907,2936
1117.7406450372605,2922
1119.9058691482942,2939
1122.0705141740304,2916
1124.2345803489884,2976
1126.3980679077658,2893
1128.5609770850388,2868
1130.7233081155623,2928
1132.8850612341707,2941
1135.0462366757774,2942
1137.2068346753745,2883
1139.3668554680326,2931
1141.526299288901,2950
1143.68516637321,2902
1145.8434569562655,2902
1148.001171273455,2896
1150.158309560244,2896
1152.3148720521767,2875
1154.470858984876,2863
1156.626270594044,2864
1158.7811071154629,2935
1160.9353687849912,2890
1163.089055838569,2923
1165.242168512213,2866
1167.3947070420209,2923
1169.5466716641677,2850
1171.6980626149075,2865
1173.8488801305748,2854
1175.9991244475814,2874
1178.1487958024186,2798
1180.2978944316555,2787
1182.4464205719428,2853
1184.5943744600072,3001
1186.7417563326567,2866
1188.8885664267755,2922
1191.0348049793297,2901
1193.1804722273619,2913
1195.325568407995,2864
1197.4700937584303,2959
1199.614048515948,2895
1201.7574329179074,3033
1203.900247201746,2866
1206.042491604982,2900
1208.1841663652099,2861
1210.3252717201053,2858
1212.465807907422,2976
1214.6057751649923,2994
1216.7451737307279,2946
1218.8840038426192,2901
1221.0222657387353,2948
1223.1599596572241,2850
1225.2970858363137,3029
1227.4336445143094,2852
1229.5696359295966,2917
1231.705060320639,3017
1233.8399179259786,2920
1235.9742089842384,3024
1238.107933734118,2970
1240.2410924143974,2938
1242.373685263935,2946
1244.5057125216676,3054
1246.6371744266116,3048
1248.7680712178621,2957
1250.898403134593,2977
1253.028170416058,2928
1255.1573733015875,2911
1257.2860120305932,2994
1259.4140868425648,2994
1261.54159797707,3011
1263.6685456737569,2973
1265.7949301723515,3018
1267.9207517126597,3132
1270.046010534565,3076
1272.1707068780306,3026
1274.2948409830983,3023
1276.4184130898889,3066
1278.541423438603,3085
1280.6638722695184,3028
1282.785759822993,3012
1284.9070863394636,3079
1287.0278520594447,3079
1289.1480572235314,3084
1291.2677020723963,3109
1293.3867868467923,3145
1295.5053117875495,3176
1297.623277135579,3181
1299.740683131868,3138
1301.8575300174857,3067
1303.973818033578,3140
1306.0895474213703,3225
1308.2047184221678,3222
1310.3193312773528,3211
1312.4333862283888,3214
1314.5468835168163,3283
1316.659823384255,3233
1318.7722060724045,3249
1320.8840318230418,3264
1322.9953008780249,3191
1325.1060134792888,3122
1327.2161698688478,3234
1329.3257702887959,3240
1331.4348149813054,3289
1333.5433041886276,3188
1335.6512381530933,3167
1337.7586171171101,3290
1339.8654413231675,3221
1341.9717110138317,3150
1344.0774264317488,3223
1346.1825878196432,3166
1348.2871954203192,3241
1350.3912494766587,3189
1352.4947502316231,3223
1354.5976979282532,3176
1356.7000928096686,3139
1358.8019351190665,3136
1360.9032250997243,3183
1363.0039629949988,3221
1365.1041490483235,3116
1367.2037835032133,3175
1369.3028666032606,3118
1371.401398592137,3159
1373.4993797135926,3186
1375.5968102114575,3274
1377.6936903296396,3136
1379.7900203121262,3283
1381.8858004029835,3247
1383.9810308463561,3218
1386.075711886469,3139
1388.1698437676241,3201
1390.2634267342032,3202
1392.356461030667,3201
1394.4489469015557,3233
1396.5408845914872,3236
1398.6322743451592,3365
1400.7231164073469,3335
1402.813411022907,3241
1404.903158436773,3219
1406.9923588939578,3290
1409.0810126395531,3284
1411.1691199187303,3333
1413.2566809767386,3382
1415.343696058907,3371
1417.4301654106425,3329
1419.5160892774315,3410
1421.6014679048399,3343
1423.6863015385125,3449
1425.7705904241707,3419
1427.8543348076178,3392
1429.9375349347342,3400
1432.0201910514802,3512
1434.102303403894,3526
1436.1838722380944,3506
1438.2648978002767,3522
1440.3453803367174,3476
1442.4253200937692,3447
1444.5047173178677,3676
1446.5835722555234,3606
1448.6618851533285,3718
1450.739656257952,3662
1452.8168858161434,3825
1454.8935740747306,3672
1456.96972128062,3718
1459.045327680797,3804
1461.120393522327,3933
1463.1949190523528,3940
1465.2689045180973,3940
1467.3423501668608,4079
1469.415256246024,4057
1471.4876230030463,4134
1473.559450685465,4135
1475.6307395408976,4237
1477.7014898170391,4303
1479.771701761665,4245
1481.8413756226287,4359
1483.9105116478618,4485
1485.9791100853772,4459
1488.0471711832643,4579
1490.1146951896926,4555
1492.1816823529098,4471
1494.2481329212433,4696
1496.3140471430984,4694
1498.3794252669609,4716
1500.4442675413939,4863
1502.5085742150404,4871
1504.572345536622,4862
1506.6355817549388,4977
1508.6982831188702,5093
1510.7604498773744,5151
1512.8220822794883,5119
1514.8831805743293,5214
1516.9437450110909,5139
1519.003775839048,5365
1521.0632733075522,5331
1523.1222376660367,5463
1525.1806691640113,5532
1527.2385680510652,5586
1529.2959345768668,5603
1531.3527689911643,5739
1533.4090715437833,5916
1535.4648424846291,6017
1537.5200820636855,5983
1539.5747905310159,6040
1541.6289681367616,6183
1543.6826151311434,6133
1545.7357317644614,6345
1547.7883182870937,6321
1549.8403749494987,6509
1551.8919020022113,6628
1553.9428996958477,6634
1555.9933682811015,6808
1558.0433080087469,6994
1560.0927191296346,7049
1562.1416018946961,7069
1564.1899565549415,7260
1566.2377833614592,7044
1568.2850825654164,6941
1570.3318544180606,6868
1572.3780991707158,6596
1574.423817074788,6428
1576.4690083817595,6219
1578.5136733431923,5899
1580.5578122107272,5823
1582.601425236085,5437
1584.6445126710646,5236
1586.6870747675434,4885
1588.7291117774776,4928
1590.7706239529034,4754
1592.8116115459347,4439
1594.8520748087658,4293
1596.8920139936686,4311
1598.9314293529933,4216
1600.9703211391711,4042
1603.008689604711,3985
1605.0465350022005,3910
1607.0838575843068,3765
1609.1206576037753,3691
1611.1569353134305,3743
1613.1926909661765,3652
1615.2279248149953,3553
1617.2626371129481,3531
1619.2968281131757,3491
1621.3304980688963,3528
1623.3636472334088,3533
1625.39627586009,3417
1627.428384202396,3327
1629.459972513861,3368
1631.4910410480993,3434
1633.5215900588028,3292
1635.551619799744,3308
1637.5811305247717,3272
1639.6101224878166,3243
1641.6385959428862,3346
1643.6665511440683,3204
1645.693988345528,3197
1647.7209078015112,3310
1649.7473097663405,3251
1651.7731944944203,3204
1653.7985622402307,3093
1655.823413258333,3165
1657.847747803366,3193
1659.8715661300494,3143
1661.8948684931793,3132
1663.9176551476316,3135
1665.9399263483624,3116
1667.9616823504057,3200
1669.982923408873,3108
1672.0036497789574,3179
1674.0238617159293,3093
1676.043559475138,3072
1678.0627433120121,3041
1680.081413482059,3047
1682.0995702408654,3073
1684.117213844096,3065
1686.134344547495,3154
1688.1509626068864,3108
1690.1670682781705,3119
1692.182661817329,3095
1694.1977434804217,3183
1696.2123135235875,3012
1698.226372203043,3099
1700.2399197750851,3116
1702.2529564960905,3104
1704.2654826225112,3094
1706.277498410882,3123
1708.2890041178139,3157
1710.2999999999988,3105
1712.3104863142066,3125
1714.3204633172854,3129
1716.329931266163,3155
1718.3388904178469,3013
1720.3473410294214,3012
1722.3552833580516,3117
1724.3627176609807,3062
1726.3696441955308,3114
1728.3760632191033,3040
1730.3819749891782,3099
1732.3873797633146,3035
1734.3922777991502,3050
1736.3966693544012,3068
1738.4005546868639,3065
1740.4039340544127,3049
1742.406807715001,3083
1744.4091759266616,2919
1746.4110389475054,2980
1748.4123970357223,2974
1750.413250449582,3078
1752.4135994474318,2933
1754.4134442876993,3011
1756.4127852288902,3038
1758.4116225295893,3013
1760.4099564484595,2979
1762.407787244244,2940
1764.405115175764,2961
1766.4019405019203,3002
1768.3982634816916,3033
1770.3940843741357,2852
1772.3894034383907,2932
1774.3842209336717,2940
1776.378537119274,2925
1778.372352254571,2957
1780.3656665990156,2964
1782.3584804121397,2885
1784.3507939535534,2979
1786.3426074829463,2908
1788.3339212600863,2852
1790.3247355448211,2927
1792.3150505970766,2984
1794.3048666768573,3006
1796.2941840442477,2948
1798.2830029594106,2995
1800.2713236825884,2893
1802.2591464741004,2891
1804.2464715943465,3078
1806.2332993038058,2846
1808.2196298630352,2856
1810.2054635326708,2962
1812.190800573428,2941
1814.175641246101,2918
1816.1599858115628,2960
1818.1438345307652,2986
1820.127187664738,3005
1822.1100454745924,2864
1824.092408221516,2901
1826.0742761667766,2922
1828.055649571721,2933
1830.0365286977735,2902
1832.0169138064398,2855
1833.9968051593014,2902
1835.9762030180214,2878
1837.9551076443408,2886
1839.9335193000788,2884
1841.9114382471344,2879
1843.888864747485,2968
1845.8657990631878,2911
1847.842241456378,3006
1849.8181921892697,2831
1851.7936515241558,2920
1853.7686197234098,2839
1855.7430970494815,2894
1857.7170837649014,2924
1859.6905801322787,2838
1861.6635864143004,2917
1863.6361028737338,2865
1865.608129773424,3002
1867.5796673762961,3021
1869.5507159453537,2956
1871.521275743678,2935
1873.4913470344313,2915
1875.4609300808534,2940
1877.4300251462632,2923
1879.3986324940588,2916
1881.366752387717,2896
1883.3343850907936,2878
1885.3015308669228,3017
1887.268189979819,2998
1889.2343626932739,2973
1891.2000492711595,3017
1893.1652499774254,2941
1895.1299650761011,3021
1897.0941948312952,2964
1899.0579395071945,2934
1901.0211993680641,2960
1902.98397467825,2928
1904.9462657021745,3014
1906.9080727043415,2990
1908.869395949332,3031
1910.8302357018065,2944
1912.790592226504,2961
1914.7504657882428,2859
1916.7098566519212,2936
1918.6687650825133,2931
1920.6271913450764,2900
1922.5851357047422,2876
1924.5425984267245,2951
1926.499579776314,3029
1928.4560800188833,2896
1930.4120994198802,2865
1932.367638244833,2972
1934.32269675935,2881
1936.2772752291175,3000
1938.231373919899,3007
1940.1849930975404,2922
1942.1381330279637,2901
1944.0907939771696,2857
1946.0429762112412,2959
1947.9946799963363,2947
1949.9459055986945,2956
1951.896653284633,2890
1953.8469233205478,2977
1955.7967159729142,2991
1957.7460315082863,2938
1959.6948701932974,2927
1961.6432322946594,2924
1963.5911180791632,2920
1965.5385278136787,2922
1967.4854617651545,2978
1969.4319202006182,2935
1971.377903387176,2926
1973.3234115920136,2947
1975.268445082395,2931
1977.2130041256642,2920
1979.1570889892423,2952
1981.1006999406304,2940
1983.04383724741,2926
1984.986501177238,2934
1986.928691997853,3033
1988.8704099770712,2866
1990.811655382789,2933
1992.7524284829801,2918
1994.692729545698,2876
1996.6325588390755,2841
1998.5719166313224,2857
2000.5108031907307,2923
2002.4492187856677,2872
2004.387163684583,2894
2006.3246381560011,2882
2008.2616424685298,2864
2010.1981768908527,2893
2012.1342416917332,2853
2014.069837140014,2859
2016.0049635046162,2880
2017.9396210545406,2857
2019.8738100588666,2885
2021.8075307867502,2904
2023.740783507431,2901
2025.6735684902228,2838
2027.6058860045214,2898
2029.5377363198004,2855
2031.4691197056118,2904
2033.4000364315875,2922
2035.3304867674374,2948
2037.260470982952,2841
2039.189989347998,2913
2041.1190421325232,2852
2043.047629606554,2869
2044.9757520401945,2875
2046.9034097036288,2862
2048.8306028671195,2834
2050.7573318010086,2864
2052.683596775716,2944
2054.609398061742,2858
2056.5347359296647,2876
2058.4596106501403,2818
2060.384022493906,2787
2062.3079717317764,2835
2064.231458634646,2830
2066.1544834734873,2856
2068.077046519352,2835
2069.99914804337,2884
2071.9207883167524,2884
2073.8419676107865,2922
2075.7626861968406,2858
2077.6829443463607,2931
2079.6027423308715,2855
2081.522080421977,2939
2083.440958891362,2924
2085.359378010786,2914
2087.2773380520907,2910
2089.194839287196,2889
2091.111881988101,2899
2093.0284664268825,2822
2094.9445928756973,2822
2096.86026160678,2868
2098.775472892446,2807
2100.690227005088,2777
2102.604524217178,2836
2104.5183648012676,2883
2106.431749029985,2930
2108.34467717604,2838
2110.2571495122206,2930
2112.169166311393,2782
2114.080727846503,2858
2115.9918343905747,2828
2117.902486216711,2916
2119.8126835980956,2856
2121.722426807987,2788
2123.6317161197285,2860
2125.5405518067364,2871
2127.448934142509,2833
2129.356863400624,2849
2131.264339854737,2899
2133.1713637785815,2907
2135.077935445972,2925
2136.9840551308002,2872
2138.889723107037,2955
2140.7949396487334,2925
2142.699705030018,2952
2144.6040195250994,2850
2146.507883408264,2868
2148.4112969538774,2898
2150.3142604363848,2970
2152.2167741303097,2937
2154.1188383102535,2913
2156.0204532508997,3001
2157.9216192270064,2993
2159.822336513414,2994
2161.7226053850413,2834
2163.622426116884,2917
2165.5217989840185,2854
2167.4207242616,2891
2169.319202224862,2987
2171.2172331491165,2954
2173.1148173097563,2905
2175.0119549822507,3006
2176.90864644215,2923
2178.8048919650823,3003
2180.7006918267534,2900
2182.596046302952,2927
2184.4909556695407,2987
2186.3854202024645,2908
2188.279440177746,2955
2190.173015871487,2985
2192.066147559868,2946
2193.958835519149,3002
2195.851080025667,2937
2197.7428813558417,2970
2199.6342397861667,2994
2201.5251555932186,2985
2203.415629053651,2943
2205.3056604441986,3011
2207.19525004167,2938
2209.084398122958,2938
2210.9731049650327,3037
2212.861370844941,2983
2214.749196039812,3011
2216.636580826851,2990
2218.523525483344,3170
2220.410030286655,3030
2222.296095514226,3020
2224.1817214435805,3018
2226.066908352319,3070
2227.951656518121,2891
2229.835966218746,2921
2231.71983773203,3111
2233.6032713358913,3025
2235.486267308324,3029
2237.3688259274036,3027
2239.2509474712824,3004
2241.132632218193,3024
2243.013880446447,3129
2244.8946924344323,3012
2246.7750684606203,3068
2248.6550088035574,2899
2250.534513741871,2994
2252.413583554265,3061
2254.292218519526,2961
2256.170418916517,2998
2258.0481850241786,2910
2259.925517121534,2919
2261.8024154876825,2939
2263.678880401803,2970
2265.5549121431536,3029
2267.430510991071,2995
2269.305677224971,2967
2271.180411124348,3020
2273.0547129687766,2978
2274.9285830379076,3022
2276.8020216114737,2948
2278.6750289692845,2938
2280.5476053912294,2928
2282.4197511572766,3003
2284.2914665474727,3091
2286.162751841943,2995
2288.0336073208937,2991
2289.904033264608,3085
2291.774029953448,3056
2293.6435976678554,2995
2295.5127366883517,2940
2297.381447295534,2898
2299.2497297700825,2973
2301.1175843927526,2891
2302.9850114443825,2805
2304.852011205885,2941
2306.7185839582553,2841
2308.5847299825664,2848
2310.4504495599676,2793
2312.3157429716925,2789
2314.1806104990483,2790
2316.0450524234247,2840
2317.9090690262888,2880
2319.772660589186,2813
2321.635827393742,2835
2323.498569721661,2891
2325.3608878547248,3002
2327.2227820747967,2833
2329.0842526638157,2793
2330.945299903803,2789
2332.805924076857,2813
2334.6661254651535,2848
2336.525904350951,2858
2338.3852610165827,2860
2340.244195744464,2817
2342.102708817088,2835
2343.9608005170253,2840
2345.8184711269287,2923
2347.675720929526,2885
2349.532550207628,2874
2351.38895924412,2826
2353.24494832197,2864
2355.100517724223,2851
2356.955667734004,2831
2358.810398634514,2830
2360.664710709037,2825
2362.5186042409337,2909
2364.3720795136437,2902
2366.225136810686,2821
2368.0777764156583,2795
2369.929998612237,2902
2371.7818036841777,2916
2373.633191915315,2864
2375.484163589562,2883
2377.3347189909114,2817
2379.184858403434,2908
2381.03458211128,2922
2382.8838903986775,2808
2384.732783549936,2931
2386.5812618494406,2905
2388.4293255816588,2797
2390.2769750311327,2846
2392.1242104824883,2877
2393.971032220427,2939
2395.8174405297295,2914
2397.6634356952563,2892
2399.509018001947,2882
2401.3541877348193,2848
2403.1989451789705,2894
2405.043290619576,2848
2406.8872243418905,2851
2408.730746631247,2938
2410.5738577730594,2898
2412.4165580528183,2883
2414.258847756095,2802
2416.100727168537,2879
2417.9421965758734,2937
2419.783256263912,2786
2421.623906518538,2843
2423.4641476257157,2814
2425.303979871491,2915
2427.143403541984,2878
2428.9824189233977,2913
2430.821026302012,3009
2432.6592259641866,2869
2434.497018196361,2910
2436.33440328505,2908
2438.171381516851,2787
2440.00795317844,2861
2441.844118556569,2787
2443.6798779380724,2884
2445.5152316098606,2929
2447.3501798589255,2950
2449.1847229723357,2822
2451.0188612372403,2942
2452.8525949408663,2910
2454.6859243705203,2986
2456.518849813587,2921
2458.3513715575314,2897
2460.183489889895,2969
2462.015205098301,2917
2463.8465174704493,2887
2465.67742729412,3034
2467.5079348571717,2914
2469.338040447542,2979
2471.1677443532476,2940
2472.9970468623833,3025
2474.825948263123,2915
2476.6544488437207,2995
2478.482548892508,3024
2480.310248697896,2939
2482.137548548374,2965
2483.9644487325118,2882
2485.790949538956,2998
2487.617051256433,2961
2489.44275417375,2958
2491.26805857979,2990
2493.0929647635157,2918
2494.917473013971,2972
2496.741583620276,3016
2498.5652968716304,2936
2500.3886130573137,2943
2502.2115324666834,2989
2504.0340553891765,3104
2505.856182114308,2911
2507.6779129316733,3072
2509.499248130945,2994
2511.3201880018764,2958
2513.140732834298,3026
2514.9608829181198,3019
2516.780638543331,3059
2518.6,2983
2520.418967578273,2969
2522.237541568376,2994
2524.0557222606144,3038
2525.8735099453706,3064
2527.6909049131086,3083
2529.507907454368,3034
2531.32451785977,3129
2533.140736420014,2990
2534.9565634258774,2992
2536.771999168218,3123
2538.5870439379714,3044
2540.4016980261526,3096
2542.2159617238544,3176
2544.02983532225,3111
2545.8433191125914,3205
2547.656413386209,3149
2549.4691184345115,3121
2551.2814345489874,3103
2553.093362021204,3132
2554.904901142808,3225
2556.716052205523,3191
2558.526815501153,3179
2560.3371913215824,3218
2562.147179958771,3229
2563.956781704761,3264
2565.7659968516705,3221
2567.5748256916986,3157
2569.3832685171224,3206
2571.1913256202984,3375
2572.9989972936614,3243
2574.806283829725,3332
2576.613185521084,3348
2578.4197026604074,3346
2580.2258355404483,3316
2582.031584454035,3456
2583.836949694077,3289
2585.6419315535613,3303
2587.4465303255533,3305
2589.2507463032002,3452
2591.0545797797245,3349
2592.8580310484303,3512
2594.6611004026995,3475
2596.463788135992,3376
2598.266094541849,3462
2600.0680199138874,3394
2601.869564545807,3465
2603.670728731383,3486
2605.4715127644704,3519
2607.2719169390048,3611
2609.071941548998,3561
2610.8715868885433,3511
2612.670853251811,3463
2614.469740933052,3513
2616.268250226594,3462
2618.0663814268455,3525
2619.864134828292,3494
2621.6615107255006,3537
2623.458509413115,3443
2625.2551311858597,3535
2627.0513763385347,3448
2628.8472451660223,3433
2630.6427379632833,3471
2632.4378550253564,3425
2634.232596647359,3330
2636.026963124488,3332
2637.8209547520187,3350
2639.6145718253065,3309
2641.407814639785,3307
2643.200683490966,3380
2644.9931786744414,3278
2646.7853004858807,3277
2648.577049221034,3236
2650.3684251757277,3125
2652.1594286458712,3375
2653.9500599274484,3232
2655.740319316525,3165
2657.5302071092437,3182
2659.3197236018286,3242
2661.10886909058,3134
2662.8976438718782,3119
2664.686048242183,3117
2666.4740824980327,3240
2668.2617469360443,3154
2670.0490418529134,3088
2671.8359675454153,3031
2673.622524310403,3051
2675.408712444811,2972
2677.1945322456495,2972
2678.979984010009,3099
2680.76506803506,3021
2682.5497846180497,3049
2684.334134056306,2994
2686.1181166472343,3140
2687.9017326883213,3056
2689.6849824771293,3020
2691.4678663113013,2872
2693.2503844885596,2997
2695.032537306705,3006
2696.8143250636167,3020
2698.5957480572542,2967
2700.3768065856534,2894
2702.1575009469316,3019
2703.937831439283,2983
2705.717798360982,2923
2707.4974020103837,2950
2709.276642685917,2911
2711.055520686095,2921
2712.834036309506,2930
2714.612189854819,2945
2716.389981620782,2869
2718.1674119062204,2965
2719.944481010041,2954
2721.721189231226,3008
2723.4975368688415,2955
2725.273524222027,2894
2727.0491515900053,2837
2728.824419272075,2916
2730.5993275676146,2840
2732.3738767760838,2901
2734.148067197016,2936
2735.921899130031,2908
2737.6953728748194,2855
2739.468488731156,2865
2741.2412469988926,2819
2743.0136479779617,2919
2744.785691968372,2898
2746.5573792702116,2898
2748.3287101836504,2868
2750.099685008934,2864
2751.870304046388,2852
2753.640567596418,2830
2755.4104759595057,2868
2757.1800294362156,2881
2758.949228327187,2876
2760.7180729331412,2856
2762.486563554877,2843
2764.254700493272,2827
2766.022484049284,2797
2767.789914523947,2832
2769.5569922183786,2875
2771.3237174337705,2858
2773.090090471394,2815
2774.8561116326036,2892
2776.6217812188274,2816
2778.3870995315756,2845
2780.1520668724356,2945
2781.9166835430747,2898
2783.6809498452394,2829
2785.444866080754,2869
2787.2084325515225,2850
2788.971649559527,2797
2790.73451740683,2770
2792.4970363955713,2930
2794.2592068279705,2930
2796.0210290063264,2705
2797.7825032330147,2898
2799.543629810493,2957
2801.304409041296,2915
2803.0648412280366,2776
2804.8249266734088,2856
2806.5846656801846,2928
2808.344058551212,2867
2810.1031055894246,2867
2811.8618070978273,2902
2813.6201633795085,2895
2815.378174737636,2864
2817.1358414754536,2893
2818.893163896285,2925
2820.6501423035334,2803
2822.4067770006814,2821
2824.1630682912883,2799
2825.9190164789957,2853
2827.6746218675207,2877
2829.429884760661,2819
2831.184805462294,2935
2832.9393842763743,2921
2834.693621506936,2831
2836.4475174580916,2903
2838.201072434034,2831
2839.954286739034,2854
2841.707160677441,2871
2843.459694553685,2854
2845.2118886722724,2882
2846.96374333779,2913
2848.7152588549034,2933
2850.4664355283567,2876
2852.217273662973,2811
2853.9677735636546,2846
2855.7179355353833,2856
2857.4677598832186,2853
2859.217246912299,2815
2860.9663969278427,2899
2862.715210235146,2871
2864.4636871395846,2888
2866.211827946614,2853
2867.9596329617652,2926
2869.7071024906536,2917
2871.4542368389684,2859
2873.20103631248,2780
2874.947501217038,2819
2876.6936318585695,2839
2878.4394285430812,2849
2880.1848915766604,2824
2881.9300212654707,2780
2883.6748179157553,2925
2885.4192818338374,2846
2887.1634133261173,2775
2888.907212699077,2827
2890.6506802592744,2894
2892.393816313348,2921
2894.1366211680142,2932
2895.8790951300693,2936
2897.621238506388,2772
2899.363051603925,2870
2901.1045347297118,2908
2902.8456881908596,2826
2904.58651229456,2852
2906.327007348081,2912
2908.067173658772,2884
2909.8070115340597,2842
2911.5465212814497,2846
2913.285703208527,2845
2915.0245576229563,2900
2916.7630848324807,2793
2918.5012851449196,2788
2920.2391588681758,2920
2921.976706310227,2810
2923.7139277791334,2830
2925.4508235830313,2796
2927.187394030137,2801
2928.923639428745,2816
2930.6595600872306,2868
2932.395156314046,2867
2934.1304284177218,2816
2935.8653767068713,2864
2937.6000014901815,2931
2939.3343030764227,2917
2941.068281774442,2924
2942.8019378931644,2834
2944.5352717415976,2790
2946.2682836288236,2859
2948.0009738640065,2925
2949.7333427563885,2850
2951.465390615289,2864
2953.1971177501086,2932
2954.9285244703265,2935
2956.6596110855,2775
2958.3903779052657,2813
2960.1208252393385,2847
2961.8509533975125,2860
2963.5807626896617,2866
2965.3102534257378,2923
2967.0394259157715,2888
2968.768280469873,2977
2970.496817398232,2792
2972.2250370111146,2806
2973.952939618869,2864
2975.6805255319196,2884
2977.4077950607707,2932
2979.134748516006,2817
2980.861386208289,2845
2982.587708448359,2856
2984.313715547037,2881
2986.039407815222,2816
2987.764785563891,2795
2989.489849104102,2873
2991.2145987469908,2823
2992.9390348037705,2880
2994.6631575857346,2907
2996.3869674042576,2861
2998.1104645707887,2818
2999.83364939686,2836
3001.5565221940783,2881
3003.2790832741334,2877
3005.0013329487924,2808
3006.7232715298996,2893
3008.4448993293804,2879
3010.166216659239,2891
3011.887223831558,2890
3013.607921158498,2805
3015.3283089522993,2847
3017.0483875252826,2875
3018.7681571898443,2849
3020.4876182584626,2871
3022.2067710436927,2857
3023.9256158581707,2830
3025.644153014609,2880
3027.362382825801,2869
3029.0803056046193,2881
3030.797921664012,2901
3032.5152313170106,2905
3034.2322348767225,2875
3035.9489326563353,2947
3037.665324969115,2920
3039.3814121284063,2917
3041.097194447633,2888
3042.812672240299,2846
3044.5278458199855,2886
3046.2427155003525,2734
3047.9572815951406,2833
3049.671544418167,2936
3051.38550428333,2873
3053.0991615046073,2857
3054.812516396051,2856
3056.5255692717974,2822
3058.2383204460575,2939
3059.9507702331257,2894
3061.662918947372,2818
3063.3747669032446,2862
3065.0863144152736,2863
3066.7975617980674,2900
3068.508509366309,2996
3070.219157434767,2875
3071.9295063182844,2899
3073.639556331785,2870
3075.3493077902704,2888
3077.058761008821,2868
3078.7679163025964,2855
3080.476773986837,2892
3082.1853343768594,2941
3083.89359778806,2942
3085.6015645359153,2968
3087.3092349359786,2891
3089.016609303884,2857
3090.7236879553434,2935
3092.4304712061476,2894
3094.136959372166,2900
3095.843152769349,2911
3097.5490517137237,2864
3099.2546565213966,2938
3100.959967508554,2841
3102.66498499146,2872
3104.3697092864577,2857
3106.0741407099695,2909
3107.778279578498,2824
3109.482126208622,2849
3111.1856809170004,2961
3112.8889440203716,2881
3114.5919158355528,2867
3116.294596679439,2896
3117.996986869006,3013
3119.6990867213062,2909
3121.4008965534726,3026
3123.102416682717,2932
3124.803647426329,2921
3126.5045891016784,3016
3128.205242026213,2961
3129.90560651746,3014
3131.605682893025,2895
3133.3054714705922,2977
3135.0049725679282,2966
3136.7041865028714,2914
3138.4031135933465,2945
3140.101754157353,2963
3141.800108512971,2945
3143.498176978357,2918
3145.1959598717494,2923
3146.8934575114636,2861
3148.5906702158954,2916
3150.2875983035183,2901
3151.9842420928853,2842
3153.680601902627,2833
3155.376678051456,2820
3157.07247085816,2897
3158.767980641609,2886
3160.463207720748,2857
3162.158152414606,2927
3163.8528150422862,2889
3165.5471959229726,2873
3167.2412953759303,2906
3168.9351137204976,2864
3170.628651276098,2889
3172.3219083622307,3036
3174.014885298474,2936
3175.707582404485,2929
3177.4000000000005,2982
3179.092138404835,2997
3180.7839979388846,2915
3182.47557892212,2913
3184.166881674594,2883
3185.8579065164386,2852
3187.5486537678626,2909
3189.2391237491547,2896
3190.9293167806827,2828
3192.6192331828934,2929
3194.3088732763117,2865
3195.998237381542,2879
3197.687325819268,2919
3199.376138910251,2866
3201.064676975334,2973
3202.7529403354347,2900
3204.4409293115523,2768
3206.1286442247647,2850
3207.816085396229,2901
3209.5032531471825,2852
3211.190147798936,2878
3212.8767696728846,2864
3214.5631190905015,2940
3216.2491963733373,2854
3217.9350018430214,2839
3219.6205358212637,2757
3221.305798629851,2878
3222.990790590651,2778
3224.6755120256103,2746
3226.359963256751,2806
3228.0441446061795,2753
3229.7280563960758,2897
3231.411698948703,2883
3233.0950725863995,2854
3234.778177631587,2867
3236.461014406761,2861
3238.1435832345005,2918
3239.8258844374595,2827
3241.507918338374,2816
3243.1896852600576,2894
3244.8711855254023,2856
3246.552419457381,2895
3248.233387379042,2998
3249.914089613516,2885
3251.59452648401,2836
3253.274698313813,2765
3254.95460542629,2927
3256.6342481448855,2824
3258.313626793125,2733
3259.9927416946084,2777
3261.6715931730196,2783
3263.3501815521176,2801
3265.0285071557437,2848
3266.706570307815,2788
3268.3843713323286,2834
3270.0619105533615,2840
3271.739188295068,2900
3273.4162048816834,2827
3275.0929606375184,2914
3276.769455886966,2884
3278.445690954498,2952
3280.1216661646613,2950
3281.797381842087,2885
3283.4728383114807,3033
3285.1480358976296,2874
3286.8229749253996,2884
3288.4976557197333,2839
3290.172078605655,2851
3291.846243908266,2940
3293.5201519527463,2826
3295.193803064357,2875
3296.8671975684374,2764
3298.5403357904024,2852
3300.21321805575,2826
3301.8858446900567,2830
3303.558216018975,2981
3305.23033236824,2906
3306.9021940636603,2901
3308.57380143113,2952
3310.2451547966184,2859
3311.916254486174,2806
3313.5871008259246,2842
3315.2576941420766,2873
3316.9280347609147,2927
3318.5981230088046,2879
3320.2679592121895,2850
3321.9375436975924,2766
3323.606876791612,2859
3325.27595882093,2766
3326.944790112305,2855
3328.6133709925753,2752
3330.2817017886573,2815
3331.949782827547,2785
3333.617614436319,2879
3335.2851969421245,2847
3336.952530672199,2927
3338.619615953853,2936
3340.286453114475,2921
3341.9530424815357,2891
3343.619384382583,2968
3345.2854791452437,2966
3346.951327097224,2852
3348.6169285663073,2937
3350.2822838803577,2903
3351.947393367319,2909
3353.61225735521,2875
3355.2768761721345,2931
3356.9412501462693,2913
3358.605379605873,2888
3360.2692648792827,2868
3361.9329062949146,2792
3363.596304181263,2852
