CollectionTime,9/20/2024 12:29:34 PM
ExposureUsed,3
CalibratedSpectrum
-962.7078968117929,736
-959.9714848408522,792
-957.2358232597828,840
-954.5009119013725,806
-951.7667505983302,811
-949.0333391832855,855
-946.3006774887896,860
-943.5687653473143,875
-940.837602591253,849
-938.1071890529199,879
-935.3775245645503,854
-932.6486089583007,864
-929.9204420662485,864
-927.1930237203925,846
-924.4663537526524,877
-921.7404319948689,879
-919.0152582788041,855
-916.2908324361409,873
-913.5671542984834,851
-910.8442236973568,836
-908.1220404642074,815
-905.4006044304027,867
-902.679915427231,864
-899.959973285902,839
-897.2407778375464,834
-894.5223289132158,840
-891.8046263438832,802
-889.0876699604426,842
-886.3714595937089,836
-883.6559950744183,836
-880.9412762332282,886
-878.2273029007168,863
-875.5140749073835,805
-872.8015920836489,782
-870.0898542598545,806
-867.3788612662631,775
-864.6686129330585,796
-861.9591090903457,811
-859.2503495681506,790
-856.5423341964203,792
-853.8350628050229,802
-851.1285352237478,804
-848.4227512823054,772
-845.7177108103272,790
-843.0134136373656,840
-840.3098595928943,800
-837.6070485063082,809
-834.9049802069229,809
-832.2036545239757,805
-829.5030712866244,834
-826.8032303239481,821
-824.1041314649472,818
-821.4057745385428,826
-818.7081593735775,831
-816.0112857988148,833
-813.3151536429393,815
-810.6197627345566,828
-807.9251129021936,812
-805.2312039742981,790
-802.5380357792392,844
-799.8456081453069,801
-797.1539209007124,823
-794.462973873588,837
-791.772766891987,862
-789.083299783884,865
-786.3945723771743,853
-783.7065844996748,831
-781.0193359791231,793
-778.3328266431781,807
-775.6470563194197,839
-772.9620248353489,814
-770.2777320183878,781
-767.5941776958798,814
-764.9113616950891,829
-762.2292838432011,821
-759.5479439673222,791
-756.8673418944801,834
-754.1874774516235,867
-751.5083504656222,877
-748.8299607632671,835
-746.15230817127,856
-743.475392516264,888
-740.7992136248035,854
-738.1237713233636,853
-735.4490654383407,857
-732.7750957960521,830
-730.1018622227365,903
-727.4293645445534,906
-724.7576025875837,877
-722.0865761778291,832
-719.4162851412126,847
-716.7467293035781,919
-714.0779084906909,891
-711.409822528237,906
-708.7424712418238,924
-706.0758544569796,896
-703.4099719991541,940
-700.7448236937178,951
-698.0804093659622,895
-695.4167288411002,908
-692.7537819442656,945
-690.0915685005134,907
-687.4300883348199,926
-684.7693412720819,922
-682.1093271371178,910
-679.4500457546669,912
-676.7914969493897,946
-674.1336805458676,884
-671.4765963686034,944
-668.8202442420206,911
-666.1646239904642,932
-663.5097354382001,931
-660.8555784094151,940
-658.2021527282176,922
-655.5494582186366,908
-652.8974947046223,928
-650.2462620100463,963
-647.5957599587009,918
-644.9459883742998,994
-642.2969470804776,1007
-639.6486359007902,1004
-637.0010546587141,986
-634.3542031776476,1031
-631.7080812809096,989
-629.0626887917401,999
-626.4180255333008,946
-623.7740913286734,944
-621.1308860008619,984
-618.4884093727904,965
-615.8466612673046,976
-613.2056415071715,911
-610.5653499150785,965
-607.9257863136347,1010
-605.28695052537,964
-602.6488423727357,1004
-600.0114616781036,1016
-597.3748082637674,993
-594.7388819519412,968
-592.1036825647604,1008
-589.4692099242818,1010
-586.8354638524829,968
-584.2024441712624,994
-581.5701507024403,981
-578.9385832677575,1087
-576.3077416888759,1056
-573.6776257873787,1028
-571.0482353847704,1013
-568.4195703024757,1053
-565.7916303618415,987
-563.164415384135,1013
-560.5379251905453,1008
-557.9121596021815,1056
-555.2871184400748,989
-552.6628015251767,1047
-550.0392086783606,1092
-547.4163397204204,1043
-544.794194472071,1067
-542.1727727539491,1087
-539.5520743866118,1111
-536.9320991905377,1102
-534.3128469861261,1132
-531.6943175936979,1152
-529.0765108334947,1173
-526.4594265256793,1191
-523.8430644903358,1462
-521.2274245474689,1595
-518.612506517005,1667
-515.9983102187913,1578
-513.3848354725959,1621
-510.77208209810846,1691
-508.16004991493924,1809
-505.5487387426199,1849
-502.9381484006032,2027
-500.3282787082628,2080
-497.71912948489364,2004
-495.1107005497117,1946
-492.5029917218539,1801
-489.8960028203786,1666
-487.28973366426493,1501
-484.68418407241325,1360
-482.07935386364494,1376
-479.47524285670266,1242
-476.87185087025,1288
-474.2691777228715,1303
-471.66722323307334,1302
-469.0659872192821,1273
-466.4654694998459,1295
-463.86566989303384,1241
-461.26658821703614,1164
-458.66822428996414,1221
-456.07057792985,1244
-453.4736489546475,1291
-450.877437182231,1261
-448.28194243039627,1240
-445.68716451686,1245
-443.09310325926003,1168
-440.49975847515555,1171
-437.9071299820263,1227
-435.31521759727354,1229
-432.72402113821954,1258
-430.13354042210767,1208
-427.5437752661022,1165
-424.95472548728867,1264
-422.36639090267386,1248
-419.7787713291855,1291
-417.1918665836721,1301
-414.60567648290385,1306
-412.0202008435715,1367
-409.4354394822874,1313
-406.8513922155845,1297
-404.26805885991723,1298
-401.685439231661,1259
-399.103533147112,1324
-396.522340422488,1325
-393.9418608739278,1352
-391.3620943174908,1253
-388.7830405691583,1240
-386.2046994448317,1229
-383.6270707603344,1152
-381.05015433141045,1118
-378.473949973725,1044
-375.8984575028645,946
-373.32367673433623,917
-370.74960748356875,925
-368.1762495659117,781
-365.60360279663576,733
-363.03166699093265,721
-360.4604419639154,634
-357.8899275306178,598
-355.32012350599507,593
-352.7510297049233,580
-350.1826459421999,582
-347.61497203254316,563
-345.04800779059235,571
-342.4817530309082,563
-339.91620756797226,568
-337.35137121618743,566
-334.7872437898774,533
-332.22382510328725,523
-329.66111497058273,537
-327.09911320585127,558
-324.53781962310075,558
-321.9772340362607,562
-319.4173562591816,552
-316.8581861056348,552
-314.2997233893127,575
-311.7419679238294,593
-309.1849195227194,583
-306.62857799943856,622
-304.0729431673641,586
-301.51801483979375,628
-298.963792829947,610
-296.41027695096386,556
-293.85746701590574,623
-291.3053628377552,631
-288.7539642294155,620
-286.2032710037115,638
-283.65328297338897,672
-281.1039999511146,670
-278.5554217494762,663
-276.007548180983,733
-273.4603790580651,732
-270.9139141930734,707
-268.3681533982807,730
-265.8230964858798,766
-263.27874326798565,768
-260.7350935566336,687
-258.1921471637804,715
-255.6499039013039,859
-253.10836358100266,877
-250.56752601459698,784
-248.02739101372765,886
-245.48795838995704,867
-242.94922795476816,799
-240.41119951956557,887
-237.8738728956746,856
-235.33724789434166,823
-232.80132432673452,776
-230.2661020039418,741
-227.73158073697357,824
-225.19776033676033,840
-222.66464061415422,991
-220.1322213799284,884
-217.60050244477725,836
-215.06948361931552,833
-212.53916471408013,1053
-210.00954553952818,1095
-207.48062590603843,958
-204.9524056239104,860
-202.4248845033651,911
-199.8980623545441,903
-197.37193898751036,1013
-194.84651421224817,916
-192.32178783866232,904
-189.79775967657952,962
-187.27442953574644,1031
-184.7517972258321,1054
-182.2298625564256,880
-179.7086253370378,872
-177.18808537710026,900
-174.66824248596583,1002
-172.14909647290835,1063
-169.6306471471229,1070
-167.11289431772548,1082
-164.59583779375328,1030
-162.07947738416453,1195
-159.5638128978386,1499
-157.04884414357605,1586
-154.53457093009854,1732
-152.02099306604828,1249
-149.50811035998936,1083
-146.99592262040665,1387
-144.48442965570587,1412
-141.97363127421409,1577
-139.46352728417958,1788
-136.95411749377126,1706
-134.44540171107985,1507
-131.93737974411636,1429
-129.43005140081357,1395
-126.92341648902493,1725
-124.41747481652521,1859
-121.91222619101006,2336
-119.40767042009657,2576
-116.90380731132257,2744
-114.40063667214702,2843
-111.8981583099503,3398
-109.3963720320337,4721
-106.89527764561933,7397
-104.39487495785067,8628
-101.89516377579241,11860
-99.39614390642998,17973
-96.89781515667039,24983
-94.40017733334128,28164
-91.90323024319173,23189
-89.40697369289148,17209
-86.91140748903172,12181
-84.41653143812482,8060
-81.92234534660395,10114
-79.42884902082358,13606
-76.93604226705907,15585
-74.4439248915071,15133
-71.95249670028534,12917
-69.46175749943245,8847
-66.97170709490854,5876
-64.48234529259423,5023
-61.99367189829195,7092
-59.50568671772464,8300
-57.01838955653636,10132
-54.53178022029283,10402
-52.045858514480074,12899
-49.560624244506016,15768
-47.07607721569923,16624
-44.59221723330904,16416
-42.10904410250669,18868
-39.62655762838392,20657
-37.14475761595372,22517
-34.66364387015028,24580
-32.18321619582866,31071
-29.70347439776515,31220
-27.224418280657005,31025
-24.74604764912317,40615
-22.26836230770266,57339
-19.7913620608565,65036
-17.315046712966478,65036
-14.83941606833514,65036
-12.36446993118659,65036
-9.89020810566592,65036
-7.416630395839093,65036
-4.94373660569363,65036
-2.471526539137585,65036
-6.821210263296962E-13,65036
2.47084320796705,65036
4.941003281093458,65036
7.410480415786196,65036
9.879274808531363,65036
12.347386655893956,65036
14.814816154518212,65036
17.28156350112681,65036
19.74762889252179,65036
22.21301252558385,65036
24.67771459727237,24147
27.141735304626195,7552
29.605074844762612,7262
32.06773341487792,7033
34.52971121224755,6413
36.99100843422559,5569
39.45162527824516,4551
41.91156194181792,3673
44.370818622535126,3723
46.82939551806646,4321
49.287292826160524,5955
51.74451074464503,5463
54.201049471426245,4002
56.65690920448981,2978
59.112090141899785,2568
61.56659248179983,3067
64.02041642241159,2663
66.4735621620365,2605
68.92602989905402,3408
71.37781983192338,3904
73.82893215918205,3443
76.27936707944684,2531
78.72912479141326,2683
81.17820549385567,2148
83.62660938562783,1836
86.07433666566146,2034
88.5213875329681,2204
90.96776218663751,2167
93.41346082583925,2149
95.85848364982041,2414
98.30283085790859,2109
100.7465026495089,1816
103.18949922410604,1723
105.63182078126385,1615
108.07346752062438,1781
110.51443964190923,1606
112.95473734491827,1524
115.39436082953114,1543
117.83331029570547,1529
120.27158594347827,1698
122.7091879729652,1771
125.1461165843615,1584
127.58237197794062,1366
130.01795435405518,1281
132.4528639131364,1465
134.88710085569494,1547
137.32066538231982,1765
139.75355769367923,1667
142.1857779905207,1453
144.61732647366978,1239
147.04820334403132,1284
149.47840880258934,1475
151.90794305040674,1569
154.33680628862487,1580
156.76499871846443,1693
159.19252054122433,1843
161.61937195828352,2124
164.04555317109896,2434
166.47106438120693,2563
168.89590579022217,2727
171.320077599839,3011
173.7435800118302,3138
176.16641322804742,3218
178.58857745042144,3403
181.01007288096173,3542
183.43089972175687,3625
185.85105817497413,3468
188.27054844285988,3561
190.6893707277394,3557
193.10752523201643,3583
195.5250121581745,3737
197.9418317087751,3761
200.3579840864594,3744
202.7734694939469,3832
205.18828813403627,3923
207.6024402096051,3965
210.01592592360964,3831
212.42874547908548,3892
214.84089907914665,3741
217.2523869269868,3735
219.66320922587727,3863
222.0733661791695,3609
224.48285799029293,3650
226.8916848627572,3743
229.29984700014882,3784
231.7073446061355,3849
234.11417788446204,3754
236.520347038953,3771
238.92585227351185,3872
241.33069379212054,3893
243.73487179884035,3899
246.1383864978112,3933
248.541238093252,3880
250.9434267894609,4014
253.34495279081432,3928
255.74581630176783,4036
258.1460175268563,3980
260.54555667069314,4044
262.9444339379703,4008
265.3426495334594,3925
267.7402036620107,3915
270.1370965285529,3821
272.53332833809407,3602
274.9288992957214,3446
277.32380960660055,3383
279.718059475976,3325
282.1116491091717,3361
284.5045787115897,3286
286.89684848871195,3381
289.2884586460981,3404
291.67940938938807,3364
294.0697009242996,3380
296.4593334566299,3358
298.84830719225477,3311
301.23662233712923,3347
303.6242790972866,3072
306.01127767884,3178
308.39761828798066,3090
310.78330113097934,3129
313.16832641418534,3098
315.5526943440269,3119
317.9364051270112,2959
320.3194589697242,2918
322.70185607883093,3011
325.0835966610754,2962
327.4646809232805,2879
329.8451090723478,2916
332.2248813152577,2906
334.6039978590701,2954
336.9824589109231,2906
339.36026467803447,2883
341.7374153677,2886
344.113911187295,2741
346.48975234427337,2674
348.8649390461686,2776
351.2394715005918,2710
353.61334991523415,2845
355.9865744978655,2791
358.35914545633375,2830
360.73106299856715,2814
363.10232733257146,2683
365.47293866643247,2728
367.84289720831396,2709
370.2122031664593,2634
372.5808567491905,2724
374.9488581649083,2693
377.31620762209275,2683
379.6829053293021,2604
382.0489514951745,2654
384.4143463284262,2635
386.7790900378528,2570
389.14318283232853,2592
391.50662492080653,2705
393.86941651231916,2593
396.23155781597745,2571
398.5930490409713,2640
400.9538903965696,2621
403.3140820921202,2524
405.6736243370498,2594
408.03251734086336,2511
410.3907613131465,2622
412.74835646356166,2627
415.10530300185144,2573
417.4616011378372,2495
419.81725108141893,2480
422.1722530425758,2475
424.5266072313656,2586
426.880313857925,2513
429.2333731324701,2568
431.58578526529516,2563
433.9375504667738,2584
436.2886689473588,2495
438.63914091758113,2514
440.9889665880513,2511
443.33814616945835,2477
445.68667987257015,2475
448.03456790823395,2431
450.3818104873759,2435
452.72840782100013,2524
455.07436012019105,2520
457.41966759611057,2501
459.7643304600007,2550
462.10834892318155,2477
464.4517231970525,2459
466.79445349309174,2509
469.1365400228566,2479
471.4779829979826,2444
473.81878263018564,2525
476.15893913125876,2528
478.4984527130747,2608
480.8373235875855,2593
483.17555196682144,2715
485.5131380628919,2820
487.8500820879857,2862
490.1863842543697,2882
492.52204477439034,3278
494.8570638604725,3406
497.1914417251204,3801
499.52517858091653,4009
501.85827464052306,4131
504.19073011668036,4297
506.5225452222086,4345
508.85372017000566,4187
511.18425517304956,4116
513.514150444396,4531
515.8434061971808,5630
518.1720226446176,6692
520.4999999999999,6810
522.8273384766991,6547
525.1540382881666,6133
527.480099647932,5644
529.8055227696037,4677
532.1303078668694,3622
534.454455153496,3077
536.777964843328,2743
539.1008371502907,2628
541.4230722883866,2627
543.744670471698,2576
546.0656319143858,2549
548.3859568306899,2641
550.7056454349294,2534
553.0246979415016,2469
555.3431145648834,2426
557.6608955196306,2423
559.978041020377,2445
562.2945512818363,2594
564.6104265188006,2464
566.9256669461412,2392
569.2402727788082,2468
571.5542442318302,2535
573.8675815203156,2583
576.1802848594508,2485
578.4923544645015,2459
580.8037905508126,2418
583.114593333807,2504
585.4247630289875,2426
587.7342998519354,2429
590.0432040183106,2578
592.3514757438526,2471
594.6591152443794,2563
596.9661227357875,2616
599.2724984340531,2558
601.578242555231,2568
603.8833553154542,2452
606.1878369309362,2501
608.4916876179676,2513
610.7949075929192,2560
613.0974970722403,2502
615.3994562724587,2428
617.7007854101818,2499
620.0014847020951,2542
622.3015543649641,2624
624.6009946156324,2560
626.8998056710224,2633
629.1979877481361,2486
631.4955410640538,2532
633.7924658359349,2565
636.0887622810175,2537
638.3844306166192,2546
640.6794710601358,2604
642.9738838290426,2624
645.2676691408932,2597
647.5608272133207,2563
649.853358264037,2563
652.1452625108324,2648
654.4365401715764,2674
656.7271914642178,2600
659.0172166067838,2653
661.3066158173809,2652
663.5953893141935,2674
665.8835373154867,2624
668.1710600396028,2585
670.4579577049639,2574
672.7442305300709,2697
675.0298787335033,2588
677.3149025339197,2619
679.599302150058,2571
681.8830778007342,2571
684.1662297048437,2628
686.4487580813608,2556
688.7306631493387,2614
691.0119451279091,2598
693.2926042362834,2559
695.5726406937516,2583
697.8520547196814,2584
700.1308465335215,2597
702.4090163547982,2570
704.6865644031171,2555
706.9634908981619,2619
709.2397960596965,2516
711.5154801075631,2611
713.7905432616823,2630
716.0649857420548,2529
718.3388077687592,2510
720.612009561953,2582
722.8845913418733,2602
725.1565533288352,2554
727.427895743234,2542
729.6986188055427,2555
731.9687227363137,2577
734.238207756178,2551
736.5070740858458,2585
738.7753219461066,2589
741.0429515578281,2539
743.3099631419569,2638
745.5763569195191,2604
747.8421331116193,2596
750.1072919394409,2565
752.3718336242467,2554
754.6357583873777,2600
756.8990664502545,2546
759.1617580343765,2605
761.423833361321,2541
763.6852926527457,2603
765.9461361303862,2604
768.206364016058,2510
770.4659765316536,2472
772.7249738991469,2558
774.9833563405886,2550
777.2411240781092,2590
779.4982773339183,2606
781.7548163303044,2649
784.010741289634,2570
786.2660524343538,2692
788.5207499869881,2657
790.7748341701416,2680
793.0283052064964,2692
795.2811633188143,2651
797.5334087299362,2542
799.7850416627813,2597
802.0360623403484,2651
804.2864709857143,2532
806.5362678220353,2689
808.7854530725468,2696
811.0340269605625,2694
813.2819897094754,2563
815.5293415427581,2674
817.77608268396,2707
820.0222133567116,2630
822.2677337847211,2717
824.5126441917765,2583
826.7569448017433,2599
829.0006358385675,2588
831.2437175262731,2710
833.4861900889629,2648
835.7280537508192,2644
837.9693087361026,2643
840.2099552691533,2658
842.4499935743896,2642
844.689423876309,2729
846.9282463994886,2656
849.1664613685833,2665
851.4040690083276,2658
853.6410695435349,2651
855.877463199097,2693
858.1132501999847,2609
860.3484307712487,2625
862.5830051380175,2611
864.8169735254988,2707
867.0503361589791,2604
869.2830932638243,2682
871.5152450654786,2660
873.7467917894654,2740
875.9777336613873,2807
878.2080709069252,2670
880.4378037518389,2701
882.666932421968,2645
884.8954571432301,2660
887.1233781416219,2834
889.3506956432192,2741
891.5774098741766,2775
893.803521060728,2766
896.0290294291852,2742
898.2539352059397,2809
900.4782386174619,2751
902.7019398903011,2772
904.925039251085,2750
907.147536926521,2720
909.3694331433943,2771
911.59072812857,2755
913.8114221089921,2730
916.0315153116827,2750
918.2510079637437,2724
920.4699002923547,2705
922.6881925247761,2669
924.905884888345,2708
927.1229776104793,2696
929.3394709186747,2624
931.555365040506,2605
933.7706602036275,2664
935.9853566357709,2721
938.1994545647489,2680
940.4129542184515,2779
942.6258558248488,2710
944.8381596119883,2654
947.0498658079974,2706
949.2609746410825,2743
951.4714863395287,2667
953.6814011316998,2751
955.8907192460387,2658
958.0994409110671,2659
960.3075663553858,2784
962.5150958076741,2709
964.7220294966913,2656
966.928367651274,2634
969.1341105003388,2677
971.3392582728806,2695
973.5438111979742,2682
975.747769504772,2668
977.9511334225061,2644
980.153903180487,2564
982.3560790081052,2594
984.5576611348289,2551
986.7586497902058,2484
988.9590452038618,2527
991.158847605503,2523
993.3580572249133,2442
995.5566742919558,2447
997.7546990365728,2422
999.952131688785,2397
1002.1489724786926,2389
1004.3452216364743,2428
1006.5408793923874,2360
1008.7359459767691,2279
1010.9304216200343,2366
1013.1243065526781,2340
1015.3176010052733,2335
1017.510305208472,2269
1019.7024193930064,2288
1021.8939437896848,2279
1024.0848786293977,2319
1026.2752241431122,2262
1028.4649805618747,2370
1030.6541481168115,2230
1032.842727039127,2254
1035.0307175601051,2238
1037.2181199111074,2305
1039.4049343235752,2387
1041.591161029029,2262
1043.7768002590683,2270
1045.9618522453698,2199
1048.1463172196918,2252
1050.3301954138697,2222
1052.513487059818,2289
1054.69619238953,2276
1056.8783116350783,2311
1059.0598450286152,2170
1061.2407928023704,2202
1063.4211551886528,2271
1065.6009324198508,2212
1067.780124728432,2224
1069.9587323469414,2241
1072.1367555080046,2173
1074.314194444325,2232
1076.4910493886855,2226
1078.667320573947,2092
1080.843008233051,2192
1083.0181125990161,2074
1085.1926339049414,2193
1087.3665723840027,2147
1089.5399282694575,2146
1091.7127017946405,2106
1093.8848931929647,2127
1096.0565026979243,2149
1098.2275305430899,2130
1100.3979769621128,2184
1102.567842188722,2150
1104.737126456726,2148
1106.9058300000124,2064
1109.0739530525475,2056
1111.2414958483764,2146
1113.4084586216231,2061
1115.5748416064907,2126
1117.7406450372605,2070
1119.9058691482942,2121
1122.0705141740304,2200
1124.2345803489884,2109
1126.3980679077658,2165
1128.5609770850388,2063
1130.7233081155623,2137
1132.8850612341707,2113
1135.0462366757774,2121
1137.2068346753745,2127
1139.3668554680326,2100
1141.526299288901,2066
1143.68516637321,2126
1145.8434569562655,2174
1148.001171273455,2109
1150.158309560244,2080
1152.3148720521767,2060
1154.470858984876,2095
1156.626270594044,2107
1158.7811071154629,2063
1160.9353687849912,2001
1163.089055838569,2102
1165.242168512213,2030
1167.3947070420209,2006
1169.5466716641677,2089
1171.6980626149075,2089
1173.8488801305748,2049
1175.9991244475814,2095
1178.1487958024186,2084
1180.2978944316555,2002
1182.4464205719428,1922
1184.5943744600072,2051
1186.7417563326567,2038
1188.8885664267755,1994
1191.0348049793297,2099
1193.1804722273619,2129
1195.325568407995,2096
1197.4700937584303,2053
1199.614048515948,2119
1201.7574329179074,2116
1203.900247201746,2083
1206.042491604982,2096
1208.1841663652099,2014
1210.3252717201053,2062
1212.465807907422,2100
1214.6057751649923,2082
1216.7451737307279,2159
1218.8840038426192,2101
1221.0222657387353,2100
1223.1599596572241,2147
1225.2970858363137,2147
1227.4336445143094,2052
1229.5696359295966,2147
1231.705060320639,2127
1233.8399179259786,2117
1235.9742089842384,2136
1238.107933734118,2130
1240.2410924143974,2144
1242.373685263935,2113
1244.5057125216676,2094
1246.6371744266116,2050
1248.7680712178621,2194
1250.898403134593,2148
1253.028170416058,2161
1255.1573733015875,2119
1257.2860120305932,2110
1259.4140868425648,2133
1261.54159797707,2157
1263.6685456737569,2149
1265.7949301723515,2178
1267.9207517126597,2164
1270.046010534565,2139
1272.1707068780306,2151
1274.2948409830983,2207
1276.4184130898889,2200
1278.541423438603,2204
1280.6638722695184,2203
1282.785759822993,2266
1284.9070863394636,2214
1287.0278520594447,2248
1289.1480572235314,2281
1291.2677020723963,2270
1293.3867868467923,2325
1295.5053117875495,2301
1297.623277135579,2387
1299.740683131868,2339
1301.8575300174857,2346
1303.973818033578,2266
1306.0895474213703,2303
1308.2047184221678,2388
1310.3193312773528,2371
1312.4333862283888,2263
1314.5468835168163,2343
1316.659823384255,2359
1318.7722060724045,2373
1320.8840318230418,2288
1322.9953008780249,2305
1325.1060134792888,2313
1327.2161698688478,2302
1329.3257702887959,2298
1331.4348149813054,2289
1333.5433041886276,2373
1335.6512381530933,2360
1337.7586171171101,2318
1339.8654413231675,2375
1341.9717110138317,2299
1344.0774264317488,2258
1346.1825878196432,2272
1348.2871954203192,2304
1350.3912494766587,2336
1352.4947502316231,2375
1354.5976979282532,2302
1356.7000928096686,2292
1358.8019351190665,2374
1360.9032250997243,2393
1363.0039629949988,2320
1365.1041490483235,2323
1367.2037835032133,2348
1369.3028666032606,2316
1371.401398592137,2367
1373.4993797135926,2337
1375.5968102114575,2310
1377.6936903296396,2395
1379.7900203121262,2296
1381.8858004029835,2399
1383.9810308463561,2382
1386.075711886469,2307
1388.1698437676241,2326
1390.2634267342032,2336
1392.356461030667,2337
1394.4489469015557,2408
1396.5408845914872,2427
1398.6322743451592,2451
1400.7231164073469,2420
1402.813411022907,2419
1404.903158436773,2442
1406.9923588939578,2452
1409.0810126395531,2408
1411.1691199187303,2468
1413.2566809767386,2465
1415.343696058907,2547
1417.4301654106425,2509
1419.5160892774315,2491
1421.6014679048399,2491
1423.6863015385125,2462
1425.7705904241707,2489
1427.8543348076178,2646
1429.9375349347342,2653
1432.0201910514802,2585
1434.102303403894,2603
1436.1838722380944,2650
1438.2648978002767,2728
1440.3453803367174,2749
1442.4253200937692,2764
1444.5047173178677,2872
1446.5835722555234,2826
1448.6618851533285,2894
1450.739656257952,2827
1452.8168858161434,2919
1454.8935740747306,2978
1456.96972128062,3033
1459.045327680797,3067
1461.120393522327,3047
1463.1949190523528,3207
1465.2689045180973,3150
1467.3423501668608,3249
1469.415256246024,3337
1471.4876230030463,3333
1473.559450685465,3259
1475.6307395408976,3497
1477.7014898170391,3459
1479.771701761665,3519
1481.8413756226287,3574
1483.9105116478618,3662
1485.9791100853772,3697
1488.0471711832643,3760
1490.1146951896926,3796
1492.1816823529098,3892
1494.2481329212433,3978
1496.3140471430984,4047
1498.3794252669609,4021
1500.4442675413939,4061
1502.5085742150404,4111
1504.572345536622,4218
1506.6355817549388,4334
1508.6982831188702,4282
1510.7604498773744,4432
1512.8220822794883,4422
1514.8831805743293,4517
1516.9437450110909,4560
1519.003775839048,4640
1521.0632733075522,4555
1523.1222376660367,4722
1525.1806691640113,4835
1527.2385680510652,5028
1529.2959345768668,5010
1531.3527689911643,4954
1533.4090715437833,5190
1535.4648424846291,5328
1537.5200820636855,5362
1539.5747905310159,5416
1541.6289681367616,5534
1543.6826151311434,5684
1545.7357317644614,5744
1547.7883182870937,5795
1549.8403749494987,5936
1551.8919020022113,6022
1553.9428996958477,6208
1555.9933682811015,6286
1558.0433080087469,6464
1560.0927191296346,6585
1562.1416018946961,6500
1564.1899565549415,6524
1566.2377833614592,6565
1568.2850825654164,6325
1570.3318544180606,6224
1572.3780991707158,5969
1574.423817074788,5634
1576.4690083817595,5468
1578.5136733431923,5202
1580.5578122107272,4802
1582.601425236085,4635
1584.6445126710646,4436
1586.6870747675434,4249
1588.7291117774776,4016
1590.7706239529034,3926
1592.8116115459347,3680
1594.8520748087658,3534
1596.8920139936686,3384
1598.9314293529933,3228
1600.9703211391711,3172
1603.008689604711,3082
1605.0465350022005,2928
1607.0838575843068,2865
1609.1206576037753,2838
1611.1569353134305,2786
1613.1926909661765,2736
1615.2279248149953,2758
1617.2626371129481,2647
1619.2968281131757,2572
1621.3304980688963,2608
1623.3636472334088,2520
1625.39627586009,2461
1627.428384202396,2511
1629.459972513861,2502
1631.4910410480993,2398
1633.5215900588028,2322
1635.551619799744,2374
1637.5811305247717,2346
1639.6101224878166,2340
1641.6385959428862,2318
1643.6665511440683,2302
1645.693988345528,2293
1647.7209078015112,2311
1649.7473097663405,2299
1651.7731944944203,2252
1653.7985622402307,2264
1655.823413258333,2296
1657.847747803366,2316
1659.8715661300494,2324
1661.8948684931793,2313
1663.9176551476316,2308
1665.9399263483624,2295
1667.9616823504057,2170
1669.982923408873,2240
1672.0036497789574,2251
1674.0238617159293,2272
1676.043559475138,2211
1678.0627433120121,2197
1680.081413482059,2261
1682.0995702408654,2216
1684.117213844096,2164
1686.134344547495,2129
1688.1509626068864,2215
1690.1670682781705,2191
1692.182661817329,2239
1694.1977434804217,2244
1696.2123135235875,2140
1698.226372203043,2209
1700.2399197750851,2244
1702.2529564960905,2241
1704.2654826225112,2231
1706.277498410882,2201
1708.2890041178139,2225
1710.2999999999988,2157
1712.3104863142066,2176
1714.3204633172854,2191
1716.329931266163,2159
1718.3388904178469,2222
1720.3473410294214,2116
1722.3552833580516,2159
1724.3627176609807,2080
1726.3696441955308,2100
1728.3760632191033,2151
1730.3819749891782,2130
1732.3873797633146,2121
1734.3922777991502,2102
1736.3966693544012,2167
1738.4005546868639,2141
1740.4039340544127,2142
1742.406807715001,2099
1744.4091759266616,2081
1746.4110389475054,2105
1748.4123970357223,2072
1750.413250449582,2088
1752.4135994474318,2088
1754.4134442876993,2053
1756.4127852288902,2119
1758.4116225295893,2008
1760.4099564484595,2045
1762.407787244244,2085
1764.405115175764,2077
1766.4019405019203,2037
1768.3982634816916,2084
1770.3940843741357,2077
1772.3894034383907,2036
1774.3842209336717,1988
1776.378537119274,2021
1778.372352254571,2008
1780.3656665990156,1984
1782.3584804121397,1997
1784.3507939535534,2063
1786.3426074829463,2028
1788.3339212600863,1989
1790.3247355448211,1998
1792.3150505970766,2079
1794.3048666768573,2021
1796.2941840442477,1960
1798.2830029594106,2056
1800.2713236825884,2047
1802.2591464741004,1976
1804.2464715943465,1967
1806.2332993038058,1938
1808.2196298630352,2006
1810.2054635326708,1934
1812.190800573428,1970
1814.175641246101,1920
1816.1599858115628,2008
1818.1438345307652,2027
1820.127187664738,1946
1822.1100454745924,1917
1824.092408221516,1996
1826.0742761667766,1934
1828.055649571721,1983
1830.0365286977735,1936
1832.0169138064398,2006
1833.9968051593014,1965
1835.9762030180214,2019
1837.9551076443408,2007
1839.9335193000788,1932
1841.9114382471344,1976
1843.888864747485,1924
1845.8657990631878,1965
1847.842241456378,1992
1849.8181921892697,1942
1851.7936515241558,1960
1853.7686197234098,1975
1855.7430970494815,1932
1857.7170837649014,1936
1859.6905801322787,1858
1861.6635864143004,2020
1863.6361028737338,1989
1865.608129773424,1989
1867.5796673762961,1970
1869.5507159453537,1998
1871.521275743678,1971
1873.4913470344313,2036
1875.4609300808534,1964
1877.4300251462632,1970
1879.3986324940588,1951
1881.366752387717,1973
1883.3343850907936,1958
1885.3015308669228,2024
1887.268189979819,1980
1889.2343626932739,1992
1891.2000492711595,1988
1893.1652499774254,2035
1895.1299650761011,1966
1897.0941948312952,2013
1899.0579395071945,1998
1901.0211993680641,2009
1902.98397467825,2046
1904.9462657021745,2008
1906.9080727043415,2031
1908.869395949332,1952
1910.8302357018065,2016
1912.790592226504,2053
1914.7504657882428,1970
1916.7098566519212,1987
1918.6687650825133,1931
1920.6271913450764,1991
1922.5851357047422,2005
1924.5425984267245,1957
1926.499579776314,1921
1928.4560800188833,2006
1930.4120994198802,1958
1932.367638244833,1951
1934.32269675935,1981
1936.2772752291175,1959
1938.231373919899,1962
1940.1849930975404,1973
1942.1381330279637,1981
1944.0907939771696,1992
1946.0429762112412,2017
1947.9946799963363,1920
1949.9459055986945,1948
1951.896653284633,2033
1953.8469233205478,1955
1955.7967159729142,1954
1957.7460315082863,1955
1959.6948701932974,1932
1961.6432322946594,1963
1963.5911180791632,1947
1965.5385278136787,2008
1967.4854617651545,1911
1969.4319202006182,1965
1971.377903387176,1943
1973.3234115920136,1903
1975.268445082395,1959
1977.2130041256642,2007
1979.1570889892423,1932
1981.1006999406304,1957
1983.04383724741,1962
1984.986501177238,2008
1986.928691997853,1969
1988.8704099770712,1992
1990.811655382789,1896
1992.7524284829801,1949
1994.692729545698,1910
1996.6325588390755,1929
1998.5719166313224,1956
2000.5108031907307,1962
2002.4492187856677,1962
2004.387163684583,1906
2006.3246381560011,1968
2008.2616424685298,1860
2010.1981768908527,1890
2012.1342416917332,1865
2014.069837140014,1885
2016.0049635046162,1892
2017.9396210545406,1871
2019.8738100588666,1959
2021.8075307867502,1887
2023.740783507431,1924
2025.6735684902228,1898
2027.6058860045214,1987
2029.5377363198004,1941
2031.4691197056118,1781
2033.4000364315875,1844
2035.3304867674374,1854
2037.260470982952,1935
2039.189989347998,1861
2041.1190421325232,1869
2043.047629606554,1873
2044.9757520401945,1891
2046.9034097036288,1909
2048.8306028671195,1948
2050.7573318010086,1931
2052.683596775716,1960
2054.609398061742,1886
2056.5347359296647,1931
2058.4596106501403,1900
2060.384022493906,1900
2062.3079717317764,1892
2064.231458634646,1970
2066.1544834734873,1920
2068.077046519352,1891
2069.99914804337,1896
2071.9207883167524,1885
2073.8419676107865,1978
2075.7626861968406,1871
2077.6829443463607,1896
2079.6027423308715,1856
2081.522080421977,1874
2083.440958891362,1838
2085.359378010786,1881
2087.2773380520907,1833
2089.194839287196,1886
2091.111881988101,1978
2093.0284664268825,1832
2094.9445928756973,1890
2096.86026160678,1899
2098.775472892446,1886
2100.690227005088,1863
2102.604524217178,1907
2104.5183648012676,1876
2106.431749029985,1932
2108.34467717604,1942
2110.2571495122206,1888
2112.169166311393,1956
2114.080727846503,1931
2115.9918343905747,1896
2117.902486216711,1915
2119.8126835980956,1867
2121.722426807987,1938
2123.6317161197285,1944
2125.5405518067364,1914
2127.448934142509,1916
2129.356863400624,1930
2131.264339854737,2021
2133.1713637785815,1992
2135.077935445972,1979
2136.9840551308002,1976
2138.889723107037,1992
2140.7949396487334,1977
2142.699705030018,1927
2144.6040195250994,1992
2146.507883408264,1923
2148.4112969538774,1990
2150.3142604363848,1971
2152.2167741303097,1892
2154.1188383102535,1978
2156.0204532508997,1931
2157.9216192270064,1993
2159.822336513414,2001
2161.7226053850413,1958
2163.622426116884,1996
2165.5217989840185,1976
2167.4207242616,1925
2169.319202224862,1958
2171.2172331491165,1933
2173.1148173097563,2004
2175.0119549822507,1948
2176.90864644215,1939
2178.8048919650823,2040
2180.7006918267534,2049
2182.596046302952,1970
2184.4909556695407,1983
2186.3854202024645,2023
2188.279440177746,1936
2190.173015871487,1934
2192.066147559868,2018
2193.958835519149,2025
2195.851080025667,1919
2197.7428813558417,2022
2199.6342397861667,1990
2201.5251555932186,1960
2203.415629053651,2071
2205.3056604441986,2083
2207.19525004167,2083
2209.084398122958,2021
2210.9731049650327,2088
2212.861370844941,2122
2214.749196039812,2044
2216.636580826851,2130
2218.523525483344,2039
2220.410030286655,2051
2222.296095514226,2089
2224.1817214435805,2142
2226.066908352319,2044
2227.951656518121,2073
2229.835966218746,1965
2231.71983773203,2040
2233.6032713358913,2086
2235.486267308324,2068
2237.3688259274036,1991
2239.2509474712824,2067
2241.132632218193,2075
2243.013880446447,2074
2244.8946924344323,2089
2246.7750684606203,2014
2248.6550088035574,2031
2250.534513741871,2060
2252.413583554265,2026
2254.292218519526,2028
2256.170418916517,2086
2258.0481850241786,2003
2259.925517121534,2031
2261.8024154876825,2132
2263.678880401803,2068
2265.5549121431536,2105
2267.430510991071,1949
2269.305677224971,2015
2271.180411124348,2091
2273.0547129687766,2022
2274.9285830379076,2003
2276.8020216114737,2033
2278.6750289692845,2040
2280.5476053912294,1995
2282.4197511572766,2100
2284.2914665474727,2067
2286.162751841943,2078
2288.0336073208937,2057
2289.904033264608,2078
2291.774029953448,2045
2293.6435976678554,2024
2295.5127366883517,2008
2297.381447295534,2013
2299.2497297700825,1942
2301.1175843927526,1934
2302.9850114443825,1860
2304.852011205885,1945
2306.7185839582553,1772
2308.5847299825664,1855
2310.4504495599676,1912
2312.3157429716925,1839
2314.1806104990483,1757
2316.0450524234247,1813
2317.9090690262888,1828
2319.772660589186,1825
2321.635827393742,1890
2323.498569721661,1833
2325.3608878547248,1821
2327.2227820747967,1826
2329.0842526638157,1792
2330.945299903803,1844
2332.805924076857,1817
2334.6661254651535,1831
2336.525904350951,1789
2338.3852610165827,1822
2340.244195744464,1840
2342.102708817088,1838
2343.9608005170253,1869
2345.8184711269287,1861
2347.675720929526,1812
2349.532550207628,1809
2351.38895924412,1878
2353.24494832197,1887
2355.100517724223,1793
2356.955667734004,1847
2358.810398634514,1804
2360.664710709037,1840
2362.5186042409337,1975
2364.3720795136437,1853
2366.225136810686,1846
2368.0777764156583,1891
2369.929998612237,1892
2371.7818036841777,1858
2373.633191915315,1868
2375.484163589562,1928
2377.3347189909114,1872
2379.184858403434,1857
2381.03458211128,1858
2382.8838903986775,1834
2384.732783549936,1924
2386.5812618494406,1970
2388.4293255816588,1862
2390.2769750311327,1826
2392.1242104824883,1764
2393.971032220427,1865
2395.8174405297295,1833
2397.6634356952563,1875
2399.509018001947,1827
2401.3541877348193,1874
2403.1989451789705,1838
2405.043290619576,1889
2406.8872243418905,1899
2408.730746631247,1901
2410.5738577730594,1871
2412.4165580528183,1957
2414.258847756095,1947
2416.100727168537,1838
2417.9421965758734,1855
2419.783256263912,1908
2421.623906518538,1872
2423.4641476257157,1876
2425.303979871491,1863
2427.143403541984,1920
2428.9824189233977,1886
2430.821026302012,1885
2432.6592259641866,1905
2434.497018196361,1860
2436.33440328505,1927
2438.171381516851,1931
2440.00795317844,1886
2441.844118556569,1942
2443.6798779380724,1869
2445.5152316098606,1924
2447.3501798589255,1881
2449.1847229723357,1955
2451.0188612372403,1886
2452.8525949408663,1927
2454.6859243705203,1880
2456.518849813587,1945
2458.3513715575314,1969
2460.183489889895,1975
2462.015205098301,1907
2463.8465174704493,1974
2465.67742729412,1952
2467.5079348571717,1917
2469.338040447542,1932
2471.1677443532476,1936
2472.9970468623833,2015
2474.825948263123,1939
2476.6544488437207,1900
2478.482548892508,1939
2480.310248697896,1852
2482.137548548374,1926
2483.9644487325118,1949
2485.790949538956,1993
2487.617051256433,1957
2489.44275417375,1932
2491.26805857979,2010
2493.0929647635157,1934
2494.917473013971,1964
2496.741583620276,1953
2498.5652968716304,1941
2500.3886130573137,2001
2502.2115324666834,1968
2504.0340553891765,1975
2505.856182114308,1977
2507.6779129316733,2032
2509.499248130945,2027
2511.3201880018764,1988
2513.140732834298,2077
2514.9608829181198,2042
2516.780638543331,2038
2518.6,2054
2520.418967578273,2083
2522.237541568376,2028
2524.0557222606144,1990
2525.8735099453706,2091
2527.6909049131086,2002
2529.507907454368,2048
2531.32451785977,2089
2533.140736420014,2037
2534.9565634258774,2061
2536.771999168218,2105
2538.5870439379714,2101
2540.4016980261526,2139
2542.2159617238544,2200
2544.02983532225,2102
2545.8433191125914,2176
2547.656413386209,2157
2549.4691184345115,2146
2551.2814345489874,2115
2553.093362021204,2173
2554.904901142808,2189
2556.716052205523,2226
2558.526815501153,2240
2560.3371913215824,2268
2562.147179958771,2230
2563.956781704761,2304
2565.7659968516705,2260
2567.5748256916986,2272
2569.3832685171224,2235
2571.1913256202984,2291
2572.9989972936614,2330
2574.806283829725,2363
2576.613185521084,2344
2578.4197026604074,2431
2580.2258355404483,2398
2582.031584454035,2438
2583.836949694077,2429
2585.6419315535613,2419
2587.4465303255533,2473
2589.2507463032002,2481
2591.0545797797245,2465
2592.8580310484303,2484
2594.6611004026995,2448
2596.463788135992,2526
2598.266094541849,2457
2600.0680199138874,2571
2601.869564545807,2491
2603.670728731383,2530
2605.4715127644704,2585
2607.2719169390048,2584
2609.071941548998,2514
2610.8715868885433,2519
2612.670853251811,2515
2614.469740933052,2585
2616.268250226594,2610
2618.0663814268455,2526
2619.864134828292,2546
2621.6615107255006,2498
2623.458509413115,2489
2625.2551311858597,2483
2627.0513763385347,2390
2628.8472451660223,2531
2630.6427379632833,2450
2632.4378550253564,2433
2634.232596647359,2481
2636.026963124488,2439
2637.8209547520187,2386
2639.6145718253065,2365
2641.407814639785,2415
2643.200683490966,2374
2644.9931786744414,2338
2646.7853004858807,2376
2648.577049221034,2239
2650.3684251757277,2278
2652.1594286458712,2224
2653.9500599274484,2266
2655.740319316525,2145
2657.5302071092437,2234
2659.3197236018286,2190
2661.10886909058,2203
2662.8976438718782,2141
2664.686048242183,2268
2666.4740824980327,2141
2668.2617469360443,2079
2670.0490418529134,2084
2671.8359675454153,2098
2673.622524310403,2026
2675.408712444811,2055
2677.1945322456495,2059
2678.979984010009,2036
2680.76506803506,2070
2682.5497846180497,2045
2684.334134056306,2041
2686.1181166472343,2020
2687.9017326883213,1992
2689.6849824771293,1962
2691.4678663113013,1976
2693.2503844885596,2007
2695.032537306705,2030
2696.8143250636167,2005
2698.5957480572542,1936
2700.3768065856534,2056
2702.1575009469316,1995
2703.937831439283,1973
2705.717798360982,1961
2707.4974020103837,1972
2709.276642685917,1964
2711.055520686095,1960
2712.834036309506,1870
2714.612189854819,1907
2716.389981620782,1840
2718.1674119062204,1898
2719.944481010041,1926
2721.721189231226,1894
2723.4975368688415,1976
2725.273524222027,1846
2727.0491515900053,1884
2728.824419272075,1905
2730.5993275676146,1853
2732.3738767760838,1932
2734.148067197016,1909
2735.921899130031,1906
2737.6953728748194,1965
2739.468488731156,1909
2741.2412469988926,1884
2743.0136479779617,1936
2744.785691968372,1848
2746.5573792702116,1891
2748.3287101836504,1844
2750.099685008934,1855
2751.870304046388,1850
2753.640567596418,1846
2755.4104759595057,1829
2757.1800294362156,1777
2758.949228327187,1911
2760.7180729331412,1804
2762.486563554877,1874
2764.254700493272,1824
2766.022484049284,1810
2767.789914523947,1903
2769.5569922183786,1789
2771.3237174337705,1853
2773.090090471394,1838
2774.8561116326036,1848
2776.6217812188274,1873
2778.3870995315756,1891
2780.1520668724356,1788
2781.9166835430747,1809
2783.6809498452394,1888
2785.444866080754,1885
2787.2084325515225,1847
2788.971649559527,1797
2790.73451740683,1816
2792.4970363955713,1856
2794.2592068279705,1897
2796.0210290063264,1794
2797.7825032330147,1833
2799.543629810493,1874
2801.304409041296,1806
2803.0648412280366,1769
2804.8249266734088,1863
2806.5846656801846,1918
2808.344058551212,1825
2810.1031055894246,1842
2811.8618070978273,1781
2813.6201633795085,1859
2815.378174737636,1797
2817.1358414754536,1856
2818.893163896285,1841
2820.6501423035334,1843
2822.4067770006814,1922
2824.1630682912883,1928
2825.9190164789957,1864
2827.6746218675207,1865
2829.429884760661,1832
2831.184805462294,1901
2832.9393842763743,1798
2834.693621506936,1764
2836.4475174580916,1835
2838.201072434034,1814
2839.954286739034,1835
2841.707160677441,1874
2843.459694553685,1947
2845.2118886722724,1849
2846.96374333779,1864
2848.7152588549034,1827
2850.4664355283567,1876
2852.217273662973,1824
2853.9677735636546,1861
2855.7179355353833,1880
2857.4677598832186,1845
2859.217246912299,1863
2860.9663969278427,1816
2862.715210235146,1845
2864.4636871395846,1819
2866.211827946614,1831
2867.9596329617652,1879
2869.7071024906536,1874
2871.4542368389684,1863
2873.20103631248,1874
2874.947501217038,1858
2876.6936318585695,1823
2878.4394285430812,1818
2880.1848915766604,1813
2881.9300212654707,1781
2883.6748179157553,1833
2885.4192818338374,1795
2887.1634133261173,1794
2888.907212699077,1906
2890.6506802592744,1835
2892.393816313348,1815
2894.1366211680142,1801
2895.8790951300693,1813
2897.621238506388,1816
2899.363051603925,1795
2901.1045347297118,1839
2902.8456881908596,1894
2904.58651229456,1784
2906.327007348081,1798
2908.067173658772,1822
2909.8070115340597,1771
2911.5465212814497,1867
2913.285703208527,1804
2915.0245576229563,1816
2916.7630848324807,1813
2918.5012851449196,1830
2920.2391588681758,1870
2921.976706310227,1818
2923.7139277791334,1827
2925.4508235830313,1800
2927.187394030137,1830
2928.923639428745,1860
2930.6595600872306,1862
2932.395156314046,1858
2934.1304284177218,1852
2935.8653767068713,1847
2937.6000014901815,1779
2939.3343030764227,1794
2941.068281774442,1847
2942.8019378931644,1858
2944.5352717415976,1857
2946.2682836288236,1868
2948.0009738640065,1896
2949.7333427563885,1872
2951.465390615289,1922
2953.1971177501086,1835
2954.9285244703265,1865
2956.6596110855,1871
2958.3903779052657,1860
2960.1208252393385,1808
2961.8509533975125,1801
2963.5807626896617,1805
2965.3102534257378,1824
2967.0394259157715,1861
2968.768280469873,1827
2970.496817398232,1841
2972.2250370111146,1880
2973.952939618869,1883
2975.6805255319196,1850
2977.4077950607707,1882
2979.134748516006,1904
2980.861386208289,1846
2982.587708448359,1828
2984.313715547037,1863
2986.039407815222,1867
2987.764785563891,1781
2989.489849104102,1808
2991.2145987469908,1817
2992.9390348037705,1850
2994.6631575857346,1842
2996.3869674042576,1813
2998.1104645707887,1832
2999.83364939686,1862
3001.5565221940783,1805
3003.2790832741334,1885
3005.0013329487924,1788
3006.7232715298996,1869
3008.4448993293804,1842
3010.166216659239,1880
3011.887223831558,1846
3013.607921158498,1794
3015.3283089522993,1846
3017.0483875252826,1820
3018.7681571898443,1823
3020.4876182584626,1830
3022.2067710436927,1845
3023.9256158581707,1787
3025.644153014609,1848
3027.362382825801,1825
3029.0803056046193,1860
3030.797921664012,1824
3032.5152313170106,1919
3034.2322348767225,1804
3035.9489326563353,1799
3037.665324969115,1853
3039.3814121284063,1835
3041.097194447633,1767
3042.812672240299,1830
3044.5278458199855,1796
3046.2427155003525,1854
3047.9572815951406,1844
3049.671544418167,1773
3051.38550428333,1830
3053.0991615046073,1788
3054.812516396051,1848
3056.5255692717974,1766
3058.2383204460575,1837
3059.9507702331257,1816
3061.662918947372,1808
3063.3747669032446,1918
3065.0863144152736,1818
3066.7975617980674,1862
3068.508509366309,1889
3070.219157434767,1835
3071.9295063182844,1879
3073.639556331785,1859
3075.3493077902704,1843
3077.058761008821,1896
3078.7679163025964,1908
3080.476773986837,1882
3082.1853343768594,1832
3083.89359778806,1856
3085.6015645359153,1723
3087.3092349359786,1848
3089.016609303884,1798
3090.7236879553434,1842
3092.4304712061476,1862
3094.136959372166,1850
3095.843152769349,1826
3097.5490517137237,1885
3099.2546565213966,1811
3100.959967508554,1872
3102.66498499146,1931
3104.3697092864577,1894
3106.0741407099695,1903
3107.778279578498,1870
3109.482126208622,1864
3111.1856809170004,1831
3112.8889440203716,1817
3114.5919158355528,1814
3116.294596679439,1830
3117.996986869006,1933
3119.6990867213062,1874
3121.4008965534726,1888
3123.102416682717,1933
3124.803647426329,1910
3126.5045891016784,1935
3128.205242026213,1909
3129.90560651746,1872
3131.605682893025,1860
3133.3054714705922,1909
3135.0049725679282,1881
3136.7041865028714,1909
3138.4031135933465,1900
3140.101754157353,1862
3141.800108512971,1867
3143.498176978357,1932
3145.1959598717494,1807
3146.8934575114636,1811
3148.5906702158954,1825
3150.2875983035183,1831
3151.9842420928853,1846
3153.680601902627,1864
3155.376678051456,1905
3157.07247085816,1885
3158.767980641609,1857
3160.463207720748,1852
3162.158152414606,1828
3163.8528150422862,1842
3165.5471959229726,1826
3167.2412953759303,1847
3168.9351137204976,1915
3170.628651276098,1866
3172.3219083622307,1855
3174.014885298474,1878
3175.707582404485,1878
3177.4000000000005,1911
3179.092138404835,1847
3180.7839979388846,1832
3182.47557892212,1787
3184.166881674594,1855
3185.8579065164386,1849
3187.5486537678626,1862
3189.2391237491547,1759
3190.9293167806827,1815
3192.6192331828934,1808
3194.3088732763117,1824
3195.998237381542,1836
3197.687325819268,1800
3199.376138910251,1805
3201.064676975334,1809
3202.7529403354347,1799
3204.4409293115523,1831
3206.1286442247647,1737
3207.816085396229,1785
3209.5032531471825,1806
3211.190147798936,1775
3212.8767696728846,1811
3214.5631190905015,1860
3216.2491963733373,1753
3217.9350018430214,1814
3219.6205358212637,1769
3221.305798629851,1741
3222.990790590651,1736
3224.6755120256103,1722
3226.359963256751,1783
3228.0441446061795,1750
3229.7280563960758,1827
3231.411698948703,1808
3233.0950725863995,1807
3234.778177631587,1794
3236.461014406761,1809
3238.1435832345005,1830
3239.8258844374595,1877
3241.507918338374,1853
3243.1896852600576,1866
3244.8711855254023,1785
3246.552419457381,1765
3248.233387379042,1813
3249.914089613516,1808
3251.59452648401,1847
3253.274698313813,1724
3254.95460542629,1839
3256.6342481448855,1812
3258.313626793125,1757
3259.9927416946084,1776
3261.6715931730196,1782
3263.3501815521176,1763
3265.0285071557437,1742
3266.706570307815,1775
3268.3843713323286,1794
3270.0619105533615,1818
3271.739188295068,1753
3273.4162048816834,1807
3275.0929606375184,1803
3276.769455886966,1850
3278.445690954498,1842
3280.1216661646613,1858
3281.797381842087,1824
3283.4728383114807,1820
3285.1480358976296,1791
3286.8229749253996,1869
3288.4976557197333,1767
3290.172078605655,1785
3291.846243908266,1764
3293.5201519527463,1801
3295.193803064357,1717
3296.8671975684374,1774
3298.5403357904024,1762
3300.21321805575,1809
3301.8858446900567,1728
3303.558216018975,1782
3305.23033236824,1746
3306.9021940636603,1783
3308.57380143113,1739
3310.2451547966184,1812
3311.916254486174,1814
3313.5871008259246,1808
3315.2576941420766,1812
3316.9280347609147,1823
3318.5981230088046,1805
3320.2679592121895,1787
3321.9375436975924,1736
3323.606876791612,1756
3325.27595882093,1737
3326.944790112305,1816
3328.6133709925753,1761
3330.2817017886573,1762
3331.949782827547,1831
3333.617614436319,1839
3335.2851969421245,1808
3336.952530672199,1842
3338.619615953853,1811
3340.286453114475,1808
3341.9530424815357,1819
3343.619384382583,1741
3345.2854791452437,1854
3346.951327097224,1764
3348.6169285663073,1813
3350.2822838803577,1786
3351.947393367319,1762
3353.61225735521,1763
3355.2768761721345,1839
3356.9412501462693,1848
3358.605379605873,1780
3360.2692648792827,1806
3361.9329062949146,1801
3363.596304181263,1716
