CollectionTime,9/20/2024 12:27:25 PM
ExposureUsed,3
CalibratedSpectrum
-962.7078968117929,677
-959.9714848408522,700
-957.2358232597828,752
-954.5009119013725,717
-951.7667505983302,744
-949.0333391832855,739
-946.3006774887896,742
-943.5687653473143,730
-940.837602591253,746
-938.1071890529199,736
-935.3775245645503,764
-932.6486089583007,732
-929.9204420662485,731
-927.1930237203925,747
-924.4663537526524,755
-921.7404319948689,823
-919.0152582788041,779
-916.2908324361409,749
-913.5671542984834,732
-910.8442236973568,713
-908.1220404642074,716
-905.4006044304027,713
-902.679915427231,675
-899.959973285902,667
-897.2407778375464,720
-894.5223289132158,703
-891.8046263438832,680
-889.0876699604426,686
-886.3714595937089,708
-883.6559950744183,716
-880.9412762332282,699
-878.2273029007168,709
-875.5140749073835,720
-872.8015920836489,656
-870.0898542598545,684
-867.3788612662631,683
-864.6686129330585,698
-861.9591090903457,682
-859.2503495681506,682
-856.5423341964203,645
-853.8350628050229,700
-851.1285352237478,690
-848.4227512823054,693
-845.7177108103272,685
-843.0134136373656,695
-840.3098595928943,664
-837.6070485063082,681
-834.9049802069229,711
-832.2036545239757,690
-829.5030712866244,672
-826.8032303239481,705
-824.1041314649472,698
-821.4057745385428,675
-818.7081593735775,687
-816.0112857988148,689
-813.3151536429393,679
-810.6197627345566,715
-807.9251129021936,682
-805.2312039742981,689
-802.5380357792392,682
-799.8456081453069,684
-797.1539209007124,689
-794.462973873588,723
-791.772766891987,715
-789.083299783884,731
-786.3945723771743,718
-783.7065844996748,712
-781.0193359791231,707
-778.3328266431781,749
-775.6470563194197,691
-772.9620248353489,711
-770.2777320183878,721
-767.5941776958798,691
-764.9113616950891,735
-762.2292838432011,692
-759.5479439673222,710
-756.8673418944801,720
-754.1874774516235,685
-751.5083504656222,704
-748.8299607632671,727
-746.15230817127,752
-743.475392516264,740
-740.7992136248035,738
-738.1237713233636,693
-735.4490654383407,724
-732.7750957960521,736
-730.1018622227365,754
-727.4293645445534,750
-724.7576025875837,779
-722.0865761778291,740
-719.4162851412126,759
-716.7467293035781,782
-714.0779084906909,765
-711.409822528237,740
-708.7424712418238,749
-706.0758544569796,807
-703.4099719991541,801
-700.7448236937178,813
-698.0804093659622,777
-695.4167288411002,788
-692.7537819442656,795
-690.0915685005134,826
-687.4300883348199,787
-684.7693412720819,753
-682.1093271371178,781
-679.4500457546669,741
-676.7914969493897,797
-674.1336805458676,818
-671.4765963686034,809
-668.8202442420206,811
-666.1646239904642,813
-663.5097354382001,779
-660.8555784094151,814
-658.2021527282176,811
-655.5494582186366,804
-652.8974947046223,836
-650.2462620100463,851
-647.5957599587009,823
-644.9459883742998,823
-642.2969470804776,872
-639.6486359007902,856
-637.0010546587141,851
-634.3542031776476,895
-631.7080812809096,866
-629.0626887917401,862
-626.4180255333008,857
-623.7740913286734,844
-621.1308860008619,814
-618.4884093727904,855
-615.8466612673046,839
-613.2056415071715,883
-610.5653499150785,841
-607.9257863136347,818
-605.28695052537,897
-602.6488423727357,843
-600.0114616781036,831
-597.3748082637674,849
-594.7388819519412,882
-592.1036825647604,898
-589.4692099242818,835
-586.8354638524829,906
-584.2024441712624,860
-581.5701507024403,835
-578.9385832677575,926
-576.3077416888759,876
-573.6776257873787,863
-571.0482353847704,859
-568.4195703024757,875
-565.7916303618415,883
-563.164415384135,890
-560.5379251905453,886
-557.9121596021815,861
-555.2871184400748,870
-552.6628015251767,874
-550.0392086783606,894
-547.4163397204204,898
-544.794194472071,919
-542.1727727539491,949
-539.5520743866118,928
-536.9320991905377,990
-534.3128469861261,991
-531.6943175936979,1049
-529.0765108334947,978
-526.4594265256793,1138
-523.8430644903358,1267
-521.2274245474689,1473
-518.612506517005,1541
-515.9983102187913,1543
-513.3848354725959,1568
-510.77208209810846,1573
-508.16004991493924,1629
-505.5487387426199,1758
-502.9381484006032,1941
-500.3282787082628,2054
-497.71912948489364,2006
-495.1107005497117,1996
-492.5029917218539,1848
-489.8960028203786,1654
-487.28973366426493,1507
-484.68418407241325,1334
-482.07935386364494,1238
-479.47524285670266,1161
-476.87185087025,1146
-474.2691777228715,1175
-471.66722323307334,1162
-469.0659872192821,1041
-466.4654694998459,1173
-463.86566989303384,1123
-461.26658821703614,1138
-458.66822428996414,1157
-456.07057792985,1161
-453.4736489546475,1113
-450.877437182231,1086
-448.28194243039627,1067
-445.68716451686,1081
-443.09310325926003,1054
-440.49975847515555,1078
-437.9071299820263,1003
-435.31521759727354,1078
-432.72402113821954,1131
-430.13354042210767,1119
-427.5437752661022,1082
-424.95472548728867,1081
-422.36639090267386,1114
-419.7787713291855,1187
-417.1918665836721,1210
-414.60567648290385,1158
-412.0202008435715,1165
-409.4354394822874,1158
-406.8513922155845,1115
-404.26805885991723,1170
-401.685439231661,1170
-399.103533147112,1234
-396.522340422488,1227
-393.9418608739278,1217
-391.3620943174908,1166
-388.7830405691583,1162
-386.2046994448317,1059
-383.6270707603344,1026
-381.05015433141045,1043
-378.473949973725,969
-375.8984575028645,921
-373.32367673433623,777
-370.74960748356875,753
-368.1762495659117,726
-365.60360279663576,684
-363.03166699093265,692
-360.4604419639154,618
-357.8899275306178,584
-355.32012350599507,586
-352.7510297049233,558
-350.1826459421999,565
-347.61497203254316,549
-345.04800779059235,552
-342.4817530309082,527
-339.91620756797226,536
-337.35137121618743,549
-334.7872437898774,567
-332.22382510328725,529
-329.66111497058273,529
-327.09911320585127,598
-324.53781962310075,588
-321.9772340362607,540
-319.4173562591816,545
-316.8581861056348,586
-314.2997233893127,543
-311.7419679238294,545
-309.1849195227194,563
-306.62857799943856,564
-304.0729431673641,614
-301.51801483979375,606
-298.963792829947,589
-296.41027695096386,556
-293.85746701590574,643
-291.3053628377552,709
-288.7539642294155,642
-286.2032710037115,674
-283.65328297338897,647
-281.1039999511146,663
-278.5554217494762,672
-276.007548180983,757
-273.4603790580651,785
-270.9139141930734,699
-268.3681533982807,770
-265.8230964858798,839
-263.27874326798565,837
-260.7350935566336,713
-258.1921471637804,797
-255.6499039013039,888
-253.10836358100266,879
-250.56752601459698,825
-248.02739101372765,823
-245.48795838995704,854
-242.94922795476816,886
-240.41119951956557,920
-237.8738728956746,910
-235.33724789434166,900
-232.80132432673452,842
-230.2661020039418,819
-227.73158073697357,900
-225.19776033676033,910
-222.66464061415422,1071
-220.1322213799284,920
-217.60050244477725,846
-215.06948361931552,934
-212.53916471408013,1135
-210.00954553952818,1119
-207.48062590603843,985
-204.9524056239104,884
-202.4248845033651,914
-199.8980623545441,1012
-197.37193898751036,1098
-194.84651421224817,1036
-192.32178783866232,971
-189.79775967657952,1028
-187.27442953574644,1093
-184.7517972258321,1180
-182.2298625564256,938
-179.7086253370378,848
-177.18808537710026,969
-174.66824248596583,1129
-172.14909647290835,1181
-169.6306471471229,1356
-167.11289431772548,1263
-164.59583779375328,1103
-162.07947738416453,1239
-159.5638128978386,1567
-157.04884414357605,1554
-154.53457093009854,1750
-152.02099306604828,1413
-149.50811035998936,1214
-146.99592262040665,1394
-144.48442965570587,1478
-141.97363127421409,1687
-139.46352728417958,1757
-136.95411749377126,1884
-134.44540171107985,1609
-131.93737974411636,1515
-129.43005140081357,1533
-126.92341648902493,1926
-124.41747481652521,2114
-121.91222619101006,2481
-119.40767042009657,3048
-116.90380731132257,3421
-114.40063667214702,3713
-111.8981583099503,4312
-109.3963720320337,6133
-106.89527764561933,8733
-104.39487495785067,9403
-101.89516377579241,11432
-99.39614390642998,15874
-96.89781515667039,22969
-94.40017733334128,26617
-91.90323024319173,21031
-89.40697369289148,13471
-86.91140748903172,9012
-84.41653143812482,7777
-81.92234534660395,11860
-79.42884902082358,14871
-76.93604226705907,14546
-74.4439248915071,11751
-71.95249670028534,8490
-69.46175749943245,6121
-66.97170709490854,5820
-64.48234529259423,6915
-61.99367189829195,8898
-59.50568671772464,10097
-57.01838955653636,11933
-54.53178022029283,13248
-52.045858514480074,13912
-49.560624244506016,15572
-47.07607721569923,17326
-44.59221723330904,14665
-42.10904410250669,13573
-39.62655762838392,16339
-37.14475761595372,20993
-34.66364387015028,23494
-32.18321619582866,29679
-29.70347439776515,27902
-27.224418280657005,26622
-24.74604764912317,38131
-22.26836230770266,58547
-19.7913620608565,65034
-17.315046712966478,65034
-14.83941606833514,65034
-12.36446993118659,65034
-9.89020810566592,65034
-7.416630395839093,65034
-4.94373660569363,65034
-2.471526539137585,65034
-6.821210263296962E-13,65034
2.47084320796705,65034
4.941003281093458,65034
7.410480415786196,65034
9.879274808531363,65034
12.347386655893956,65034
14.814816154518212,65034
17.28156350112681,65034
19.74762889252179,65034
22.21301252558385,65034
24.67771459727237,23403
27.141735304626195,7432
29.605074844762612,6563
32.06773341487792,6567
34.52971121224755,5436
36.99100843422559,4310
39.45162527824516,4467
41.91156194181792,4038
44.370818622535126,4192
46.82939551806646,4549
49.287292826160524,5761
51.74451074464503,5094
54.201049471426245,3509
56.65690920448981,2889
59.112090141899785,2672
61.56659248179983,3132
64.02041642241159,2734
66.4735621620365,2787
68.92602989905402,3368
71.37781983192338,3434
73.82893215918205,2794
76.27936707944684,2155
78.72912479141326,2330
81.17820549385567,1969
83.62660938562783,2054
86.07433666566146,2173
88.5213875329681,2134
90.96776218663751,2007
93.41346082583925,2119
95.85848364982041,2267
98.30283085790859,1930
100.7465026495089,1781
103.18949922410604,1887
105.63182078126385,1753
108.07346752062438,1860
110.51443964190923,1513
112.95473734491827,1505
115.39436082953114,1577
117.83331029570547,1471
120.27158594347827,1641
122.7091879729652,1595
125.1461165843615,1512
127.58237197794062,1365
130.01795435405518,1472
132.4528639131364,1539
134.88710085569494,1514
137.32066538231982,1789
139.75355769367923,1764
142.1857779905207,1451
144.61732647366978,1132
147.04820334403132,1251
149.47840880258934,1485
151.90794305040674,1635
154.33680628862487,1587
156.76499871846443,1766
159.19252054122433,1827
161.61937195828352,1970
164.04555317109896,2275
166.47106438120693,2423
168.89590579022217,2652
171.320077599839,2889
173.7435800118302,3006
176.16641322804742,3019
178.58857745042144,3183
181.01007288096173,3448
183.43089972175687,3569
185.85105817497413,3429
188.27054844285988,3411
190.6893707277394,3417
193.10752523201643,3440
195.5250121581745,3349
197.9418317087751,3611
200.3579840864594,3585
202.7734694939469,3598
205.18828813403627,3716
207.6024402096051,3719
210.01592592360964,3691
212.42874547908548,3696
214.84089907914665,3575
217.2523869269868,3466
219.66320922587727,3496
222.0733661791695,3527
224.48285799029293,3444
226.8916848627572,3565
229.29984700014882,3737
231.7073446061355,3507
234.11417788446204,3583
236.520347038953,3807
238.92585227351185,3805
241.33069379212054,3867
243.73487179884035,3892
246.1383864978112,3806
248.541238093252,3849
250.9434267894609,3818
253.34495279081432,3799
255.74581630176783,3852
258.1460175268563,3794
260.54555667069314,3852
262.9444339379703,3888
265.3426495334594,3789
267.7402036620107,3651
270.1370965285529,3617
272.53332833809407,3464
274.9288992957214,3370
277.32380960660055,3219
279.718059475976,3239
282.1116491091717,3230
284.5045787115897,3165
286.89684848871195,3125
289.2884586460981,3177
291.67940938938807,3276
294.0697009242996,3300
296.4593334566299,3214
298.84830719225477,3198
301.23662233712923,3231
303.6242790972866,3053
306.01127767884,3112
308.39761828798066,3064
310.78330113097934,2989
313.16832641418534,2910
315.5526943440269,2961
317.9364051270112,2850
320.3194589697242,2776
322.70185607883093,2850
325.0835966610754,2751
327.4646809232805,2770
329.8451090723478,2683
332.2248813152577,2740
334.6039978590701,2756
336.9824589109231,2727
339.36026467803447,2676
341.7374153677,2607
344.113911187295,2610
346.48975234427337,2600
348.8649390461686,2635
351.2394715005918,2688
353.61334991523415,2587
355.9865744978655,2631
358.35914545633375,2631
360.73106299856715,2641
363.10232733257146,2513
365.47293866643247,2523
367.84289720831396,2434
370.2122031664593,2477
372.5808567491905,2501
374.9488581649083,2501
377.31620762209275,2508
379.6829053293021,2537
382.0489514951745,2474
384.4143463284262,2413
386.7790900378528,2369
389.14318283232853,2411
391.50662492080653,2377
393.86941651231916,2368
396.23155781597745,2370
398.5930490409713,2472
400.9538903965696,2459
403.3140820921202,2365
405.6736243370498,2387
408.03251734086336,2332
410.3907613131465,2350
412.74835646356166,2338
415.10530300185144,2327
417.4616011378372,2370
419.81725108141893,2330
422.1722530425758,2317
424.5266072313656,2327
426.880313857925,2346
429.2333731324701,2326
431.58578526529516,2305
433.9375504667738,2314
436.2886689473588,2254
438.63914091758113,2336
440.9889665880513,2329
443.33814616945835,2246
445.68667987257015,2306
448.03456790823395,2268
450.3818104873759,2251
452.72840782100013,2331
455.07436012019105,2330
457.41966759611057,2223
459.7643304600007,2206
462.10834892318155,2230
464.4517231970525,2291
466.79445349309174,2371
469.1365400228566,2297
471.4779829979826,2302
473.81878263018564,2328
476.15893913125876,2393
478.4984527130747,2496
480.8373235875855,2521
483.17555196682144,2503
485.5131380628919,2644
487.8500820879857,2761
490.1863842543697,2844
492.52204477439034,3161
494.8570638604725,3409
497.1914417251204,3798
499.52517858091653,3999
501.85827464052306,4203
504.19073011668036,4160
506.5225452222086,4223
508.85372017000566,4041
511.18425517304956,4030
513.514150444396,4421
515.8434061971808,5766
518.1720226446176,6924
520.4999999999999,7003
522.8273384766991,6847
525.1540382881666,6317
527.480099647932,5947
529.8055227696037,4648
532.1303078668694,3482
534.454455153496,2790
536.777964843328,2650
539.1008371502907,2536
541.4230722883866,2467
543.744670471698,2376
546.0656319143858,2408
548.3859568306899,2358
550.7056454349294,2315
553.0246979415016,2346
555.3431145648834,2247
557.6608955196306,2273
559.978041020377,2323
562.2945512818363,2284
564.6104265188006,2333
566.9256669461412,2374
569.2402727788082,2220
571.5542442318302,2294
573.8675815203156,2308
576.1802848594508,2333
578.4923544645015,2387
580.8037905508126,2373
583.114593333807,2401
585.4247630289875,2416
587.7342998519354,2328
590.0432040183106,2401
592.3514757438526,2405
594.6591152443794,2399
596.9661227357875,2357
599.2724984340531,2423
601.578242555231,2360
603.8833553154542,2266
606.1878369309362,2282
608.4916876179676,2348
610.7949075929192,2287
613.0974970722403,2354
615.3994562724587,2327
617.7007854101818,2325
620.0014847020951,2314
622.3015543649641,2237
624.6009946156324,2380
626.8998056710224,2295
629.1979877481361,2351
631.4955410640538,2381
633.7924658359349,2381
636.0887622810175,2377
638.3844306166192,2485
640.6794710601358,2361
642.9738838290426,2369
645.2676691408932,2402
647.5608272133207,2393
649.853358264037,2348
652.1452625108324,2509
654.4365401715764,2448
656.7271914642178,2455
659.0172166067838,2361
661.3066158173809,2383
663.5953893141935,2412
665.8835373154867,2392
668.1710600396028,2388
670.4579577049639,2397
672.7442305300709,2451
675.0298787335033,2406
677.3149025339197,2318
679.599302150058,2338
681.8830778007342,2317
684.1662297048437,2468
686.4487580813608,2381
688.7306631493387,2380
691.0119451279091,2343
693.2926042362834,2413
695.5726406937516,2418
697.8520547196814,2410
700.1308465335215,2400
702.4090163547982,2361
704.6865644031171,2386
706.9634908981619,2399
709.2397960596965,2378
711.5154801075631,2313
713.7905432616823,2379
716.0649857420548,2352
718.3388077687592,2313
720.612009561953,2417
722.8845913418733,2311
725.1565533288352,2357
727.427895743234,2366
729.6986188055427,2369
731.9687227363137,2282
734.238207756178,2391
736.5070740858458,2312
738.7753219461066,2307
741.0429515578281,2336
743.3099631419569,2263
745.5763569195191,2294
747.8421331116193,2254
750.1072919394409,2369
752.3718336242467,2347
754.6357583873777,2326
756.8990664502545,2280
759.1617580343765,2406
761.423833361321,2314
763.6852926527457,2419
765.9461361303862,2400
768.206364016058,2326
770.4659765316536,2368
772.7249738991469,2364
774.9833563405886,2355
777.2411240781092,2293
779.4982773339183,2348
781.7548163303044,2437
784.010741289634,2339
786.2660524343538,2386
788.5207499869881,2324
790.7748341701416,2419
793.0283052064964,2486
795.2811633188143,2348
797.5334087299362,2339
799.7850416627813,2338
802.0360623403484,2345
804.2864709857143,2389
806.5362678220353,2368
808.7854530725468,2429
811.0340269605625,2397
813.2819897094754,2316
815.5293415427581,2342
817.77608268396,2397
820.0222133567116,2379
822.2677337847211,2376
824.5126441917765,2343
826.7569448017433,2420
829.0006358385675,2378
831.2437175262731,2299
833.4861900889629,2358
835.7280537508192,2334
837.9693087361026,2410
840.2099552691533,2313
842.4499935743896,2399
844.689423876309,2412
846.9282463994886,2364
849.1664613685833,2379
851.4040690083276,2401
853.6410695435349,2456
855.877463199097,2334
858.1132501999847,2390
860.3484307712487,2476
862.5830051380175,2404
864.8169735254988,2482
867.0503361589791,2396
869.2830932638243,2450
871.5152450654786,2449
873.7467917894654,2526
875.9777336613873,2498
878.2080709069252,2487
880.4378037518389,2474
882.666932421968,2479
884.8954571432301,2465
887.1233781416219,2462
889.3506956432192,2460
891.5774098741766,2532
893.803521060728,2488
896.0290294291852,2455
898.2539352059397,2477
900.4782386174619,2476
902.7019398903011,2501
904.925039251085,2557
907.147536926521,2476
909.3694331433943,2452
911.59072812857,2487
913.8114221089921,2455
916.0315153116827,2442
918.2510079637437,2400
920.4699002923547,2405
922.6881925247761,2405
924.905884888345,2420
927.1229776104793,2500
929.3394709186747,2466
931.555365040506,2425
933.7706602036275,2491
935.9853566357709,2407
938.1994545647489,2469
940.4129542184515,2447
942.6258558248488,2441
944.8381596119883,2513
947.0498658079974,2409
949.2609746410825,2362
951.4714863395287,2433
953.6814011316998,2422
955.8907192460387,2438
958.0994409110671,2417
960.3075663553858,2538
962.5150958076741,2452
964.7220294966913,2319
966.928367651274,2354
969.1341105003388,2383
971.3392582728806,2305
973.5438111979742,2343
975.747769504772,2375
977.9511334225061,2324
980.153903180487,2338
982.3560790081052,2254
984.5576611348289,2319
986.7586497902058,2228
988.9590452038618,2198
991.158847605503,2196
993.3580572249133,2174
995.5566742919558,2133
997.7546990365728,2144
999.952131688785,2137
1002.1489724786926,2126
1004.3452216364743,2060
1006.5408793923874,2082
1008.7359459767691,2050
1010.9304216200343,2040
1013.1243065526781,2053
1015.3176010052733,2016
1017.510305208472,1993
1019.7024193930064,2021
1021.8939437896848,1943
1024.0848786293977,2018
1026.2752241431122,2044
1028.4649805618747,2027
1030.6541481168115,1953
1032.842727039127,1982
1035.0307175601051,1969
1037.2181199111074,1891
1039.4049343235752,1932
1041.591161029029,1952
1043.7768002590683,1934
1045.9618522453698,1927
1048.1463172196918,1955
1050.3301954138697,1946
1052.513487059818,1941
1054.69619238953,1948
1056.8783116350783,1876
1059.0598450286152,1838
1061.2407928023704,1880
1063.4211551886528,1919
1065.6009324198508,1898
1067.780124728432,1910
1069.9587323469414,1855
1072.1367555080046,1891
1074.314194444325,1926
1076.4910493886855,1883
1078.667320573947,1858
1080.843008233051,1906
1083.0181125990161,1847
1085.1926339049414,1858
1087.3665723840027,1833
1089.5399282694575,1879
1091.7127017946405,1848
1093.8848931929647,1923
1096.0565026979243,1835
1098.2275305430899,1823
1100.3979769621128,1888
1102.567842188722,1759
1104.737126456726,1856
1106.9058300000124,1766
1109.0739530525475,1788
1111.2414958483764,1781
1113.4084586216231,1840
1115.5748416064907,1776
1117.7406450372605,1785
1119.9058691482942,1829
1122.0705141740304,1799
1124.2345803489884,1786
1126.3980679077658,1779
1128.5609770850388,1771
1130.7233081155623,1814
1132.8850612341707,1756
1135.0462366757774,1714
1137.2068346753745,1810
1139.3668554680326,1794
1141.526299288901,1758
1143.68516637321,1789
1145.8434569562655,1756
1148.001171273455,1732
1150.158309560244,1772
1152.3148720521767,1738
1154.470858984876,1725
1156.626270594044,1770
1158.7811071154629,1705
1160.9353687849912,1752
1163.089055838569,1703
1165.242168512213,1688
1167.3947070420209,1709
1169.5466716641677,1709
1171.6980626149075,1717
1173.8488801305748,1720
1175.9991244475814,1728
1178.1487958024186,1722
1180.2978944316555,1706
1182.4464205719428,1746
1184.5943744600072,1734
1186.7417563326567,1696
1188.8885664267755,1708
1191.0348049793297,1735
1193.1804722273619,1710
1195.325568407995,1663
1197.4700937584303,1683
1199.614048515948,1713
1201.7574329179074,1703
1203.900247201746,1747
1206.042491604982,1753
1208.1841663652099,1748
1210.3252717201053,1768
1212.465807907422,1776
1214.6057751649923,1764
1216.7451737307279,1737
1218.8840038426192,1782
1221.0222657387353,1804
1223.1599596572241,1724
1225.2970858363137,1707
1227.4336445143094,1768
1229.5696359295966,1814
1231.705060320639,1809
1233.8399179259786,1825
1235.9742089842384,1780
1238.107933734118,1805
1240.2410924143974,1764
1242.373685263935,1810
1244.5057125216676,1780
1246.6371744266116,1815
1248.7680712178621,1745
1250.898403134593,1840
1253.028170416058,1887
1255.1573733015875,1777
1257.2860120305932,1794
1259.4140868425648,1813
1261.54159797707,1813
1263.6685456737569,1827
1265.7949301723515,1799
1267.9207517126597,1841
1270.046010534565,1863
1272.1707068780306,1803
1274.2948409830983,1825
1276.4184130898889,1822
1278.541423438603,1906
1280.6638722695184,1907
1282.785759822993,1895
1284.9070863394636,1879
1287.0278520594447,1920
1289.1480572235314,1963
1291.2677020723963,1965
1293.3867868467923,1928
1295.5053117875495,1963
1297.623277135579,2007
1299.740683131868,1997
1301.8575300174857,1928
1303.973818033578,1981
1306.0895474213703,1968
1308.2047184221678,2006
1310.3193312773528,1941
1312.4333862283888,1985
1314.5468835168163,1900
1316.659823384255,1946
1318.7722060724045,2091
1320.8840318230418,1990
1322.9953008780249,1987
1325.1060134792888,1942
1327.2161698688478,1971
1329.3257702887959,2020
1331.4348149813054,1979
1333.5433041886276,1959
1335.6512381530933,2027
1337.7586171171101,1998
1339.8654413231675,1965
1341.9717110138317,2008
1344.0774264317488,1962
1346.1825878196432,1985
1348.2871954203192,1965
1350.3912494766587,2002
1352.4947502316231,1939
1354.5976979282532,1907
1356.7000928096686,2010
1358.8019351190665,1963
1360.9032250997243,1977
1363.0039629949988,1962
1365.1041490483235,1996
1367.2037835032133,1987
1369.3028666032606,1994
1371.401398592137,1988
1373.4993797135926,1970
1375.5968102114575,2021
1377.6936903296396,1919
1379.7900203121262,2011
1381.8858004029835,2014
1383.9810308463561,1937
1386.075711886469,2038
1388.1698437676241,1999
1390.2634267342032,2068
1392.356461030667,2064
1394.4489469015557,2036
1396.5408845914872,2018
1398.6322743451592,2008
1400.7231164073469,1965
1402.813411022907,2064
1404.903158436773,2145
1406.9923588939578,2119
1409.0810126395531,2034
1411.1691199187303,2091
1413.2566809767386,2125
1415.343696058907,2172
1417.4301654106425,2129
1419.5160892774315,2199
1421.6014679048399,2183
1423.6863015385125,2240
1425.7705904241707,2191
1427.8543348076178,2199
1429.9375349347342,2239
1432.0201910514802,2318
1434.102303403894,2326
1436.1838722380944,2273
1438.2648978002767,2317
1440.3453803367174,2410
1442.4253200937692,2356
1444.5047173178677,2494
1446.5835722555234,2473
1448.6618851533285,2456
1450.739656257952,2538
1452.8168858161434,2558
1454.8935740747306,2639
1456.96972128062,2615
1459.045327680797,2708
1461.120393522327,2615
1463.1949190523528,2772
1465.2689045180973,2847
1467.3423501668608,2821
1469.415256246024,2860
1471.4876230030463,2965
1473.559450685465,2997
1475.6307395408976,2996
1477.7014898170391,3136
1479.771701761665,3180
1481.8413756226287,3239
1483.9105116478618,3239
1485.9791100853772,3357
1488.0471711832643,3401
1490.1146951896926,3519
1492.1816823529098,3489
1494.2481329212433,3483
1496.3140471430984,3722
1498.3794252669609,3710
1500.4442675413939,3717
1502.5085742150404,3668
1504.572345536622,3765
1506.6355817549388,3799
1508.6982831188702,3902
1510.7604498773744,4000
1512.8220822794883,3891
1514.8831805743293,3987
1516.9437450110909,4107
1519.003775839048,4033
1521.0632733075522,4154
1523.1222376660367,4309
1525.1806691640113,4336
1527.2385680510652,4463
1529.2959345768668,4530
1531.3527689911643,4509
1533.4090715437833,4589
1535.4648424846291,4694
1537.5200820636855,4779
1539.5747905310159,4762
1541.6289681367616,4926
1543.6826151311434,4938
1545.7357317644614,5099
1547.7883182870937,5245
1549.8403749494987,5253
1551.8919020022113,5453
1553.9428996958477,5473
1555.9933682811015,5575
1558.0433080087469,5663
1560.0927191296346,5727
1562.1416018946961,5779
1564.1899565549415,5732
1566.2377833614592,5657
1568.2850825654164,5559
1570.3318544180606,5346
1572.3780991707158,5260
1574.423817074788,4973
1576.4690083817595,4700
1578.5136733431923,4482
1580.5578122107272,4275
1582.601425236085,4021
1584.6445126710646,3828
1586.6870747675434,3658
1588.7291117774776,3455
1590.7706239529034,3345
1592.8116115459347,3211
1594.8520748087658,3060
1596.8920139936686,2892
1598.9314293529933,2799
1600.9703211391711,2707
1603.008689604711,2633
1605.0465350022005,2600
1607.0838575843068,2461
1609.1206576037753,2386
1611.1569353134305,2389
1613.1926909661765,2380
1615.2279248149953,2295
1617.2626371129481,2195
1619.2968281131757,2195
1621.3304980688963,2258
1623.3636472334088,2135
1625.39627586009,2256
1627.428384202396,2104
1629.459972513861,2093
1631.4910410480993,2020
1633.5215900588028,2091
1635.551619799744,2064
1637.5811305247717,1965
1639.6101224878166,2006
1641.6385959428862,1981
1643.6665511440683,1979
1645.693988345528,1959
1647.7209078015112,1902
1649.7473097663405,1932
1651.7731944944203,1923
1653.7985622402307,1912
1655.823413258333,1963
1657.847747803366,1847
1659.8715661300494,1909
1661.8948684931793,1910
1663.9176551476316,1941
1665.9399263483624,1912
1667.9616823504057,1980
1669.982923408873,1949
1672.0036497789574,1849
1674.0238617159293,1867
1676.043559475138,1831
1678.0627433120121,1913
1680.081413482059,1897
1682.0995702408654,1885
1684.117213844096,1923
1686.134344547495,1930
1688.1509626068864,1974
1690.1670682781705,1886
1692.182661817329,1852
1694.1977434804217,1922
1696.2123135235875,1910
1698.226372203043,1845
1700.2399197750851,1900
1702.2529564960905,1846
1704.2654826225112,1866
1706.277498410882,1856
1708.2890041178139,1892
1710.2999999999988,1872
1712.3104863142066,1868
1714.3204633172854,1854
1716.329931266163,1837
1718.3388904178469,1819
1720.3473410294214,1797
1722.3552833580516,1824
1724.3627176609807,1830
1726.3696441955308,1801
1728.3760632191033,1832
1730.3819749891782,1803
1732.3873797633146,1857
1734.3922777991502,1785
1736.3966693544012,1878
1738.4005546868639,1830
1740.4039340544127,1766
1742.406807715001,1735
1744.4091759266616,1756
1746.4110389475054,1798
1748.4123970357223,1736
1750.413250449582,1741
1752.4135994474318,1818
1754.4134442876993,1810
1756.4127852288902,1745
1758.4116225295893,1749
1760.4099564484595,1802
1762.407787244244,1744
1764.405115175764,1724
1766.4019405019203,1730
1768.3982634816916,1692
1770.3940843741357,1637
1772.3894034383907,1703
1774.3842209336717,1684
1776.378537119274,1710
1778.372352254571,1681
1780.3656665990156,1705
1782.3584804121397,1621
1784.3507939535534,1674
1786.3426074829463,1720
1788.3339212600863,1727
1790.3247355448211,1690
1792.3150505970766,1670
1794.3048666768573,1702
1796.2941840442477,1640
1798.2830029594106,1713
1800.2713236825884,1714
1802.2591464741004,1685
1804.2464715943465,1643
1806.2332993038058,1661
1808.2196298630352,1701
1810.2054635326708,1676
1812.190800573428,1708
1814.175641246101,1689
1816.1599858115628,1649
1818.1438345307652,1686
1820.127187664738,1666
1822.1100454745924,1620
1824.092408221516,1623
1826.0742761667766,1540
1828.055649571721,1668
1830.0365286977735,1640
1832.0169138064398,1641
1833.9968051593014,1688
1835.9762030180214,1669
1837.9551076443408,1697
1839.9335193000788,1631
1841.9114382471344,1661
1843.888864747485,1628
1845.8657990631878,1642
1847.842241456378,1657
1849.8181921892697,1632
1851.7936515241558,1630
1853.7686197234098,1655
1855.7430970494815,1618
1857.7170837649014,1676
1859.6905801322787,1626
1861.6635864143004,1645
1863.6361028737338,1645
1865.608129773424,1730
1867.5796673762961,1690
1869.5507159453537,1667
1871.521275743678,1627
1873.4913470344313,1654
1875.4609300808534,1661
1877.4300251462632,1701
1879.3986324940588,1697
1881.366752387717,1682
1883.3343850907936,1711
1885.3015308669228,1656
1887.268189979819,1639
1889.2343626932739,1672
1891.2000492711595,1691
1893.1652499774254,1701
1895.1299650761011,1735
1897.0941948312952,1717
1899.0579395071945,1706
1901.0211993680641,1679
1902.98397467825,1669
1904.9462657021745,1681
1906.9080727043415,1775
1908.869395949332,1744
1910.8302357018065,1627
1912.790592226504,1667
1914.7504657882428,1694
1916.7098566519212,1595
1918.6687650825133,1630
1920.6271913450764,1680
1922.5851357047422,1701
1924.5425984267245,1670
1926.499579776314,1602
1928.4560800188833,1644
1930.4120994198802,1694
1932.367638244833,1674
1934.32269675935,1648
1936.2772752291175,1710
1938.231373919899,1653
1940.1849930975404,1657
1942.1381330279637,1628
1944.0907939771696,1672
1946.0429762112412,1615
1947.9946799963363,1639
1949.9459055986945,1639
1951.896653284633,1650
1953.8469233205478,1619
1955.7967159729142,1587
1957.7460315082863,1614
1959.6948701932974,1633
1961.6432322946594,1643
1963.5911180791632,1640
1965.5385278136787,1623
1967.4854617651545,1585
1969.4319202006182,1632
1971.377903387176,1589
1973.3234115920136,1573
1975.268445082395,1647
1977.2130041256642,1638
1979.1570889892423,1589
1981.1006999406304,1596
1983.04383724741,1652
1984.986501177238,1667
1986.928691997853,1593
1988.8704099770712,1645
1990.811655382789,1610
1992.7524284829801,1608
1994.692729545698,1671
1996.6325588390755,1563
1998.5719166313224,1561
2000.5108031907307,1577
2002.4492187856677,1609
2004.387163684583,1575
2006.3246381560011,1555
2008.2616424685298,1559
2010.1981768908527,1501
2012.1342416917332,1582
2014.069837140014,1620
2016.0049635046162,1543
2017.9396210545406,1623
2019.8738100588666,1670
2021.8075307867502,1587
2023.740783507431,1581
2025.6735684902228,1630
2027.6058860045214,1619
2029.5377363198004,1616
2031.4691197056118,1633
2033.4000364315875,1532
2035.3304867674374,1591
2037.260470982952,1569
2039.189989347998,1612
2041.1190421325232,1589
2043.047629606554,1496
2044.9757520401945,1616
2046.9034097036288,1570
2048.8306028671195,1581
2050.7573318010086,1547
2052.683596775716,1592
2054.609398061742,1587
2056.5347359296647,1564
2058.4596106501403,1550
2060.384022493906,1539
2062.3079717317764,1507
2064.231458634646,1515
2066.1544834734873,1510
2068.077046519352,1580
2069.99914804337,1611
2071.9207883167524,1610
2073.8419676107865,1566
2075.7626861968406,1536
2077.6829443463607,1507
2079.6027423308715,1573
2081.522080421977,1550
2083.440958891362,1534
2085.359378010786,1581
2087.2773380520907,1560
2089.194839287196,1623
2091.111881988101,1611
2093.0284664268825,1584
2094.9445928756973,1529
2096.86026160678,1586
2098.775472892446,1571
2100.690227005088,1492
2102.604524217178,1565
2104.5183648012676,1552
2106.431749029985,1607
2108.34467717604,1627
2110.2571495122206,1539
2112.169166311393,1613
2114.080727846503,1584
2115.9918343905747,1580
2117.902486216711,1624
2119.8126835980956,1661
2121.722426807987,1653
2123.6317161197285,1551
2125.5405518067364,1595
2127.448934142509,1627
2129.356863400624,1600
2131.264339854737,1679
2133.1713637785815,1631
2135.077935445972,1627
2136.9840551308002,1597
2138.889723107037,1665
2140.7949396487334,1617
2142.699705030018,1685
2144.6040195250994,1639
2146.507883408264,1684
2148.4112969538774,1647
2150.3142604363848,1660
2152.2167741303097,1614
2154.1188383102535,1662
2156.0204532508997,1638
2157.9216192270064,1703
2159.822336513414,1639
2161.7226053850413,1696
2163.622426116884,1670
2165.5217989840185,1695
2167.4207242616,1669
2169.319202224862,1677
2171.2172331491165,1698
2173.1148173097563,1697
2175.0119549822507,1691
2176.90864644215,1652
2178.8048919650823,1684
2180.7006918267534,1787
2182.596046302952,1718
2184.4909556695407,1730
2186.3854202024645,1729
2188.279440177746,1723
2190.173015871487,1662
2192.066147559868,1616
2193.958835519149,1663
2195.851080025667,1652
2197.7428813558417,1725
2199.6342397861667,1698
2201.5251555932186,1681
2203.415629053651,1696
2205.3056604441986,1737
2207.19525004167,1802
2209.084398122958,1738
2210.9731049650327,1762
2212.861370844941,1780
2214.749196039812,1717
2216.636580826851,1753
2218.523525483344,1756
2220.410030286655,1778
2222.296095514226,1753
2224.1817214435805,1715
2226.066908352319,1787
2227.951656518121,1771
2229.835966218746,1744
2231.71983773203,1767
2233.6032713358913,1781
2235.486267308324,1757
2237.3688259274036,1670
2239.2509474712824,1712
2241.132632218193,1728
2243.013880446447,1752
2244.8946924344323,1769
2246.7750684606203,1724
2248.6550088035574,1758
2250.534513741871,1693
2252.413583554265,1757
2254.292218519526,1735
2256.170418916517,1705
2258.0481850241786,1656
2259.925517121534,1718
2261.8024154876825,1691
2263.678880401803,1731
2265.5549121431536,1771
2267.430510991071,1745
2269.305677224971,1719
2271.180411124348,1745
2273.0547129687766,1675
2274.9285830379076,1698
2276.8020216114737,1647
2278.6750289692845,1754
2280.5476053912294,1722
2282.4197511572766,1813
2284.2914665474727,1793
2286.162751841943,1823
2288.0336073208937,1824
2289.904033264608,1808
2291.774029953448,1798
2293.6435976678554,1681
2295.5127366883517,1684
2297.381447295534,1625
2299.2497297700825,1635
2301.1175843927526,1534
2302.9850114443825,1607
2304.852011205885,1573
2306.7185839582553,1476
2308.5847299825664,1483
2310.4504495599676,1476
2312.3157429716925,1483
2314.1806104990483,1462
2316.0450524234247,1417
2317.9090690262888,1459
2319.772660589186,1481
2321.635827393742,1460
2323.498569721661,1519
2325.3608878547248,1437
2327.2227820747967,1463
2329.0842526638157,1483
2330.945299903803,1502
2332.805924076857,1410
2334.6661254651535,1429
2336.525904350951,1475
2338.3852610165827,1417
2340.244195744464,1505
2342.102708817088,1463
2343.9608005170253,1427
2345.8184711269287,1504
2347.675720929526,1452
2349.532550207628,1412
2351.38895924412,1477
2353.24494832197,1439
2355.100517724223,1473
2356.955667734004,1416
2358.810398634514,1502
2360.664710709037,1445
2362.5186042409337,1488
2364.3720795136437,1533
2366.225136810686,1451
2368.0777764156583,1494
2369.929998612237,1477
2371.7818036841777,1479
2373.633191915315,1496
2375.484163589562,1471
2377.3347189909114,1477
2379.184858403434,1482
2381.03458211128,1536
2382.8838903986775,1518
2384.732783549936,1502
2386.5812618494406,1516
2388.4293255816588,1516
2390.2769750311327,1558
2392.1242104824883,1494
2393.971032220427,1484
2395.8174405297295,1584
2397.6634356952563,1545
2399.509018001947,1488
2401.3541877348193,1473
2403.1989451789705,1532
2405.043290619576,1513
2406.8872243418905,1525
2408.730746631247,1441
2410.5738577730594,1484
2412.4165580528183,1497
2414.258847756095,1483
2416.100727168537,1523
2417.9421965758734,1488
2419.783256263912,1563
2421.623906518538,1529
2423.4641476257157,1530
2425.303979871491,1535
2427.143403541984,1597
2428.9824189233977,1481
2430.821026302012,1610
2432.6592259641866,1530
2434.497018196361,1508
2436.33440328505,1517
2438.171381516851,1528
2440.00795317844,1559
2441.844118556569,1505
2443.6798779380724,1554
2445.5152316098606,1542
2447.3501798589255,1542
2449.1847229723357,1550
2451.0188612372403,1541
2452.8525949408663,1512
2454.6859243705203,1564
2456.518849813587,1514
2458.3513715575314,1622
2460.183489889895,1530
2462.015205098301,1582
2463.8465174704493,1507
2465.67742729412,1521
2467.5079348571717,1597
2469.338040447542,1596
2471.1677443532476,1574
2472.9970468623833,1562
2474.825948263123,1562
2476.6544488437207,1540
2478.482548892508,1547
2480.310248697896,1568
2482.137548548374,1567
2483.9644487325118,1598
2485.790949538956,1561
2487.617051256433,1612
2489.44275417375,1577
2491.26805857979,1478
2493.0929647635157,1567
2494.917473013971,1593
2496.741583620276,1574
2498.5652968716304,1489
2500.3886130573137,1541
2502.2115324666834,1629
2504.0340553891765,1664
2505.856182114308,1597
2507.6779129316733,1607
2509.499248130945,1621
2511.3201880018764,1575
2513.140732834298,1649
2514.9608829181198,1582
2516.780638543331,1627
2518.6,1604
2520.418967578273,1680
2522.237541568376,1639
2524.0557222606144,1691
2525.8735099453706,1599
2527.6909049131086,1692
2529.507907454368,1721
2531.32451785977,1692
2533.140736420014,1632
2534.9565634258774,1703
2536.771999168218,1689
2538.5870439379714,1747
2540.4016980261526,1741
2542.2159617238544,1712
2544.02983532225,1718
2545.8433191125914,1773
2547.656413386209,1738
2549.4691184345115,1820
2551.2814345489874,1763
2553.093362021204,1840
2554.904901142808,1841
2556.716052205523,1836
2558.526815501153,1869
2560.3371913215824,1898
2562.147179958771,1887
2563.956781704761,1847
2565.7659968516705,1905
2567.5748256916986,1892
2569.3832685171224,1918
2571.1913256202984,1920
2572.9989972936614,1957
2574.806283829725,1919
2576.613185521084,1924
2578.4197026604074,1965
2580.2258355404483,1925
2582.031584454035,1943
2583.836949694077,2029
2585.6419315535613,2102
2587.4465303255533,2000
2589.2507463032002,2025
2591.0545797797245,2008
2592.8580310484303,2086
2594.6611004026995,2027
2596.463788135992,2053
2598.266094541849,2181
2600.0680199138874,2091
2601.869564545807,2117
2603.670728731383,2113
2605.4715127644704,2029
2607.2719169390048,2058
2609.071941548998,2049
2610.8715868885433,2171
2612.670853251811,2168
2614.469740933052,2090
2616.268250226594,2068
2618.0663814268455,2131
2619.864134828292,2035
2621.6615107255006,2004
2623.458509413115,2081
2625.2551311858597,2059
2627.0513763385347,2084
2628.8472451660223,1993
2630.6427379632833,2025
2632.4378550253564,1898
2634.232596647359,1999
2636.026963124488,1943
2637.8209547520187,1964
2639.6145718253065,1976
2641.407814639785,1884
2643.200683490966,1961
2644.9931786744414,1887
2646.7853004858807,1932
2648.577049221034,1887
2650.3684251757277,1819
2652.1594286458712,1757
2653.9500599274484,1852
2655.740319316525,1805
2657.5302071092437,1776
2659.3197236018286,1791
2661.10886909058,1775
2662.8976438718782,1708
2664.686048242183,1744
2666.4740824980327,1788
2668.2617469360443,1784
2670.0490418529134,1650
2671.8359675454153,1677
2673.622524310403,1740
2675.408712444811,1586
2677.1945322456495,1610
2678.979984010009,1704
2680.76506803506,1625
2682.5497846180497,1619
2684.334134056306,1673
2686.1181166472343,1672
2687.9017326883213,1580
2689.6849824771293,1642
2691.4678663113013,1607
2693.2503844885596,1623
2695.032537306705,1628
2696.8143250636167,1611
2698.5957480572542,1593
2700.3768065856534,1501
2702.1575009469316,1573
2703.937831439283,1604
2705.717798360982,1600
2707.4974020103837,1534
2709.276642685917,1516
2711.055520686095,1526
2712.834036309506,1540
2714.612189854819,1517
2716.389981620782,1522
2718.1674119062204,1499
2719.944481010041,1481
2721.721189231226,1494
2723.4975368688415,1529
2725.273524222027,1516
2727.0491515900053,1549
2728.824419272075,1482
2730.5993275676146,1484
2732.3738767760838,1487
2734.148067197016,1525
2735.921899130031,1492
2737.6953728748194,1473
2739.468488731156,1459
2741.2412469988926,1497
2743.0136479779617,1433
2744.785691968372,1489
2746.5573792702116,1425
2748.3287101836504,1435
2750.099685008934,1430
2751.870304046388,1480
2753.640567596418,1421
2755.4104759595057,1426
2757.1800294362156,1425
2758.949228327187,1476
2760.7180729331412,1548
2762.486563554877,1497
2764.254700493272,1474
2766.022484049284,1471
2767.789914523947,1500
2769.5569922183786,1480
2771.3237174337705,1460
2773.090090471394,1434
2774.8561116326036,1443
2776.6217812188274,1469
2778.3870995315756,1464
2780.1520668724356,1453
2781.9166835430747,1451
2783.6809498452394,1455
2785.444866080754,1481
2787.2084325515225,1409
2788.971649559527,1456
2790.73451740683,1458
2792.4970363955713,1487
2794.2592068279705,1408
2796.0210290063264,1402
2797.7825032330147,1432
2799.543629810493,1498
2801.304409041296,1439
2803.0648412280366,1471
2804.8249266734088,1499
2806.5846656801846,1489
2808.344058551212,1454
2810.1031055894246,1470
2811.8618070978273,1533
2813.6201633795085,1416
2815.378174737636,1466
2817.1358414754536,1485
2818.893163896285,1431
2820.6501423035334,1432
2822.4067770006814,1467
2824.1630682912883,1444
2825.9190164789957,1462
2827.6746218675207,1435
2829.429884760661,1443
2831.184805462294,1445
2832.9393842763743,1478
2834.693621506936,1440
2836.4475174580916,1441
2838.201072434034,1399
2839.954286739034,1509
2841.707160677441,1454
2843.459694553685,1479
2845.2118886722724,1492
2846.96374333779,1423
2848.7152588549034,1490
2850.4664355283567,1474
2852.217273662973,1506
2853.9677735636546,1478
2855.7179355353833,1427
2857.4677598832186,1418
2859.217246912299,1471
2860.9663969278427,1408
2862.715210235146,1458
2864.4636871395846,1408
2866.211827946614,1451
2867.9596329617652,1413
2869.7071024906536,1456
2871.4542368389684,1429
2873.20103631248,1450
2874.947501217038,1464
2876.6936318585695,1448
2878.4394285430812,1514
2880.1848915766604,1416
2881.9300212654707,1469
2883.6748179157553,1367
2885.4192818338374,1465
2887.1634133261173,1438
2888.907212699077,1399
2890.6506802592744,1406
2892.393816313348,1395
2894.1366211680142,1483
2895.8790951300693,1413
2897.621238506388,1497
2899.363051603925,1461
2901.1045347297118,1487
2902.8456881908596,1389
2904.58651229456,1491
2906.327007348081,1397
2908.067173658772,1436
2909.8070115340597,1376
2911.5465212814497,1441
2913.285703208527,1348
2915.0245576229563,1368
2916.7630848324807,1423
2918.5012851449196,1482
2920.2391588681758,1450
2921.976706310227,1415
2923.7139277791334,1511
2925.4508235830313,1406
2927.187394030137,1379
2928.923639428745,1456
2930.6595600872306,1476
2932.395156314046,1462
2934.1304284177218,1416
2935.8653767068713,1428
2937.6000014901815,1438
2939.3343030764227,1422
2941.068281774442,1392
2942.8019378931644,1419
2944.5352717415976,1492
2946.2682836288236,1452
2948.0009738640065,1405
2949.7333427563885,1405
2951.465390615289,1402
2953.1971177501086,1416
2954.9285244703265,1454
2956.6596110855,1463
2958.3903779052657,1424
2960.1208252393385,1450
2961.8509533975125,1363
2963.5807626896617,1493
2965.3102534257378,1429
2967.0394259157715,1417
2968.768280469873,1429
2970.496817398232,1410
2972.2250370111146,1444
2973.952939618869,1390
2975.6805255319196,1425
2977.4077950607707,1408
2979.134748516006,1463
2980.861386208289,1432
2982.587708448359,1420
2984.313715547037,1436
2986.039407815222,1434
2987.764785563891,1418
2989.489849104102,1422
2991.2145987469908,1446
2992.9390348037705,1448
2994.6631575857346,1410
2996.3869674042576,1411
2998.1104645707887,1382
2999.83364939686,1456
3001.5565221940783,1466
3003.2790832741334,1427
3005.0013329487924,1453
3006.7232715298996,1406
3008.4448993293804,1364
3010.166216659239,1387
3011.887223831558,1426
3013.607921158498,1372
3015.3283089522993,1450
3017.0483875252826,1434
3018.7681571898443,1435
3020.4876182584626,1418
3022.2067710436927,1496
3023.9256158581707,1376
3025.644153014609,1427
3027.362382825801,1441
3029.0803056046193,1370
3030.797921664012,1413
3032.5152313170106,1433
3034.2322348767225,1411
3035.9489326563353,1422
3037.665324969115,1372
3039.3814121284063,1471
3041.097194447633,1425
3042.812672240299,1417
3044.5278458199855,1481
3046.2427155003525,1465
3047.9572815951406,1419
3049.671544418167,1395
3051.38550428333,1438
3053.0991615046073,1405
3054.812516396051,1416
3056.5255692717974,1439
3058.2383204460575,1437
3059.9507702331257,1418
3061.662918947372,1427
3063.3747669032446,1369
3065.0863144152736,1414
3066.7975617980674,1403
3068.508509366309,1400
3070.219157434767,1392
3071.9295063182844,1453
3073.639556331785,1454
3075.3493077902704,1443
3077.058761008821,1435
3078.7679163025964,1479
3080.476773986837,1472
3082.1853343768594,1501
3083.89359778806,1449
3085.6015645359153,1473
3087.3092349359786,1422
3089.016609303884,1490
3090.7236879553434,1457
3092.4304712061476,1436
3094.136959372166,1434
3095.843152769349,1397
3097.5490517137237,1470
3099.2546565213966,1404
3100.959967508554,1416
3102.66498499146,1474
3104.3697092864577,1493
3106.0741407099695,1447
3107.778279578498,1413
3109.482126208622,1437
3111.1856809170004,1496
3112.8889440203716,1412
3114.5919158355528,1457
3116.294596679439,1439
3117.996986869006,1478
3119.6990867213062,1438
3121.4008965534726,1414
3123.102416682717,1449
3124.803647426329,1413
3126.5045891016784,1427
3128.205242026213,1427
3129.90560651746,1460
3131.605682893025,1379
3133.3054714705922,1417
3135.0049725679282,1513
3136.7041865028714,1448
3138.4031135933465,1424
3140.101754157353,1432
3141.800108512971,1482
3143.498176978357,1469
3145.1959598717494,1455
3146.8934575114636,1366
3148.5906702158954,1420
3150.2875983035183,1415
3151.9842420928853,1366
3153.680601902627,1420
3155.376678051456,1454
3157.07247085816,1447
3158.767980641609,1492
3160.463207720748,1404
3162.158152414606,1441
3163.8528150422862,1357
3165.5471959229726,1475
3167.2412953759303,1411
3168.9351137204976,1457
3170.628651276098,1440
3172.3219083622307,1450
3174.014885298474,1446
3175.707582404485,1471
3177.4000000000005,1446
3179.092138404835,1359
3180.7839979388846,1405
3182.47557892212,1410
3184.166881674594,1380
3185.8579065164386,1411
3187.5486537678626,1346
3189.2391237491547,1375
3190.9293167806827,1419
3192.6192331828934,1360
3194.3088732763117,1429
3195.998237381542,1392
3197.687325819268,1407
3199.376138910251,1339
3201.064676975334,1358
3202.7529403354347,1394
3204.4409293115523,1379
3206.1286442247647,1395
3207.816085396229,1414
3209.5032531471825,1352
3211.190147798936,1366
3212.8767696728846,1382
3214.5631190905015,1291
3216.2491963733373,1438
3217.9350018430214,1353
3219.6205358212637,1372
3221.305798629851,1334
3222.990790590651,1342
3224.6755120256103,1381
3226.359963256751,1383
3228.0441446061795,1347
3229.7280563960758,1366
3231.411698948703,1367
3233.0950725863995,1313
3234.778177631587,1368
3236.461014406761,1312
3238.1435832345005,1378
3239.8258844374595,1361
3241.507918338374,1425
3243.1896852600576,1444
3244.8711855254023,1431
3246.552419457381,1350
3248.233387379042,1394
3249.914089613516,1383
3251.59452648401,1338
3253.274698313813,1365
3254.95460542629,1354
3256.6342481448855,1357
3258.313626793125,1286
3259.9927416946084,1350
3261.6715931730196,1363
3263.3501815521176,1362
3265.0285071557437,1356
3266.706570307815,1330
3268.3843713323286,1354
3270.0619105533615,1324
3271.739188295068,1353
3273.4162048816834,1404
3275.0929606375184,1370
3276.769455886966,1328
3278.445690954498,1376
3280.1216661646613,1335
3281.797381842087,1378
3283.4728383114807,1376
3285.1480358976296,1445
3286.8229749253996,1359
3288.4976557197333,1371
3290.172078605655,1363
3291.846243908266,1347
3293.5201519527463,1289
3295.193803064357,1344
3296.8671975684374,1358
3298.5403357904024,1419
3300.21321805575,1350
3301.8858446900567,1414
3303.558216018975,1373
3305.23033236824,1367
3306.9021940636603,1393
3308.57380143113,1318
3310.2451547966184,1411
3311.916254486174,1336
3313.5871008259246,1380
3315.2576941420766,1356
3316.9280347609147,1389
3318.5981230088046,1337
3320.2679592121895,1371
3321.9375436975924,1366
3323.606876791612,1330
3325.27595882093,1412
3326.944790112305,1302
3328.6133709925753,1396
3330.2817017886573,1345
3331.949782827547,1360
3333.617614436319,1298
3335.2851969421245,1332
3336.952530672199,1374
3338.619615953853,1383
3340.286453114475,1379
3341.9530424815357,1397
3343.619384382583,1345
3345.2854791452437,1353
3346.951327097224,1370
3348.6169285663073,1394
3350.2822838803577,1369
3351.947393367319,1374
3353.61225735521,1330
3355.2768761721345,1393
3356.9412501462693,1345
3358.605379605873,1396
3360.2692648792827,1366
3361.9329062949146,1354
3363.596304181263,1320
