CollectionTime,9/20/2024 12:30:40 PM
ExposureUsed,3
CalibratedSpectrum
-962.7078968117929,1100
-959.9714848408522,1185
-957.2358232597828,1212
-954.5009119013725,1208
-951.7667505983302,1206
-949.0333391832855,1258
-946.3006774887896,1224
-943.5687653473143,1259
-940.837602591253,1258
-938.1071890529199,1290
-935.3775245645503,1301
-932.6486089583007,1249
-929.9204420662485,1225
-927.1930237203925,1204
-924.4663537526524,1238
-921.7404319948689,1232
-919.0152582788041,1272
-916.2908324361409,1299
-913.5671542984834,1225
-910.8442236973568,1214
-908.1220404642074,1255
-905.4006044304027,1296
-902.679915427231,1260
-899.959973285902,1259
-897.2407778375464,1269
-894.5223289132158,1290
-891.8046263438832,1243
-889.0876699604426,1259
-886.3714595937089,1277
-883.6559950744183,1312
-880.9412762332282,1290
-878.2273029007168,1245
-875.5140749073835,1209
-872.8015920836489,1209
-870.0898542598545,1174
-867.3788612662631,1220
-864.6686129330585,1200
-861.9591090903457,1272
-859.2503495681506,1261
-856.5423341964203,1272
-853.8350628050229,1209
-851.1285352237478,1216
-848.4227512823054,1233
-845.7177108103272,1261
-843.0134136373656,1216
-840.3098595928943,1235
-837.6070485063082,1220
-834.9049802069229,1234
-832.2036545239757,1290
-829.5030712866244,1252
-826.8032303239481,1231
-824.1041314649472,1262
-821.4057745385428,1254
-818.7081593735775,1282
-816.0112857988148,1300
-813.3151536429393,1284
-810.6197627345566,1272
-807.9251129021936,1264
-805.2312039742981,1266
-802.5380357792392,1308
-799.8456081453069,1275
-797.1539209007124,1334
-794.462973873588,1340
-791.772766891987,1305
-789.083299783884,1268
-786.3945723771743,1322
-783.7065844996748,1272
-781.0193359791231,1210
-778.3328266431781,1253
-775.6470563194197,1288
-772.9620248353489,1268
-770.2777320183878,1245
-767.5941776958798,1257
-764.9113616950891,1312
-762.2292838432011,1291
-759.5479439673222,1262
-756.8673418944801,1244
-754.1874774516235,1320
-751.5083504656222,1306
-748.8299607632671,1277
-746.15230817127,1313
-743.475392516264,1348
-740.7992136248035,1291
-738.1237713233636,1307
-735.4490654383407,1314
-732.7750957960521,1299
-730.1018622227365,1371
-727.4293645445534,1278
-724.7576025875837,1379
-722.0865761778291,1368
-719.4162851412126,1361
-716.7467293035781,1333
-714.0779084906909,1391
-711.409822528237,1406
-708.7424712418238,1321
-706.0758544569796,1392
-703.4099719991541,1400
-700.7448236937178,1425
-698.0804093659622,1390
-695.4167288411002,1411
-692.7537819442656,1337
-690.0915685005134,1346
-687.4300883348199,1367
-684.7693412720819,1382
-682.1093271371178,1369
-679.4500457546669,1417
-676.7914969493897,1452
-674.1336805458676,1406
-671.4765963686034,1348
-668.8202442420206,1377
-666.1646239904642,1415
-663.5097354382001,1399
-660.8555784094151,1411
-658.2021527282176,1390
-655.5494582186366,1430
-652.8974947046223,1394
-650.2462620100463,1417
-647.5957599587009,1403
-644.9459883742998,1447
-642.2969470804776,1486
-639.6486359007902,1488
-637.0010546587141,1508
-634.3542031776476,1583
-631.7080812809096,1453
-629.0626887917401,1499
-626.4180255333008,1485
-623.7740913286734,1531
-621.1308860008619,1536
-618.4884093727904,1515
-615.8466612673046,1464
-613.2056415071715,1421
-610.5653499150785,1539
-607.9257863136347,1571
-605.28695052537,1541
-602.6488423727357,1569
-600.0114616781036,1506
-597.3748082637674,1470
-594.7388819519412,1575
-592.1036825647604,1585
-589.4692099242818,1558
-586.8354638524829,1509
-584.2024441712624,1476
-581.5701507024403,1537
-578.9385832677575,1640
-576.3077416888759,1633
-573.6776257873787,1560
-571.0482353847704,1557
-568.4195703024757,1573
-565.7916303618415,1544
-563.164415384135,1641
-560.5379251905453,1550
-557.9121596021815,1556
-555.2871184400748,1464
-552.6628015251767,1575
-550.0392086783606,1623
-547.4163397204204,1571
-544.794194472071,1569
-542.1727727539491,1615
-539.5520743866118,1591
-536.9320991905377,1661
-534.3128469861261,1642
-531.6943175936979,1719
-529.0765108334947,1643
-526.4594265256793,1748
-523.8430644903358,1917
-521.2274245474689,2076
-518.612506517005,2208
-515.9983102187913,2189
-513.3848354725959,2188
-510.77208209810846,2214
-508.16004991493924,2285
-505.5487387426199,2444
-502.9381484006032,2436
-500.3282787082628,2460
-497.71912948489364,2633
-495.1107005497117,2425
-492.5029917218539,2328
-489.8960028203786,2153
-487.28973366426493,2010
-484.68418407241325,1883
-482.07935386364494,1811
-479.47524285670266,1843
-476.87185087025,1844
-474.2691777228715,1825
-471.66722323307334,1819
-469.0659872192821,1814
-466.4654694998459,1805
-463.86566989303384,1820
-461.26658821703614,1826
-458.66822428996414,1760
-456.07057792985,1780
-453.4736489546475,1824
-450.877437182231,1773
-448.28194243039627,1808
-445.68716451686,1720
-443.09310325926003,1781
-440.49975847515555,1727
-437.9071299820263,1711
-435.31521759727354,1808
-432.72402113821954,1769
-430.13354042210767,1767
-427.5437752661022,1793
-424.95472548728867,1766
-422.36639090267386,1855
-419.7787713291855,1879
-417.1918665836721,1847
-414.60567648290385,1850
-412.0202008435715,1865
-409.4354394822874,1928
-406.8513922155845,1917
-404.26805885991723,1949
-401.685439231661,1996
-399.103533147112,1885
-396.522340422488,1806
-393.9418608739278,1859
-391.3620943174908,1865
-388.7830405691583,1788
-386.2046994448317,1753
-383.6270707603344,1737
-381.05015433141045,1580
-378.473949973725,1449
-375.8984575028645,1371
-373.32367673433623,1204
-370.74960748356875,1160
-368.1762495659117,1052
-365.60360279663576,919
-363.03166699093265,883
-360.4604419639154,726
-357.8899275306178,680
-355.32012350599507,656
-352.7510297049233,559
-350.1826459421999,592
-347.61497203254316,598
-345.04800779059235,610
-342.4817530309082,534
-339.91620756797226,533
-337.35137121618743,572
-334.7872437898774,608
-332.22382510328725,577
-329.66111497058273,533
-327.09911320585127,561
-324.53781962310075,557
-321.9772340362607,595
-319.4173562591816,565
-316.8581861056348,579
-314.2997233893127,596
-311.7419679238294,592
-309.1849195227194,695
-306.62857799943856,708
-304.0729431673641,610
-301.51801483979375,642
-298.963792829947,656
-296.41027695096386,533
-293.85746701590574,581
-291.3053628377552,682
-288.7539642294155,617
-286.2032710037115,658
-283.65328297338897,696
-281.1039999511146,652
-278.5554217494762,692
-276.007548180983,793
-273.4603790580651,809
-270.9139141930734,727
-268.3681533982807,706
-265.8230964858798,758
-263.27874326798565,821
-260.7350935566336,780
-258.1921471637804,763
-255.6499039013039,886
-253.10836358100266,854
-250.56752601459698,768
-248.02739101372765,817
-245.48795838995704,827
-242.94922795476816,813
-240.41119951956557,959
-237.8738728956746,978
-235.33724789434166,863
-232.80132432673452,828
-230.2661020039418,826
-227.73158073697357,812
-225.19776033676033,887
-222.66464061415422,1061
-220.1322213799284,1024
-217.60050244477725,964
-215.06948361931552,929
-212.53916471408013,1015
-210.00954553952818,1003
-207.48062590603843,894
-204.9524056239104,914
-202.4248845033651,979
-199.8980623545441,945
-197.37193898751036,981
-194.84651421224817,972
-192.32178783866232,974
-189.79775967657952,1044
-187.27442953574644,979
-184.7517972258321,1064
-182.2298625564256,948
-179.7086253370378,944
-177.18808537710026,965
-174.66824248596583,947
-172.14909647290835,1104
-169.6306471471229,1182
-167.11289431772548,1140
-164.59583779375328,999
-162.07947738416453,1072
-159.5638128978386,1338
-157.04884414357605,1432
-154.53457093009854,1502
-152.02099306604828,1229
-149.50811035998936,1165
-146.99592262040665,1477
-144.48442965570587,1448
-141.97363127421409,1486
-139.46352728417958,1420
-136.95411749377126,1366
-134.44540171107985,1396
-131.93737974411636,1439
-129.43005140081357,1352
-126.92341648902493,1595
-124.41747481652521,1541
-121.91222619101006,1816
-119.40767042009657,1942
-116.90380731132257,2269
-114.40063667214702,2616
-111.8981583099503,3616
-109.3963720320337,5822
-106.89527764561933,8862
-104.39487495785067,10056
-101.89516377579241,12467
-99.39614390642998,18107
-96.89781515667039,26817
-94.40017733334128,33910
-91.90323024319173,33998
-89.40697369289148,31927
-86.91140748903172,26097
-84.41653143812482,15561
-81.92234534660395,12258
-79.42884902082358,13850
-76.93604226705907,17912
-74.4439248915071,21834
-71.95249670028534,22586
-69.46175749943245,17542
-66.97170709490854,11726
-64.48234529259423,7470
-61.99367189829195,6873
-59.50568671772464,8054
-57.01838955653636,9400
-54.53178022029283,9649
-52.045858514480074,12956
-49.560624244506016,15986
-47.07607721569923,14282
-44.59221723330904,14782
-42.10904410250669,17030
-39.62655762838392,17679
-37.14475761595372,22302
-34.66364387015028,25577
-32.18321619582866,32060
-29.70347439776515,35580
-27.224418280657005,33712
-24.74604764912317,37699
-22.26836230770266,48670
-19.7913620608565,65036
-17.315046712966478,65036
-14.83941606833514,65036
-12.36446993118659,65036
-9.89020810566592,65036
-7.416630395839093,65036
-4.94373660569363,65036
-2.471526539137585,65036
-6.821210263296962E-13,65036
2.47084320796705,65036
4.941003281093458,65036
7.410480415786196,65036
9.879274808531363,65036
12.347386655893956,65036
14.814816154518212,65036
17.28156350112681,65036
19.74762889252179,65036
22.21301252558385,65036
24.67771459727237,24512
27.141735304626195,7904
29.605074844762612,7092
32.06773341487792,7114
34.52971121224755,6951
36.99100843422559,5685
39.45162527824516,4349
41.91156194181792,3398
44.370818622535126,3355
46.82939551806646,4048
49.287292826160524,5716
51.74451074464503,5826
54.201049471426245,4921
56.65690920448981,3464
59.112090141899785,3185
61.56659248179983,2911
64.02041642241159,2420
66.4735621620365,2799
68.92602989905402,3779
71.37781983192338,4202
73.82893215918205,3933
76.27936707944684,2800
78.72912479141326,2470
81.17820549385567,2036
83.62660938562783,1668
86.07433666566146,1996
88.5213875329681,2234
90.96776218663751,2125
93.41346082583925,2074
95.85848364982041,2619
98.30283085790859,2397
100.7465026495089,2043
103.18949922410604,1805
105.63182078126385,1610
108.07346752062438,1572
110.51443964190923,1661
112.95473734491827,1815
115.39436082953114,1718
117.83331029570547,1544
120.27158594347827,1826
122.7091879729652,1859
125.1461165843615,1664
127.58237197794062,1610
130.01795435405518,1529
132.4528639131364,1548
134.88710085569494,1573
137.32066538231982,1657
139.75355769367923,1733
142.1857779905207,1743
144.61732647366978,1414
147.04820334403132,1304
149.47840880258934,1465
151.90794305040674,1665
154.33680628862487,1735
156.76499871846443,1863
159.19252054122433,1943
161.61937195828352,2237
164.04555317109896,2470
166.47106438120693,2650
168.89590579022217,2892
171.320077599839,3201
173.7435800118302,3400
176.16641322804742,3584
178.58857745042144,3909
181.01007288096173,3844
183.43089972175687,3732
185.85105817497413,3864
188.27054844285988,3938
190.6893707277394,4194
193.10752523201643,4132
195.5250121581745,4247
197.9418317087751,4411
200.3579840864594,4374
202.7734694939469,4442
205.18828813403627,4452
207.6024402096051,4540
210.01592592360964,4429
212.42874547908548,4344
214.84089907914665,4375
217.2523869269868,4241
219.66320922587727,4323
222.0733661791695,4337
224.48285799029293,4281
226.8916848627572,4441
229.29984700014882,4459
231.7073446061355,4474
234.11417788446204,4543
236.520347038953,4342
238.92585227351185,4467
241.33069379212054,4717
243.73487179884035,4763
246.1383864978112,4752
248.541238093252,4487
250.9434267894609,4782
253.34495279081432,4686
255.74581630176783,4696
258.1460175268563,4429
260.54555667069314,4539
262.9444339379703,4557
265.3426495334594,4580
267.7402036620107,4603
270.1370965285529,4438
272.53332833809407,4354
274.9288992957214,4192
277.32380960660055,4152
279.718059475976,4037
282.1116491091717,4025
284.5045787115897,4038
286.89684848871195,4088
289.2884586460981,4088
291.67940938938807,4128
294.0697009242996,4136
296.4593334566299,4217
298.84830719225477,4053
301.23662233712923,4021
303.6242790972866,4028
306.01127767884,3929
308.39761828798066,3948
310.78330113097934,3723
313.16832641418534,3827
315.5526943440269,3869
317.9364051270112,3751
320.3194589697242,3653
322.70185607883093,3813
325.0835966610754,3720
327.4646809232805,3658
329.8451090723478,3684
332.2248813152577,3790
334.6039978590701,3667
336.9824589109231,3644
339.36026467803447,3612
341.7374153677,3551
344.113911187295,3600
346.48975234427337,3591
348.8649390461686,3600
351.2394715005918,3572
353.61334991523415,3517
355.9865744978655,3651
358.35914545633375,3701
360.73106299856715,3710
363.10232733257146,3501
365.47293866643247,3555
367.84289720831396,3501
370.2122031664593,3440
372.5808567491905,3483
374.9488581649083,3481
377.31620762209275,3495
379.6829053293021,3584
382.0489514951745,3452
384.4143463284262,3517
386.7790900378528,3417
389.14318283232853,3423
391.50662492080653,3493
393.86941651231916,3496
396.23155781597745,3439
398.5930490409713,3414
400.9538903965696,3419
403.3140820921202,3372
405.6736243370498,3473
408.03251734086336,3368
410.3907613131465,3414
412.74835646356166,3368
415.10530300185144,3405
417.4616011378372,3378
419.81725108141893,3313
422.1722530425758,3327
424.5266072313656,3496
426.880313857925,3449
429.2333731324701,3251
431.58578526529516,3377
433.9375504667738,3302
436.2886689473588,3386
438.63914091758113,3402
440.9889665880513,3367
443.33814616945835,3411
445.68667987257015,3425
448.03456790823395,3336
450.3818104873759,3327
452.72840782100013,3368
455.07436012019105,3415
457.41966759611057,3349
459.7643304600007,3283
462.10834892318155,3281
464.4517231970525,3347
466.79445349309174,3241
469.1365400228566,3403
471.4779829979826,3339
473.81878263018564,3299
476.15893913125876,3332
478.4984527130747,3430
480.8373235875855,3558
483.17555196682144,3513
485.5131380628919,3666
487.8500820879857,3712
490.1863842543697,3822
492.52204477439034,3982
494.8570638604725,4244
497.1914417251204,4468
499.52517858091653,4675
501.85827464052306,4880
504.19073011668036,4910
506.5225452222086,4944
508.85372017000566,4981
511.18425517304956,4918
513.514150444396,5336
515.8434061971808,6515
518.1720226446176,7486
520.4999999999999,7507
522.8273384766991,7484
525.1540382881666,7093
527.480099647932,6673
529.8055227696037,5414
532.1303078668694,4423
534.454455153496,3853
536.777964843328,3712
539.1008371502907,3655
541.4230722883866,3562
543.744670471698,3466
546.0656319143858,3500
548.3859568306899,3565
550.7056454349294,3383
553.0246979415016,3405
555.3431145648834,3368
557.6608955196306,3447
559.978041020377,3334
562.2945512818363,3448
564.6104265188006,3360
566.9256669461412,3437
569.2402727788082,3355
571.5542442318302,3405
573.8675815203156,3363
576.1802848594508,3476
578.4923544645015,3471
580.8037905508126,3366
583.114593333807,3482
585.4247630289875,3479
587.7342998519354,3452
590.0432040183106,3428
592.3514757438526,3606
594.6591152443794,3586
596.9661227357875,3503
599.2724984340531,3542
601.578242555231,3421
603.8833553154542,3455
606.1878369309362,3396
608.4916876179676,3448
610.7949075929192,3459
613.0974970722403,3384
615.3994562724587,3334
617.7007854101818,3483
620.0014847020951,3393
622.3015543649641,3425
624.6009946156324,3552
626.8998056710224,3522
629.1979877481361,3542
631.4955410640538,3392
633.7924658359349,3464
636.0887622810175,3391
638.3844306166192,3459
640.6794710601358,3544
642.9738838290426,3471
645.2676691408932,3465
647.5608272133207,3455
649.853358264037,3466
652.1452625108324,3574
654.4365401715764,3654
656.7271914642178,3671
659.0172166067838,3491
661.3066158173809,3518
663.5953893141935,3641
665.8835373154867,3557
668.1710600396028,3585
670.4579577049639,3480
672.7442305300709,3564
675.0298787335033,3531
677.3149025339197,3586
679.599302150058,3515
681.8830778007342,3491
684.1662297048437,3448
686.4487580813608,3449
688.7306631493387,3536
691.0119451279091,3619
693.2926042362834,3504
695.5726406937516,3580
697.8520547196814,3615
700.1308465335215,3523
702.4090163547982,3499
704.6865644031171,3518
706.9634908981619,3497
709.2397960596965,3539
711.5154801075631,3540
713.7905432616823,3540
716.0649857420548,3426
718.3388077687592,3561
720.612009561953,3534
722.8845913418733,3510
725.1565533288352,3517
727.427895743234,3580
729.6986188055427,3656
731.9687227363137,3536
734.238207756178,3662
736.5070740858458,3492
738.7753219461066,3574
741.0429515578281,3597
743.3099631419569,3547
745.5763569195191,3462
747.8421331116193,3511
750.1072919394409,3429
752.3718336242467,3502
754.6357583873777,3476
756.8990664502545,3580
759.1617580343765,3522
761.423833361321,3495
763.6852926527457,3551
765.9461361303862,3587
768.206364016058,3547
770.4659765316536,3546
772.7249738991469,3572
774.9833563405886,3575
777.2411240781092,3596
779.4982773339183,3605
781.7548163303044,3580
784.010741289634,3580
786.2660524343538,3600
788.5207499869881,3696
790.7748341701416,3650
793.0283052064964,3567
795.2811633188143,3516
797.5334087299362,3513
799.7850416627813,3596
802.0360623403484,3618
804.2864709857143,3566
806.5362678220353,3653
808.7854530725468,3628
811.0340269605625,3624
813.2819897094754,3636
815.5293415427581,3623
817.77608268396,3611
820.0222133567116,3729
822.2677337847211,3548
824.5126441917765,3601
826.7569448017433,3639
829.0006358385675,3511
831.2437175262731,3580
833.4861900889629,3613
835.7280537508192,3723
837.9693087361026,3610
840.2099552691533,3648
842.4499935743896,3572
844.689423876309,3745
846.9282463994886,3733
849.1664613685833,3566
851.4040690083276,3692
853.6410695435349,3645
855.877463199097,3632
858.1132501999847,3644
860.3484307712487,3633
862.5830051380175,3679
864.8169735254988,3576
867.0503361589791,3767
869.2830932638243,3697
871.5152450654786,3603
873.7467917894654,3703
875.9777336613873,3728
878.2080709069252,3754
880.4378037518389,3712
882.666932421968,3706
884.8954571432301,3704
887.1233781416219,3728
889.3506956432192,3729
891.5774098741766,3778
893.803521060728,3828
896.0290294291852,3744
898.2539352059397,3826
900.4782386174619,3823
902.7019398903011,3748
904.925039251085,3790
907.147536926521,3631
909.3694331433943,3777
911.59072812857,3734
913.8114221089921,3675
916.0315153116827,3709
918.2510079637437,3591
920.4699002923547,3722
922.6881925247761,3748
924.905884888345,3686
927.1229776104793,3750
929.3394709186747,3732
931.555365040506,3670
933.7706602036275,3639
935.9853566357709,3748
938.1994545647489,3728
940.4129542184515,3806
942.6258558248488,3624
944.8381596119883,3623
947.0498658079974,3719
949.2609746410825,3851
951.4714863395287,3762
953.6814011316998,3837
955.8907192460387,3848
958.0994409110671,3772
960.3075663553858,3795
962.5150958076741,3742
964.7220294966913,3595
966.928367651274,3724
969.1341105003388,3567
971.3392582728806,3680
973.5438111979742,3720
975.747769504772,3644
977.9511334225061,3639
980.153903180487,3590
982.3560790081052,3662
984.5576611348289,3657
986.7586497902058,3550
988.9590452038618,3662
991.158847605503,3579
993.3580572249133,3585
995.5566742919558,3497
997.7546990365728,3457
999.952131688785,3534
1002.1489724786926,3508
1004.3452216364743,3356
1006.5408793923874,3401
1008.7359459767691,3394
1010.9304216200343,3372
1013.1243065526781,3390
1015.3176010052733,3423
1017.510305208472,3390
1019.7024193930064,3396
1021.8939437896848,3370
1024.0848786293977,3411
1026.2752241431122,3307
1028.4649805618747,3450
1030.6541481168115,3415
1032.842727039127,3428
1035.0307175601051,3366
1037.2181199111074,3324
1039.4049343235752,3399
1041.591161029029,3306
1043.7768002590683,3350
1045.9618522453698,3385
1048.1463172196918,3389
1050.3301954138697,3442
1052.513487059818,3410
1054.69619238953,3411
1056.8783116350783,3256
1059.0598450286152,3363
1061.2407928023704,3369
1063.4211551886528,3360
1065.6009324198508,3290
1067.780124728432,3281
1069.9587323469414,3403
1072.1367555080046,3397
1074.314194444325,3354
1076.4910493886855,3422
1078.667320573947,3288
1080.843008233051,3305
1083.0181125990161,3286
1085.1926339049414,3276
1087.3665723840027,3287
1089.5399282694575,3391
1091.7127017946405,3225
1093.8848931929647,3238
1096.0565026979243,3347
1098.2275305430899,3299
1100.3979769621128,3279
1102.567842188722,3245
1104.737126456726,3184
1106.9058300000124,3250
1109.0739530525475,3342
1111.2414958483764,3227
1113.4084586216231,3241
1115.5748416064907,3243
1117.7406450372605,3349
1119.9058691482942,3277
1122.0705141740304,3313
1124.2345803489884,3247
1126.3980679077658,3273
1128.5609770850388,3261
1130.7233081155623,3294
1132.8850612341707,3319
1135.0462366757774,3290
1137.2068346753745,3273
1139.3668554680326,3370
1141.526299288901,3245
1143.68516637321,3264
1145.8434569562655,3242
1148.001171273455,3313
1150.158309560244,3234
1152.3148720521767,3258
1154.470858984876,3162
1156.626270594044,3285
1158.7811071154629,3284
1160.9353687849912,3209
1163.089055838569,3313
1165.242168512213,3271
1167.3947070420209,3275
1169.5466716641677,3207
1171.6980626149075,3335
1173.8488801305748,3235
1175.9991244475814,3250
1178.1487958024186,3203
1180.2978944316555,3240
1182.4464205719428,3271
1184.5943744600072,3258
1186.7417563326567,3233
1188.8885664267755,3289
1191.0348049793297,3285
1193.1804722273619,3178
1195.325568407995,3242
1197.4700937584303,3255
1199.614048515948,3244
1201.7574329179074,3368
1203.900247201746,3379
1206.042491604982,3255
1208.1841663652099,3327
1210.3252717201053,3248
1212.465807907422,3264
1214.6057751649923,3383
1216.7451737307279,3423
1218.8840038426192,3297
1221.0222657387353,3425
1223.1599596572241,3347
1225.2970858363137,3345
1227.4336445143094,3372
1229.5696359295966,3247
1231.705060320639,3360
1233.8399179259786,3279
1235.9742089842384,3342
1238.107933734118,3319
1240.2410924143974,3312
1242.373685263935,3443
1244.5057125216676,3325
1246.6371744266116,3382
1248.7680712178621,3437
1250.898403134593,3438
1253.028170416058,3304
1255.1573733015875,3298
1257.2860120305932,3331
1259.4140868425648,3298
1261.54159797707,3381
1263.6685456737569,3444
1265.7949301723515,3428
1267.9207517126597,3317
1270.046010534565,3369
1272.1707068780306,3392
1274.2948409830983,3344
1276.4184130898889,3417
1278.541423438603,3478
1280.6638722695184,3444
1282.785759822993,3489
1284.9070863394636,3400
1287.0278520594447,3489
1289.1480572235314,3487
1291.2677020723963,3535
1293.3867868467923,3573
1295.5053117875495,3522
1297.623277135579,3515
1299.740683131868,3605
1301.8575300174857,3615
1303.973818033578,3512
1306.0895474213703,3566
1308.2047184221678,3652
1310.3193312773528,3589
1312.4333862283888,3593
1314.5468835168163,3570
1316.659823384255,3629
1318.7722060724045,3656
1320.8840318230418,3545
1322.9953008780249,3638
1325.1060134792888,3643
1327.2161698688478,3532
1329.3257702887959,3610
1331.4348149813054,3615
1333.5433041886276,3573
1335.6512381530933,3621
1337.7586171171101,3655
1339.8654413231675,3635
1341.9717110138317,3549
1344.0774264317488,3623
1346.1825878196432,3508
1348.2871954203192,3604
1350.3912494766587,3527
1352.4947502316231,3521
1354.5976979282532,3443
1356.7000928096686,3672
1358.8019351190665,3580
1360.9032250997243,3533
1363.0039629949988,3555
1365.1041490483235,3653
1367.2037835032133,3511
1369.3028666032606,3531
1371.401398592137,3509
1373.4993797135926,3648
1375.5968102114575,3557
1377.6936903296396,3579
1379.7900203121262,3563
1381.8858004029835,3590
1383.9810308463561,3632
1386.075711886469,3574
1388.1698437676241,3692
1390.2634267342032,3574
1392.356461030667,3513
1394.4489469015557,3551
1396.5408845914872,3716
1398.6322743451592,3546
1400.7231164073469,3694
1402.813411022907,3717
1404.903158436773,3713
1406.9923588939578,3664
1409.0810126395531,3788
1411.1691199187303,3730
1413.2566809767386,3794
1415.343696058907,3771
1417.4301654106425,3729
1419.5160892774315,3741
1421.6014679048399,3613
1423.6863015385125,3797
1425.7705904241707,3784
1427.8543348076178,3875
1429.9375349347342,3887
1432.0201910514802,3817
1434.102303403894,3826
1436.1838722380944,3797
1438.2648978002767,3793
1440.3453803367174,3990
1442.4253200937692,3994
1444.5047173178677,4054
1446.5835722555234,4097
1448.6618851533285,4035
1450.739656257952,4104
1452.8168858161434,4204
1454.8935740747306,4139
1456.96972128062,4191
1459.045327680797,4332
1461.120393522327,4353
1463.1949190523528,4351
1465.2689045180973,4297
1467.3423501668608,4458
1469.415256246024,4517
1471.4876230030463,4581
1473.559450685465,4655
1475.6307395408976,4531
1477.7014898170391,4743
1479.771701761665,4748
1481.8413756226287,4724
1483.9105116478618,4804
1485.9791100853772,4857
1488.0471711832643,5027
1490.1146951896926,4942
1492.1816823529098,5057
1494.2481329212433,5096
1496.3140471430984,5168
1498.3794252669609,5234
1500.4442675413939,5274
1502.5085742150404,5339
1504.572345536622,5355
1506.6355817549388,5414
1508.6982831188702,5610
1510.7604498773744,5552
1512.8220822794883,5608
1514.8831805743293,5793
1516.9437450110909,5765
1519.003775839048,5890
1521.0632733075522,5876
1523.1222376660367,6028
1525.1806691640113,6035
1527.2385680510652,6085
1529.2959345768668,6137
1531.3527689911643,6282
1533.4090715437833,6291
1535.4648424846291,6349
1537.5200820636855,6584
1539.5747905310159,6558
1541.6289681367616,6586
1543.6826151311434,6724
1545.7357317644614,6715
1547.7883182870937,6881
1549.8403749494987,6949
1551.8919020022113,7040
1553.9428996958477,7250
1555.9933682811015,7291
1558.0433080087469,7253
1560.0927191296346,7555
1562.1416018946961,7522
1564.1899565549415,7590
1566.2377833614592,7474
1568.2850825654164,7396
1570.3318544180606,7089
1572.3780991707158,6971
1574.423817074788,6870
1576.4690083817595,6663
1578.5136733431923,6190
1580.5578122107272,6075
1582.601425236085,5802
1584.6445126710646,5570
1586.6870747675434,5399
1588.7291117774776,5298
1590.7706239529034,5020
1592.8116115459347,4895
1594.8520748087658,4911
1596.8920139936686,4599
1598.9314293529933,4618
1600.9703211391711,4459
1603.008689604711,4330
1605.0465350022005,4213
1607.0838575843068,4306
1609.1206576037753,4081
1611.1569353134305,3956
1613.1926909661765,3951
1615.2279248149953,3952
1617.2626371129481,3950
1619.2968281131757,3888
1621.3304980688963,3859
1623.3636472334088,3901
1625.39627586009,3915
1627.428384202396,3791
1629.459972513861,3820
1631.4910410480993,3879
1633.5215900588028,3815
1635.551619799744,3703
1637.5811305247717,3697
1639.6101224878166,3704
1641.6385959428862,3755
1643.6665511440683,3710
1645.693988345528,3660
1647.7209078015112,3676
1649.7473097663405,3704
1651.7731944944203,3683
1653.7985622402307,3670
1655.823413258333,3631
1657.847747803366,3598
1659.8715661300494,3620
1661.8948684931793,3548
1663.9176551476316,3507
1665.9399263483624,3541
1667.9616823504057,3694
1669.982923408873,3614
1672.0036497789574,3685
1674.0238617159293,3634
1676.043559475138,3656
1678.0627433120121,3692
1680.081413482059,3698
1682.0995702408654,3581
1684.117213844096,3634
1686.134344547495,3599
1688.1509626068864,3605
1690.1670682781705,3522
1692.182661817329,3568
1694.1977434804217,3538
1696.2123135235875,3591
1698.226372203043,3626
1700.2399197750851,3609
1702.2529564960905,3560
1704.2654826225112,3612
1706.277498410882,3638
1708.2890041178139,3640
1710.2999999999988,3704
1712.3104863142066,3650
1714.3204633172854,3627
1716.329931266163,3625
1718.3388904178469,3601
1720.3473410294214,3515
1722.3552833580516,3659
1724.3627176609807,3523
1726.3696441955308,3604
1728.3760632191033,3522
1730.3819749891782,3649
1732.3873797633146,3491
1734.3922777991502,3579
1736.3966693544012,3654
1738.4005546868639,3473
1740.4039340544127,3445
1742.406807715001,3616
1744.4091759266616,3534
1746.4110389475054,3543
1748.4123970357223,3521
1750.413250449582,3483
1752.4135994474318,3453
1754.4134442876993,3474
1756.4127852288902,3498
1758.4116225295893,3572
1760.4099564484595,3516
1762.407787244244,3579
1764.405115175764,3542
1766.4019405019203,3508
1768.3982634816916,3529
1770.3940843741357,3439
1772.3894034383907,3407
1774.3842209336717,3450
1776.378537119274,3500
1778.372352254571,3474
1780.3656665990156,3429
1782.3584804121397,3423
1784.3507939535534,3424
1786.3426074829463,3468
1788.3339212600863,3459
1790.3247355448211,3382
1792.3150505970766,3442
1794.3048666768573,3454
1796.2941840442477,3504
1798.2830029594106,3443
1800.2713236825884,3437
1802.2591464741004,3619
1804.2464715943465,3423
1806.2332993038058,3436
1808.2196298630352,3498
1810.2054635326708,3413
1812.190800573428,3453
1814.175641246101,3389
1816.1599858115628,3496
1818.1438345307652,3596
1820.127187664738,3510
1822.1100454745924,3427
1824.092408221516,3391
1826.0742761667766,3524
1828.055649571721,3544
1830.0365286977735,3565
1832.0169138064398,3406
1833.9968051593014,3536
1835.9762030180214,3490
1837.9551076443408,3463
1839.9335193000788,3414
1841.9114382471344,3396
1843.888864747485,3499
1845.8657990631878,3420
1847.842241456378,3388
1849.8181921892697,3464
1851.7936515241558,3346
1853.7686197234098,3417
1855.7430970494815,3421
1857.7170837649014,3382
1859.6905801322787,3471
1861.6635864143004,3335
1863.6361028737338,3380
1865.608129773424,3487
1867.5796673762961,3409
1869.5507159453537,3570
1871.521275743678,3526
1873.4913470344313,3487
1875.4609300808534,3487
1877.4300251462632,3528
1879.3986324940588,3504
1881.366752387717,3481
1883.3343850907936,3412
1885.3015308669228,3520
1887.268189979819,3569
1889.2343626932739,3500
1891.2000492711595,3540
1893.1652499774254,3397
1895.1299650761011,3497
1897.0941948312952,3418
1899.0579395071945,3528
1901.0211993680641,3531
1902.98397467825,3456
1904.9462657021745,3479
1906.9080727043415,3419
1908.869395949332,3472
1910.8302357018065,3476
1912.790592226504,3463
1914.7504657882428,3558
1916.7098566519212,3491
1918.6687650825133,3456
1920.6271913450764,3553
1922.5851357047422,3470
1924.5425984267245,3526
1926.499579776314,3573
1928.4560800188833,3500
1930.4120994198802,3552
1932.367638244833,3526
1934.32269675935,3478
1936.2772752291175,3611
1938.231373919899,3569
1940.1849930975404,3452
1942.1381330279637,3522
1944.0907939771696,3478
1946.0429762112412,3540
1947.9946799963363,3522
1949.9459055986945,3567
1951.896653284633,3448
1953.8469233205478,3460
1955.7967159729142,3430
1957.7460315082863,3462
1959.6948701932974,3475
1961.6432322946594,3604
1963.5911180791632,3499
1965.5385278136787,3391
1967.4854617651545,3504
1969.4319202006182,3552
1971.377903387176,3494
1973.3234115920136,3572
1975.268445082395,3541
1977.2130041256642,3591
1979.1570889892423,3549
1981.1006999406304,3455
1983.04383724741,3455
1984.986501177238,3498
1986.928691997853,3535
1988.8704099770712,3601
1990.811655382789,3547
1992.7524284829801,3541
1994.692729545698,3493
1996.6325588390755,3388
1998.5719166313224,3397
2000.5108031907307,3476
2002.4492187856677,3538
2004.387163684583,3453
2006.3246381560011,3490
2008.2616424685298,3473
2010.1981768908527,3496
2012.1342416917332,3462
2014.069837140014,3472
2016.0049635046162,3391
2017.9396210545406,3480
2019.8738100588666,3583
2021.8075307867502,3522
2023.740783507431,3501
2025.6735684902228,3540
2027.6058860045214,3506
2029.5377363198004,3444
2031.4691197056118,3377
2033.4000364315875,3384
2035.3304867674374,3423
2037.260470982952,3423
2039.189989347998,3490
2041.1190421325232,3352
2043.047629606554,3429
2044.9757520401945,3475
2046.9034097036288,3446
2048.8306028671195,3443
2050.7573318010086,3417
2052.683596775716,3450
2054.609398061742,3487
2056.5347359296647,3358
2058.4596106501403,3467
2060.384022493906,3431
2062.3079717317764,3448
2064.231458634646,3519
2066.1544834734873,3484
2068.077046519352,3413
2069.99914804337,3458
2071.9207883167524,3461
2073.8419676107865,3513
2075.7626861968406,3428
2077.6829443463607,3403
2079.6027423308715,3458
2081.522080421977,3418
2083.440958891362,3434
2085.359378010786,3480
2087.2773380520907,3483
2089.194839287196,3408
2091.111881988101,3464
2093.0284664268825,3463
2094.9445928756973,3498
2096.86026160678,3499
2098.775472892446,3468
2100.690227005088,3428
2102.604524217178,3485
2104.5183648012676,3527
2106.431749029985,3486
2108.34467717604,3549
2110.2571495122206,3466
2112.169166311393,3533
2114.080727846503,3531
2115.9918343905747,3412
2117.902486216711,3555
2119.8126835980956,3480
2121.722426807987,3527
2123.6317161197285,3569
2125.5405518067364,3536
2127.448934142509,3502
2129.356863400624,3468
2131.264339854737,3500
2133.1713637785815,3497
2135.077935445972,3567
2136.9840551308002,3598
2138.889723107037,3462
2140.7949396487334,3480
2142.699705030018,3490
2144.6040195250994,3520
2146.507883408264,3565
2148.4112969538774,3443
2150.3142604363848,3545
2152.2167741303097,3599
2154.1188383102535,3647
2156.0204532508997,3472
2157.9216192270064,3444
2159.822336513414,3639
2161.7226053850413,3543
2163.622426116884,3603
2165.5217989840185,3549
2167.4207242616,3486
2169.319202224862,3622
2171.2172331491165,3544
2173.1148173097563,3562
2175.0119549822507,3526
2176.90864644215,3587
2178.8048919650823,3525
2180.7006918267534,3651
2182.596046302952,3659
2184.4909556695407,3435
2186.3854202024645,3530
2188.279440177746,3624
2190.173015871487,3651
2192.066147559868,3594
2193.958835519149,3596
2195.851080025667,3552
2197.7428813558417,3491
2199.6342397861667,3564
2201.5251555932186,3579
2203.415629053651,3554
2205.3056604441986,3451
2207.19525004167,3641
2209.084398122958,3628
2210.9731049650327,3648
2212.861370844941,3686
2214.749196039812,3586
2216.636580826851,3592
2218.523525483344,3653
2220.410030286655,3554
2222.296095514226,3617
2224.1817214435805,3640
2226.066908352319,3527
2227.951656518121,3599
2229.835966218746,3620
2231.71983773203,3630
2233.6032713358913,3751
2235.486267308324,3736
2237.3688259274036,3664
2239.2509474712824,3701
2241.132632218193,3624
2243.013880446447,3712
2244.8946924344323,3696
2246.7750684606203,3597
2248.6550088035574,3616
2250.534513741871,3544
2252.413583554265,3698
2254.292218519526,3678
2256.170418916517,3679
2258.0481850241786,3672
2259.925517121534,3634
2261.8024154876825,3655
2263.678880401803,3701
2265.5549121431536,3636
2267.430510991071,3655
2269.305677224971,3619
2271.180411124348,3640
2273.0547129687766,3686
2274.9285830379076,3634
2276.8020216114737,3637
2278.6750289692845,3656
2280.5476053912294,3662
2282.4197511572766,3690
2284.2914665474727,3689
2286.162751841943,3740
2288.0336073208937,3604
2289.904033264608,3704
2291.774029953448,3707
2293.6435976678554,3719
2295.5127366883517,3652
2297.381447295534,3591
2299.2497297700825,3594
2301.1175843927526,3577
2302.9850114443825,3615
2304.852011205885,3539
2306.7185839582553,3502
2308.5847299825664,3411
2310.4504495599676,3513
2312.3157429716925,3390
2314.1806104990483,3501
2316.0450524234247,3569
2317.9090690262888,3546
2319.772660589186,3447
2321.635827393742,3620
2323.498569721661,3422
2325.3608878547248,3635
2327.2227820747967,3565
2329.0842526638157,3445
2330.945299903803,3476
2332.805924076857,3533
2334.6661254651535,3525
2336.525904350951,3477
2338.3852610165827,3477
2340.244195744464,3487
2342.102708817088,3528
2343.9608005170253,3453
2345.8184711269287,3546
2347.675720929526,3456
2349.532550207628,3451
2351.38895924412,3568
2353.24494832197,3553
2355.100517724223,3463
2356.955667734004,3466
2358.810398634514,3499
2360.664710709037,3518
2362.5186042409337,3491
2364.3720795136437,3504
2366.225136810686,3512
2368.0777764156583,3522
2369.929998612237,3526
2371.7818036841777,3431
2373.633191915315,3560
2375.484163589562,3455
2377.3347189909114,3459
2379.184858403434,3556
2381.03458211128,3566
2382.8838903986775,3573
2384.732783549936,3502
2386.5812618494406,3547
2388.4293255816588,3606
2390.2769750311327,3456
2392.1242104824883,3476
2393.971032220427,3517
2395.8174405297295,3614
2397.6634356952563,3597
2399.509018001947,3622
2401.3541877348193,3576
2403.1989451789705,3470
2405.043290619576,3567
2406.8872243418905,3480
2408.730746631247,3568
2410.5738577730594,3540
2412.4165580528183,3505
2414.258847756095,3515
2416.100727168537,3443
2417.9421965758734,3508
2419.783256263912,3560
2421.623906518538,3544
2423.4641476257157,3549
2425.303979871491,3580
2427.143403541984,3566
2428.9824189233977,3530
2430.821026302012,3613
2432.6592259641866,3593
2434.497018196361,3604
2436.33440328505,3511
2438.171381516851,3542
2440.00795317844,3554
2441.844118556569,3556
2443.6798779380724,3566
2445.5152316098606,3570
2447.3501798589255,3389
2449.1847229723357,3569
2451.0188612372403,3556
2452.8525949408663,3610
2454.6859243705203,3554
2456.518849813587,3481
2458.3513715575314,3607
2460.183489889895,3609
2462.015205098301,3623
2463.8465174704493,3523
2465.67742729412,3584
2467.5079348571717,3485
2469.338040447542,3568
2471.1677443532476,3561
2472.9970468623833,3578
2474.825948263123,3766
2476.6544488437207,3729
2478.482548892508,3680
2480.310248697896,3639
2482.137548548374,3583
2483.9644487325118,3523
2485.790949538956,3526
2487.617051256433,3556
2489.44275417375,3590
2491.26805857979,3604
2493.0929647635157,3575
2494.917473013971,3572
2496.741583620276,3561
2498.5652968716304,3634
2500.3886130573137,3626
2502.2115324666834,3525
2504.0340553891765,3629
2505.856182114308,3623
2507.6779129316733,3650
2509.499248130945,3686
2511.3201880018764,3694
2513.140732834298,3682
2514.9608829181198,3576
2516.780638543331,3577
2518.6,3687
2520.418967578273,3516
2522.237541568376,3635
2524.0557222606144,3601
2525.8735099453706,3718
2527.6909049131086,3633
2529.507907454368,3739
2531.32451785977,3707
2533.140736420014,3786
2534.9565634258774,3725
2536.771999168218,3698
2538.5870439379714,3828
2540.4016980261526,3821
2542.2159617238544,3776
2544.02983532225,3767
2545.8433191125914,3812
2547.656413386209,3809
2549.4691184345115,3890
2551.2814345489874,3879
2553.093362021204,3896
2554.904901142808,3742
2556.716052205523,3733
2558.526815501153,3756
2560.3371913215824,3894
2562.147179958771,3870
2563.956781704761,3932
2565.7659968516705,3935
2567.5748256916986,3900
2569.3832685171224,3923
2571.1913256202984,3934
2572.9989972936614,3962
2574.806283829725,3922
2576.613185521084,3947
2578.4197026604074,3883
2580.2258355404483,4009
2582.031584454035,3863
2583.836949694077,3968
2585.6419315535613,3910
2587.4465303255533,3980
2589.2507463032002,4149
2591.0545797797245,4084
2592.8580310484303,4008
2594.6611004026995,4054
2596.463788135992,4118
2598.266094541849,4054
2600.0680199138874,4046
2601.869564545807,4168
2603.670728731383,4165
2605.4715127644704,3990
2607.2719169390048,4054
2609.071941548998,4082
2610.8715868885433,4089
2612.670853251811,3984
2614.469740933052,4118
2616.268250226594,4161
2618.0663814268455,4170
2619.864134828292,4086
2621.6615107255006,4104
2623.458509413115,4063
2625.2551311858597,4064
2627.0513763385347,4032
2628.8472451660223,4126
2630.6427379632833,4001
2632.4378550253564,4060
2634.232596647359,4032
2636.026963124488,3903
2637.8209547520187,4021
2639.6145718253065,3867
2641.407814639785,4005
2643.200683490966,4030
2644.9931786744414,3981
2646.7853004858807,3991
2648.577049221034,3865
2650.3684251757277,3981
2652.1594286458712,3904
2653.9500599274484,3935
2655.740319316525,3816
2657.5302071092437,3817
2659.3197236018286,3857
2661.10886909058,3881
2662.8976438718782,3868
2664.686048242183,3652
2666.4740824980327,3844
2668.2617469360443,3780
2670.0490418529134,3703
2671.8359675454153,3812
2673.622524310403,3669
2675.408712444811,3646
2677.1945322456495,3748
2678.979984010009,3713
2680.76506803506,3763
2682.5497846180497,3704
2684.334134056306,3679
2686.1181166472343,3780
2687.9017326883213,3599
2689.6849824771293,3548
2691.4678663113013,3639
2693.2503844885596,3674
2695.032537306705,3580
2696.8143250636167,3618
2698.5957480572542,3627
2700.3768065856534,3682
2702.1575009469316,3527
2703.937831439283,3647
2705.717798360982,3665
2707.4974020103837,3736
2709.276642685917,3516
2711.055520686095,3589
2712.834036309506,3540
2714.612189854819,3644
2716.389981620782,3610
2718.1674119062204,3614
2719.944481010041,3638
2721.721189231226,3562
2723.4975368688415,3542
2725.273524222027,3567
2727.0491515900053,3558
2728.824419272075,3635
2730.5993275676146,3512
2732.3738767760838,3574
2734.148067197016,3632
2735.921899130031,3469
2737.6953728748194,3515
2739.468488731156,3483
2741.2412469988926,3562
2743.0136479779617,3525
2744.785691968372,3469
2746.5573792702116,3465
2748.3287101836504,3531
2750.099685008934,3452
2751.870304046388,3482
2753.640567596418,3492
2755.4104759595057,3542
2757.1800294362156,3580
2758.949228327187,3514
2760.7180729331412,3474
2762.486563554877,3493
2764.254700493272,3506
2766.022484049284,3561
2767.789914523947,3491
2769.5569922183786,3502
2771.3237174337705,3477
2773.090090471394,3463
2774.8561116326036,3514
2776.6217812188274,3569
2778.3870995315756,3419
2780.1520668724356,3383
2781.9166835430747,3610
2783.6809498452394,3490
2785.444866080754,3566
2787.2084325515225,3505
2788.971649559527,3484
2790.73451740683,3560
2792.4970363955713,3553
2794.2592068279705,3522
2796.0210290063264,3492
2797.7825032330147,3473
2799.543629810493,3539
2801.304409041296,3460
2803.0648412280366,3493
2804.8249266734088,3478
2806.5846656801846,3606
2808.344058551212,3563
2810.1031055894246,3557
2811.8618070978273,3548
2813.6201633795085,3536
2815.378174737636,3606
2817.1358414754536,3598
2818.893163896285,3506
2820.6501423035334,3475
2822.4067770006814,3523
2824.1630682912883,3524
2825.9190164789957,3507
2827.6746218675207,3461
2829.429884760661,3539
2831.184805462294,3495
2832.9393842763743,3540
2834.693621506936,3566
2836.4475174580916,3484
2838.201072434034,3529
2839.954286739034,3515
2841.707160677441,3513
2843.459694553685,3503
2845.2118886722724,3543
2846.96374333779,3562
2848.7152588549034,3529
2850.4664355283567,3469
2852.217273662973,3513
2853.9677735636546,3492
2855.7179355353833,3553
2857.4677598832186,3533
2859.217246912299,3618
2860.9663969278427,3455
2862.715210235146,3475
2864.4636871395846,3466
2866.211827946614,3506
2867.9596329617652,3456
2869.7071024906536,3522
2871.4542368389684,3509
2873.20103631248,3551
2874.947501217038,3533
2876.6936318585695,3512
2878.4394285430812,3447
2880.1848915766604,3496
2881.9300212654707,3567
2883.6748179157553,3564
2885.4192818338374,3560
2887.1634133261173,3436
2888.907212699077,3539
2890.6506802592744,3475
2892.393816313348,3456
2894.1366211680142,3427
2895.8790951300693,3531
2897.621238506388,3571
2899.363051603925,3503
2901.1045347297118,3611
2902.8456881908596,3544
2904.58651229456,3502
2906.327007348081,3548
2908.067173658772,3523
2909.8070115340597,3512
2911.5465212814497,3464
2913.285703208527,3432
2915.0245576229563,3475
2916.7630848324807,3502
2918.5012851449196,3450
2920.2391588681758,3489
2921.976706310227,3453
2923.7139277791334,3516
2925.4508235830313,3486
2927.187394030137,3446
2928.923639428745,3526
2930.6595600872306,3473
2932.395156314046,3522
2934.1304284177218,3596
2935.8653767068713,3653
2937.6000014901815,3624
2939.3343030764227,3589
2941.068281774442,3633
2942.8019378931644,3561
2944.5352717415976,3502
2946.2682836288236,3636
2948.0009738640065,3556
2949.7333427563885,3501
2951.465390615289,3498
2953.1971177501086,3522
2954.9285244703265,3514
2956.6596110855,3548
2958.3903779052657,3539
2960.1208252393385,3567
2961.8509533975125,3362
2963.5807626896617,3404
2965.3102534257378,3601
2967.0394259157715,3553
2968.768280469873,3548
2970.496817398232,3470
2972.2250370111146,3611
2973.952939618869,3533
2975.6805255319196,3601
2977.4077950607707,3645
2979.134748516006,3533
2980.861386208289,3563
2982.587708448359,3607
2984.313715547037,3533
2986.039407815222,3625
2987.764785563891,3535
2989.489849104102,3600
2991.2145987469908,3560
2992.9390348037705,3579
2994.6631575857346,3573
2996.3869674042576,3587
2998.1104645707887,3456
2999.83364939686,3574
3001.5565221940783,3459
3003.2790832741334,3526
3005.0013329487924,3570
3006.7232715298996,3481
3008.4448993293804,3554
3010.166216659239,3473
3011.887223831558,3636
3013.607921158498,3466
3015.3283089522993,3577
3017.0483875252826,3581
3018.7681571898443,3558
3020.4876182584626,3535
3022.2067710436927,3523
3023.9256158581707,3484
3025.644153014609,3564
3027.362382825801,3606
3029.0803056046193,3630
3030.797921664012,3489
3032.5152313170106,3613
3034.2322348767225,3521
3035.9489326563353,3568
3037.665324969115,3435
3039.3814121284063,3608
3041.097194447633,3537
3042.812672240299,3610
3044.5278458199855,3510
3046.2427155003525,3603
3047.9572815951406,3576
3049.671544418167,3559
3051.38550428333,3577
3053.0991615046073,3559
3054.812516396051,3573
3056.5255692717974,3505
3058.2383204460575,3609
3059.9507702331257,3553
3061.662918947372,3579
3063.3747669032446,3611
3065.0863144152736,3585
3066.7975617980674,3504
3068.508509366309,3521
3070.219157434767,3522
3071.9295063182844,3632
3073.639556331785,3617
3075.3493077902704,3495
3077.058761008821,3637
3078.7679163025964,3553
3080.476773986837,3631
3082.1853343768594,3590
3083.89359778806,3620
3085.6015645359153,3616
3087.3092349359786,3605
3089.016609303884,3628
3090.7236879553434,3566
3092.4304712061476,3602
3094.136959372166,3707
3095.843152769349,3517
3097.5490517137237,3641
3099.2546565213966,3547
3100.959967508554,3576
3102.66498499146,3618
3104.3697092864577,3582
3106.0741407099695,3629
3107.778279578498,3685
3109.482126208622,3455
3111.1856809170004,3629
3112.8889440203716,3680
3114.5919158355528,3637
3116.294596679439,3621
3117.996986869006,3624
3119.6990867213062,3779
3121.4008965534726,3730
3123.102416682717,3656
3124.803647426329,3617
3126.5045891016784,3716
3128.205242026213,3686
3129.90560651746,3594
3131.605682893025,3665
3133.3054714705922,3552
3135.0049725679282,3631
3136.7041865028714,3741
3138.4031135933465,3572
3140.101754157353,3566
3141.800108512971,3612
3143.498176978357,3624
3145.1959598717494,3575
3146.8934575114636,3604
3148.5906702158954,3567
3150.2875983035183,3527
3151.9842420928853,3619
3153.680601902627,3628
3155.376678051456,3517
3157.07247085816,3548
3158.767980641609,3492
3160.463207720748,3524
3162.158152414606,3631
3163.8528150422862,3577
3165.5471959229726,3518
3167.2412953759303,3529
3168.9351137204976,3579
3170.628651276098,3678
3172.3219083622307,3674
3174.014885298474,3542
3175.707582404485,3677
3177.4000000000005,3710
3179.092138404835,3635
3180.7839979388846,3734
3182.47557892212,3527
3184.166881674594,3548
3185.8579065164386,3495
3187.5486537678626,3639
3189.2391237491547,3711
3190.9293167806827,3576
3192.6192331828934,3655
3194.3088732763117,3567
3195.998237381542,3606
3197.687325819268,3575
3199.376138910251,3601
3201.064676975334,3593
3202.7529403354347,3557
3204.4409293115523,3563
3206.1286442247647,3588
3207.816085396229,3517
3209.5032531471825,3524
3211.190147798936,3589
3212.8767696728846,3511
3214.5631190905015,3444
3216.2491963733373,3536
3217.9350018430214,3541
3219.6205358212637,3535
3221.305798629851,3490
3222.990790590651,3464
3224.6755120256103,3462
3226.359963256751,3529
3228.0441446061795,3520
3229.7280563960758,3566
3231.411698948703,3564
3233.0950725863995,3576
3234.778177631587,3600
3236.461014406761,3627
3238.1435832345005,3676
3239.8258844374595,3602
3241.507918338374,3624
3243.1896852600576,3629
3244.8711855254023,3616
3246.552419457381,3672
3248.233387379042,3637
3249.914089613516,3557
3251.59452648401,3547
3253.274698313813,3495
3254.95460542629,3457
3256.6342481448855,3591
3258.313626793125,3505
3259.9927416946084,3558
3261.6715931730196,3623
3263.3501815521176,3515
3265.0285071557437,3476
3266.706570307815,3468
3268.3843713323286,3547
3270.0619105533615,3503
3271.739188295068,3597
3273.4162048816834,3630
3275.0929606375184,3572
3276.769455886966,3550
3278.445690954498,3508
3280.1216661646613,3582
3281.797381842087,3624
3283.4728383114807,3608
3285.1480358976296,3654
3286.8229749253996,3621
3288.4976557197333,3493
3290.172078605655,3544
3291.846243908266,3613
3293.5201519527463,3573
3295.193803064357,3525
3296.8671975684374,3461
3298.5403357904024,3616
3300.21321805575,3624
3301.8858446900567,3616
3303.558216018975,3614
3305.23033236824,3546
3306.9021940636603,3521
3308.57380143113,3558
3310.2451547966184,3608
3311.916254486174,3572
3313.5871008259246,3499
3315.2576941420766,3417
3316.9280347609147,3581
3318.5981230088046,3577
3320.2679592121895,3642
3321.9375436975924,3643
3323.606876791612,3546
3325.27595882093,3601
3326.944790112305,3514
3328.6133709925753,3577
3330.2817017886573,3532
3331.949782827547,3466
3333.617614436319,3593
3335.2851969421245,3621
3336.952530672199,3611
3338.619615953853,3641
3340.286453114475,3621
3341.9530424815357,3654
3343.619384382583,3668
3345.2854791452437,3586
3346.951327097224,3690
3348.6169285663073,3659
3350.2822838803577,3690
3351.947393367319,3663
3353.61225735521,3624
3355.2768761721345,3560
3356.9412501462693,3601
3358.605379605873,3664
3360.2692648792827,3611
3361.9329062949146,3539
3363.596304181263,3593
