CollectionTime,9/20/2024 12:27:19 PM
ExposureUsed,3
CalibratedSpectrum
-962.7078968117929,675
-959.9714848408522,671
-957.2358232597828,693
-954.5009119013725,695
-951.7667505983302,729
-949.0333391832855,757
-946.3006774887896,732
-943.5687653473143,725
-940.837602591253,762
-938.1071890529199,755
-935.3775245645503,746
-932.6486089583007,722
-929.9204420662485,748
-927.1930237203925,719
-924.4663537526524,788
-921.7404319948689,792
-919.0152582788041,753
-916.2908324361409,792
-913.5671542984834,758
-910.8442236973568,728
-908.1220404642074,691
-905.4006044304027,735
-902.679915427231,744
-899.959973285902,731
-897.2407778375464,701
-894.5223289132158,732
-891.8046263438832,719
-889.0876699604426,703
-886.3714595937089,726
-883.6559950744183,696
-880.9412762332282,776
-878.2273029007168,783
-875.5140749073835,716
-872.8015920836489,691
-870.0898542598545,701
-867.3788612662631,681
-864.6686129330585,696
-861.9591090903457,677
-859.2503495681506,691
-856.5423341964203,684
-853.8350628050229,690
-851.1285352237478,712
-848.4227512823054,663
-845.7177108103272,712
-843.0134136373656,675
-840.3098595928943,700
-837.6070485063082,667
-834.9049802069229,710
-832.2036545239757,682
-829.5030712866244,673
-826.8032303239481,708
-824.1041314649472,741
-821.4057745385428,668
-818.7081593735775,721
-816.0112857988148,710
-813.3151536429393,693
-810.6197627345566,700
-807.9251129021936,727
-805.2312039742981,709
-802.5380357792392,726
-799.8456081453069,716
-797.1539209007124,710
-794.462973873588,708
-791.772766891987,712
-789.083299783884,761
-786.3945723771743,740
-783.7065844996748,715
-781.0193359791231,691
-778.3328266431781,738
-775.6470563194197,717
-772.9620248353489,719
-770.2777320183878,731
-767.5941776958798,684
-764.9113616950891,732
-762.2292838432011,716
-759.5479439673222,707
-756.8673418944801,656
-754.1874774516235,722
-751.5083504656222,749
-748.8299607632671,721
-746.15230817127,741
-743.475392516264,722
-740.7992136248035,730
-738.1237713233636,705
-735.4490654383407,707
-732.7750957960521,740
-730.1018622227365,745
-727.4293645445534,774
-724.7576025875837,775
-722.0865761778291,768
-719.4162851412126,803
-716.7467293035781,813
-714.0779084906909,753
-711.409822528237,748
-708.7424712418238,799
-706.0758544569796,748
-703.4099719991541,816
-700.7448236937178,775
-698.0804093659622,737
-695.4167288411002,808
-692.7537819442656,788
-690.0915685005134,792
-687.4300883348199,759
-684.7693412720819,806
-682.1093271371178,826
-679.4500457546669,802
-676.7914969493897,848
-674.1336805458676,817
-671.4765963686034,802
-668.8202442420206,866
-666.1646239904642,792
-663.5097354382001,821
-660.8555784094151,778
-658.2021527282176,834
-655.5494582186366,803
-652.8974947046223,803
-650.2462620100463,829
-647.5957599587009,820
-644.9459883742998,874
-642.2969470804776,898
-639.6486359007902,877
-637.0010546587141,850
-634.3542031776476,867
-631.7080812809096,849
-629.0626887917401,852
-626.4180255333008,819
-623.7740913286734,837
-621.1308860008619,863
-618.4884093727904,825
-615.8466612673046,870
-613.2056415071715,846
-610.5653499150785,847
-607.9257863136347,862
-605.28695052537,894
-602.6488423727357,854
-600.0114616781036,870
-597.3748082637674,887
-594.7388819519412,907
-592.1036825647604,982
-589.4692099242818,900
-586.8354638524829,915
-584.2024441712624,843
-581.5701507024403,896
-578.9385832677575,985
-576.3077416888759,903
-573.6776257873787,885
-571.0482353847704,863
-568.4195703024757,918
-565.7916303618415,893
-563.164415384135,946
-560.5379251905453,881
-557.9121596021815,930
-555.2871184400748,878
-552.6628015251767,931
-550.0392086783606,898
-547.4163397204204,874
-544.794194472071,950
-542.1727727539491,971
-539.5520743866118,959
-536.9320991905377,946
-534.3128469861261,1025
-531.6943175936979,1050
-529.0765108334947,1022
-526.4594265256793,1160
-523.8430644903358,1299
-521.2274245474689,1531
-518.612506517005,1590
-515.9983102187913,1616
-513.3848354725959,1618
-510.77208209810846,1638
-508.16004991493924,1697
-505.5487387426199,1842
-502.9381484006032,1873
-500.3282787082628,2043
-497.71912948489364,2047
-495.1107005497117,1947
-492.5029917218539,1854
-489.8960028203786,1626
-487.28973366426493,1449
-484.68418407241325,1318
-482.07935386364494,1206
-479.47524285670266,1160
-476.87185087025,1225
-474.2691777228715,1212
-471.66722323307334,1220
-469.0659872192821,1186
-466.4654694998459,1154
-463.86566989303384,1159
-461.26658821703614,1131
-458.66822428996414,1145
-456.07057792985,1185
-453.4736489546475,1175
-450.877437182231,1103
-448.28194243039627,1058
-445.68716451686,1045
-443.09310325926003,1079
-440.49975847515555,1101
-437.9071299820263,1078
-435.31521759727354,1098
-432.72402113821954,1128
-430.13354042210767,1141
-427.5437752661022,1108
-424.95472548728867,1108
-422.36639090267386,1116
-419.7787713291855,1195
-417.1918665836721,1174
-414.60567648290385,1159
-412.0202008435715,1180
-409.4354394822874,1241
-406.8513922155845,1231
-404.26805885991723,1156
-401.685439231661,1182
-399.103533147112,1213
-396.522340422488,1214
-393.9418608739278,1206
-391.3620943174908,1177
-388.7830405691583,1171
-386.2046994448317,1111
-383.6270707603344,1057
-381.05015433141045,1074
-378.473949973725,979
-375.8984575028645,920
-373.32367673433623,830
-370.74960748356875,835
-368.1762495659117,776
-365.60360279663576,715
-363.03166699093265,681
-360.4604419639154,641
-357.8899275306178,616
-355.32012350599507,577
-352.7510297049233,544
-350.1826459421999,572
-347.61497203254316,542
-345.04800779059235,557
-342.4817530309082,569
-339.91620756797226,580
-337.35137121618743,567
-334.7872437898774,523
-332.22382510328725,536
-329.66111497058273,572
-327.09911320585127,610
-324.53781962310075,586
-321.9772340362607,541
-319.4173562591816,564
-316.8581861056348,592
-314.2997233893127,590
-311.7419679238294,615
-309.1849195227194,569
-306.62857799943856,598
-304.0729431673641,577
-301.51801483979375,661
-298.963792829947,606
-296.41027695096386,553
-293.85746701590574,627
-291.3053628377552,665
-288.7539642294155,699
-286.2032710037115,648
-283.65328297338897,698
-281.1039999511146,669
-278.5554217494762,696
-276.007548180983,749
-273.4603790580651,783
-270.9139141930734,706
-268.3681533982807,784
-265.8230964858798,851
-263.27874326798565,807
-260.7350935566336,739
-258.1921471637804,798
-255.6499039013039,1001
-253.10836358100266,923
-250.56752601459698,858
-248.02739101372765,917
-245.48795838995704,909
-242.94922795476816,867
-240.41119951956557,925
-237.8738728956746,894
-235.33724789434166,903
-232.80132432673452,844
-230.2661020039418,782
-227.73158073697357,872
-225.19776033676033,929
-222.66464061415422,1044
-220.1322213799284,918
-217.60050244477725,903
-215.06948361931552,903
-212.53916471408013,1154
-210.00954553952818,1267
-207.48062590603843,1023
-204.9524056239104,856
-202.4248845033651,912
-199.8980623545441,943
-197.37193898751036,1047
-194.84651421224817,1012
-192.32178783866232,933
-189.79775967657952,959
-187.27442953574644,1104
-184.7517972258321,1178
-182.2298625564256,973
-179.7086253370378,929
-177.18808537710026,956
-174.66824248596583,1078
-172.14909647290835,1168
-169.6306471471229,1212
-167.11289431772548,1182
-164.59583779375328,1121
-162.07947738416453,1276
-159.5638128978386,1698
-157.04884414357605,1702
-154.53457093009854,1731
-152.02099306604828,1390
-149.50811035998936,1175
-146.99592262040665,1474
-144.48442965570587,1505
-141.97363127421409,1695
-139.46352728417958,1769
-136.95411749377126,1779
-134.44540171107985,1629
-131.93737974411636,1556
-129.43005140081357,1631
-126.92341648902493,2027
-124.41747481652521,2120
-121.91222619101006,2534
-119.40767042009657,3174
-116.90380731132257,3602
-114.40063667214702,3752
-111.8981583099503,4334
-109.3963720320337,5837
-106.89527764561933,8704
-104.39487495785067,9244
-101.89516377579241,11041
-99.39614390642998,15592
-96.89781515667039,22403
-94.40017733334128,25061
-91.90323024319173,19984
-89.40697369289148,12478
-86.91140748903172,8869
-84.41653143812482,8037
-81.92234534660395,11804
-79.42884902082358,14584
-76.93604226705907,14275
-74.4439248915071,12008
-71.95249670028534,8772
-69.46175749943245,6060
-66.97170709490854,5552
-64.48234529259423,6661
-61.99367189829195,9447
-59.50568671772464,11032
-57.01838955653636,12564
-54.53178022029283,13767
-52.045858514480074,15577
-49.560624244506016,17944
-47.07607721569923,19214
-44.59221723330904,18245
-42.10904410250669,21315
-39.62655762838392,23343
-37.14475761595372,26431
-34.66364387015028,26409
-32.18321619582866,32181
-29.70347439776515,32002
-27.224418280657005,31788
-24.74604764912317,43012
-22.26836230770266,64055
-19.7913620608565,65035
-17.315046712966478,65035
-14.83941606833514,65035
-12.36446993118659,65035
-9.89020810566592,65035
-7.416630395839093,65035
-4.94373660569363,65035
-2.471526539137585,65035
-6.821210263296962E-13,65035
2.47084320796705,65035
4.941003281093458,65035
7.410480415786196,65035
9.879274808531363,65035
12.347386655893956,65035
14.814816154518212,65035
17.28156350112681,65035
19.74762889252179,65035
22.21301252558385,65035
24.67771459727237,26183
27.141735304626195,8267
29.605074844762612,7557
32.06773341487792,7075
34.52971121224755,5934
36.99100843422559,5474
39.45162527824516,4970
41.91156194181792,4270
44.370818622535126,4530
46.82939551806646,4781
49.287292826160524,6277
51.74451074464503,5495
54.201049471426245,4116
56.65690920448981,3302
59.112090141899785,2817
61.56659248179983,3375
64.02041642241159,2983
66.4735621620365,2853
68.92602989905402,3635
71.37781983192338,3711
73.82893215918205,3186
76.27936707944684,2554
78.72912479141326,2820
81.17820549385567,2219
83.62660938562783,2060
86.07433666566146,2314
88.5213875329681,2393
90.96776218663751,2246
93.41346082583925,2361
95.85848364982041,2499
98.30283085790859,1981
100.7465026495089,1877
103.18949922410604,1940
105.63182078126385,1800
108.07346752062438,1995
110.51443964190923,1728
112.95473734491827,1598
115.39436082953114,1585
117.83331029570547,1553
120.27158594347827,1841
122.7091879729652,1798
125.1461165843615,1705
127.58237197794062,1461
130.01795435405518,1413
132.4528639131364,1543
134.88710085569494,1603
137.32066538231982,1849
139.75355769367923,1786
142.1857779905207,1490
144.61732647366978,1188
147.04820334403132,1333
149.47840880258934,1603
151.90794305040674,1555
154.33680628862487,1554
156.76499871846443,1664
159.19252054122433,1806
161.61937195828352,2128
164.04555317109896,2404
166.47106438120693,2546
168.89590579022217,2846
171.320077599839,2923
173.7435800118302,3095
176.16641322804742,3201
178.58857745042144,3351
181.01007288096173,3358
183.43089972175687,3467
185.85105817497413,3424
188.27054844285988,3320
190.6893707277394,3313
193.10752523201643,3373
195.5250121581745,3524
197.9418317087751,3656
200.3579840864594,3496
202.7734694939469,3630
205.18828813403627,3713
207.6024402096051,3759
210.01592592360964,3575
212.42874547908548,3666
214.84089907914665,3674
217.2523869269868,3599
219.66320922587727,3710
222.0733661791695,3564
224.48285799029293,3412
226.8916848627572,3593
229.29984700014882,3732
231.7073446061355,3745
234.11417788446204,3557
236.520347038953,3674
238.92585227351185,3735
241.33069379212054,3871
243.73487179884035,3921
246.1383864978112,3849
248.541238093252,3821
250.9434267894609,3849
253.34495279081432,3809
255.74581630176783,4000
258.1460175268563,3869
260.54555667069314,3987
262.9444339379703,3982
265.3426495334594,3850
267.7402036620107,3761
270.1370965285529,3610
272.53332833809407,3432
274.9288992957214,3376
277.32380960660055,3266
279.718059475976,3278
282.1116491091717,3246
284.5045787115897,3282
286.89684848871195,3284
289.2884586460981,3271
291.67940938938807,3286
294.0697009242996,3143
296.4593334566299,3288
298.84830719225477,3249
301.23662233712923,3253
303.6242790972866,3119
306.01127767884,3052
308.39761828798066,3107
310.78330113097934,2967
313.16832641418534,2877
315.5526943440269,2935
317.9364051270112,2866
320.3194589697242,2758
322.70185607883093,2803
325.0835966610754,2760
327.4646809232805,2714
329.8451090723478,2774
332.2248813152577,2807
334.6039978590701,2755
336.9824589109231,2684
339.36026467803447,2716
341.7374153677,2651
344.113911187295,2583
346.48975234427337,2598
348.8649390461686,2619
351.2394715005918,2564
353.61334991523415,2636
355.9865744978655,2609
358.35914545633375,2664
360.73106299856715,2634
363.10232733257146,2595
365.47293866643247,2510
367.84289720831396,2529
370.2122031664593,2615
372.5808567491905,2520
374.9488581649083,2506
377.31620762209275,2469
379.6829053293021,2455
382.0489514951745,2454
384.4143463284262,2394
386.7790900378528,2459
389.14318283232853,2434
391.50662492080653,2427
393.86941651231916,2481
396.23155781597745,2413
398.5930490409713,2443
400.9538903965696,2371
403.3140820921202,2352
405.6736243370498,2339
408.03251734086336,2379
410.3907613131465,2413
412.74835646356166,2346
415.10530300185144,2373
417.4616011378372,2366
419.81725108141893,2487
422.1722530425758,2336
424.5266072313656,2408
426.880313857925,2399
429.2333731324701,2278
431.58578526529516,2378
433.9375504667738,2345
436.2886689473588,2318
438.63914091758113,2336
440.9889665880513,2264
443.33814616945835,2316
445.68667987257015,2269
448.03456790823395,2385
450.3818104873759,2263
452.72840782100013,2317
455.07436012019105,2388
457.41966759611057,2382
459.7643304600007,2292
462.10834892318155,2264
464.4517231970525,2251
466.79445349309174,2349
469.1365400228566,2325
471.4779829979826,2267
473.81878263018564,2296
476.15893913125876,2365
478.4984527130747,2424
480.8373235875855,2481
483.17555196682144,2570
485.5131380628919,2603
487.8500820879857,2732
490.1863842543697,2943
492.52204477439034,3070
494.8570638604725,3465
497.1914417251204,3768
499.52517858091653,4073
501.85827464052306,4167
504.19073011668036,4220
506.5225452222086,4096
508.85372017000566,4085
511.18425517304956,4050
513.514150444396,4437
515.8434061971808,5744
518.1720226446176,7110
520.4999999999999,7244
522.8273384766991,6882
525.1540382881666,6453
527.480099647932,5876
529.8055227696037,4647
532.1303078668694,3532
534.454455153496,2904
536.777964843328,2593
539.1008371502907,2519
541.4230722883866,2428
543.744670471698,2460
546.0656319143858,2364
548.3859568306899,2393
550.7056454349294,2327
553.0246979415016,2291
555.3431145648834,2251
557.6608955196306,2190
559.978041020377,2275
562.2945512818363,2323
564.6104265188006,2390
566.9256669461412,2335
569.2402727788082,2303
571.5542442318302,2389
573.8675815203156,2295
576.1802848594508,2316
578.4923544645015,2322
580.8037905508126,2344
583.114593333807,2356
585.4247630289875,2317
587.7342998519354,2311
590.0432040183106,2390
592.3514757438526,2367
594.6591152443794,2370
596.9661227357875,2313
599.2724984340531,2405
601.578242555231,2316
603.8833553154542,2312
606.1878369309362,2326
608.4916876179676,2258
610.7949075929192,2309
613.0974970722403,2302
615.3994562724587,2336
617.7007854101818,2290
620.0014847020951,2300
622.3015543649641,2305
624.6009946156324,2353
626.8998056710224,2323
629.1979877481361,2304
631.4955410640538,2425
633.7924658359349,2359
636.0887622810175,2423
638.3844306166192,2374
640.6794710601358,2382
642.9738838290426,2349
645.2676691408932,2436
647.5608272133207,2356
649.853358264037,2425
652.1452625108324,2402
654.4365401715764,2545
656.7271914642178,2374
659.0172166067838,2354
661.3066158173809,2357
663.5953893141935,2420
665.8835373154867,2334
668.1710600396028,2379
670.4579577049639,2461
672.7442305300709,2358
675.0298787335033,2407
677.3149025339197,2377
679.599302150058,2391
681.8830778007342,2342
684.1662297048437,2368
686.4487580813608,2401
688.7306631493387,2381
691.0119451279091,2345
693.2926042362834,2394
695.5726406937516,2360
697.8520547196814,2385
700.1308465335215,2302
702.4090163547982,2307
704.6865644031171,2442
706.9634908981619,2371
709.2397960596965,2313
711.5154801075631,2342
713.7905432616823,2345
716.0649857420548,2325
718.3388077687592,2360
720.612009561953,2384
722.8845913418733,2320
725.1565533288352,2322
727.427895743234,2431
729.6986188055427,2307
731.9687227363137,2315
734.238207756178,2346
736.5070740858458,2292
738.7753219461066,2334
741.0429515578281,2348
743.3099631419569,2291
745.5763569195191,2286
747.8421331116193,2298
750.1072919394409,2307
752.3718336242467,2294
754.6357583873777,2356
756.8990664502545,2375
759.1617580343765,2366
761.423833361321,2403
763.6852926527457,2312
765.9461361303862,2305
768.206364016058,2234
770.4659765316536,2277
772.7249738991469,2344
774.9833563405886,2413
777.2411240781092,2347
779.4982773339183,2306
781.7548163303044,2391
784.010741289634,2375
786.2660524343538,2411
788.5207499869881,2430
790.7748341701416,2461
793.0283052064964,2404
795.2811633188143,2509
797.5334087299362,2407
799.7850416627813,2370
802.0360623403484,2346
804.2864709857143,2347
806.5362678220353,2314
808.7854530725468,2389
811.0340269605625,2268
813.2819897094754,2332
815.5293415427581,2347
817.77608268396,2382
820.0222133567116,2374
822.2677337847211,2369
824.5126441917765,2379
826.7569448017433,2351
829.0006358385675,2375
831.2437175262731,2363
833.4861900889629,2417
835.7280537508192,2379
837.9693087361026,2347
840.2099552691533,2390
842.4499935743896,2359
844.689423876309,2406
846.9282463994886,2415
849.1664613685833,2358
851.4040690083276,2366
853.6410695435349,2371
855.877463199097,2465
858.1132501999847,2367
860.3484307712487,2519
862.5830051380175,2415
864.8169735254988,2423
867.0503361589791,2434
869.2830932638243,2429
871.5152450654786,2443
873.7467917894654,2349
875.9777336613873,2505
878.2080709069252,2508
880.4378037518389,2387
882.666932421968,2444
884.8954571432301,2526
887.1233781416219,2519
889.3506956432192,2506
891.5774098741766,2468
893.803521060728,2509
896.0290294291852,2475
898.2539352059397,2558
900.4782386174619,2607
902.7019398903011,2431
904.925039251085,2501
907.147536926521,2443
909.3694331433943,2479
911.59072812857,2495
913.8114221089921,2416
916.0315153116827,2409
918.2510079637437,2421
920.4699002923547,2347
922.6881925247761,2488
924.905884888345,2444
927.1229776104793,2395
929.3394709186747,2411
931.555365040506,2478
933.7706602036275,2436
935.9853566357709,2464
938.1994545647489,2508
940.4129542184515,2510
942.6258558248488,2389
944.8381596119883,2417
947.0498658079974,2410
949.2609746410825,2522
951.4714863395287,2447
953.6814011316998,2486
955.8907192460387,2453
958.0994409110671,2466
960.3075663553858,2461
962.5150958076741,2350
964.7220294966913,2465
966.928367651274,2409
969.1341105003388,2386
971.3392582728806,2454
973.5438111979742,2437
975.747769504772,2366
977.9511334225061,2413
980.153903180487,2277
982.3560790081052,2311
984.5576611348289,2321
986.7586497902058,2308
988.9590452038618,2254
991.158847605503,2236
993.3580572249133,2220
995.5566742919558,2158
997.7546990365728,2141
999.952131688785,2137
1002.1489724786926,2105
1004.3452216364743,2068
1006.5408793923874,1983
1008.7359459767691,2086
1010.9304216200343,2057
1013.1243065526781,2062
1015.3176010052733,2009
1017.510305208472,2077
1019.7024193930064,2023
1021.8939437896848,1937
1024.0848786293977,1957
1026.2752241431122,1963
1028.4649805618747,2035
1030.6541481168115,2030
1032.842727039127,1884
1035.0307175601051,1935
1037.2181199111074,1892
1039.4049343235752,1914
1041.591161029029,1933
1043.7768002590683,1936
1045.9618522453698,1896
1048.1463172196918,1952
1050.3301954138697,1980
1052.513487059818,1943
1054.69619238953,1895
1056.8783116350783,1922
1059.0598450286152,1888
1061.2407928023704,1893
1063.4211551886528,1975
1065.6009324198508,1915
1067.780124728432,2006
1069.9587323469414,1857
1072.1367555080046,1879
1074.314194444325,1957
1076.4910493886855,1896
1078.667320573947,1887
1080.843008233051,1860
1083.0181125990161,1893
1085.1926339049414,1855
1087.3665723840027,1806
1089.5399282694575,1842
1091.7127017946405,1834
1093.8848931929647,1822
1096.0565026979243,1828
1098.2275305430899,1779
1100.3979769621128,1838
1102.567842188722,1790
1104.737126456726,1852
1106.9058300000124,1796
1109.0739530525475,1783
1111.2414958483764,1818
1113.4084586216231,1761
1115.5748416064907,1786
1117.7406450372605,1759
1119.9058691482942,1886
1122.0705141740304,1871
1124.2345803489884,1797
1126.3980679077658,1785
1128.5609770850388,1781
1130.7233081155623,1826
1132.8850612341707,1754
1135.0462366757774,1745
1137.2068346753745,1801
1139.3668554680326,1775
1141.526299288901,1748
1143.68516637321,1786
1145.8434569562655,1775
1148.001171273455,1829
1150.158309560244,1740
1152.3148720521767,1675
1154.470858984876,1786
1156.626270594044,1756
1158.7811071154629,1731
1160.9353687849912,1756
1163.089055838569,1764
1165.242168512213,1730
1167.3947070420209,1810
1169.5466716641677,1763
1171.6980626149075,1685
1173.8488801305748,1719
1175.9991244475814,1699
1178.1487958024186,1665
1180.2978944316555,1714
1182.4464205719428,1630
1184.5943744600072,1661
1186.7417563326567,1702
1188.8885664267755,1670
1191.0348049793297,1757
1193.1804722273619,1655
1195.325568407995,1731
1197.4700937584303,1694
1199.614048515948,1743
1201.7574329179074,1766
1203.900247201746,1790
1206.042491604982,1770
1208.1841663652099,1762
1210.3252717201053,1808
1212.465807907422,1799
1214.6057751649923,1787
1216.7451737307279,1769
1218.8840038426192,1711
1221.0222657387353,1788
1223.1599596572241,1751
1225.2970858363137,1752
1227.4336445143094,1706
1229.5696359295966,1810
1231.705060320639,1749
1233.8399179259786,1787
1235.9742089842384,1764
1238.107933734118,1793
1240.2410924143974,1798
1242.373685263935,1776
1244.5057125216676,1826
1246.6371744266116,1797
1248.7680712178621,1802
1250.898403134593,1767
1253.028170416058,1778
1255.1573733015875,1858
1257.2860120305932,1811
1259.4140868425648,1786
1261.54159797707,1831
1263.6685456737569,1774
1265.7949301723515,1769
1267.9207517126597,1814
1270.046010534565,1882
1272.1707068780306,1822
1274.2948409830983,1845
1276.4184130898889,1784
1278.541423438603,1881
1280.6638722695184,1875
1282.785759822993,1900
1284.9070863394636,1907
1287.0278520594447,1915
1289.1480572235314,1876
1291.2677020723963,1897
1293.3867868467923,1952
1295.5053117875495,1963
1297.623277135579,1911
1299.740683131868,1896
1301.8575300174857,1940
1303.973818033578,1948
1306.0895474213703,1905
1308.2047184221678,1960
1310.3193312773528,1987
1312.4333862283888,1871
1314.5468835168163,1980
1316.659823384255,2006
1318.7722060724045,1991
1320.8840318230418,1900
1322.9953008780249,2007
1325.1060134792888,1989
1327.2161698688478,1935
1329.3257702887959,2003
1331.4348149813054,1988
1333.5433041886276,1968
1335.6512381530933,1980
1337.7586171171101,1941
1339.8654413231675,2048
1341.9717110138317,1916
1344.0774264317488,1969
1346.1825878196432,1969
1348.2871954203192,1978
1350.3912494766587,1955
1352.4947502316231,1975
1354.5976979282532,1980
1356.7000928096686,1958
1358.8019351190665,1921
1360.9032250997243,1982
1363.0039629949988,1989
1365.1041490483235,1943
1367.2037835032133,1921
1369.3028666032606,1939
1371.401398592137,1982
1373.4993797135926,1995
1375.5968102114575,2020
1377.6936903296396,1967
1379.7900203121262,2015
1381.8858004029835,1931
1383.9810308463561,1942
1386.075711886469,1951
1388.1698437676241,2025
1390.2634267342032,2020
1392.356461030667,2017
1394.4489469015557,2033
1396.5408845914872,2063
1398.6322743451592,1990
1400.7231164073469,2025
1402.813411022907,2058
1404.903158436773,2014
1406.9923588939578,2109
1409.0810126395531,2077
1411.1691199187303,2043
1413.2566809767386,2121
1415.343696058907,2159
1417.4301654106425,2151
1419.5160892774315,2187
1421.6014679048399,2165
1423.6863015385125,2248
1425.7705904241707,2164
1427.8543348076178,2224
1429.9375349347342,2213
1432.0201910514802,2269
1434.102303403894,2275
1436.1838722380944,2274
1438.2648978002767,2363
1440.3453803367174,2393
1442.4253200937692,2340
1444.5047173178677,2401
1446.5835722555234,2438
1448.6618851533285,2475
1450.739656257952,2599
1452.8168858161434,2613
1454.8935740747306,2594
1456.96972128062,2544
1459.045327680797,2627
1461.120393522327,2687
1463.1949190523528,2809
1465.2689045180973,2748
1467.3423501668608,2936
1469.415256246024,2911
1471.4876230030463,2930
1473.559450685465,3065
1475.6307395408976,3094
1477.7014898170391,3104
1479.771701761665,3171
1481.8413756226287,3159
1483.9105116478618,3253
1485.9791100853772,3356
1488.0471711832643,3312
1490.1146951896926,3437
1492.1816823529098,3426
1494.2481329212433,3542
1496.3140471430984,3544
1498.3794252669609,3480
1500.4442675413939,3706
1502.5085742150404,3657
1504.572345536622,3814
1506.6355817549388,3820
1508.6982831188702,3876
1510.7604498773744,3849
1512.8220822794883,3953
1514.8831805743293,3936
1516.9437450110909,4065
1519.003775839048,3962
1521.0632733075522,4137
1523.1222376660367,4135
1525.1806691640113,4312
1527.2385680510652,4329
1529.2959345768668,4489
1531.3527689911643,4503
1533.4090715437833,4608
1535.4648424846291,4715
1537.5200820636855,4688
1539.5747905310159,4831
1541.6289681367616,4800
1543.6826151311434,4940
1545.7357317644614,5059
1547.7883182870937,5105
1549.8403749494987,5198
1551.8919020022113,5285
1553.9428996958477,5359
1555.9933682811015,5570
1558.0433080087469,5581
1560.0927191296346,5679
1562.1416018946961,5833
1564.1899565549415,5687
1566.2377833614592,5661
1568.2850825654164,5626
1570.3318544180606,5421
1572.3780991707158,5076
1574.423817074788,4895
1576.4690083817595,4760
1578.5136733431923,4483
1580.5578122107272,4231
1582.601425236085,4048
1584.6445126710646,3795
1586.6870747675434,3617
1588.7291117774776,3401
1590.7706239529034,3409
1592.8116115459347,3144
1594.8520748087658,3036
1596.8920139936686,2848
1598.9314293529933,2816
1600.9703211391711,2757
1603.008689604711,2641
1605.0465350022005,2631
1607.0838575843068,2490
1609.1206576037753,2501
1611.1569353134305,2389
1613.1926909661765,2322
1615.2279248149953,2331
1617.2626371129481,2320
1619.2968281131757,2221
1621.3304980688963,2169
1623.3636472334088,2190
1625.39627586009,2064
1627.428384202396,2146
1629.459972513861,2049
1631.4910410480993,2040
1633.5215900588028,1990
1635.551619799744,2023
1637.5811305247717,2065
1639.6101224878166,1999
1641.6385959428862,2053
1643.6665511440683,1939
1645.693988345528,1933
1647.7209078015112,1977
1649.7473097663405,1945
1651.7731944944203,1929
1653.7985622402307,1871
1655.823413258333,1952
1657.847747803366,1900
1659.8715661300494,1901
1661.8948684931793,1948
1663.9176551476316,1878
1665.9399263483624,1960
1667.9616823504057,1887
1669.982923408873,1848
1672.0036497789574,1879
1674.0238617159293,1840
1676.043559475138,1903
1678.0627433120121,1856
1680.081413482059,1902
1682.0995702408654,1855
1684.117213844096,1906
1686.134344547495,1857
1688.1509626068864,1890
1690.1670682781705,1853
1692.182661817329,1869
1694.1977434804217,1891
1696.2123135235875,1906
1698.226372203043,1893
1700.2399197750851,1931
1702.2529564960905,1902
1704.2654826225112,1922
1706.277498410882,1916
1708.2890041178139,1862
1710.2999999999988,1817
1712.3104863142066,1834
1714.3204633172854,1915
1716.329931266163,1816
1718.3388904178469,1808
1720.3473410294214,1829
1722.3552833580516,1843
1724.3627176609807,1801
1726.3696441955308,1789
1728.3760632191033,1829
1730.3819749891782,1770
1732.3873797633146,1876
1734.3922777991502,1788
1736.3966693544012,1762
1738.4005546868639,1776
1740.4039340544127,1797
1742.406807715001,1784
1744.4091759266616,1818
1746.4110389475054,1754
1748.4123970357223,1817
1750.413250449582,1800
1752.4135994474318,1780
1754.4134442876993,1742
1756.4127852288902,1690
1758.4116225295893,1737
1760.4099564484595,1726
1762.407787244244,1746
1764.405115175764,1673
1766.4019405019203,1731
1768.3982634816916,1700
1770.3940843741357,1677
1772.3894034383907,1626
1774.3842209336717,1727
1776.378537119274,1736
1778.372352254571,1654
1780.3656665990156,1721
1782.3584804121397,1666
1784.3507939535534,1682
1786.3426074829463,1706
1788.3339212600863,1687
1790.3247355448211,1692
1792.3150505970766,1738
1794.3048666768573,1722
1796.2941840442477,1632
1798.2830029594106,1710
1800.2713236825884,1744
1802.2591464741004,1707
1804.2464715943465,1635
1806.2332993038058,1645
1808.2196298630352,1651
1810.2054635326708,1673
1812.190800573428,1674
1814.175641246101,1716
1816.1599858115628,1671
1818.1438345307652,1676
1820.127187664738,1653
1822.1100454745924,1664
1824.092408221516,1670
1826.0742761667766,1621
1828.055649571721,1693
1830.0365286977735,1722
1832.0169138064398,1623
1833.9968051593014,1666
1835.9762030180214,1675
1837.9551076443408,1652
1839.9335193000788,1614
1841.9114382471344,1633
1843.888864747485,1649
1845.8657990631878,1621
1847.842241456378,1657
1849.8181921892697,1542
1851.7936515241558,1609
1853.7686197234098,1594
1855.7430970494815,1625
1857.7170837649014,1640
1859.6905801322787,1661
1861.6635864143004,1649
1863.6361028737338,1613
1865.608129773424,1580
1867.5796673762961,1703
1869.5507159453537,1673
1871.521275743678,1657
1873.4913470344313,1699
1875.4609300808534,1693
1877.4300251462632,1667
1879.3986324940588,1730
1881.366752387717,1673
1883.3343850907936,1624
1885.3015308669228,1620
1887.268189979819,1682
1889.2343626932739,1649
1891.2000492711595,1611
1893.1652499774254,1685
1895.1299650761011,1688
1897.0941948312952,1624
1899.0579395071945,1705
1901.0211993680641,1647
1902.98397467825,1659
1904.9462657021745,1729
1906.9080727043415,1654
1908.869395949332,1603
1910.8302357018065,1696
1912.790592226504,1630
1914.7504657882428,1649
1916.7098566519212,1673
1918.6687650825133,1650
1920.6271913450764,1690
1922.5851357047422,1626
1924.5425984267245,1697
1926.499579776314,1655
1928.4560800188833,1678
1930.4120994198802,1639
1932.367638244833,1685
1934.32269675935,1668
1936.2772752291175,1696
1938.231373919899,1697
1940.1849930975404,1668
1942.1381330279637,1708
1944.0907939771696,1619
1946.0429762112412,1674
1947.9946799963363,1623
1949.9459055986945,1669
1951.896653284633,1623
1953.8469233205478,1585
1955.7967159729142,1671
1957.7460315082863,1665
1959.6948701932974,1607
1961.6432322946594,1589
1963.5911180791632,1653
1965.5385278136787,1616
1967.4854617651545,1648
1969.4319202006182,1596
1971.377903387176,1672
1973.3234115920136,1645
1975.268445082395,1606
1977.2130041256642,1630
1979.1570889892423,1574
1981.1006999406304,1602
1983.04383724741,1627
1984.986501177238,1596
1986.928691997853,1640
1988.8704099770712,1664
1990.811655382789,1649
1992.7524284829801,1614
1994.692729545698,1586
1996.6325588390755,1635
1998.5719166313224,1611
2000.5108031907307,1561
2002.4492187856677,1620
2004.387163684583,1634
2006.3246381560011,1591
2008.2616424685298,1639
2010.1981768908527,1576
2012.1342416917332,1554
2014.069837140014,1558
2016.0049635046162,1577
2017.9396210545406,1580
2019.8738100588666,1582
2021.8075307867502,1576
2023.740783507431,1583
2025.6735684902228,1626
2027.6058860045214,1603
2029.5377363198004,1599
2031.4691197056118,1604
2033.4000364315875,1563
2035.3304867674374,1579
2037.260470982952,1556
2039.189989347998,1582
2041.1190421325232,1649
2043.047629606554,1574
2044.9757520401945,1577
2046.9034097036288,1640
2048.8306028671195,1567
2050.7573318010086,1512
2052.683596775716,1594
2054.609398061742,1636
2056.5347359296647,1595
2058.4596106501403,1615
2060.384022493906,1543
2062.3079717317764,1580
2064.231458634646,1547
2066.1544834734873,1635
2068.077046519352,1565
2069.99914804337,1640
2071.9207883167524,1549
2073.8419676107865,1607
2075.7626861968406,1568
2077.6829443463607,1636
2079.6027423308715,1589
2081.522080421977,1595
2083.440958891362,1545
2085.359378010786,1592
2087.2773380520907,1605
2089.194839287196,1625
2091.111881988101,1576
2093.0284664268825,1642
2094.9445928756973,1602
2096.86026160678,1578
2098.775472892446,1611
2100.690227005088,1600
2102.604524217178,1586
2104.5183648012676,1621
2106.431749029985,1574
2108.34467717604,1590
2110.2571495122206,1549
2112.169166311393,1606
2114.080727846503,1635
2115.9918343905747,1666
2117.902486216711,1593
2119.8126835980956,1609
2121.722426807987,1609
2123.6317161197285,1645
2125.5405518067364,1635
2127.448934142509,1604
2129.356863400624,1695
2131.264339854737,1633
2133.1713637785815,1605
2135.077935445972,1620
2136.9840551308002,1620
2138.889723107037,1603
2140.7949396487334,1701
2142.699705030018,1616
2144.6040195250994,1660
2146.507883408264,1656
2148.4112969538774,1684
2150.3142604363848,1648
2152.2167741303097,1677
2154.1188383102535,1660
2156.0204532508997,1656
2157.9216192270064,1694
2159.822336513414,1669
2161.7226053850413,1639
2163.622426116884,1695
2165.5217989840185,1643
2167.4207242616,1657
2169.319202224862,1647
2171.2172331491165,1672
2173.1148173097563,1647
2175.0119549822507,1689
2176.90864644215,1724
2178.8048919650823,1717
2180.7006918267534,1667
2182.596046302952,1731
2184.4909556695407,1662
2186.3854202024645,1656
2188.279440177746,1677
2190.173015871487,1719
2192.066147559868,1662
2193.958835519149,1676
2195.851080025667,1710
2197.7428813558417,1702
2199.6342397861667,1661
2201.5251555932186,1768
2203.415629053651,1693
2205.3056604441986,1689
2207.19525004167,1784
2209.084398122958,1717
2210.9731049650327,1708
2212.861370844941,1740
2214.749196039812,1702
2216.636580826851,1739
2218.523525483344,1716
2220.410030286655,1801
2222.296095514226,1668
2224.1817214435805,1698
2226.066908352319,1739
2227.951656518121,1720
2229.835966218746,1721
2231.71983773203,1724
2233.6032713358913,1700
2235.486267308324,1685
2237.3688259274036,1712
2239.2509474712824,1747
2241.132632218193,1758
2243.013880446447,1688
2244.8946924344323,1784
2246.7750684606203,1691
2248.6550088035574,1773
2250.534513741871,1850
2252.413583554265,1749
2254.292218519526,1707
2256.170418916517,1723
2258.0481850241786,1657
2259.925517121534,1707
2261.8024154876825,1774
2263.678880401803,1709
2265.5549121431536,1720
2267.430510991071,1701
2269.305677224971,1716
2271.180411124348,1691
2273.0547129687766,1657
2274.9285830379076,1672
2276.8020216114737,1675
2278.6750289692845,1743
2280.5476053912294,1760
2282.4197511572766,1703
2284.2914665474727,1697
2286.162751841943,1756
2288.0336073208937,1780
2289.904033264608,1755
2291.774029953448,1717
2293.6435976678554,1676
2295.5127366883517,1739
2297.381447295534,1682
2299.2497297700825,1673
2301.1175843927526,1597
2302.9850114443825,1589
2304.852011205885,1501
2306.7185839582553,1476
2308.5847299825664,1483
2310.4504495599676,1485
2312.3157429716925,1433
2314.1806104990483,1485
2316.0450524234247,1499
2317.9090690262888,1500
2319.772660589186,1496
2321.635827393742,1475
2323.498569721661,1471
2325.3608878547248,1443
2327.2227820747967,1472
2329.0842526638157,1414
2330.945299903803,1456
2332.805924076857,1447
2334.6661254651535,1502
2336.525904350951,1443
2338.3852610165827,1474
2340.244195744464,1411
2342.102708817088,1419
2343.9608005170253,1386
2345.8184711269287,1413
2347.675720929526,1425
2349.532550207628,1450
2351.38895924412,1458
2353.24494832197,1490
2355.100517724223,1442
2356.955667734004,1474
2358.810398634514,1547
2360.664710709037,1497
2362.5186042409337,1446
2364.3720795136437,1443
2366.225136810686,1472
2368.0777764156583,1449
2369.929998612237,1486
2371.7818036841777,1408
2373.633191915315,1468
2375.484163589562,1513
2377.3347189909114,1440
2379.184858403434,1507
2381.03458211128,1462
2382.8838903986775,1523
2384.732783549936,1492
2386.5812618494406,1550
2388.4293255816588,1469
2390.2769750311327,1551
2392.1242104824883,1527
2393.971032220427,1488
2395.8174405297295,1518
2397.6634356952563,1565
2399.509018001947,1547
2401.3541877348193,1533
2403.1989451789705,1483
2405.043290619576,1451
2406.8872243418905,1448
2408.730746631247,1477
2410.5738577730594,1528
2412.4165580528183,1530
2414.258847756095,1555
2416.100727168537,1498
2417.9421965758734,1492
2419.783256263912,1571
2421.623906518538,1523
2423.4641476257157,1477
2425.303979871491,1492
2427.143403541984,1506
2428.9824189233977,1461
2430.821026302012,1520
2432.6592259641866,1483
2434.497018196361,1550
2436.33440328505,1508
2438.171381516851,1540
2440.00795317844,1516
2441.844118556569,1488
2443.6798779380724,1533
2445.5152316098606,1522
2447.3501798589255,1505
2449.1847229723357,1550
2451.0188612372403,1517
2452.8525949408663,1525
2454.6859243705203,1486
2456.518849813587,1535
2458.3513715575314,1514
2460.183489889895,1573
2462.015205098301,1546
2463.8465174704493,1462
2465.67742729412,1486
2467.5079348571717,1544
2469.338040447542,1579
2471.1677443532476,1568
2472.9970468623833,1552
2474.825948263123,1596
2476.6544488437207,1578
2478.482548892508,1590
2480.310248697896,1537
2482.137548548374,1548
2483.9644487325118,1565
2485.790949538956,1540
2487.617051256433,1502
2489.44275417375,1506
2491.26805857979,1508
2493.0929647635157,1515
2494.917473013971,1590
2496.741583620276,1612
2498.5652968716304,1540
2500.3886130573137,1570
2502.2115324666834,1617
2504.0340553891765,1599
2505.856182114308,1625
2507.6779129316733,1594
2509.499248130945,1611
2511.3201880018764,1598
2513.140732834298,1603
2514.9608829181198,1564
2516.780638543331,1590
2518.6,1652
2520.418967578273,1666
2522.237541568376,1602
2524.0557222606144,1620
2525.8735099453706,1626
2527.6909049131086,1682
2529.507907454368,1689
2531.32451785977,1714
2533.140736420014,1605
2534.9565634258774,1709
2536.771999168218,1715
2538.5870439379714,1716
2540.4016980261526,1785
2542.2159617238544,1793
2544.02983532225,1751
2545.8433191125914,1726
2547.656413386209,1788
2549.4691184345115,1782
2551.2814345489874,1822
2553.093362021204,1857
2554.904901142808,1796
2556.716052205523,1787
2558.526815501153,1800
2560.3371913215824,1853
2562.147179958771,1833
2563.956781704761,1850
2565.7659968516705,1945
2567.5748256916986,1923
2569.3832685171224,1925
2571.1913256202984,1876
2572.9989972936614,1949
2574.806283829725,1934
2576.613185521084,1987
2578.4197026604074,2000
2580.2258355404483,1951
2582.031584454035,1974
2583.836949694077,1980
2585.6419315535613,2059
2587.4465303255533,1950
2589.2507463032002,2070
2591.0545797797245,2046
2592.8580310484303,1988
2594.6611004026995,2070
2596.463788135992,2038
2598.266094541849,2087
2600.0680199138874,2054
2601.869564545807,2114
2603.670728731383,2065
2605.4715127644704,2164
2607.2719169390048,2085
2609.071941548998,2131
2610.8715868885433,2155
2612.670853251811,2128
2614.469740933052,2080
2616.268250226594,2040
2618.0663814268455,2147
2619.864134828292,2159
2621.6615107255006,2037
2623.458509413115,2052
2625.2551311858597,2002
2627.0513763385347,2044
2628.8472451660223,2053
2630.6427379632833,2007
2632.4378550253564,1975
2634.232596647359,1968
2636.026963124488,1955
2637.8209547520187,1926
2639.6145718253065,2008
2641.407814639785,1952
2643.200683490966,1861
2644.9931786744414,1927
2646.7853004858807,1940
2648.577049221034,1901
2650.3684251757277,1877
2652.1594286458712,1833
2653.9500599274484,1770
2655.740319316525,1796
2657.5302071092437,1805
2659.3197236018286,1794
2661.10886909058,1753
2662.8976438718782,1739
2664.686048242183,1783
2666.4740824980327,1651
2668.2617469360443,1750
2670.0490418529134,1749
2671.8359675454153,1698
2673.622524310403,1674
2675.408712444811,1665
2677.1945322456495,1666
2678.979984010009,1636
2680.76506803506,1578
2682.5497846180497,1678
2684.334134056306,1624
2686.1181166472343,1641
2687.9017326883213,1641
2689.6849824771293,1611
2691.4678663113013,1606
2693.2503844885596,1568
2695.032537306705,1571
2696.8143250636167,1576
2698.5957480572542,1594
2700.3768065856534,1511
2702.1575009469316,1593
2703.937831439283,1572
2705.717798360982,1572
2707.4974020103837,1482
2709.276642685917,1528
2711.055520686095,1556
2712.834036309506,1524
2714.612189854819,1541
2716.389981620782,1537
2718.1674119062204,1526
2719.944481010041,1557
2721.721189231226,1521
2723.4975368688415,1489
2725.273524222027,1538
2727.0491515900053,1583
2728.824419272075,1500
2730.5993275676146,1471
2732.3738767760838,1479
2734.148067197016,1518
2735.921899130031,1558
2737.6953728748194,1485
2739.468488731156,1454
2741.2412469988926,1490
2743.0136479779617,1498
2744.785691968372,1462
2746.5573792702116,1461
2748.3287101836504,1492
2750.099685008934,1463
2751.870304046388,1443
2753.640567596418,1489
2755.4104759595057,1524
2757.1800294362156,1435
2758.949228327187,1465
2760.7180729331412,1466
2762.486563554877,1470
2764.254700493272,1445
2766.022484049284,1478
2767.789914523947,1445
2769.5569922183786,1460
2771.3237174337705,1422
2773.090090471394,1486
2774.8561116326036,1441
2776.6217812188274,1421
2778.3870995315756,1458
2780.1520668724356,1469
2781.9166835430747,1395
2783.6809498452394,1386
2785.444866080754,1386
2787.2084325515225,1467
2788.971649559527,1399
2790.73451740683,1419
2792.4970363955713,1433
2794.2592068279705,1402
2796.0210290063264,1466
2797.7825032330147,1469
2799.543629810493,1433
2801.304409041296,1482
2803.0648412280366,1509
2804.8249266734088,1437
2806.5846656801846,1429
2808.344058551212,1458
2810.1031055894246,1462
2811.8618070978273,1455
2813.6201633795085,1454
2815.378174737636,1495
2817.1358414754536,1435
2818.893163896285,1456
2820.6501423035334,1451
2822.4067770006814,1479
2824.1630682912883,1441
2825.9190164789957,1402
2827.6746218675207,1418
2829.429884760661,1476
2831.184805462294,1436
2832.9393842763743,1483
2834.693621506936,1447
2836.4475174580916,1411
2838.201072434034,1492
2839.954286739034,1519
2841.707160677441,1447
2843.459694553685,1457
2845.2118886722724,1438
2846.96374333779,1433
2848.7152588549034,1446
2850.4664355283567,1432
2852.217273662973,1479
2853.9677735636546,1468
2855.7179355353833,1440
2857.4677598832186,1448
2859.217246912299,1399
2860.9663969278427,1433
2862.715210235146,1399
2864.4636871395846,1417
2866.211827946614,1485
2867.9596329617652,1440
2869.7071024906536,1441
2871.4542368389684,1467
2873.20103631248,1455
2874.947501217038,1455
2876.6936318585695,1422
2878.4394285430812,1457
2880.1848915766604,1450
2881.9300212654707,1435
2883.6748179157553,1450
2885.4192818338374,1441
2887.1634133261173,1448
2888.907212699077,1447
2890.6506802592744,1430
2892.393816313348,1469
2894.1366211680142,1419
2895.8790951300693,1493
2897.621238506388,1407
2899.363051603925,1413
2901.1045347297118,1395
2902.8456881908596,1444
2904.58651229456,1463
2906.327007348081,1438
2908.067173658772,1438
2909.8070115340597,1415
2911.5465212814497,1401
2913.285703208527,1368
2915.0245576229563,1354
2916.7630848324807,1365
2918.5012851449196,1455
2920.2391588681758,1409
2921.976706310227,1382
2923.7139277791334,1386
2925.4508235830313,1419
2927.187394030137,1415
2928.923639428745,1422
2930.6595600872306,1444
2932.395156314046,1397
2934.1304284177218,1399
2935.8653767068713,1387
2937.6000014901815,1399
2939.3343030764227,1407
2941.068281774442,1465
2942.8019378931644,1422
2944.5352717415976,1433
2946.2682836288236,1458
2948.0009738640065,1436
2949.7333427563885,1423
2951.465390615289,1428
2953.1971177501086,1430
2954.9285244703265,1455
2956.6596110855,1338
2958.3903779052657,1467
2960.1208252393385,1393
2961.8509533975125,1409
2963.5807626896617,1467
2965.3102534257378,1378
2967.0394259157715,1418
2968.768280469873,1362
2970.496817398232,1418
2972.2250370111146,1375
2973.952939618869,1445
2975.6805255319196,1477
2977.4077950607707,1414
2979.134748516006,1471
2980.861386208289,1465
2982.587708448359,1410
2984.313715547037,1467
2986.039407815222,1479
2987.764785563891,1424
2989.489849104102,1354
2991.2145987469908,1405
2992.9390348037705,1424
2994.6631575857346,1452
2996.3869674042576,1407
2998.1104645707887,1453
2999.83364939686,1418
3001.5565221940783,1429
3003.2790832741334,1417
3005.0013329487924,1376
3006.7232715298996,1407
3008.4448993293804,1357
3010.166216659239,1452
3011.887223831558,1378
3013.607921158498,1416
3015.3283089522993,1402
3017.0483875252826,1386
3018.7681571898443,1396
3020.4876182584626,1382
3022.2067710436927,1374
3023.9256158581707,1425
3025.644153014609,1437
3027.362382825801,1428
3029.0803056046193,1368
3030.797921664012,1434
3032.5152313170106,1393
3034.2322348767225,1439
3035.9489326563353,1448
3037.665324969115,1412
3039.3814121284063,1435
3041.097194447633,1427
3042.812672240299,1390
3044.5278458199855,1440
3046.2427155003525,1388
3047.9572815951406,1412
3049.671544418167,1402
3051.38550428333,1382
3053.0991615046073,1484
3054.812516396051,1423
3056.5255692717974,1397
3058.2383204460575,1412
3059.9507702331257,1439
3061.662918947372,1416
3063.3747669032446,1395
3065.0863144152736,1408
3066.7975617980674,1459
3068.508509366309,1481
3070.219157434767,1400
3071.9295063182844,1428
3073.639556331785,1391
3075.3493077902704,1510
3077.058761008821,1391
3078.7679163025964,1436
3080.476773986837,1414
3082.1853343768594,1433
3083.89359778806,1396
3085.6015645359153,1482
3087.3092349359786,1430
3089.016609303884,1478
3090.7236879553434,1454
3092.4304712061476,1473
3094.136959372166,1388
3095.843152769349,1424
3097.5490517137237,1375
3099.2546565213966,1472
3100.959967508554,1441
3102.66498499146,1349
3104.3697092864577,1424
3106.0741407099695,1489
3107.778279578498,1414
3109.482126208622,1419
3111.1856809170004,1424
3112.8889440203716,1420
3114.5919158355528,1439
3116.294596679439,1441
3117.996986869006,1472
3119.6990867213062,1410
3121.4008965534726,1470
3123.102416682717,1528
3124.803647426329,1455
3126.5045891016784,1472
3128.205242026213,1432
3129.90560651746,1437
3131.605682893025,1439
3133.3054714705922,1456
3135.0049725679282,1446
3136.7041865028714,1500
3138.4031135933465,1471
3140.101754157353,1458
3141.800108512971,1469
3143.498176978357,1478
3145.1959598717494,1429
3146.8934575114636,1502
3148.5906702158954,1426
3150.2875983035183,1427
3151.9842420928853,1372
3153.680601902627,1413
3155.376678051456,1375
3157.07247085816,1424
3158.767980641609,1393
3160.463207720748,1448
3162.158152414606,1397
3163.8528150422862,1419
3165.5471959229726,1421
3167.2412953759303,1462
3168.9351137204976,1441
3170.628651276098,1417
3172.3219083622307,1444
3174.014885298474,1472
3175.707582404485,1464
3177.4000000000005,1415
3179.092138404835,1434
3180.7839979388846,1415
3182.47557892212,1367
3184.166881674594,1441
3185.8579065164386,1404
3187.5486537678626,1468
3189.2391237491547,1381
3190.9293167806827,1360
3192.6192331828934,1411
3194.3088732763117,1415
3195.998237381542,1427
3197.687325819268,1379
3199.376138910251,1332
3201.064676975334,1391
3202.7529403354347,1373
3204.4409293115523,1435
3206.1286442247647,1342
3207.816085396229,1341
3209.5032531471825,1351
3211.190147798936,1318
3212.8767696728846,1362
3214.5631190905015,1402
3216.2491963733373,1382
3217.9350018430214,1438
3219.6205358212637,1378
3221.305798629851,1397
3222.990790590651,1404
3224.6755120256103,1379
3226.359963256751,1392
3228.0441446061795,1373
3229.7280563960758,1308
3231.411698948703,1388
3233.0950725863995,1307
3234.778177631587,1365
3236.461014406761,1349
3238.1435832345005,1337
3239.8258844374595,1384
3241.507918338374,1394
3243.1896852600576,1391
3244.8711855254023,1370
3246.552419457381,1356
3248.233387379042,1436
3249.914089613516,1453
3251.59452648401,1398
3253.274698313813,1343
3254.95460542629,1371
3256.6342481448855,1301
3258.313626793125,1344
3259.9927416946084,1410
3261.6715931730196,1317
3263.3501815521176,1352
3265.0285071557437,1332
3266.706570307815,1345
3268.3843713323286,1398
3270.0619105533615,1375
3271.739188295068,1327
3273.4162048816834,1372
3275.0929606375184,1370
3276.769455886966,1383
3278.445690954498,1356
3280.1216661646613,1426
3281.797381842087,1395
3283.4728383114807,1388
3285.1480358976296,1382
3286.8229749253996,1333
3288.4976557197333,1398
3290.172078605655,1340
3291.846243908266,1367
3293.5201519527463,1417
3295.193803064357,1283
3296.8671975684374,1365
3298.5403357904024,1349
3300.21321805575,1347
3301.8858446900567,1372
3303.558216018975,1370
3305.23033236824,1368
3306.9021940636603,1351
3308.57380143113,1356
3310.2451547966184,1375
3311.916254486174,1369
3313.5871008259246,1392
3315.2576941420766,1327
3316.9280347609147,1367
3318.5981230088046,1363
3320.2679592121895,1400
3321.9375436975924,1335
3323.606876791612,1338
3325.27595882093,1339
3326.944790112305,1348
3328.6133709925753,1325
3330.2817017886573,1322
3331.949782827547,1286
3333.617614436319,1355
3335.2851969421245,1408
3336.952530672199,1381
3338.619615953853,1415
3340.286453114475,1358
3341.9530424815357,1291
3343.619384382583,1355
3345.2854791452437,1320
3346.951327097224,1338
3348.6169285663073,1336
3350.2822838803577,1366
3351.947393367319,1368
3353.61225735521,1353
3355.2768761721345,1365
3356.9412501462693,1354
3358.605379605873,1311
3360.2692648792827,1322
3361.9329062949146,1364
3363.596304181263,1319
