CollectionTime,6/26/2024 3:23:46 PM
ExposureUsed,3
CalibratedSpectrum
-962.7078968117929,914
-959.9714848408522,973
-957.2358232597828,968
-954.5009119013725,948
-951.7667505983302,992
-949.0333391832855,972
-946.3006774887896,934
-943.5687653473143,967
-940.837602591253,995
-938.1071890529199,967
-935.3775245645503,959
-932.6486089583007,996
-929.9204420662485,1022
-927.1930237203925,979
-924.4663537526524,1013
-921.7404319948689,1011
-919.0152582788041,987
-916.2908324361409,1008
-913.5671542984834,1013
-910.8442236973568,1017
-908.1220404642074,993
-905.4006044304027,1020
-902.679915427231,999
-899.959973285902,1002
-897.2407778375464,1035
-894.5223289132158,1025
-891.8046263438832,971
-889.0876699604426,956
-886.3714595937089,958
-883.6559950744183,971
-880.9412762332282,985
-878.2273029007168,1015
-875.5140749073835,996
-872.8015920836489,964
-870.0898542598545,972
-867.3788612662631,946
-864.6686129330585,946
-861.9591090903457,919
-859.2503495681506,940
-856.5423341964203,942
-853.8350628050229,970
-851.1285352237478,969
-848.4227512823054,969
-845.7177108103272,969
-843.0134136373656,986
-840.3098595928943,941
-837.6070485063082,1020
-834.9049802069229,1004
-832.2036545239757,955
-829.5030712866244,935
-826.8032303239481,946
-824.1041314649472,916
-821.4057745385428,951
-818.7081593735775,951
-816.0112857988148,956
-813.3151536429393,961
-810.6197627345566,979
-807.9251129021936,953
-805.2312039742981,946
-802.5380357792392,950
-799.8456081453069,931
-797.1539209007124,951
-794.462973873588,968
-791.772766891987,967
-789.083299783884,993
-786.3945723771743,1022
-783.7065844996748,1007
-781.0193359791231,940
-778.3328266431781,1013
-775.6470563194197,1007
-772.9620248353489,991
-770.2777320183878,1004
-767.5941776958798,948
-764.9113616950891,996
-762.2292838432011,999
-759.5479439673222,970
-756.8673418944801,1010
-754.1874774516235,1002
-751.5083504656222,966
-748.8299607632671,971
-746.15230817127,1015
-743.475392516264,985
-740.7992136248035,1005
-738.1237713233636,1060
-735.4490654383407,1032
-732.7750957960521,1025
-730.1018622227365,1021
-727.4293645445534,990
-724.7576025875837,1060
-722.0865761778291,1024
-719.4162851412126,1029
-716.7467293035781,1073
-714.0779084906909,1030
-711.409822528237,1081
-708.7424712418238,1038
-706.0758544569796,1052
-703.4099719991541,1119
-700.7448236937178,1101
-698.0804093659622,1060
-695.4167288411002,1027
-692.7537819442656,1044
-690.0915685005134,1077
-687.4300883348199,1029
-684.7693412720819,1092
-682.1093271371178,1013
-679.4500457546669,1078
-676.7914969493897,1090
-674.1336805458676,1087
-671.4765963686034,1097
-668.8202442420206,1136
-666.1646239904642,1142
-663.5097354382001,1138
-660.8555784094151,1098
-658.2021527282176,1104
-655.5494582186366,1143
-652.8974947046223,1160
-650.2462620100463,1128
-647.5957599587009,1125
-644.9459883742998,1176
-642.2969470804776,1152
-639.6486359007902,1130
-637.0010546587141,1171
-634.3542031776476,1136
-631.7080812809096,1098
-629.0626887917401,1149
-626.4180255333008,1099
-623.7740913286734,1126
-621.1308860008619,1139
-618.4884093727904,1155
-615.8466612673046,1131
-613.2056415071715,1114
-610.5653499150785,1150
-607.9257863136347,1140
-605.28695052537,1193
-602.6488423727357,1182
-600.0114616781036,1185
-597.3748082637674,1183
-594.7388819519412,1226
-592.1036825647604,1147
-589.4692099242818,1183
-586.8354638524829,1128
-584.2024441712624,1178
-581.5701507024403,1169
-578.9385832677575,1189
-576.3077416888759,1224
-573.6776257873787,1188
-571.0482353847704,1155
-568.4195703024757,1147
-565.7916303618415,1212
-563.164415384135,1239
-560.5379251905453,1189
-557.9121596021815,1139
-555.2871184400748,1215
-552.6628015251767,1192
-550.0392086783606,1197
-547.4163397204204,1237
-544.794194472071,1208
-542.1727727539491,1203
-539.5520743866118,1209
-536.9320991905377,1289
-534.3128469861261,1266
-531.6943175936979,1305
-529.0765108334947,1310
-526.4594265256793,1390
-523.8430644903358,1499
-521.2274245474689,1689
-518.612506517005,1770
-515.9983102187913,1909
-513.3848354725959,1928
-510.77208209810846,2017
-508.16004991493924,2074
-505.5487387426199,2195
-502.9381484006032,2294
-500.3282787082628,2424
-497.71912948489364,2554
-495.1107005497117,2512
-492.5029917218539,2519
-489.8960028203786,2421
-487.28973366426493,2248
-484.68418407241325,2017
-482.07935386364494,1784
-479.47524285670266,1652
-476.87185087025,1647
-474.2691777228715,1671
-471.66722323307334,1568
-469.0659872192821,1548
-466.4654694998459,1495
-463.86566989303384,1460
-461.26658821703614,1497
-458.66822428996414,1471
-456.07057792985,1488
-453.4736489546475,1493
-450.877437182231,1453
-448.28194243039627,1436
-445.68716451686,1474
-443.09310325926003,1506
-440.49975847515555,1472
-437.9071299820263,1452
-435.31521759727354,1403
-432.72402113821954,1497
-430.13354042210767,1444
-427.5437752661022,1526
-424.95472548728867,1501
-422.36639090267386,1479
-419.7787713291855,1513
-417.1918665836721,1557
-414.60567648290385,1553
-412.0202008435715,1556
-409.4354394822874,1525
-406.8513922155845,1578
-404.26805885991723,1554
-401.685439231661,1631
-399.103533147112,1638
-396.522340422488,1562
-393.9418608739278,1580
-391.3620943174908,1608
-388.7830405691583,1543
-386.2046994448317,1470
-383.6270707603344,1274
-381.05015433141045,1252
-378.473949973725,1169
-375.8984575028645,1043
-373.32367673433623,952
-370.74960748356875,878
-368.1762495659117,832
-365.60360279663576,760
-363.03166699093265,751
-360.4604419639154,711
-357.8899275306178,635
-355.32012350599507,573
-352.7510297049233,575
-350.1826459421999,574
-347.61497203254316,582
-345.04800779059235,580
-342.4817530309082,510
-339.91620756797226,492
-337.35137121618743,491
-334.7872437898774,512
-332.22382510328725,522
-329.66111497058273,535
-327.09911320585127,554
-324.53781962310075,525
-321.9772340362607,575
-319.4173562591816,624
-316.8581861056348,642
-314.2997233893127,652
-311.7419679238294,674
-309.1849195227194,695
-306.62857799943856,562
-304.0729431673641,528
-301.51801483979375,531
-298.963792829947,549
-296.41027695096386,598
-293.85746701590574,643
-291.3053628377552,643
-288.7539642294155,654
-286.2032710037115,621
-283.65328297338897,649
-281.1039999511146,659
-278.5554217494762,722
-276.007548180983,690
-273.4603790580651,692
-270.9139141930734,652
-268.3681533982807,678
-265.8230964858798,665
-263.27874326798565,620
-260.7350935566336,629
-258.1921471637804,664
-255.6499039013039,727
-253.10836358100266,738
-250.56752601459698,697
-248.02739101372765,743
-245.48795838995704,844
-242.94922795476816,795
-240.41119951956557,669
-237.8738728956746,830
-235.33724789434166,938
-232.80132432673452,923
-230.2661020039418,959
-227.73158073697357,876
-225.19776033676033,762
-222.66464061415422,884
-220.1322213799284,857
-217.60050244477725,791
-215.06948361931552,815
-212.53916471408013,872
-210.00954553952818,824
-207.48062590603843,891
-204.9524056239104,888
-202.4248845033651,907
-199.8980623545441,998
-197.37193898751036,924
-194.84651421224817,877
-192.32178783866232,942
-189.79775967657952,915
-187.27442953574644,867
-184.7517972258321,918
-182.2298625564256,839
-179.7086253370378,908
-177.18808537710026,1020
-174.66824248596583,1029
-172.14909647290835,1116
-169.6306471471229,1130
-167.11289431772548,1000
-164.59583779375328,1066
-162.07947738416453,1169
-159.5638128978386,1133
-157.04884414357605,1206
-154.53457093009854,1226
-152.02099306604828,1136
-149.50811035998936,1124
-146.99592262040665,1194
-144.48442965570587,1323
-141.97363127421409,1223
-139.46352728417958,1372
-136.95411749377126,1363
-134.44540171107985,1572
-131.93737974411636,1451
-129.43005140081357,1502
-126.92341648902493,1475
-124.41747481652521,1557
-121.91222619101006,1539
-119.40767042009657,1535
-116.90380731132257,1449
-114.40063667214702,1515
-111.8981583099503,1666
-109.3963720320337,1835
-106.89527764561933,1641
-104.39487495785067,1703
-101.89516377579241,1913
-99.39614390642998,1917
-96.89781515667039,1754
-94.40017733334128,2131
-91.90323024319173,2192
-89.40697369289148,2066
-86.91140748903172,1812
-84.41653143812482,1951
-81.92234534660395,2103
-79.42884902082358,2193
-76.93604226705907,2075
-74.4439248915071,2211
-71.95249670028534,2107
-69.46175749943245,2346
-66.97170709490854,2529
-64.48234529259423,2812
-61.99367189829195,3006
-59.50568671772464,2909
-57.01838955653636,3279
-54.53178022029283,3134
-52.045858514480074,3168
-49.560624244506016,4126
-47.07607721569923,4076
-44.59221723330904,3908
-42.10904410250669,3507
-39.62655762838392,4771
-37.14475761595372,5913
-34.66364387015028,6225
-32.18321619582866,6684
-29.70347439776515,7706
-27.224418280657005,9087
-24.74604764912317,12525
-22.26836230770266,18676
-19.7913620608565,32540
-17.315046712966478,53420
-14.83941606833514,61616
-12.36446993118659,65039
-9.89020810566592,65039
-7.416630395839093,65039
-4.94373660569363,65039
-2.471526539137585,65039
-6.821210263296962E-13,65039
2.47084320796705,65039
4.941003281093458,65039
7.410480415786196,65039
9.879274808531363,65039
12.347386655893956,65039
14.814816154518212,65039
17.28156350112681,65039
19.74762889252179,65039
22.21301252558385,65039
24.67771459727237,65039
27.141735304626195,65039
29.605074844762612,20608
32.06773341487792,13168
34.52971121224755,9678
36.99100843422559,9334
39.45162527824516,9806
41.91156194181792,10258
44.370818622535126,11410
46.82939551806646,11068
49.287292826160524,12904
51.74451074464503,12587
54.201049471426245,9887
56.65690920448981,7181
59.112090141899785,4435
61.56659248179983,4088
64.02041642241159,3790
66.4735621620365,3656
68.92602989905402,2946
71.37781983192338,2828
73.82893215918205,3182
76.27936707944684,3085
78.72912479141326,3275
81.17820549385567,3214
83.62660938562783,2967
86.07433666566146,3067
88.5213875329681,3378
90.96776218663751,3510
93.41346082583925,3507
95.85848364982041,2917
98.30283085790859,2061
100.7465026495089,2145
103.18949922410604,2524
105.63182078126385,2263
108.07346752062438,2412
110.51443964190923,2243
112.95473734491827,1765
115.39436082953114,1739
117.83331029570547,1916
120.27158594347827,2223
122.7091879729652,1835
125.1461165843615,1475
127.58237197794062,1622
130.01795435405518,1406
132.4528639131364,1438
134.88710085569494,1559
137.32066538231982,1760
139.75355769367923,1572
142.1857779905207,1572
144.61732647366978,1644
147.04820334403132,1556
149.47840880258934,1537
151.90794305040674,1742
154.33680628862487,1887
156.76499871846443,1910
159.19252054122433,1963
161.61937195828352,2195
164.04555317109896,2142
166.47106438120693,2382
168.89590579022217,2874
171.320077599839,2948
173.7435800118302,2944
176.16641322804742,3093
178.58857745042144,3180
181.01007288096173,3259
183.43089972175687,3224
185.85105817497413,3293
188.27054844285988,3231
190.6893707277394,3290
193.10752523201643,3447
195.5250121581745,3607
197.9418317087751,3711
200.3579840864594,3463
202.7734694939469,3543
205.18828813403627,3492
207.6024402096051,3400
210.01592592360964,3464
212.42874547908548,3511
214.84089907914665,3416
217.2523869269868,3444
219.66320922587727,3491
222.0733661791695,3350
224.48285799029293,3269
226.8916848627572,3424
229.29984700014882,3573
231.7073446061355,3559
234.11417788446204,3516
236.520347038953,3566
238.92585227351185,3799
241.33069379212054,3894
243.73487179884035,3838
246.1383864978112,3704
248.541238093252,3543
250.9434267894609,3650
253.34495279081432,3708
255.74581630176783,3647
258.1460175268563,3554
260.54555667069314,3663
262.9444339379703,3691
265.3426495334594,3600
267.7402036620107,3570
270.1370965285529,3527
272.53332833809407,3425
274.9288992957214,3439
277.32380960660055,3374
279.718059475976,3224
282.1116491091717,3261
284.5045787115897,3381
286.89684848871195,3350
289.2884586460981,3290
291.67940938938807,3292
294.0697009242996,3261
296.4593334566299,3216
298.84830719225477,3169
301.23662233712923,3238
303.6242790972866,3205
306.01127767884,3281
308.39761828798066,3118
310.78330113097934,3190
313.16832641418534,3102
315.5526943440269,3137
317.9364051270112,3020
320.3194589697242,2983
322.70185607883093,2897
325.0835966610754,2953
327.4646809232805,3059
329.8451090723478,2857
332.2248813152577,3005
334.6039978590701,2819
336.9824589109231,2894
339.36026467803447,2850
341.7374153677,2879
344.113911187295,2831
346.48975234427337,2850
348.8649390461686,2786
351.2394715005918,2783
353.61334991523415,2760
355.9865744978655,2645
358.35914545633375,2750
360.73106299856715,2663
363.10232733257146,2668
365.47293866643247,2783
367.84289720831396,2699
370.2122031664593,2698
372.5808567491905,2615
374.9488581649083,2667
377.31620762209275,2721
379.6829053293021,2663
382.0489514951745,2718
384.4143463284262,2653
386.7790900378528,2577
389.14318283232853,2598
391.50662492080653,2612
393.86941651231916,2614
396.23155781597745,2654
398.5930490409713,2605
400.9538903965696,2527
403.3140820921202,2563
405.6736243370498,2499
408.03251734086336,2618
410.3907613131465,2516
412.74835646356166,2589
415.10530300185144,2551
417.4616011378372,2489
419.81725108141893,2541
422.1722530425758,2590
424.5266072313656,2652
426.880313857925,2456
429.2333731324701,2586
431.58578526529516,2505
433.9375504667738,2516
436.2886689473588,2460
438.63914091758113,2507
440.9889665880513,2446
443.33814616945835,2520
445.68667987257015,2519
448.03456790823395,2491
450.3818104873759,2434
452.72840782100013,2483
455.07436012019105,2455
457.41966759611057,2383
459.7643304600007,2453
462.10834892318155,2504
464.4517231970525,2478
466.79445349309174,2537
469.1365400228566,2530
471.4779829979826,2575
473.81878263018564,2523
476.15893913125876,2559
478.4984527130747,2554
480.8373235875855,2626
483.17555196682144,2714
485.5131380628919,2689
487.8500820879857,2849
490.1863842543697,3096
492.52204477439034,3241
494.8570638604725,3457
497.1914417251204,3730
499.52517858091653,3983
501.85827464052306,4121
504.19073011668036,4178
506.5225452222086,4118
508.85372017000566,3961
511.18425517304956,3790
513.514150444396,3830
515.8434061971808,4483
518.1720226446176,4949
520.4999999999999,5471
522.8273384766991,5756
525.1540382881666,5932
527.480099647932,5846
529.8055227696037,5155
532.1303078668694,3644
534.454455153496,2885
536.777964843328,2615
539.1008371502907,2519
541.4230722883866,2385
543.744670471698,2418
546.0656319143858,2434
548.3859568306899,2337
550.7056454349294,2298
553.0246979415016,2315
555.3431145648834,2322
557.6608955196306,2348
559.978041020377,2274
562.2945512818363,2299
564.6104265188006,2311
566.9256669461412,2331
569.2402727788082,2337
571.5542442318302,2258
573.8675815203156,2350
576.1802848594508,2311
578.4923544645015,2264
580.8037905508126,2207
583.114593333807,2259
585.4247630289875,2273
587.7342998519354,2228
590.0432040183106,2254
592.3514757438526,2259
594.6591152443794,2336
596.9661227357875,2236
599.2724984340531,2253
601.578242555231,2251
603.8833553154542,2273
606.1878369309362,2364
608.4916876179676,2357
610.7949075929192,2410
613.0974970722403,2309
615.3994562724587,2316
617.7007854101818,2285
620.0014847020951,2217
622.3015543649641,2294
624.6009946156324,2272
626.8998056710224,2307
629.1979877481361,2269
631.4955410640538,2328
633.7924658359349,2277
636.0887622810175,2284
638.3844306166192,2296
640.6794710601358,2322
642.9738838290426,2347
645.2676691408932,2277
647.5608272133207,2273
649.853358264037,2335
652.1452625108324,2289
654.4365401715764,2309
656.7271914642178,2316
659.0172166067838,2300
661.3066158173809,2333
663.5953893141935,2432
665.8835373154867,2394
668.1710600396028,2356
670.4579577049639,2389
672.7442305300709,2428
675.0298787335033,2416
677.3149025339197,2351
679.599302150058,2404
681.8830778007342,2365
684.1662297048437,2348
686.4487580813608,2356
688.7306631493387,2484
691.0119451279091,2307
693.2926042362834,2334
695.5726406937516,2386
697.8520547196814,2433
700.1308465335215,2393
702.4090163547982,2336
704.6865644031171,2342
706.9634908981619,2440
709.2397960596965,2306
711.5154801075631,2273
713.7905432616823,2348
716.0649857420548,2335
718.3388077687592,2270
720.612009561953,2262
722.8845913418733,2323
725.1565533288352,2396
727.427895743234,2360
729.6986188055427,2358
731.9687227363137,2317
734.238207756178,2355
736.5070740858458,2272
738.7753219461066,2312
741.0429515578281,2293
743.3099631419569,2195
745.5763569195191,2280
747.8421331116193,2364
750.1072919394409,2374
752.3718336242467,2359
754.6357583873777,2390
756.8990664502545,2297
759.1617580343765,2344
761.423833361321,2371
763.6852926527457,2388
765.9461361303862,2259
768.206364016058,2304
770.4659765316536,2329
772.7249738991469,2316
774.9833563405886,2340
777.2411240781092,2305
779.4982773339183,2292
781.7548163303044,2344
784.010741289634,2348
786.2660524343538,2489
788.5207499869881,2373
790.7748341701416,2374
793.0283052064964,2324
795.2811633188143,2387
797.5334087299362,2309
799.7850416627813,2423
802.0360623403484,2487
804.2864709857143,2326
806.5362678220353,2413
808.7854530725468,2460
811.0340269605625,2397
813.2819897094754,2336
815.5293415427581,2409
817.77608268396,2359
820.0222133567116,2385
822.2677337847211,2397
824.5126441917765,2353
826.7569448017433,2432
829.0006358385675,2355
831.2437175262731,2299
833.4861900889629,2309
835.7280537508192,2351
837.9693087361026,2329
840.2099552691533,2376
842.4499935743896,2391
844.689423876309,2342
846.9282463994886,2382
849.1664613685833,2328
851.4040690083276,2346
853.6410695435349,2370
855.877463199097,2293
858.1132501999847,2392
860.3484307712487,2350
862.5830051380175,2305
864.8169735254988,2314
867.0503361589791,2373
869.2830932638243,2426
871.5152450654786,2386
873.7467917894654,2406
875.9777336613873,2398
878.2080709069252,2393
880.4378037518389,2406
882.666932421968,2419
884.8954571432301,2410
887.1233781416219,2278
889.3506956432192,2450
891.5774098741766,2437
893.803521060728,2398
896.0290294291852,2436
898.2539352059397,2348
900.4782386174619,2375
902.7019398903011,2441
904.925039251085,2503
907.147536926521,2299
909.3694331433943,2296
911.59072812857,2431
913.8114221089921,2352
916.0315153116827,2332
918.2510079637437,2437
920.4699002923547,2344
922.6881925247761,2383
924.905884888345,2326
927.1229776104793,2387
929.3394709186747,2327
931.555365040506,2360
933.7706602036275,2362
935.9853566357709,2260
938.1994545647489,2338
940.4129542184515,2322
942.6258558248488,2337
944.8381596119883,2365
947.0498658079974,2343
949.2609746410825,2381
951.4714863395287,2292
953.6814011316998,2259
955.8907192460387,2352
958.0994409110671,2308
960.3075663553858,2296
962.5150958076741,2311
964.7220294966913,2257
966.928367651274,2273
969.1341105003388,2272
971.3392582728806,2209
973.5438111979742,2274
975.747769504772,2289
977.9511334225061,2285
980.153903180487,2242
982.3560790081052,2247
984.5576611348289,2218
986.7586497902058,2177
988.9590452038618,2210
991.158847605503,2150
993.3580572249133,2141
995.5566742919558,2168
997.7546990365728,2101
999.952131688785,2056
1002.1489724786926,2080
1004.3452216364743,2025
1006.5408793923874,2071
1008.7359459767691,2074
1010.9304216200343,1940
1013.1243065526781,1960
1015.3176010052733,1950
1017.510305208472,2040
1019.7024193930064,1978
1021.8939437896848,1973
1024.0848786293977,1903
1026.2752241431122,1931
1028.4649805618747,1908
1030.6541481168115,1895
1032.842727039127,1934
1035.0307175601051,1837
1037.2181199111074,1908
1039.4049343235752,1918
1041.591161029029,1873
1043.7768002590683,1895
1045.9618522453698,1862
1048.1463172196918,1863
1050.3301954138697,1876
1052.513487059818,1880
1054.69619238953,1842
1056.8783116350783,1925
1059.0598450286152,1848
1061.2407928023704,1877
1063.4211551886528,1928
1065.6009324198508,1913
1067.780124728432,1868
1069.9587323469414,1803
1072.1367555080046,1810
1074.314194444325,1788
1076.4910493886855,1766
1078.667320573947,1833
1080.843008233051,1792
1083.0181125990161,1790
1085.1926339049414,1766
1087.3665723840027,1830
1089.5399282694575,1767
1091.7127017946405,1793
1093.8848931929647,1763
1096.0565026979243,1772
1098.2275305430899,1786
1100.3979769621128,1769
1102.567842188722,1786
1104.737126456726,1784
1106.9058300000124,1699
1109.0739530525475,1705
1111.2414958483764,1786
1113.4084586216231,1742
1115.5748416064907,1727
1117.7406450372605,1790
1119.9058691482942,1722
1122.0705141740304,1683
1124.2345803489884,1695
1126.3980679077658,1698
1128.5609770850388,1781
1130.7233081155623,1709
1132.8850612341707,1712
1135.0462366757774,1740
1137.2068346753745,1730
1139.3668554680326,1730
1141.526299288901,1728
1143.68516637321,1723
1145.8434569562655,1712
1148.001171273455,1736
1150.158309560244,1658
1152.3148720521767,1692
1154.470858984876,1687
1156.626270594044,1657
1158.7811071154629,1672
1160.9353687849912,1695
1163.089055838569,1616
1165.242168512213,1696
1167.3947070420209,1676
1169.5466716641677,1641
1171.6980626149075,1661
1173.8488801305748,1664
1175.9991244475814,1724
1178.1487958024186,1652
1180.2978944316555,1615
1182.4464205719428,1638
1184.5943744600072,1643
1186.7417563326567,1640
1188.8885664267755,1690
1191.0348049793297,1682
1193.1804722273619,1660
1195.325568407995,1713
1197.4700937584303,1672
1199.614048515948,1642
1201.7574329179074,1652
1203.900247201746,1672
1206.042491604982,1608
1208.1841663652099,1623
1210.3252717201053,1628
1212.465807907422,1688
1214.6057751649923,1657
1216.7451737307279,1552
1218.8840038426192,1603
1221.0222657387353,1656
1223.1599596572241,1701
1225.2970858363137,1668
1227.4336445143094,1664
1229.5696359295966,1663
1231.705060320639,1681
1233.8399179259786,1662
1235.9742089842384,1668
1238.107933734118,1608
1240.2410924143974,1624
1242.373685263935,1647
1244.5057125216676,1713
1246.6371744266116,1699
1248.7680712178621,1673
1250.898403134593,1690
1253.028170416058,1723
1255.1573733015875,1691
1257.2860120305932,1710
1259.4140868425648,1642
1261.54159797707,1644
1263.6685456737569,1651
1265.7949301723515,1604
1267.9207517126597,1733
1270.046010534565,1686
1272.1707068780306,1717
1274.2948409830983,1710
1276.4184130898889,1631
1278.541423438603,1730
1280.6638722695184,1727
1282.785759822993,1784
1284.9070863394636,1753
1287.0278520594447,1770
1289.1480572235314,1771
1291.2677020723963,1730
1293.3867868467923,1724
1295.5053117875495,1731
1297.623277135579,1791
1299.740683131868,1735
1301.8575300174857,1796
1303.973818033578,1764
1306.0895474213703,1766
1308.2047184221678,1828
1310.3193312773528,1873
1312.4333862283888,1830
1314.5468835168163,1748
1316.659823384255,1872
1318.7722060724045,1797
1320.8840318230418,1790
1322.9953008780249,1769
1325.1060134792888,1829
1327.2161698688478,1802
1329.3257702887959,1867
1331.4348149813054,1784
1333.5433041886276,1816
1335.6512381530933,1773
1337.7586171171101,1816
1339.8654413231675,1781
1341.9717110138317,1773
1344.0774264317488,1734
1346.1825878196432,1734
1348.2871954203192,1761
1350.3912494766587,1772
1352.4947502316231,1728
1354.5976979282532,1827
1356.7000928096686,1841
1358.8019351190665,1733
1360.9032250997243,1732
1363.0039629949988,1721
1365.1041490483235,1762
1367.2037835032133,1780
1369.3028666032606,1777
1371.401398592137,1772
1373.4993797135926,1771
1375.5968102114575,1722
1377.6936903296396,1755
1379.7900203121262,1732
1381.8858004029835,1804
1383.9810308463561,1719
1386.075711886469,1771
1388.1698437676241,1740
1390.2634267342032,1847
1392.356461030667,1770
1394.4489469015557,1712
1396.5408845914872,1824
1398.6322743451592,1812
1400.7231164073469,1829
1402.813411022907,1825
1404.903158436773,1833
1406.9923588939578,1789
1409.0810126395531,1797
1411.1691199187303,1814
1413.2566809767386,1866
1415.343696058907,1827
1417.4301654106425,1849
1419.5160892774315,1842
1421.6014679048399,1827
1423.6863015385125,1825
1425.7705904241707,1814
1427.8543348076178,1828
1429.9375349347342,1784
1432.0201910514802,1856
1434.102303403894,1871
1436.1838722380944,1940
1438.2648978002767,1895
1440.3453803367174,1896
1442.4253200937692,1851
1444.5047173178677,1918
1446.5835722555234,1935
1448.6618851533285,2082
1450.739656257952,1990
1452.8168858161434,1994
1454.8935740747306,1979
1456.96972128062,2026
1459.045327680797,2051
1461.120393522327,2099
1463.1949190523528,2147
1465.2689045180973,2163
1467.3423501668608,2178
1469.415256246024,2119
1471.4876230030463,2198
1473.559450685465,2263
1475.6307395408976,2311
1477.7014898170391,2279
1479.771701761665,2322
1481.8413756226287,2419
1483.9105116478618,2426
1485.9791100853772,2441
1488.0471711832643,2494
1490.1146951896926,2537
1492.1816823529098,2468
1494.2481329212433,2583
1496.3140471430984,2607
1498.3794252669609,2566
1500.4442675413939,2696
1502.5085742150404,2633
1504.572345536622,2730
1506.6355817549388,2680
1508.6982831188702,2778
1510.7604498773744,2819
1512.8220822794883,2875
1514.8831805743293,2930
1516.9437450110909,2854
1519.003775839048,2948
1521.0632733075522,2965
1523.1222376660367,2994
1525.1806691640113,3053
1527.2385680510652,3144
1529.2959345768668,3211
1531.3527689911643,3236
1533.4090715437833,3219
1535.4648424846291,3346
1537.5200820636855,3450
1539.5747905310159,3440
1541.6289681367616,3425
1543.6826151311434,3526
1545.7357317644614,3592
1547.7883182870937,3632
1549.8403749494987,3688
1551.8919020022113,3749
1553.9428996958477,3798
1555.9933682811015,3875
1558.0433080087469,4014
1560.0927191296346,4056
1562.1416018946961,4044
1564.1899565549415,4289
1566.2377833614592,4028
1568.2850825654164,4125
1570.3318544180606,3998
1572.3780991707158,3852
1574.423817074788,3684
1576.4690083817595,3612
1578.5136733431923,3480
1580.5578122107272,3157
1582.601425236085,3161
1584.6445126710646,2948
1586.6870747675434,2946
1588.7291117774776,2784
1590.7706239529034,2647
1592.8116115459347,2495
1594.8520748087658,2464
1596.8920139936686,2302
1598.9314293529933,2293
1600.9703211391711,2293
1603.008689604711,2257
1605.0465350022005,2136
1607.0838575843068,2081
1609.1206576037753,2094
1611.1569353134305,1994
1613.1926909661765,1938
1615.2279248149953,2002
1617.2626371129481,1887
1619.2968281131757,1959
1621.3304980688963,1839
1623.3636472334088,1847
1625.39627586009,1901
1627.428384202396,1817
1629.459972513861,1791
1631.4910410480993,1773
1633.5215900588028,1807
1635.551619799744,1772
1637.5811305247717,1829
1639.6101224878166,1784
1641.6385959428862,1745
1643.6665511440683,1804
1645.693988345528,1726
1647.7209078015112,1681
1649.7473097663405,1714
1651.7731944944203,1769
1653.7985622402307,1728
1655.823413258333,1717
1657.847747803366,1770
1659.8715661300494,1670
1661.8948684931793,1712
1663.9176551476316,1722
1665.9399263483624,1702
1667.9616823504057,1722
1669.982923408873,1638
1672.0036497789574,1720
1674.0238617159293,1692
1676.043559475138,1696
1678.0627433120121,1663
1680.081413482059,1713
1682.0995702408654,1715
1684.117213844096,1733
1686.134344547495,1690
1688.1509626068864,1660
1690.1670682781705,1638
1692.182661817329,1689
1694.1977434804217,1670
1696.2123135235875,1675
1698.226372203043,1671
1700.2399197750851,1650
1702.2529564960905,1698
1704.2654826225112,1706
1706.277498410882,1692
1708.2890041178139,1689
1710.2999999999988,1720
1712.3104863142066,1700
1714.3204633172854,1716
1716.329931266163,1702
1718.3388904178469,1657
1720.3473410294214,1655
1722.3552833580516,1648
1724.3627176609807,1616
1726.3696441955308,1730
1728.3760632191033,1633
1730.3819749891782,1622
1732.3873797633146,1632
1734.3922777991502,1624
1736.3966693544012,1683
1738.4005546868639,1624
1740.4039340544127,1641
1742.406807715001,1617
1744.4091759266616,1618
1746.4110389475054,1622
1748.4123970357223,1641
1750.413250449582,1630
1752.4135994474318,1665
1754.4134442876993,1555
1756.4127852288902,1603
1758.4116225295893,1613
1760.4099564484595,1624
1762.407787244244,1631
1764.405115175764,1620
1766.4019405019203,1605
1768.3982634816916,1594
1770.3940843741357,1579
1772.3894034383907,1658
1774.3842209336717,1628
1776.378537119274,1603
1778.372352254571,1591
1780.3656665990156,1612
1782.3584804121397,1592
1784.3507939535534,1630
1786.3426074829463,1626
1788.3339212600863,1572
1790.3247355448211,1566
1792.3150505970766,1589
1794.3048666768573,1568
1796.2941840442477,1551
1798.2830029594106,1645
1800.2713236825884,1569
1802.2591464741004,1581
1804.2464715943465,1528
1806.2332993038058,1531
1808.2196298630352,1532
1810.2054635326708,1573
1812.190800573428,1549
1814.175641246101,1571
1816.1599858115628,1564
1818.1438345307652,1532
1820.127187664738,1571
1822.1100454745924,1549
1824.092408221516,1610
1826.0742761667766,1521
1828.055649571721,1552
1830.0365286977735,1523
1832.0169138064398,1586
1833.9968051593014,1576
1835.9762030180214,1593
1837.9551076443408,1546
1839.9335193000788,1599
1841.9114382471344,1564
1843.888864747485,1562
1845.8657990631878,1540
1847.842241456378,1562
1849.8181921892697,1553
1851.7936515241558,1521
1853.7686197234098,1634
1855.7430970494815,1551
1857.7170837649014,1562
1859.6905801322787,1528
1861.6635864143004,1605
1863.6361028737338,1569
1865.608129773424,1539
1867.5796673762961,1596
1869.5507159453537,1578
1871.521275743678,1598
1873.4913470344313,1569
1875.4609300808534,1584
1877.4300251462632,1516
1879.3986324940588,1590
1881.366752387717,1549
1883.3343850907936,1574
1885.3015308669228,1517
1887.268189979819,1539
1889.2343626932739,1598
1891.2000492711595,1520
1893.1652499774254,1565
1895.1299650761011,1519
1897.0941948312952,1529
1899.0579395071945,1603
1901.0211993680641,1578
1902.98397467825,1612
1904.9462657021745,1595
1906.9080727043415,1637
1908.869395949332,1552
1910.8302357018065,1596
1912.790592226504,1554
1914.7504657882428,1580
1916.7098566519212,1504
1918.6687650825133,1599
1920.6271913450764,1578
1922.5851357047422,1536
1924.5425984267245,1538
1926.499579776314,1611
1928.4560800188833,1596
1930.4120994198802,1561
1932.367638244833,1582
1934.32269675935,1557
1936.2772752291175,1566
1938.231373919899,1567
1940.1849930975404,1558
1942.1381330279637,1596
1944.0907939771696,1516
1946.0429762112412,1497
1947.9946799963363,1569
1949.9459055986945,1593
1951.896653284633,1595
1953.8469233205478,1497
1955.7967159729142,1565
1957.7460315082863,1544
1959.6948701932974,1605
1961.6432322946594,1585
1963.5911180791632,1546
1965.5385278136787,1545
1967.4854617651545,1526
1969.4319202006182,1542
1971.377903387176,1532
1973.3234115920136,1559
1975.268445082395,1586
1977.2130041256642,1543
1979.1570889892423,1547
1981.1006999406304,1576
1983.04383724741,1558
1984.986501177238,1532
1986.928691997853,1502
1988.8704099770712,1576
1990.811655382789,1545
1992.7524284829801,1589
1994.692729545698,1475
1996.6325588390755,1533
1998.5719166313224,1546
2000.5108031907307,1535
2002.4492187856677,1516
2004.387163684583,1554
2006.3246381560011,1491
2008.2616424685298,1500
2010.1981768908527,1495
2012.1342416917332,1478
2014.069837140014,1473
2016.0049635046162,1528
2017.9396210545406,1509
2019.8738100588666,1512
2021.8075307867502,1542
2023.740783507431,1570
2025.6735684902228,1520
2027.6058860045214,1512
2029.5377363198004,1538
2031.4691197056118,1591
2033.4000364315875,1470
2035.3304867674374,1476
2037.260470982952,1534
2039.189989347998,1512
2041.1190421325232,1556
2043.047629606554,1552
2044.9757520401945,1538
2046.9034097036288,1514
2048.8306028671195,1470
2050.7573318010086,1492
2052.683596775716,1564
2054.609398061742,1512
2056.5347359296647,1521
2058.4596106501403,1567
2060.384022493906,1546
2062.3079717317764,1555
2064.231458634646,1500
2066.1544834734873,1533
2068.077046519352,1508
2069.99914804337,1479
2071.9207883167524,1475
2073.8419676107865,1550
2075.7626861968406,1512
2077.6829443463607,1494
2079.6027423308715,1532
2081.522080421977,1558
2083.440958891362,1481
2085.359378010786,1535
2087.2773380520907,1528
2089.194839287196,1588
2091.111881988101,1550
2093.0284664268825,1555
2094.9445928756973,1512
2096.86026160678,1553
2098.775472892446,1538
2100.690227005088,1518
2102.604524217178,1520
2104.5183648012676,1483
2106.431749029985,1560
2108.34467717604,1474
2110.2571495122206,1539
2112.169166311393,1496
2114.080727846503,1519
2115.9918343905747,1505
2117.902486216711,1508
2119.8126835980956,1490
2121.722426807987,1551
2123.6317161197285,1532
2125.5405518067364,1567
2127.448934142509,1500
2129.356863400624,1500
2131.264339854737,1564
2133.1713637785815,1617
2135.077935445972,1562
2136.9840551308002,1542
2138.889723107037,1480
2140.7949396487334,1431
2142.699705030018,1466
2144.6040195250994,1492
2146.507883408264,1532
2148.4112969538774,1510
2150.3142604363848,1555
2152.2167741303097,1543
2154.1188383102535,1431
2156.0204532508997,1500
2157.9216192270064,1564
2159.822336513414,1498
2161.7226053850413,1559
2163.622426116884,1499
2165.5217989840185,1512
2167.4207242616,1560
2169.319202224862,1421
2171.2172331491165,1566
2173.1148173097563,1504
2175.0119549822507,1484
2176.90864644215,1491
2178.8048919650823,1544
2180.7006918267534,1525
2182.596046302952,1458
2184.4909556695407,1505
2186.3854202024645,1475
2188.279440177746,1468
2190.173015871487,1520
2192.066147559868,1528
2193.958835519149,1509
2195.851080025667,1539
2197.7428813558417,1459
2199.6342397861667,1555
2201.5251555932186,1499
2203.415629053651,1543
2205.3056604441986,1493
2207.19525004167,1486
2209.084398122958,1537
2210.9731049650327,1559
2212.861370844941,1496
2214.749196039812,1481
2216.636580826851,1486
2218.523525483344,1555
2220.410030286655,1512
2222.296095514226,1507
2224.1817214435805,1490
2226.066908352319,1479
2227.951656518121,1505
2229.835966218746,1466
2231.71983773203,1540
2233.6032713358913,1442
2235.486267308324,1524
2237.3688259274036,1499
2239.2509474712824,1484
2241.132632218193,1502
2243.013880446447,1524
2244.8946924344323,1445
2246.7750684606203,1478
2248.6550088035574,1488
2250.534513741871,1494
2252.413583554265,1506
2254.292218519526,1480
2256.170418916517,1540
2258.0481850241786,1465
2259.925517121534,1414
2261.8024154876825,1524
2263.678880401803,1488
2265.5549121431536,1488
2267.430510991071,1485
2269.305677224971,1503
2271.180411124348,1537
2273.0547129687766,1473
2274.9285830379076,1529
2276.8020216114737,1492
2278.6750289692845,1476
2280.5476053912294,1583
2282.4197511572766,1490
2284.2914665474727,1545
2286.162751841943,1505
2288.0336073208937,1454
2289.904033264608,1522
2291.774029953448,1522
2293.6435976678554,1506
2295.5127366883517,1539
2297.381447295534,1465
2299.2497297700825,1495
2301.1175843927526,1494
2302.9850114443825,1573
2304.852011205885,1527
2306.7185839582553,1479
2308.5847299825664,1508
2310.4504495599676,1519
2312.3157429716925,1497
2314.1806104990483,1563
2316.0450524234247,1498
2317.9090690262888,1518
2319.772660589186,1574
2321.635827393742,1547
2323.498569721661,1542
2325.3608878547248,1507
2327.2227820747967,1547
2329.0842526638157,1530
2330.945299903803,1565
2332.805924076857,1534
2334.6661254651535,1484
2336.525904350951,1531
2338.3852610165827,1497
2340.244195744464,1556
2342.102708817088,1505
2343.9608005170253,1520
2345.8184711269287,1520
2347.675720929526,1531
2349.532550207628,1493
2351.38895924412,1515
2353.24494832197,1462
2355.100517724223,1530
2356.955667734004,1551
2358.810398634514,1525
2360.664710709037,1531
2362.5186042409337,1502
2364.3720795136437,1571
2366.225136810686,1551
2368.0777764156583,1596
2369.929998612237,1543
2371.7818036841777,1538
2373.633191915315,1534
2375.484163589562,1512
2377.3347189909114,1555
2379.184858403434,1566
2381.03458211128,1566
2382.8838903986775,1546
2384.732783549936,1641
2386.5812618494406,1526
2388.4293255816588,1529
2390.2769750311327,1568
2392.1242104824883,1576
2393.971032220427,1592
2395.8174405297295,1604
2397.6634356952563,1499
2399.509018001947,1467
2401.3541877348193,1517
2403.1989451789705,1510
2405.043290619576,1528
2406.8872243418905,1574
2408.730746631247,1491
2410.5738577730594,1601
2412.4165580528183,1570
2414.258847756095,1551
2416.100727168537,1604
2417.9421965758734,1630
2419.783256263912,1615
2421.623906518538,1581
2423.4641476257157,1511
2425.303979871491,1614
2427.143403541984,1601
2428.9824189233977,1604
2430.821026302012,1572
2432.6592259641866,1510
2434.497018196361,1654
2436.33440328505,1580
2438.171381516851,1575
2440.00795317844,1546
2441.844118556569,1606
2443.6798779380724,1589
2445.5152316098606,1590
2447.3501798589255,1631
2449.1847229723357,1580
2451.0188612372403,1554
2452.8525949408663,1631
2454.6859243705203,1549
2456.518849813587,1604
2458.3513715575314,1539
2460.183489889895,1567
2462.015205098301,1610
2463.8465174704493,1557
2465.67742729412,1588
2467.5079348571717,1564
2469.338040447542,1538
2471.1677443532476,1508
2472.9970468623833,1590
2474.825948263123,1599
2476.6544488437207,1625
2478.482548892508,1533
2480.310248697896,1576
2482.137548548374,1532
2483.9644487325118,1593
2485.790949538956,1616
2487.617051256433,1571
2489.44275417375,1488
2491.26805857979,1585
2493.0929647635157,1551
2494.917473013971,1624
2496.741583620276,1623
2498.5652968716304,1609
2500.3886130573137,1600
2502.2115324666834,1635
2504.0340553891765,1594
2505.856182114308,1622
2507.6779129316733,1660
2509.499248130945,1628
2511.3201880018764,1694
2513.140732834298,1654
2514.9608829181198,1661
2516.780638543331,1677
2518.6,1693
2520.418967578273,1607
2522.237541568376,1627
2524.0557222606144,1664
2525.8735099453706,1648
2527.6909049131086,1627
2529.507907454368,1645
2531.32451785977,1628
2533.140736420014,1590
2534.9565634258774,1614
2536.771999168218,1609
2538.5870439379714,1689
2540.4016980261526,1662
2542.2159617238544,1724
2544.02983532225,1683
2545.8433191125914,1654
2547.656413386209,1704
2549.4691184345115,1744
2551.2814345489874,1627
2553.093362021204,1693
2554.904901142808,1688
2556.716052205523,1699
2558.526815501153,1747
2560.3371913215824,1743
2562.147179958771,1741
2563.956781704761,1708
2565.7659968516705,1739
2567.5748256916986,1738
2569.3832685171224,1758
2571.1913256202984,1771
2572.9989972936614,1772
2574.806283829725,1739
2576.613185521084,1738
2578.4197026604074,1826
2580.2258355404483,1772
2582.031584454035,1800
2583.836949694077,1830
2585.6419315535613,1835
2587.4465303255533,1811
2589.2507463032002,1809
2591.0545797797245,1759
2592.8580310484303,1855
2594.6611004026995,1832
2596.463788135992,1923
2598.266094541849,1908
2600.0680199138874,1904
2601.869564545807,1858
2603.670728731383,1860
2605.4715127644704,1888
2607.2719169390048,1890
2609.071941548998,1882
2610.8715868885433,1904
2612.670853251811,1897
2614.469740933052,1901
2616.268250226594,1864
2618.0663814268455,1871
2619.864134828292,1855
2621.6615107255006,1923
2623.458509413115,1864
2625.2551311858597,1937
2627.0513763385347,1870
2628.8472451660223,1890
2630.6427379632833,1855
2632.4378550253564,1902
2634.232596647359,1788
2636.026963124488,1811
2637.8209547520187,1878
2639.6145718253065,1843
2641.407814639785,1842
2643.200683490966,1839
2644.9931786744414,1790
2646.7853004858807,1747
2648.577049221034,1755
2650.3684251757277,1827
2652.1594286458712,1750
2653.9500599274484,1806
2655.740319316525,1755
2657.5302071092437,1718
2659.3197236018286,1753
2661.10886909058,1710
2662.8976438718782,1714
2664.686048242183,1656
2666.4740824980327,1697
2668.2617469360443,1716
2670.0490418529134,1626
2671.8359675454153,1724
2673.622524310403,1706
2675.408712444811,1704
2677.1945322456495,1683
2678.979984010009,1649
2680.76506803506,1649
2682.5497846180497,1712
2684.334134056306,1648
2686.1181166472343,1642
2687.9017326883213,1637
2689.6849824771293,1571
2691.4678663113013,1578
2693.2503844885596,1619
2695.032537306705,1582
2696.8143250636167,1646
2698.5957480572542,1649
2700.3768065856534,1574
2702.1575009469316,1599
2703.937831439283,1612
2705.717798360982,1625
2707.4974020103837,1542
2709.276642685917,1610
2711.055520686095,1617
2712.834036309506,1563
2714.612189854819,1623
2716.389981620782,1605
2718.1674119062204,1593
2719.944481010041,1552
2721.721189231226,1512
2723.4975368688415,1578
2725.273524222027,1545
2727.0491515900053,1604
2728.824419272075,1566
2730.5993275676146,1502
2732.3738767760838,1550
2734.148067197016,1522
2735.921899130031,1563
2737.6953728748194,1564
2739.468488731156,1576
2741.2412469988926,1605
2743.0136479779617,1554
2744.785691968372,1555
2746.5573792702116,1561
2748.3287101836504,1600
2750.099685008934,1474
2751.870304046388,1533
2753.640567596418,1525
2755.4104759595057,1515
2757.1800294362156,1544
2758.949228327187,1610
2760.7180729331412,1552
2762.486563554877,1529
2764.254700493272,1537
2766.022484049284,1591
2767.789914523947,1503
2769.5569922183786,1542
2771.3237174337705,1567
2773.090090471394,1561
2774.8561116326036,1556
2776.6217812188274,1549
2778.3870995315756,1490
2780.1520668724356,1494
2781.9166835430747,1551
2783.6809498452394,1568
2785.444866080754,1603
2787.2084325515225,1538
2788.971649559527,1556
2790.73451740683,1506
2792.4970363955713,1556
2794.2592068279705,1536
2796.0210290063264,1552
2797.7825032330147,1552
2799.543629810493,1538
2801.304409041296,1560
2803.0648412280366,1567
2804.8249266734088,1568
2806.5846656801846,1633
2808.344058551212,1581
2810.1031055894246,1535
2811.8618070978273,1554
2813.6201633795085,1585
2815.378174737636,1548
2817.1358414754536,1544
2818.893163896285,1522
2820.6501423035334,1513
2822.4067770006814,1585
2824.1630682912883,1595
2825.9190164789957,1493
2827.6746218675207,1519
2829.429884760661,1508
2831.184805462294,1572
2832.9393842763743,1552
2834.693621506936,1459
2836.4475174580916,1518
2838.201072434034,1457
2839.954286739034,1570
2841.707160677441,1554
2843.459694553685,1559
2845.2118886722724,1547
2846.96374333779,1521
2848.7152588549034,1511
2850.4664355283567,1491
2852.217273662973,1614
2853.9677735636546,1559
2855.7179355353833,1577
2857.4677598832186,1553
2859.217246912299,1533
2860.9663969278427,1533
2862.715210235146,1571
2864.4636871395846,1507
2866.211827946614,1510
2867.9596329617652,1548
2869.7071024906536,1532
2871.4542368389684,1551
2873.20103631248,1466
2874.947501217038,1507
2876.6936318585695,1529
2878.4394285430812,1505
2880.1848915766604,1512
2881.9300212654707,1486
2883.6748179157553,1499
2885.4192818338374,1562
2887.1634133261173,1538
2888.907212699077,1583
2890.6506802592744,1597
2892.393816313348,1540
2894.1366211680142,1547
2895.8790951300693,1518
2897.621238506388,1575
2899.363051603925,1535
2901.1045347297118,1560
2902.8456881908596,1519
2904.58651229456,1526
2906.327007348081,1470
2908.067173658772,1495
2909.8070115340597,1553
2911.5465212814497,1609
2913.285703208527,1572
2915.0245576229563,1540
2916.7630848324807,1457
2918.5012851449196,1498
2920.2391588681758,1540
2921.976706310227,1572
2923.7139277791334,1560
2925.4508235830313,1528
2927.187394030137,1533
2928.923639428745,1618
2930.6595600872306,1504
2932.395156314046,1508
2934.1304284177218,1489
2935.8653767068713,1505
2937.6000014901815,1563
2939.3343030764227,1583
2941.068281774442,1584
2942.8019378931644,1556
2944.5352717415976,1512
2946.2682836288236,1518
2948.0009738640065,1565
2949.7333427563885,1567
2951.465390615289,1565
2953.1971177501086,1536
2954.9285244703265,1536
2956.6596110855,1508
2958.3903779052657,1556
2960.1208252393385,1489
2961.8509533975125,1479
2963.5807626896617,1566
2965.3102534257378,1519
2967.0394259157715,1483
2968.768280469873,1493
2970.496817398232,1510
2972.2250370111146,1535
2973.952939618869,1532
2975.6805255319196,1506
2977.4077950607707,1574
2979.134748516006,1570
2980.861386208289,1568
2982.587708448359,1548
2984.313715547037,1548
2986.039407815222,1499
2987.764785563891,1495
2989.489849104102,1525
2991.2145987469908,1524
2992.9390348037705,1558
2994.6631575857346,1503
2996.3869674042576,1524
2998.1104645707887,1537
2999.83364939686,1495
3001.5565221940783,1530
3003.2790832741334,1578
3005.0013329487924,1502
3006.7232715298996,1453
3008.4448993293804,1501
3010.166216659239,1507
3011.887223831558,1430
3013.607921158498,1499
3015.3283089522993,1550
3017.0483875252826,1524
3018.7681571898443,1534
3020.4876182584626,1463
3022.2067710436927,1483
3023.9256158581707,1563
3025.644153014609,1543
3027.362382825801,1521
3029.0803056046193,1479
3030.797921664012,1581
3032.5152313170106,1534
3034.2322348767225,1538
3035.9489326563353,1555
3037.665324969115,1457
3039.3814121284063,1518
3041.097194447633,1461
3042.812672240299,1531
3044.5278458199855,1600
3046.2427155003525,1536
3047.9572815951406,1538
3049.671544418167,1570
3051.38550428333,1566
3053.0991615046073,1531
3054.812516396051,1556
3056.5255692717974,1556
3058.2383204460575,1524
3059.9507702331257,1568
3061.662918947372,1543
3063.3747669032446,1580
3065.0863144152736,1597
3066.7975617980674,1544
3068.508509366309,1495
3070.219157434767,1588
3071.9295063182844,1516
3073.639556331785,1543
3075.3493077902704,1536
3077.058761008821,1532
3078.7679163025964,1571
3080.476773986837,1554
3082.1853343768594,1463
3083.89359778806,1620
3085.6015645359153,1527
3087.3092349359786,1521
3089.016609303884,1496
3090.7236879553434,1505
3092.4304712061476,1531
3094.136959372166,1554
3095.843152769349,1597
3097.5490517137237,1478
3099.2546565213966,1528
3100.959967508554,1503
3102.66498499146,1544
3104.3697092864577,1530
3106.0741407099695,1560
3107.778279578498,1529
3109.482126208622,1532
3111.1856809170004,1541
3112.8889440203716,1552
3114.5919158355528,1559
3116.294596679439,1520
3117.996986869006,1562
3119.6990867213062,1515
3121.4008965534726,1563
3123.102416682717,1519
3124.803647426329,1491
3126.5045891016784,1527
3128.205242026213,1572
3129.90560651746,1538
3131.605682893025,1562
3133.3054714705922,1535
3135.0049725679282,1521
3136.7041865028714,1505
3138.4031135933465,1499
3140.101754157353,1569
3141.800108512971,1532
3143.498176978357,1541
3145.1959598717494,1522
3146.8934575114636,1548
3148.5906702158954,1503
3150.2875983035183,1530
3151.9842420928853,1517
3153.680601902627,1498
3155.376678051456,1504
3157.07247085816,1574
3158.767980641609,1515
3160.463207720748,1535
3162.158152414606,1532
3163.8528150422862,1535
3165.5471959229726,1529
3167.2412953759303,1455
3168.9351137204976,1531
3170.628651276098,1505
3172.3219083622307,1508
3174.014885298474,1556
3175.707582404485,1530
3177.4000000000005,1526
3179.092138404835,1523
3180.7839979388846,1524
3182.47557892212,1516
3184.166881674594,1551
3185.8579065164386,1477
3187.5486537678626,1534
3189.2391237491547,1567
3190.9293167806827,1522
3192.6192331828934,1540
3194.3088732763117,1554
3195.998237381542,1525
3197.687325819268,1525
3199.376138910251,1510
3201.064676975334,1522
3202.7529403354347,1508
3204.4409293115523,1497
3206.1286442247647,1535
3207.816085396229,1476
3209.5032531471825,1478
3211.190147798936,1449
3212.8767696728846,1522
3214.5631190905015,1460
3216.2491963733373,1492
3217.9350018430214,1446
3219.6205358212637,1437
3221.305798629851,1475
3222.990790590651,1511
3224.6755120256103,1480
3226.359963256751,1416
3228.0441446061795,1497
3229.7280563960758,1505
3231.411698948703,1492
3233.0950725863995,1527
3234.778177631587,1491
3236.461014406761,1531
3238.1435832345005,1507
3239.8258844374595,1479
3241.507918338374,1499
3243.1896852600576,1482
3244.8711855254023,1542
3246.552419457381,1520
3248.233387379042,1462
3249.914089613516,1502
3251.59452648401,1589
3253.274698313813,1516
3254.95460542629,1477
3256.6342481448855,1493
3258.313626793125,1496
3259.9927416946084,1434
3261.6715931730196,1463
3263.3501815521176,1486
3265.0285071557437,1404
3266.706570307815,1456
3268.3843713323286,1501
3270.0619105533615,1397
3271.739188295068,1475
3273.4162048816834,1443
3275.0929606375184,1513
3276.769455886966,1485
3278.445690954498,1492
3280.1216661646613,1538
3281.797381842087,1499
3283.4728383114807,1478
3285.1480358976296,1494
3286.8229749253996,1490
3288.4976557197333,1503
3290.172078605655,1485
3291.846243908266,1464
3293.5201519527463,1504
3295.193803064357,1522
3296.8671975684374,1491
3298.5403357904024,1448
3300.21321805575,1477
3301.8858446900567,1470
3303.558216018975,1507
3305.23033236824,1505
3306.9021940636603,1481
3308.57380143113,1457
3310.2451547966184,1494
3311.916254486174,1473
3313.5871008259246,1420
3315.2576941420766,1496
3316.9280347609147,1454
3318.5981230088046,1467
3320.2679592121895,1467
3321.9375436975924,1460
3323.606876791612,1386
3325.27595882093,1467
3326.944790112305,1493
3328.6133709925753,1477
3330.2817017886573,1454
3331.949782827547,1401
3333.617614436319,1456
3335.2851969421245,1504
3336.952530672199,1445
3338.619615953853,1532
3340.286453114475,1444
3341.9530424815357,1471
3343.619384382583,1497
3345.2854791452437,1509
3346.951327097224,1460
3348.6169285663073,1547
3350.2822838803577,1535
3351.947393367319,1459
3353.61225735521,1465
3355.2768761721345,1486
3356.9412501462693,1486
3358.605379605873,1503
3360.2692648792827,1464
3361.9329062949146,1512
3363.596304181263,1490
