CollectionTime,6/26/2024 3:23:32 PM
ExposureUsed,3
CalibratedSpectrum
-962.7078968117929,781
-959.9714848408522,888
-957.2358232597828,817
-954.5009119013725,834
-951.7667505983302,862
-949.0333391832855,858
-946.3006774887896,824
-943.5687653473143,860
-940.837602591253,859
-938.1071890529199,880
-935.3775245645503,831
-932.6486089583007,927
-929.9204420662485,890
-927.1930237203925,914
-924.4663537526524,868
-921.7404319948689,860
-919.0152582788041,884
-916.2908324361409,925
-913.5671542984834,942
-910.8442236973568,922
-908.1220404642074,905
-905.4006044304027,877
-902.679915427231,884
-899.959973285902,920
-897.2407778375464,899
-894.5223289132158,931
-891.8046263438832,927
-889.0876699604426,855
-886.3714595937089,856
-883.6559950744183,908
-880.9412762332282,880
-878.2273029007168,864
-875.5140749073835,855
-872.8015920836489,847
-870.0898542598545,862
-867.3788612662631,828
-864.6686129330585,818
-861.9591090903457,857
-859.2503495681506,796
-856.5423341964203,854
-853.8350628050229,889
-851.1285352237478,869
-848.4227512823054,847
-845.7177108103272,879
-843.0134136373656,878
-840.3098595928943,852
-837.6070485063082,882
-834.9049802069229,857
-832.2036545239757,880
-829.5030712866244,819
-826.8032303239481,878
-824.1041314649472,868
-821.4057745385428,823
-818.7081593735775,819
-816.0112857988148,831
-813.3151536429393,872
-810.6197627345566,838
-807.9251129021936,823
-805.2312039742981,854
-802.5380357792392,842
-799.8456081453069,855
-797.1539209007124,848
-794.462973873588,859
-791.772766891987,860
-789.083299783884,858
-786.3945723771743,858
-783.7065844996748,812
-781.0193359791231,854
-778.3328266431781,866
-775.6470563194197,853
-772.9620248353489,863
-770.2777320183878,851
-767.5941776958798,845
-764.9113616950891,916
-762.2292838432011,909
-759.5479439673222,894
-756.8673418944801,879
-754.1874774516235,866
-751.5083504656222,855
-748.8299607632671,868
-746.15230817127,921
-743.475392516264,921
-740.7992136248035,890
-738.1237713233636,911
-735.4490654383407,936
-732.7750957960521,922
-730.1018622227365,960
-727.4293645445534,880
-724.7576025875837,891
-722.0865761778291,885
-719.4162851412126,943
-716.7467293035781,898
-714.0779084906909,965
-711.409822528237,964
-708.7424712418238,983
-706.0758544569796,936
-703.4099719991541,888
-700.7448236937178,942
-698.0804093659622,986
-695.4167288411002,908
-692.7537819442656,923
-690.0915685005134,946
-687.4300883348199,954
-684.7693412720819,920
-682.1093271371178,949
-679.4500457546669,915
-676.7914969493897,929
-674.1336805458676,945
-671.4765963686034,1000
-668.8202442420206,984
-666.1646239904642,1011
-663.5097354382001,983
-660.8555784094151,948
-658.2021527282176,948
-655.5494582186366,1049
-652.8974947046223,1057
-650.2462620100463,1007
-647.5957599587009,1007
-644.9459883742998,1021
-642.2969470804776,1032
-639.6486359007902,1002
-637.0010546587141,1042
-634.3542031776476,990
-631.7080812809096,999
-629.0626887917401,1020
-626.4180255333008,1020
-623.7740913286734,959
-621.1308860008619,948
-618.4884093727904,959
-615.8466612673046,1016
-613.2056415071715,978
-610.5653499150785,962
-607.9257863136347,1014
-605.28695052537,995
-602.6488423727357,980
-600.0114616781036,1036
-597.3748082637674,1082
-594.7388819519412,1015
-592.1036825647604,1029
-589.4692099242818,979
-586.8354638524829,1027
-584.2024441712624,1030
-581.5701507024403,1042
-578.9385832677575,1013
-576.3077416888759,1032
-573.6776257873787,1000
-571.0482353847704,998
-568.4195703024757,1018
-565.7916303618415,1077
-563.164415384135,1088
-560.5379251905453,1043
-557.9121596021815,1019
-555.2871184400748,1064
-552.6628015251767,1060
-550.0392086783606,1023
-547.4163397204204,1070
-544.794194472071,1015
-542.1727727539491,1043
-539.5520743866118,1084
-536.9320991905377,1101
-534.3128469861261,1156
-531.6943175936979,1130
-529.0765108334947,1185
-526.4594265256793,1241
-523.8430644903358,1360
-521.2274245474689,1508
-518.612506517005,1596
-515.9983102187913,1667
-513.3848354725959,1792
-510.77208209810846,1909
-508.16004991493924,1931
-505.5487387426199,2024
-502.9381484006032,2246
-500.3282787082628,2342
-497.71912948489364,2369
-495.1107005497117,2346
-492.5029917218539,2366
-489.8960028203786,2152
-487.28973366426493,1972
-484.68418407241325,1755
-482.07935386364494,1590
-479.47524285670266,1489
-476.87185087025,1459
-474.2691777228715,1485
-471.66722323307334,1387
-469.0659872192821,1385
-466.4654694998459,1347
-463.86566989303384,1317
-461.26658821703614,1287
-458.66822428996414,1319
-456.07057792985,1264
-453.4736489546475,1374
-450.877437182231,1304
-448.28194243039627,1286
-445.68716451686,1301
-443.09310325926003,1264
-440.49975847515555,1230
-437.9071299820263,1223
-435.31521759727354,1269
-432.72402113821954,1313
-430.13354042210767,1250
-427.5437752661022,1360
-424.95472548728867,1322
-422.36639090267386,1391
-419.7787713291855,1400
-417.1918665836721,1373
-414.60567648290385,1337
-412.0202008435715,1358
-409.4354394822874,1445
-406.8513922155845,1341
-404.26805885991723,1407
-401.685439231661,1454
-399.103533147112,1370
-396.522340422488,1342
-393.9418608739278,1431
-391.3620943174908,1452
-388.7830405691583,1402
-386.2046994448317,1279
-383.6270707603344,1200
-381.05015433141045,1154
-378.473949973725,1068
-375.8984575028645,991
-373.32367673433623,942
-370.74960748356875,830
-368.1762495659117,792
-365.60360279663576,739
-363.03166699093265,681
-360.4604419639154,650
-357.8899275306178,615
-355.32012350599507,603
-352.7510297049233,566
-350.1826459421999,544
-347.61497203254316,579
-345.04800779059235,534
-342.4817530309082,510
-339.91620756797226,523
-337.35137121618743,511
-334.7872437898774,534
-332.22382510328725,523
-329.66111497058273,584
-327.09911320585127,590
-324.53781962310075,569
-321.9772340362607,589
-319.4173562591816,635
-316.8581861056348,669
-314.2997233893127,748
-311.7419679238294,719
-309.1849195227194,666
-306.62857799943856,587
-304.0729431673641,570
-301.51801483979375,565
-298.963792829947,565
-296.41027695096386,635
-293.85746701590574,697
-291.3053628377552,659
-288.7539642294155,635
-286.2032710037115,662
-283.65328297338897,723
-281.1039999511146,699
-278.5554217494762,758
-276.007548180983,716
-273.4603790580651,663
-270.9139141930734,630
-268.3681533982807,643
-265.8230964858798,660
-263.27874326798565,669
-260.7350935566336,684
-258.1921471637804,704
-255.6499039013039,780
-253.10836358100266,758
-250.56752601459698,726
-248.02739101372765,731
-245.48795838995704,816
-242.94922795476816,748
-240.41119951956557,724
-237.8738728956746,892
-235.33724789434166,876
-232.80132432673452,861
-230.2661020039418,957
-227.73158073697357,940
-225.19776033676033,830
-222.66464061415422,936
-220.1322213799284,893
-217.60050244477725,802
-215.06948361931552,898
-212.53916471408013,857
-210.00954553952818,822
-207.48062590603843,899
-204.9524056239104,1017
-202.4248845033651,1033
-199.8980623545441,1015
-197.37193898751036,938
-194.84651421224817,969
-192.32178783866232,938
-189.79775967657952,930
-187.27442953574644,948
-184.7517972258321,922
-182.2298625564256,818
-179.7086253370378,953
-177.18808537710026,1101
-174.66824248596583,1116
-172.14909647290835,1206
-169.6306471471229,1095
-167.11289431772548,1046
-164.59583779375328,1144
-162.07947738416453,1119
-159.5638128978386,1064
-157.04884414357605,1213
-154.53457093009854,1249
-152.02099306604828,1149
-149.50811035998936,1117
-146.99592262040665,1286
-144.48442965570587,1235
-141.97363127421409,1256
-139.46352728417958,1494
-136.95411749377126,1410
-134.44540171107985,1555
-131.93737974411636,1507
-129.43005140081357,1540
-126.92341648902493,1558
-124.41747481652521,1635
-121.91222619101006,1738
-119.40767042009657,1589
-116.90380731132257,1418
-114.40063667214702,1623
-111.8981583099503,1778
-109.3963720320337,1814
-106.89527764561933,1554
-104.39487495785067,1733
-101.89516377579241,1983
-99.39614390642998,1912
-96.89781515667039,1889
-94.40017733334128,2230
-91.90323024319173,2201
-89.40697369289148,1936
-86.91140748903172,1802
-84.41653143812482,1978
-81.92234534660395,2071
-79.42884902082358,2054
-76.93604226705907,2072
-74.4439248915071,2172
-71.95249670028534,2107
-69.46175749943245,2346
-66.97170709490854,2436
-64.48234529259423,2878
-61.99367189829195,3063
-59.50568671772464,3187
-57.01838955653636,3388
-54.53178022029283,3249
-52.045858514480074,3633
-49.560624244506016,4369
-47.07607721569923,4251
-44.59221723330904,3869
-42.10904410250669,3939
-39.62655762838392,5215
-37.14475761595372,6277
-34.66364387015028,6548
-32.18321619582866,6688
-29.70347439776515,7816
-27.224418280657005,9183
-24.74604764912317,12360
-22.26836230770266,18463
-19.7913620608565,28961
-17.315046712966478,44759
-14.83941606833514,51063
-12.36446993118659,65038
-9.89020810566592,65038
-7.416630395839093,65038
-4.94373660569363,65038
-2.471526539137585,65038
-6.821210263296962E-13,65038
2.47084320796705,65038
4.941003281093458,65038
7.410480415786196,65038
9.879274808531363,65038
12.347386655893956,65038
14.814816154518212,65038
17.28156350112681,65038
19.74762889252179,65038
22.21301252558385,65038
24.67771459727237,65038
27.141735304626195,65038
29.605074844762612,37159
32.06773341487792,16502
34.52971121224755,12067
36.99100843422559,11467
39.45162527824516,10284
41.91156194181792,10015
44.370818622535126,10911
46.82939551806646,10419
49.287292826160524,12248
51.74451074464503,12140
54.201049471426245,9235
56.65690920448981,6554
59.112090141899785,4352
61.56659248179983,4234
64.02041642241159,4193
66.4735621620365,4207
68.92602989905402,3408
71.37781983192338,3189
73.82893215918205,3551
76.27936707944684,3357
78.72912479141326,3366
81.17820549385567,3286
83.62660938562783,3203
86.07433666566146,3259
88.5213875329681,3709
90.96776218663751,3635
93.41346082583925,3358
95.85848364982041,2746
98.30283085790859,2085
100.7465026495089,2221
103.18949922410604,2679
105.63182078126385,2340
108.07346752062438,2435
110.51443964190923,2319
112.95473734491827,1966
115.39436082953114,1934
117.83331029570547,1867
120.27158594347827,2206
122.7091879729652,1821
125.1461165843615,1668
127.58237197794062,1683
130.01795435405518,1424
132.4528639131364,1437
134.88710085569494,1691
137.32066538231982,1872
139.75355769367923,1601
142.1857779905207,1613
144.61732647366978,1760
147.04820334403132,1561
149.47840880258934,1502
151.90794305040674,1786
154.33680628862487,2120
156.76499871846443,1969
159.19252054122433,1962
161.61937195828352,2130
164.04555317109896,2127
166.47106438120693,2427
168.89590579022217,2836
171.320077599839,2859
173.7435800118302,2975
176.16641322804742,3128
178.58857745042144,3016
181.01007288096173,3198
183.43089972175687,3166
185.85105817497413,3198
188.27054844285988,3137
190.6893707277394,3203
193.10752523201643,3255
195.5250121581745,3312
197.9418317087751,3543
200.3579840864594,3350
202.7734694939469,3345
205.18828813403627,3356
207.6024402096051,3393
210.01592592360964,3359
212.42874547908548,3351
214.84089907914665,3357
217.2523869269868,3281
219.66320922587727,3401
222.0733661791695,3331
224.48285799029293,3270
226.8916848627572,3390
229.29984700014882,3558
231.7073446061355,3434
234.11417788446204,3349
236.520347038953,3568
238.92585227351185,3800
241.33069379212054,3872
243.73487179884035,3731
246.1383864978112,3423
248.541238093252,3605
250.9434267894609,3582
253.34495279081432,3595
255.74581630176783,3503
258.1460175268563,3752
260.54555667069314,3562
262.9444339379703,3562
265.3426495334594,3423
267.7402036620107,3538
270.1370965285529,3422
272.53332833809407,3289
274.9288992957214,3242
277.32380960660055,3178
279.718059475976,3250
282.1116491091717,3191
284.5045787115897,3227
286.89684848871195,3187
289.2884586460981,3298
291.67940938938807,3234
294.0697009242996,3102
296.4593334566299,3100
298.84830719225477,3096
301.23662233712923,2993
303.6242790972866,3101
306.01127767884,3095
308.39761828798066,3067
310.78330113097934,2988
313.16832641418534,3034
315.5526943440269,2925
317.9364051270112,2939
320.3194589697242,2869
322.70185607883093,2881
325.0835966610754,2910
327.4646809232805,2785
329.8451090723478,2850
332.2248813152577,2801
334.6039978590701,2718
336.9824589109231,2712
339.36026467803447,2787
341.7374153677,2768
344.113911187295,2585
346.48975234427337,2682
348.8649390461686,2641
351.2394715005918,2577
353.61334991523415,2590
355.9865744978655,2631
358.35914545633375,2558
360.73106299856715,2610
363.10232733257146,2661
365.47293866643247,2674
367.84289720831396,2579
370.2122031664593,2470
372.5808567491905,2601
374.9488581649083,2517
377.31620762209275,2587
379.6829053293021,2594
382.0489514951745,2507
384.4143463284262,2516
386.7790900378528,2518
389.14318283232853,2435
391.50662492080653,2547
393.86941651231916,2467
396.23155781597745,2426
398.5930490409713,2473
400.9538903965696,2520
403.3140820921202,2385
405.6736243370498,2371
408.03251734086336,2394
410.3907613131465,2381
412.74835646356166,2379
415.10530300185144,2422
417.4616011378372,2410
419.81725108141893,2346
422.1722530425758,2318
424.5266072313656,2362
426.880313857925,2367
429.2333731324701,2458
431.58578526529516,2422
433.9375504667738,2298
436.2886689473588,2345
438.63914091758113,2378
440.9889665880513,2309
443.33814616945835,2314
445.68667987257015,2287
448.03456790823395,2408
450.3818104873759,2272
452.72840782100013,2325
455.07436012019105,2290
457.41966759611057,2311
459.7643304600007,2303
462.10834892318155,2296
464.4517231970525,2354
466.79445349309174,2283
469.1365400228566,2383
471.4779829979826,2390
473.81878263018564,2395
476.15893913125876,2444
478.4984527130747,2534
480.8373235875855,2513
483.17555196682144,2448
485.5131380628919,2584
487.8500820879857,2659
490.1863842543697,2791
492.52204477439034,3108
494.8570638604725,3319
497.1914417251204,3528
499.52517858091653,3790
501.85827464052306,3860
504.19073011668036,4016
506.5225452222086,3945
508.85372017000566,3848
511.18425517304956,3621
513.514150444396,3791
515.8434061971808,4310
518.1720226446176,4891
520.4999999999999,5324
522.8273384766991,5705
525.1540382881666,5719
527.480099647932,5627
529.8055227696037,4887
532.1303078668694,3581
534.454455153496,2699
536.777964843328,2421
539.1008371502907,2347
541.4230722883866,2258
543.744670471698,2284
546.0656319143858,2169
548.3859568306899,2140
550.7056454349294,2188
553.0246979415016,2144
555.3431145648834,2127
557.6608955196306,2080
559.978041020377,2113
562.2945512818363,2077
564.6104265188006,2085
566.9256669461412,2086
569.2402727788082,2057
571.5542442318302,2027
573.8675815203156,2081
576.1802848594508,2112
578.4923544645015,2115
580.8037905508126,2104
583.114593333807,2121
585.4247630289875,2202
587.7342998519354,2070
590.0432040183106,2137
592.3514757438526,2107
594.6591152443794,2086
596.9661227357875,2069
599.2724984340531,2064
601.578242555231,2109
603.8833553154542,2069
606.1878369309362,2066
608.4916876179676,2158
610.7949075929192,2205
613.0974970722403,2098
615.3994562724587,2082
617.7007854101818,2155
620.0014847020951,2113
622.3015543649641,2061
624.6009946156324,2079
626.8998056710224,2102
629.1979877481361,2078
631.4955410640538,2104
633.7924658359349,2067
636.0887622810175,2117
638.3844306166192,2184
640.6794710601358,2102
642.9738838290426,2091
645.2676691408932,2117
647.5608272133207,2029
649.853358264037,2139
652.1452625108324,2130
654.4365401715764,2142
656.7271914642178,2141
659.0172166067838,2094
661.3066158173809,2118
663.5953893141935,2109
665.8835373154867,2159
668.1710600396028,2177
670.4579577049639,2116
672.7442305300709,2114
675.0298787335033,2111
677.3149025339197,2226
679.599302150058,2158
681.8830778007342,2176
684.1662297048437,2122
686.4487580813608,2167
688.7306631493387,2122
691.0119451279091,2155
693.2926042362834,2170
695.5726406937516,2084
697.8520547196814,2153
700.1308465335215,2162
702.4090163547982,2158
704.6865644031171,2154
706.9634908981619,2168
709.2397960596965,2105
711.5154801075631,2106
713.7905432616823,2107
716.0649857420548,2171
718.3388077687592,2255
720.612009561953,2197
722.8845913418733,2099
725.1565533288352,2181
727.427895743234,2108
729.6986188055427,2154
731.9687227363137,2141
734.238207756178,2153
736.5070740858458,2062
738.7753219461066,2154
741.0429515578281,2090
743.3099631419569,2174
745.5763569195191,2153
747.8421331116193,2179
750.1072919394409,2171
752.3718336242467,2091
754.6357583873777,2172
756.8990664502545,2056
759.1617580343765,2089
761.423833361321,2190
763.6852926527457,2105
765.9461361303862,2088
768.206364016058,2134
770.4659765316536,2118
772.7249738991469,2105
774.9833563405886,2075
777.2411240781092,2119
779.4982773339183,2211
781.7548163303044,2099
784.010741289634,2173
786.2660524343538,2197
788.5207499869881,2222
790.7748341701416,2133
793.0283052064964,2197
795.2811633188143,2057
797.5334087299362,2223
799.7850416627813,2154
802.0360623403484,2113
804.2864709857143,2151
806.5362678220353,2192
808.7854530725468,2142
811.0340269605625,2258
813.2819897094754,2112
815.5293415427581,2173
817.77608268396,2140
820.0222133567116,2194
822.2677337847211,2176
824.5126441917765,2115
826.7569448017433,2149
829.0006358385675,2093
831.2437175262731,2098
833.4861900889629,2101
835.7280537508192,2202
837.9693087361026,2139
840.2099552691533,2098
842.4499935743896,2156
844.689423876309,2118
846.9282463994886,2160
849.1664613685833,2105
851.4040690083276,2078
853.6410695435349,2109
855.877463199097,2128
858.1132501999847,2100
860.3484307712487,2175
862.5830051380175,2093
864.8169735254988,2124
867.0503361589791,2141
869.2830932638243,2194
871.5152450654786,2189
873.7467917894654,2131
875.9777336613873,2232
878.2080709069252,2279
880.4378037518389,2153
882.666932421968,2192
884.8954571432301,2171
887.1233781416219,2171
889.3506956432192,2257
891.5774098741766,2252
893.803521060728,2222
896.0290294291852,2247
898.2539352059397,2309
900.4782386174619,2181
902.7019398903011,2231
904.925039251085,2204
907.147536926521,2149
909.3694331433943,2156
911.59072812857,2156
913.8114221089921,2250
916.0315153116827,2138
918.2510079637437,2132
920.4699002923547,2112
922.6881925247761,2148
924.905884888345,2112
927.1229776104793,2180
929.3394709186747,2221
931.555365040506,2137
933.7706602036275,2158
935.9853566357709,2128
938.1994545647489,2136
940.4129542184515,2118
942.6258558248488,2145
944.8381596119883,2116
947.0498658079974,2139
949.2609746410825,2114
951.4714863395287,2149
953.6814011316998,2039
955.8907192460387,2120
958.0994409110671,2158
960.3075663553858,2137
962.5150958076741,2141
964.7220294966913,2171
966.928367651274,2199
969.1341105003388,2061
971.3392582728806,2047
973.5438111979742,2150
975.747769504772,2092
977.9511334225061,1954
980.153903180487,2053
982.3560790081052,2047
984.5576611348289,2028
986.7586497902058,1969
988.9590452038618,1997
991.158847605503,2016
993.3580572249133,1943
995.5566742919558,1934
997.7546990365728,1911
999.952131688785,1864
1002.1489724786926,1878
1004.3452216364743,1866
1006.5408793923874,1844
1008.7359459767691,1864
1010.9304216200343,1783
1013.1243065526781,1772
1015.3176010052733,1784
1017.510305208472,1806
1019.7024193930064,1748
1021.8939437896848,1700
1024.0848786293977,1744
1026.2752241431122,1737
1028.4649805618747,1819
1030.6541481168115,1713
1032.842727039127,1802
1035.0307175601051,1713
1037.2181199111074,1743
1039.4049343235752,1731
1041.591161029029,1669
1043.7768002590683,1732
1045.9618522453698,1720
1048.1463172196918,1751
1050.3301954138697,1682
1052.513487059818,1712
1054.69619238953,1757
1056.8783116350783,1702
1059.0598450286152,1698
1061.2407928023704,1734
1063.4211551886528,1774
1065.6009324198508,1713
1067.780124728432,1686
1069.9587323469414,1659
1072.1367555080046,1697
1074.314194444325,1671
1076.4910493886855,1710
1078.667320573947,1697
1080.843008233051,1628
1083.0181125990161,1651
1085.1926339049414,1633
1087.3665723840027,1696
1089.5399282694575,1668
1091.7127017946405,1601
1093.8848931929647,1566
1096.0565026979243,1634
1098.2275305430899,1619
1100.3979769621128,1639
1102.567842188722,1619
1104.737126456726,1607
1106.9058300000124,1623
1109.0739530525475,1580
1111.2414958483764,1610
1113.4084586216231,1557
1115.5748416064907,1603
1117.7406450372605,1599
1119.9058691482942,1537
1122.0705141740304,1537
1124.2345803489884,1652
1126.3980679077658,1519
1128.5609770850388,1555
1130.7233081155623,1619
1132.8850612341707,1526
1135.0462366757774,1594
1137.2068346753745,1555
1139.3668554680326,1529
1141.526299288901,1590
1143.68516637321,1606
1145.8434569562655,1563
1148.001171273455,1559
1150.158309560244,1522
1152.3148720521767,1524
1154.470858984876,1523
1156.626270594044,1514
1158.7811071154629,1621
1160.9353687849912,1570
1163.089055838569,1542
1165.242168512213,1595
1167.3947070420209,1587
1169.5466716641677,1492
1171.6980626149075,1523
1173.8488801305748,1523
1175.9991244475814,1524
1178.1487958024186,1490
1180.2978944316555,1511
1182.4464205719428,1583
1184.5943744600072,1521
1186.7417563326567,1474
1188.8885664267755,1454
1191.0348049793297,1511
1193.1804722273619,1513
1195.325568407995,1544
1197.4700937584303,1439
1199.614048515948,1519
1201.7574329179074,1565
1203.900247201746,1547
1206.042491604982,1518
1208.1841663652099,1551
1210.3252717201053,1565
1212.465807907422,1483
1214.6057751649923,1519
1216.7451737307279,1515
1218.8840038426192,1533
1221.0222657387353,1587
1223.1599596572241,1548
1225.2970858363137,1559
1227.4336445143094,1592
1229.5696359295966,1582
1231.705060320639,1516
1233.8399179259786,1518
1235.9742089842384,1549
1238.107933734118,1509
1240.2410924143974,1569
1242.373685263935,1561
1244.5057125216676,1509
1246.6371744266116,1609
1248.7680712178621,1532
1250.898403134593,1489
1253.028170416058,1548
1255.1573733015875,1564
1257.2860120305932,1572
1259.4140868425648,1559
1261.54159797707,1588
1263.6685456737569,1583
1265.7949301723515,1541
1267.9207517126597,1550
1270.046010534565,1578
1272.1707068780306,1583
1274.2948409830983,1557
1276.4184130898889,1532
1278.541423438603,1578
1280.6638722695184,1657
1282.785759822993,1606
1284.9070863394636,1640
1287.0278520594447,1674
1289.1480572235314,1629
1291.2677020723963,1661
1293.3867868467923,1608
1295.5053117875495,1605
1297.623277135579,1650
1299.740683131868,1642
1301.8575300174857,1675
1303.973818033578,1670
1306.0895474213703,1681
1308.2047184221678,1655
1310.3193312773528,1657
1312.4333862283888,1672
1314.5468835168163,1693
1316.659823384255,1738
1318.7722060724045,1698
1320.8840318230418,1717
1322.9953008780249,1675
1325.1060134792888,1740
1327.2161698688478,1745
1329.3257702887959,1679
1331.4348149813054,1682
1333.5433041886276,1685
1335.6512381530933,1721
1337.7586171171101,1687
1339.8654413231675,1635
1341.9717110138317,1686
1344.0774264317488,1677
1346.1825878196432,1629
1348.2871954203192,1670
1350.3912494766587,1636
1352.4947502316231,1631
1354.5976979282532,1638
1356.7000928096686,1565
1358.8019351190665,1600
1360.9032250997243,1631
1363.0039629949988,1607
1365.1041490483235,1694
1367.2037835032133,1626
1369.3028666032606,1611
1371.401398592137,1602
1373.4993797135926,1668
1375.5968102114575,1609
1377.6936903296396,1616
1379.7900203121262,1601
1381.8858004029835,1627
1383.9810308463561,1672
1386.075711886469,1691
1388.1698437676241,1654
1390.2634267342032,1676
1392.356461030667,1638
1394.4489469015557,1674
1396.5408845914872,1686
1398.6322743451592,1674
1400.7231164073469,1638
1402.813411022907,1603
1404.903158436773,1705
1406.9923588939578,1685
1409.0810126395531,1672
1411.1691199187303,1698
1413.2566809767386,1699
1415.343696058907,1684
1417.4301654106425,1649
1419.5160892774315,1656
1421.6014679048399,1679
1423.6863015385125,1720
1425.7705904241707,1787
1427.8543348076178,1729
1429.9375349347342,1763
1432.0201910514802,1708
1434.102303403894,1801
1436.1838722380944,1733
1438.2648978002767,1737
1440.3453803367174,1780
1442.4253200937692,1801
1444.5047173178677,1795
1446.5835722555234,1816
1448.6618851533285,1882
1450.739656257952,1874
1452.8168858161434,1938
1454.8935740747306,1832
1456.96972128062,1900
1459.045327680797,2035
1461.120393522327,2031
1463.1949190523528,2010
1465.2689045180973,2049
1467.3423501668608,2074
1469.415256246024,2033
1471.4876230030463,2144
1473.559450685465,2091
1475.6307395408976,2116
1477.7014898170391,2242
1479.771701761665,2201
1481.8413756226287,2187
1483.9105116478618,2309
1485.9791100853772,2349
1488.0471711832643,2317
1490.1146951896926,2386
1492.1816823529098,2449
1494.2481329212433,2472
1496.3140471430984,2480
1498.3794252669609,2435
1500.4442675413939,2546
1502.5085742150404,2570
1504.572345536622,2559
1506.6355817549388,2540
1508.6982831188702,2713
1510.7604498773744,2749
1512.8220822794883,2680
1514.8831805743293,2738
1516.9437450110909,2737
1519.003775839048,2830
1521.0632733075522,2860
1523.1222376660367,2918
1525.1806691640113,2957
1527.2385680510652,2995
1529.2959345768668,3124
1531.3527689911643,3193
1533.4090715437833,3188
1535.4648424846291,3319
1537.5200820636855,3312
1539.5747905310159,3315
1541.6289681367616,3514
1543.6826151311434,3379
1545.7357317644614,3379
1547.7883182870937,3545
1549.8403749494987,3614
1551.8919020022113,3642
1553.9428996958477,3686
1555.9933682811015,3849
1558.0433080087469,3944
1560.0927191296346,3955
1562.1416018946961,4042
1564.1899565549415,4132
1566.2377833614592,3909
1568.2850825654164,3983
1570.3318544180606,3912
1572.3780991707158,3801
1574.423817074788,3666
1576.4690083817595,3599
1578.5136733431923,3439
1580.5578122107272,3233
1582.601425236085,3046
1584.6445126710646,2905
1586.6870747675434,2738
1588.7291117774776,2636
1590.7706239529034,2546
1592.8116115459347,2453
1594.8520748087658,2353
1596.8920139936686,2303
1598.9314293529933,2180
1600.9703211391711,2144
1603.008689604711,2063
1605.0465350022005,2080
1607.0838575843068,1978
1609.1206576037753,1911
1611.1569353134305,1905
1613.1926909661765,1900
1615.2279248149953,1848
1617.2626371129481,1788
1619.2968281131757,1720
1621.3304980688963,1778
1623.3636472334088,1809
1625.39627586009,1719
1627.428384202396,1690
1629.459972513861,1689
1631.4910410480993,1617
1633.5215900588028,1671
1635.551619799744,1687
1637.5811305247717,1750
1639.6101224878166,1676
1641.6385959428862,1637
1643.6665511440683,1546
1645.693988345528,1676
1647.7209078015112,1604
1649.7473097663405,1656
1651.7731944944203,1563
1653.7985622402307,1562
1655.823413258333,1573
1657.847747803366,1517
1659.8715661300494,1585
1661.8948684931793,1616
1663.9176551476316,1547
1665.9399263483624,1593
1667.9616823504057,1585
1669.982923408873,1558
1672.0036497789574,1523
1674.0238617159293,1553
1676.043559475138,1560
1678.0627433120121,1582
1680.081413482059,1517
1682.0995702408654,1525
1684.117213844096,1596
1686.134344547495,1570
1688.1509626068864,1534
1690.1670682781705,1534
1692.182661817329,1507
1694.1977434804217,1478
1696.2123135235875,1524
1698.226372203043,1513
1700.2399197750851,1536
1702.2529564960905,1516
1704.2654826225112,1551
1706.277498410882,1512
1708.2890041178139,1589
1710.2999999999988,1556
1712.3104863142066,1532
1714.3204633172854,1593
1716.329931266163,1511
1718.3388904178469,1516
1720.3473410294214,1549
1722.3552833580516,1586
1724.3627176609807,1530
1726.3696441955308,1472
1728.3760632191033,1489
1730.3819749891782,1498
1732.3873797633146,1506
1734.3922777991502,1443
1736.3966693544012,1554
1738.4005546868639,1450
1740.4039340544127,1501
1742.406807715001,1485
1744.4091759266616,1579
1746.4110389475054,1502
1748.4123970357223,1421
1750.413250449582,1441
1752.4135994474318,1524
1754.4134442876993,1474
1756.4127852288902,1445
1758.4116225295893,1446
1760.4099564484595,1437
1762.407787244244,1423
1764.405115175764,1450
1766.4019405019203,1409
1768.3982634816916,1473
1770.3940843741357,1415
1772.3894034383907,1468
1774.3842209336717,1406
1776.378537119274,1401
1778.372352254571,1409
1780.3656665990156,1421
1782.3584804121397,1446
1784.3507939535534,1410
1786.3426074829463,1384
1788.3339212600863,1372
1790.3247355448211,1404
1792.3150505970766,1461
1794.3048666768573,1399
1796.2941840442477,1391
1798.2830029594106,1434
1800.2713236825884,1408
1802.2591464741004,1421
1804.2464715943465,1423
1806.2332993038058,1391
1808.2196298630352,1456
1810.2054635326708,1424
1812.190800573428,1423
1814.175641246101,1490
1816.1599858115628,1387
1818.1438345307652,1491
1820.127187664738,1417
1822.1100454745924,1409
1824.092408221516,1381
1826.0742761667766,1396
1828.055649571721,1417
1830.0365286977735,1449
1832.0169138064398,1405
1833.9968051593014,1368
1835.9762030180214,1415
1837.9551076443408,1430
1839.9335193000788,1402
1841.9114382471344,1375
1843.888864747485,1377
1845.8657990631878,1401
1847.842241456378,1404
1849.8181921892697,1414
1851.7936515241558,1454
1853.7686197234098,1413
1855.7430970494815,1470
1857.7170837649014,1434
1859.6905801322787,1451
1861.6635864143004,1431
1863.6361028737338,1384
1865.608129773424,1392
1867.5796673762961,1409
1869.5507159453537,1439
1871.521275743678,1412
1873.4913470344313,1431
1875.4609300808534,1370
1877.4300251462632,1407
1879.3986324940588,1387
1881.366752387717,1408
1883.3343850907936,1426
1885.3015308669228,1422
1887.268189979819,1387
1889.2343626932739,1416
1891.2000492711595,1441
1893.1652499774254,1453
1895.1299650761011,1430
1897.0941948312952,1384
1899.0579395071945,1384
1901.0211993680641,1394
1902.98397467825,1418
1904.9462657021745,1431
1906.9080727043415,1408
1908.869395949332,1477
1910.8302357018065,1443
1912.790592226504,1471
1914.7504657882428,1407
1916.7098566519212,1343
1918.6687650825133,1380
1920.6271913450764,1376
1922.5851357047422,1419
1924.5425984267245,1438
1926.499579776314,1383
1928.4560800188833,1391
1930.4120994198802,1428
1932.367638244833,1363
1934.32269675935,1409
1936.2772752291175,1416
1938.231373919899,1442
1940.1849930975404,1406
1942.1381330279637,1408
1944.0907939771696,1466
1946.0429762112412,1373
1947.9946799963363,1430
1949.9459055986945,1437
1951.896653284633,1402
1953.8469233205478,1393
1955.7967159729142,1422
1957.7460315082863,1430
1959.6948701932974,1464
1961.6432322946594,1508
1963.5911180791632,1423
1965.5385278136787,1467
1967.4854617651545,1364
1969.4319202006182,1408
1971.377903387176,1407
1973.3234115920136,1410
1975.268445082395,1366
1977.2130041256642,1465
1979.1570889892423,1389
1981.1006999406304,1400
1983.04383724741,1429
1984.986501177238,1383
1986.928691997853,1410
1988.8704099770712,1386
1990.811655382789,1430
1992.7524284829801,1400
1994.692729545698,1412
1996.6325588390755,1430
1998.5719166313224,1353
2000.5108031907307,1376
2002.4492187856677,1419
2004.387163684583,1386
2006.3246381560011,1399
2008.2616424685298,1383
2010.1981768908527,1387
2012.1342416917332,1361
2014.069837140014,1332
2016.0049635046162,1401
2017.9396210545406,1392
2019.8738100588666,1417
2021.8075307867502,1405
2023.740783507431,1344
2025.6735684902228,1392
2027.6058860045214,1387
2029.5377363198004,1394
2031.4691197056118,1373
2033.4000364315875,1394
2035.3304867674374,1362
2037.260470982952,1381
2039.189989347998,1372
2041.1190421325232,1339
2043.047629606554,1367
2044.9757520401945,1368
2046.9034097036288,1426
2048.8306028671195,1386
2050.7573318010086,1361
2052.683596775716,1370
2054.609398061742,1340
2056.5347359296647,1377
2058.4596106501403,1375
2060.384022493906,1427
2062.3079717317764,1371
2064.231458634646,1438
2066.1544834734873,1378
2068.077046519352,1399
2069.99914804337,1362
2071.9207883167524,1375
2073.8419676107865,1426
2075.7626861968406,1428
2077.6829443463607,1373
2079.6027423308715,1409
2081.522080421977,1387
2083.440958891362,1391
2085.359378010786,1407
2087.2773380520907,1391
2089.194839287196,1356
2091.111881988101,1391
2093.0284664268825,1363
2094.9445928756973,1348
2096.86026160678,1301
2098.775472892446,1327
2100.690227005088,1362
2102.604524217178,1367
2104.5183648012676,1416
2106.431749029985,1336
2108.34467717604,1373
2110.2571495122206,1432
2112.169166311393,1398
2114.080727846503,1356
2115.9918343905747,1304
2117.902486216711,1385
2119.8126835980956,1376
2121.722426807987,1409
2123.6317161197285,1387
2125.5405518067364,1369
2127.448934142509,1414
2129.356863400624,1371
2131.264339854737,1387
2133.1713637785815,1429
2135.077935445972,1419
2136.9840551308002,1393
2138.889723107037,1395
2140.7949396487334,1389
2142.699705030018,1411
2144.6040195250994,1395
2146.507883408264,1371
2148.4112969538774,1409
2150.3142604363848,1342
2152.2167741303097,1399
2154.1188383102535,1429
2156.0204532508997,1436
2157.9216192270064,1343
2159.822336513414,1419
2161.7226053850413,1370
2163.622426116884,1401
2165.5217989840185,1375
2167.4207242616,1425
2169.319202224862,1374
2171.2172331491165,1378
2173.1148173097563,1392
2175.0119549822507,1334
2176.90864644215,1349
2178.8048919650823,1337
2180.7006918267534,1342
2182.596046302952,1390
2184.4909556695407,1408
2186.3854202024645,1347
2188.279440177746,1428
2190.173015871487,1416
2192.066147559868,1354
2193.958835519149,1431
2195.851080025667,1391
2197.7428813558417,1360
2199.6342397861667,1398
2201.5251555932186,1357
2203.415629053651,1409
2205.3056604441986,1340
2207.19525004167,1346
2209.084398122958,1332
2210.9731049650327,1437
2212.861370844941,1397
2214.749196039812,1395
2216.636580826851,1412
2218.523525483344,1394
2220.410030286655,1375
2222.296095514226,1383
2224.1817214435805,1387
2226.066908352319,1398
2227.951656518121,1461
2229.835966218746,1434
2231.71983773203,1409
2233.6032713358913,1375
2235.486267308324,1400
2237.3688259274036,1390
2239.2509474712824,1427
2241.132632218193,1426
2243.013880446447,1402
2244.8946924344323,1438
2246.7750684606203,1393
2248.6550088035574,1365
2250.534513741871,1355
2252.413583554265,1430
2254.292218519526,1341
2256.170418916517,1384
2258.0481850241786,1395
2259.925517121534,1419
2261.8024154876825,1441
2263.678880401803,1454
2265.5549121431536,1352
2267.430510991071,1436
2269.305677224971,1376
2271.180411124348,1378
2273.0547129687766,1405
2274.9285830379076,1394
2276.8020216114737,1397
2278.6750289692845,1425
2280.5476053912294,1395
2282.4197511572766,1376
2284.2914665474727,1417
2286.162751841943,1398
2288.0336073208937,1416
2289.904033264608,1362
2291.774029953448,1396
2293.6435976678554,1394
2295.5127366883517,1436
2297.381447295534,1478
2299.2497297700825,1397
2301.1175843927526,1374
2302.9850114443825,1382
2304.852011205885,1436
2306.7185839582553,1464
2308.5847299825664,1395
2310.4504495599676,1447
2312.3157429716925,1398
2314.1806104990483,1446
2316.0450524234247,1454
2317.9090690262888,1438
2319.772660589186,1411
2321.635827393742,1417
2323.498569721661,1441
2325.3608878547248,1445
2327.2227820747967,1446
2329.0842526638157,1468
2330.945299903803,1443
2332.805924076857,1421
2334.6661254651535,1418
2336.525904350951,1469
2338.3852610165827,1476
2340.244195744464,1440
2342.102708817088,1491
2343.9608005170253,1452
2345.8184711269287,1507
2347.675720929526,1407
2349.532550207628,1439
2351.38895924412,1484
2353.24494832197,1410
2355.100517724223,1439
2356.955667734004,1415
2358.810398634514,1443
2360.664710709037,1486
2362.5186042409337,1457
2364.3720795136437,1405
2366.225136810686,1457
2368.0777764156583,1474
2369.929998612237,1487
2371.7818036841777,1455
2373.633191915315,1481
2375.484163589562,1419
2377.3347189909114,1394
2379.184858403434,1445
2381.03458211128,1416
2382.8838903986775,1494
2384.732783549936,1495
2386.5812618494406,1475
2388.4293255816588,1457
2390.2769750311327,1452
2392.1242104824883,1439
2393.971032220427,1474
2395.8174405297295,1511
2397.6634356952563,1490
2399.509018001947,1545
2401.3541877348193,1488
2403.1989451789705,1450
2405.043290619576,1502
2406.8872243418905,1437
2408.730746631247,1463
2410.5738577730594,1418
2412.4165580528183,1468
2414.258847756095,1482
2416.100727168537,1515
2417.9421965758734,1485
2419.783256263912,1468
2421.623906518538,1436
2423.4641476257157,1528
2425.303979871491,1526
2427.143403541984,1437
2428.9824189233977,1473
2430.821026302012,1528
2432.6592259641866,1519
2434.497018196361,1459
2436.33440328505,1500
2438.171381516851,1528
2440.00795317844,1513
2441.844118556569,1506
2443.6798779380724,1475
2445.5152316098606,1497
2447.3501798589255,1532
2449.1847229723357,1430
2451.0188612372403,1512
2452.8525949408663,1532
2454.6859243705203,1496
2456.518849813587,1491
2458.3513715575314,1465
2460.183489889895,1514
2462.015205098301,1486
2463.8465174704493,1473
2465.67742729412,1495
2467.5079348571717,1480
2469.338040447542,1475
2471.1677443532476,1492
2472.9970468623833,1485
2474.825948263123,1509
2476.6544488437207,1462
2478.482548892508,1491
2480.310248697896,1477
2482.137548548374,1478
2483.9644487325118,1514
2485.790949538956,1494
2487.617051256433,1470
2489.44275417375,1539
2491.26805857979,1474
2493.0929647635157,1463
2494.917473013971,1512
2496.741583620276,1502
2498.5652968716304,1509
2500.3886130573137,1517
2502.2115324666834,1529
2504.0340553891765,1522
2505.856182114308,1560
2507.6779129316733,1515
2509.499248130945,1466
2511.3201880018764,1557
2513.140732834298,1526
2514.9608829181198,1506
2516.780638543331,1510
2518.6,1520
2520.418967578273,1564
2522.237541568376,1555
2524.0557222606144,1533
2525.8735099453706,1519
2527.6909049131086,1577
2529.507907454368,1530
2531.32451785977,1570
2533.140736420014,1510
2534.9565634258774,1540
2536.771999168218,1614
2538.5870439379714,1583
2540.4016980261526,1553
2542.2159617238544,1580
2544.02983532225,1505
2545.8433191125914,1579
2547.656413386209,1615
2549.4691184345115,1664
2551.2814345489874,1638
2553.093362021204,1641
2554.904901142808,1621
2556.716052205523,1606
2558.526815501153,1619
2560.3371913215824,1634
2562.147179958771,1610
2563.956781704761,1628
2565.7659968516705,1682
2567.5748256916986,1637
2569.3832685171224,1727
2571.1913256202984,1697
2572.9989972936614,1710
2574.806283829725,1667
2576.613185521084,1708
2578.4197026604074,1724
2580.2258355404483,1758
2582.031584454035,1663
2583.836949694077,1663
2585.6419315535613,1738
2587.4465303255533,1696
2589.2507463032002,1737
2591.0545797797245,1740
2592.8580310484303,1724
2594.6611004026995,1689
2596.463788135992,1707
2598.266094541849,1784
2600.0680199138874,1776
2601.869564545807,1837
2603.670728731383,1835
2605.4715127644704,1844
2607.2719169390048,1770
2609.071941548998,1801
2610.8715868885433,1836
2612.670853251811,1784
2614.469740933052,1832
2616.268250226594,1838
2618.0663814268455,1883
2619.864134828292,1820
2621.6615107255006,1773
2623.458509413115,1776
2625.2551311858597,1675
2627.0513763385347,1803
2628.8472451660223,1814
2630.6427379632833,1829
2632.4378550253564,1765
2634.232596647359,1722
2636.026963124488,1727
2637.8209547520187,1776
2639.6145718253065,1750
2641.407814639785,1719
2643.200683490966,1677
2644.9931786744414,1728
2646.7853004858807,1755
2648.577049221034,1665
2650.3684251757277,1681
2652.1594286458712,1639
2653.9500599274484,1714
2655.740319316525,1706
2657.5302071092437,1654
2659.3197236018286,1589
2661.10886909058,1727
2662.8976438718782,1604
2664.686048242183,1633
2666.4740824980327,1641
2668.2617469360443,1599
2670.0490418529134,1571
2671.8359675454153,1562
2673.622524310403,1615
2675.408712444811,1572
2677.1945322456495,1547
2678.979984010009,1577
2680.76506803506,1489
2682.5497846180497,1569
2684.334134056306,1565
2686.1181166472343,1560
2687.9017326883213,1487
2689.6849824771293,1494
2691.4678663113013,1481
2693.2503844885596,1555
2695.032537306705,1535
2696.8143250636167,1506
2698.5957480572542,1539
2700.3768065856534,1481
2702.1575009469316,1514
2703.937831439283,1499
2705.717798360982,1498
2707.4974020103837,1474
2709.276642685917,1473
2711.055520686095,1504
2712.834036309506,1466
2714.612189854819,1502
2716.389981620782,1479
2718.1674119062204,1550
2719.944481010041,1492
2721.721189231226,1496
2723.4975368688415,1513
2725.273524222027,1435
2727.0491515900053,1460
2728.824419272075,1434
2730.5993275676146,1445
2732.3738767760838,1456
2734.148067197016,1498
2735.921899130031,1476
2737.6953728748194,1497
2739.468488731156,1477
2741.2412469988926,1414
2743.0136479779617,1426
2744.785691968372,1406
2746.5573792702116,1457
2748.3287101836504,1415
2750.099685008934,1517
2751.870304046388,1445
2753.640567596418,1432
2755.4104759595057,1374
2757.1800294362156,1433
2758.949228327187,1436
2760.7180729331412,1404
2762.486563554877,1444
2764.254700493272,1456
2766.022484049284,1410
2767.789914523947,1453
2769.5569922183786,1406
2771.3237174337705,1469
2773.090090471394,1414
2774.8561116326036,1398
2776.6217812188274,1398
2778.3870995315756,1388
2780.1520668724356,1429
2781.9166835430747,1385
2783.6809498452394,1428
2785.444866080754,1453
2787.2084325515225,1404
2788.971649559527,1446
2790.73451740683,1461
2792.4970363955713,1427
2794.2592068279705,1404
2796.0210290063264,1398
2797.7825032330147,1405
2799.543629810493,1418
2801.304409041296,1400
2803.0648412280366,1426
2804.8249266734088,1467
2806.5846656801846,1481
2808.344058551212,1458
2810.1031055894246,1415
2811.8618070978273,1405
2813.6201633795085,1493
2815.378174737636,1394
2817.1358414754536,1428
2818.893163896285,1422
2820.6501423035334,1472
2822.4067770006814,1446
2824.1630682912883,1466
2825.9190164789957,1406
2827.6746218675207,1398
2829.429884760661,1443
2831.184805462294,1405
2832.9393842763743,1423
2834.693621506936,1489
2836.4475174580916,1445
2838.201072434034,1386
2839.954286739034,1395
2841.707160677441,1366
2843.459694553685,1453
2845.2118886722724,1503
2846.96374333779,1438
2848.7152588549034,1393
2850.4664355283567,1472
2852.217273662973,1455
2853.9677735636546,1443
2855.7179355353833,1439
2857.4677598832186,1429
2859.217246912299,1424
2860.9663969278427,1483
2862.715210235146,1454
2864.4636871395846,1497
2866.211827946614,1451
2867.9596329617652,1427
2869.7071024906536,1476
2871.4542368389684,1424
2873.20103631248,1421
2874.947501217038,1430
2876.6936318585695,1418
2878.4394285430812,1455
2880.1848915766604,1406
2881.9300212654707,1367
2883.6748179157553,1337
2885.4192818338374,1424
2887.1634133261173,1434
2888.907212699077,1509
2890.6506802592744,1448
2892.393816313348,1425
2894.1366211680142,1417
2895.8790951300693,1452
2897.621238506388,1468
2899.363051603925,1432
2901.1045347297118,1417
2902.8456881908596,1451
2904.58651229456,1416
2906.327007348081,1375
2908.067173658772,1427
2909.8070115340597,1405
2911.5465212814497,1407
2913.285703208527,1380
2915.0245576229563,1416
2916.7630848324807,1454
2918.5012851449196,1417
2920.2391588681758,1377
2921.976706310227,1425
2923.7139277791334,1441
2925.4508235830313,1419
2927.187394030137,1464
2928.923639428745,1430
2930.6595600872306,1425
2932.395156314046,1416
2934.1304284177218,1410
2935.8653767068713,1445
2937.6000014901815,1408
2939.3343030764227,1544
2941.068281774442,1453
2942.8019378931644,1439
2944.5352717415976,1455
2946.2682836288236,1391
2948.0009738640065,1438
2949.7333427563885,1457
2951.465390615289,1412
2953.1971177501086,1402
2954.9285244703265,1441
2956.6596110855,1372
2958.3903779052657,1409
2960.1208252393385,1368
2961.8509533975125,1434
2963.5807626896617,1437
2965.3102534257378,1429
2967.0394259157715,1399
2968.768280469873,1428
2970.496817398232,1438
2972.2250370111146,1393
2973.952939618869,1445
2975.6805255319196,1478
2977.4077950607707,1442
2979.134748516006,1400
2980.861386208289,1350
2982.587708448359,1415
2984.313715547037,1404
2986.039407815222,1448
2987.764785563891,1482
2989.489849104102,1415
2991.2145987469908,1394
2992.9390348037705,1450
2994.6631575857346,1422
2996.3869674042576,1428
2998.1104645707887,1430
2999.83364939686,1432
3001.5565221940783,1473
3003.2790832741334,1475
3005.0013329487924,1438
3006.7232715298996,1415
3008.4448993293804,1366
3010.166216659239,1426
3011.887223831558,1445
3013.607921158498,1376
3015.3283089522993,1395
3017.0483875252826,1400
3018.7681571898443,1377
3020.4876182584626,1398
3022.2067710436927,1457
3023.9256158581707,1409
3025.644153014609,1353
3027.362382825801,1448
3029.0803056046193,1431
3030.797921664012,1398
3032.5152313170106,1409
3034.2322348767225,1365
3035.9489326563353,1400
3037.665324969115,1473
3039.3814121284063,1378
3041.097194447633,1358
3042.812672240299,1421
3044.5278458199855,1398
3046.2427155003525,1384
3047.9572815951406,1398
3049.671544418167,1433
3051.38550428333,1427
3053.0991615046073,1442
3054.812516396051,1447
3056.5255692717974,1445
3058.2383204460575,1426
3059.9507702331257,1407
3061.662918947372,1467
3063.3747669032446,1385
3065.0863144152736,1420
3066.7975617980674,1396
3068.508509366309,1430
3070.219157434767,1398
3071.9295063182844,1414
3073.639556331785,1470
3075.3493077902704,1397
3077.058761008821,1420
3078.7679163025964,1383
3080.476773986837,1429
3082.1853343768594,1438
3083.89359778806,1428
3085.6015645359153,1412
3087.3092349359786,1463
3089.016609303884,1464
3090.7236879553434,1462
3092.4304712061476,1414
3094.136959372166,1383
3095.843152769349,1398
3097.5490517137237,1438
3099.2546565213966,1374
3100.959967508554,1374
3102.66498499146,1460
3104.3697092864577,1482
3106.0741407099695,1420
3107.778279578498,1394
3109.482126208622,1404
3111.1856809170004,1448
3112.8889440203716,1468
3114.5919158355528,1451
3116.294596679439,1495
3117.996986869006,1438
3119.6990867213062,1426
3121.4008965534726,1493
3123.102416682717,1436
3124.803647426329,1468
3126.5045891016784,1459
3128.205242026213,1470
3129.90560651746,1431
3131.605682893025,1512
3133.3054714705922,1453
3135.0049725679282,1420
3136.7041865028714,1441
3138.4031135933465,1398
3140.101754157353,1431
3141.800108512971,1407
3143.498176978357,1444
3145.1959598717494,1450
3146.8934575114636,1421
3148.5906702158954,1443
3150.2875983035183,1405
3151.9842420928853,1440
3153.680601902627,1398
3155.376678051456,1375
3157.07247085816,1415
3158.767980641609,1444
3160.463207720748,1394
3162.158152414606,1403
3163.8528150422862,1443
3165.5471959229726,1476
3167.2412953759303,1395
3168.9351137204976,1428
3170.628651276098,1371
3172.3219083622307,1409
3174.014885298474,1471
3175.707582404485,1443
3177.4000000000005,1422
3179.092138404835,1413
3180.7839979388846,1477
3182.47557892212,1438
3184.166881674594,1433
3185.8579065164386,1402
3187.5486537678626,1445
3189.2391237491547,1476
3190.9293167806827,1426
3192.6192331828934,1425
3194.3088732763117,1356
3195.998237381542,1400
3197.687325819268,1407
3199.376138910251,1436
3201.064676975334,1406
3202.7529403354347,1372
3204.4409293115523,1406
3206.1286442247647,1455
3207.816085396229,1395
3209.5032531471825,1402
3211.190147798936,1408
3212.8767696728846,1410
3214.5631190905015,1372
3216.2491963733373,1422
3217.9350018430214,1416
3219.6205358212637,1376
3221.305798629851,1384
3222.990790590651,1338
3224.6755120256103,1395
3226.359963256751,1386
3228.0441446061795,1344
3229.7280563960758,1389
3231.411698948703,1349
3233.0950725863995,1404
3234.778177631587,1412
3236.461014406761,1399
3238.1435832345005,1447
3239.8258844374595,1411
3241.507918338374,1359
3243.1896852600576,1438
3244.8711855254023,1366
3246.552419457381,1381
3248.233387379042,1408
3249.914089613516,1391
3251.59452648401,1429
3253.274698313813,1389
3254.95460542629,1389
3256.6342481448855,1333
3258.313626793125,1366
3259.9927416946084,1309
3261.6715931730196,1346
3263.3501815521176,1369
3265.0285071557437,1385
3266.706570307815,1377
3268.3843713323286,1375
3270.0619105533615,1407
3271.739188295068,1408
3273.4162048816834,1351
3275.0929606375184,1402
3276.769455886966,1433
3278.445690954498,1396
3280.1216661646613,1428
3281.797381842087,1386
3283.4728383114807,1434
3285.1480358976296,1386
3286.8229749253996,1424
3288.4976557197333,1396
3290.172078605655,1408
3291.846243908266,1386
3293.5201519527463,1415
3295.193803064357,1394
3296.8671975684374,1347
3298.5403357904024,1395
3300.21321805575,1366
3301.8858446900567,1365
3303.558216018975,1371
3305.23033236824,1394
3306.9021940636603,1409
3308.57380143113,1424
3310.2451547966184,1410
3311.916254486174,1367
3313.5871008259246,1409
3315.2576941420766,1410
3316.9280347609147,1400
3318.5981230088046,1389
3320.2679592121895,1345
3321.9375436975924,1339
3323.606876791612,1362
3325.27595882093,1412
3326.944790112305,1424
3328.6133709925753,1338
3330.2817017886573,1380
3331.949782827547,1387
3333.617614436319,1361
3335.2851969421245,1394
3336.952530672199,1417
3338.619615953853,1349
3340.286453114475,1322
3341.9530424815357,1410
3343.619384382583,1396
3345.2854791452437,1346
3346.951327097224,1418
3348.6169285663073,1392
3350.2822838803577,1371
3351.947393367319,1368
3353.61225735521,1440
3355.2768761721345,1436
3356.9412501462693,1405
3358.605379605873,1405
3360.2692648792827,1399
3361.9329062949146,1385
3363.596304181263,1347
