CollectionTime,6/26/2024 3:21:01 PM
ExposureUsed,3
CalibratedSpectrum
-962.7078968117929,684
-959.9714848408522,729
-957.2358232597828,679
-954.5009119013725,704
-951.7667505983302,746
-949.0333391832855,702
-946.3006774887896,713
-943.5687653473143,744
-940.837602591253,727
-938.1071890529199,720
-935.3775245645503,683
-932.6486089583007,692
-929.9204420662485,771
-927.1930237203925,763
-924.4663537526524,723
-921.7404319948689,723
-919.0152582788041,725
-916.2908324361409,786
-913.5671542984834,743
-910.8442236973568,807
-908.1220404642074,779
-905.4006044304027,729
-902.679915427231,764
-899.959973285902,731
-897.2407778375464,729
-894.5223289132158,763
-891.8046263438832,761
-889.0876699604426,716
-886.3714595937089,694
-883.6559950744183,710
-880.9412762332282,737
-878.2273029007168,683
-875.5140749073835,723
-872.8015920836489,727
-870.0898542598545,688
-867.3788612662631,675
-864.6686129330585,689
-861.9591090903457,651
-859.2503495681506,667
-856.5423341964203,685
-853.8350628050229,722
-851.1285352237478,714
-848.4227512823054,702
-845.7177108103272,689
-843.0134136373656,693
-840.3098595928943,707
-837.6070485063082,685
-834.9049802069229,727
-832.2036545239757,739
-829.5030712866244,686
-826.8032303239481,707
-824.1041314649472,676
-821.4057745385428,692
-818.7081593735775,682
-816.0112857988148,681
-813.3151536429393,686
-810.6197627345566,686
-807.9251129021936,693
-805.2312039742981,688
-802.5380357792392,695
-799.8456081453069,689
-797.1539209007124,703
-794.462973873588,654
-791.772766891987,699
-789.083299783884,702
-786.3945723771743,667
-783.7065844996748,681
-781.0193359791231,680
-778.3328266431781,691
-775.6470563194197,725
-772.9620248353489,738
-770.2777320183878,709
-767.5941776958798,688
-764.9113616950891,734
-762.2292838432011,735
-759.5479439673222,706
-756.8673418944801,676
-754.1874774516235,734
-751.5083504656222,702
-748.8299607632671,699
-746.15230817127,741
-743.475392516264,731
-740.7992136248035,711
-738.1237713233636,690
-735.4490654383407,699
-732.7750957960521,760
-730.1018622227365,733
-727.4293645445534,723
-724.7576025875837,736
-722.0865761778291,704
-719.4162851412126,720
-716.7467293035781,763
-714.0779084906909,731
-711.409822528237,793
-708.7424712418238,749
-706.0758544569796,724
-703.4099719991541,760
-700.7448236937178,784
-698.0804093659622,858
-695.4167288411002,778
-692.7537819442656,741
-690.0915685005134,743
-687.4300883348199,780
-684.7693412720819,782
-682.1093271371178,774
-679.4500457546669,777
-676.7914969493897,786
-674.1336805458676,789
-671.4765963686034,759
-668.8202442420206,803
-666.1646239904642,783
-663.5097354382001,775
-660.8555784094151,766
-658.2021527282176,803
-655.5494582186366,839
-652.8974947046223,821
-650.2462620100463,861
-647.5957599587009,876
-644.9459883742998,828
-642.2969470804776,859
-639.6486359007902,847
-637.0010546587141,879
-634.3542031776476,821
-631.7080812809096,822
-629.0626887917401,850
-626.4180255333008,805
-623.7740913286734,795
-621.1308860008619,824
-618.4884093727904,822
-615.8466612673046,797
-613.2056415071715,794
-610.5653499150785,820
-607.9257863136347,833
-605.28695052537,825
-602.6488423727357,817
-600.0114616781036,782
-597.3748082637674,862
-594.7388819519412,892
-592.1036825647604,839
-589.4692099242818,825
-586.8354638524829,857
-584.2024441712624,854
-581.5701507024403,819
-578.9385832677575,843
-576.3077416888759,873
-573.6776257873787,818
-571.0482353847704,858
-568.4195703024757,849
-565.7916303618415,890
-563.164415384135,868
-560.5379251905453,859
-557.9121596021815,849
-555.2871184400748,843
-552.6628015251767,877
-550.0392086783606,862
-547.4163397204204,861
-544.794194472071,839
-542.1727727539491,843
-539.5520743866118,860
-536.9320991905377,908
-534.3128469861261,917
-531.6943175936979,996
-529.0765108334947,927
-526.4594265256793,1063
-523.8430644903358,1171
-521.2274245474689,1296
-518.612506517005,1519
-515.9983102187913,1564
-513.3848354725959,1632
-510.77208209810846,1702
-508.16004991493924,1717
-505.5487387426199,1922
-502.9381484006032,2050
-500.3282787082628,2213
-497.71912948489364,2243
-495.1107005497117,2304
-492.5029917218539,2252
-489.8960028203786,2073
-487.28973366426493,1866
-484.68418407241325,1613
-482.07935386364494,1433
-479.47524285670266,1341
-476.87185087025,1359
-474.2691777228715,1338
-471.66722323307334,1245
-469.0659872192821,1206
-466.4654694998459,1175
-463.86566989303384,1106
-461.26658821703614,1094
-458.66822428996414,1083
-456.07057792985,1138
-453.4736489546475,1117
-450.877437182231,1072
-448.28194243039627,1025
-445.68716451686,1072
-443.09310325926003,1090
-440.49975847515555,1019
-437.9071299820263,1064
-435.31521759727354,1020
-432.72402113821954,1084
-430.13354042210767,1099
-427.5437752661022,1147
-424.95472548728867,1164
-422.36639090267386,1182
-419.7787713291855,1158
-417.1918665836721,1223
-414.60567648290385,1164
-412.0202008435715,1157
-409.4354394822874,1232
-406.8513922155845,1201
-404.26805885991723,1247
-401.685439231661,1248
-399.103533147112,1186
-396.522340422488,1120
-393.9418608739278,1164
-391.3620943174908,1236
-388.7830405691583,1268
-386.2046994448317,1158
-383.6270707603344,1089
-381.05015433141045,1040
-378.473949973725,932
-375.8984575028645,883
-373.32367673433623,899
-370.74960748356875,817
-368.1762495659117,740
-365.60360279663576,730
-363.03166699093265,684
-360.4604419639154,661
-357.8899275306178,593
-355.32012350599507,586
-352.7510297049233,559
-350.1826459421999,555
-347.61497203254316,575
-345.04800779059235,563
-342.4817530309082,553
-339.91620756797226,512
-337.35137121618743,519
-334.7872437898774,515
-332.22382510328725,535
-329.66111497058273,604
-327.09911320585127,667
-324.53781962310075,587
-321.9772340362607,634
-319.4173562591816,694
-316.8581861056348,710
-314.2997233893127,758
-311.7419679238294,774
-309.1849195227194,731
-306.62857799943856,647
-304.0729431673641,579
-301.51801483979375,565
-298.963792829947,607
-296.41027695096386,652
-293.85746701590574,767
-291.3053628377552,733
-288.7539642294155,665
-286.2032710037115,692
-283.65328297338897,723
-281.1039999511146,750
-278.5554217494762,802
-276.007548180983,691
-273.4603790580651,694
-270.9139141930734,655
-268.3681533982807,687
-265.8230964858798,718
-263.27874326798565,662
-260.7350935566336,684
-258.1921471637804,731
-255.6499039013039,827
-253.10836358100266,789
-250.56752601459698,744
-248.02739101372765,800
-245.48795838995704,831
-242.94922795476816,790
-240.41119951956557,784
-237.8738728956746,897
-235.33724789434166,917
-232.80132432673452,940
-230.2661020039418,975
-227.73158073697357,949
-225.19776033676033,958
-222.66464061415422,938
-220.1322213799284,899
-217.60050244477725,945
-215.06948361931552,918
-212.53916471408013,924
-210.00954553952818,870
-207.48062590603843,913
-204.9524056239104,1029
-202.4248845033651,1081
-199.8980623545441,1045
-197.37193898751036,961
-194.84651421224817,1054
-192.32178783866232,971
-189.79775967657952,984
-187.27442953574644,1031
-184.7517972258321,986
-182.2298625564256,885
-179.7086253370378,1041
-177.18808537710026,1154
-174.66824248596583,1077
-172.14909647290835,1193
-169.6306471471229,1189
-167.11289431772548,1120
-164.59583779375328,1162
-162.07947738416453,1147
-159.5638128978386,1142
-157.04884414357605,1304
-154.53457093009854,1245
-152.02099306604828,1267
-149.50811035998936,1302
-146.99592262040665,1341
-144.48442965570587,1222
-141.97363127421409,1291
-139.46352728417958,1508
-136.95411749377126,1533
-134.44540171107985,1665
-131.93737974411636,1612
-129.43005140081357,1559
-126.92341648902493,1593
-124.41747481652521,1651
-121.91222619101006,1740
-119.40767042009657,1661
-116.90380731132257,1414
-114.40063667214702,1591
-111.8981583099503,1839
-109.3963720320337,1902
-106.89527764561933,1626
-104.39487495785067,1817
-101.89516377579241,1966
-99.39614390642998,1965
-96.89781515667039,1850
-94.40017733334128,2147
-91.90323024319173,2190
-89.40697369289148,2074
-86.91140748903172,1829
-84.41653143812482,1941
-81.92234534660395,2065
-79.42884902082358,2025
-76.93604226705907,2035
-74.4439248915071,2286
-71.95249670028534,2089
-69.46175749943245,2301
-66.97170709490854,2556
-64.48234529259423,3042
-61.99367189829195,3144
-59.50568671772464,3311
-57.01838955653636,3725
-54.53178022029283,3479
-52.045858514480074,3557
-49.560624244506016,4441
-47.07607721569923,4417
-44.59221723330904,4161
-42.10904410250669,4365
-39.62655762838392,5799
-37.14475761595372,6566
-34.66364387015028,6669
-32.18321619582866,7122
-29.70347439776515,8310
-27.224418280657005,10028
-24.74604764912317,13474
-22.26836230770266,19069
-19.7913620608565,31583
-17.315046712966478,46777
-14.83941606833514,50498
-12.36446993118659,65039
-9.89020810566592,65039
-7.416630395839093,65039
-4.94373660569363,65039
-2.471526539137585,65039
-6.821210263296962E-13,65039
2.47084320796705,65039
4.941003281093458,65039
7.410480415786196,65039
9.879274808531363,65039
12.347386655893956,65039
14.814816154518212,65039
17.28156350112681,65039
19.74762889252179,65039
22.21301252558385,65039
24.67771459727237,65039
27.141735304626195,65039
29.605074844762612,38967
32.06773341487792,17326
34.52971121224755,12748
36.99100843422559,12021
39.45162527824516,11180
41.91156194181792,10790
44.370818622535126,11881
46.82939551806646,11488
49.287292826160524,12761
51.74451074464503,11945
54.201049471426245,8114
56.65690920448981,5449
59.112090141899785,4212
61.56659248179983,4605
64.02041642241159,4595
66.4735621620365,4412
68.92602989905402,3201
71.37781983192338,3221
73.82893215918205,3740
76.27936707944684,3502
78.72912479141326,3526
81.17820549385567,3288
83.62660938562783,3323
86.07433666566146,3368
88.5213875329681,3883
90.96776218663751,3854
93.41346082583925,3397
95.85848364982041,2768
98.30283085790859,2284
100.7465026495089,2322
103.18949922410604,2879
105.63182078126385,2326
108.07346752062438,2336
110.51443964190923,2304
112.95473734491827,2155
115.39436082953114,1941
117.83331029570547,1969
120.27158594347827,2386
122.7091879729652,1815
125.1461165843615,1622
127.58237197794062,1594
130.01795435405518,1378
132.4528639131364,1487
134.88710085569494,1758
137.32066538231982,1933
139.75355769367923,1747
142.1857779905207,1706
144.61732647366978,1712
147.04820334403132,1561
149.47840880258934,1498
151.90794305040674,1734
154.33680628862487,1996
156.76499871846443,1873
159.19252054122433,1903
161.61937195828352,1930
164.04555317109896,1981
166.47106438120693,2241
168.89590579022217,2689
171.320077599839,2827
173.7435800118302,2692
176.16641322804742,2872
178.58857745042144,3006
181.01007288096173,2951
183.43089972175687,3105
185.85105817497413,3033
188.27054844285988,3067
190.6893707277394,2834
193.10752523201643,2985
195.5250121581745,3087
197.9418317087751,3251
200.3579840864594,3157
202.7734694939469,3173
205.18828813403627,3152
207.6024402096051,3233
210.01592592360964,3207
212.42874547908548,3255
214.84089907914665,3124
217.2523869269868,3084
219.66320922587727,3184
222.0733661791695,3244
224.48285799029293,3119
226.8916848627572,3198
229.29984700014882,3360
231.7073446061355,3288
234.11417788446204,3265
236.520347038953,3335
238.92585227351185,3508
241.33069379212054,3702
243.73487179884035,3554
246.1383864978112,3230
248.541238093252,3337
250.9434267894609,3446
253.34495279081432,3399
255.74581630176783,3415
258.1460175268563,3499
260.54555667069314,3319
262.9444339379703,3302
265.3426495334594,3243
267.7402036620107,3325
270.1370965285529,3345
272.53332833809407,3106
274.9288992957214,3151
277.32380960660055,2962
279.718059475976,3049
282.1116491091717,3060
284.5045787115897,3114
286.89684848871195,3084
289.2884586460981,3052
291.67940938938807,3020
294.0697009242996,2967
296.4593334566299,2975
298.84830719225477,2935
301.23662233712923,2846
303.6242790972866,2856
306.01127767884,2861
308.39761828798066,2892
310.78330113097934,2851
313.16832641418534,2756
315.5526943440269,2736
317.9364051270112,2712
320.3194589697242,2771
322.70185607883093,2643
325.0835966610754,2655
327.4646809232805,2658
329.8451090723478,2696
332.2248813152577,2702
334.6039978590701,2608
336.9824589109231,2620
339.36026467803447,2564
341.7374153677,2529
344.113911187295,2547
346.48975234427337,2478
348.8649390461686,2460
351.2394715005918,2481
353.61334991523415,2419
355.9865744978655,2422
358.35914545633375,2371
360.73106299856715,2418
363.10232733257146,2415
365.47293866643247,2451
367.84289720831396,2331
370.2122031664593,2346
372.5808567491905,2345
374.9488581649083,2310
377.31620762209275,2393
379.6829053293021,2377
382.0489514951745,2332
384.4143463284262,2389
386.7790900378528,2399
389.14318283232853,2263
391.50662492080653,2334
393.86941651231916,2267
396.23155781597745,2264
398.5930490409713,2245
400.9538903965696,2314
403.3140820921202,2236
405.6736243370498,2224
408.03251734086336,2196
410.3907613131465,2256
412.74835646356166,2181
415.10530300185144,2201
417.4616011378372,2263
419.81725108141893,2315
422.1722530425758,2265
424.5266072313656,2256
426.880313857925,2227
429.2333731324701,2233
431.58578526529516,2168
433.9375504667738,2137
436.2886689473588,2145
438.63914091758113,2171
440.9889665880513,2104
443.33814616945835,2172
445.68667987257015,2173
448.03456790823395,2158
450.3818104873759,2078
452.72840782100013,2196
455.07436012019105,2122
457.41966759611057,2128
459.7643304600007,2151
462.10834892318155,2177
464.4517231970525,2184
466.79445349309174,2303
469.1365400228566,2207
471.4779829979826,2283
473.81878263018564,2254
476.15893913125876,2233
478.4984527130747,2248
480.8373235875855,2311
483.17555196682144,2360
485.5131380628919,2436
487.8500820879857,2541
490.1863842543697,2755
492.52204477439034,3039
494.8570638604725,3210
497.1914417251204,3539
499.52517858091653,3794
501.85827464052306,3891
504.19073011668036,3917
506.5225452222086,3960
508.85372017000566,3758
511.18425517304956,3530
513.514150444396,3726
515.8434061971808,4297
518.1720226446176,4859
520.4999999999999,5237
522.8273384766991,5508
525.1540382881666,5851
527.480099647932,5567
529.8055227696037,4843
532.1303078668694,3455
534.454455153496,2614
536.777964843328,2264
539.1008371502907,2139
541.4230722883866,2077
543.744670471698,2139
546.0656319143858,2083
548.3859568306899,2066
550.7056454349294,2007
553.0246979415016,1940
555.3431145648834,1962
557.6608955196306,1901
559.978041020377,1876
562.2945512818363,1882
564.6104265188006,1977
566.9256669461412,1863
569.2402727788082,1874
571.5542442318302,1933
573.8675815203156,1965
576.1802848594508,1832
578.4923544645015,1885
580.8037905508126,1865
583.114593333807,1897
585.4247630289875,1920
587.7342998519354,1851
590.0432040183106,1953
592.3514757438526,1966
594.6591152443794,1901
596.9661227357875,1875
599.2724984340531,1867
601.578242555231,1947
603.8833553154542,1921
606.1878369309362,2005
608.4916876179676,1963
610.7949075929192,2022
613.0974970722403,1935
615.3994562724587,1915
617.7007854101818,1973
620.0014847020951,1984
622.3015543649641,1897
624.6009946156324,1879
626.8998056710224,1873
629.1979877481361,1910
631.4955410640538,1855
633.7924658359349,1935
636.0887622810175,1901
638.3844306166192,1964
640.6794710601358,1964
642.9738838290426,1934
645.2676691408932,1988
647.5608272133207,1993
649.853358264037,1978
652.1452625108324,1919
654.4365401715764,1985
656.7271914642178,1950
659.0172166067838,2019
661.3066158173809,1952
663.5953893141935,1932
665.8835373154867,1919
668.1710600396028,1938
670.4579577049639,2026
672.7442305300709,1980
675.0298787335033,2032
677.3149025339197,1983
679.599302150058,2036
681.8830778007342,1977
684.1662297048437,1984
686.4487580813608,2017
688.7306631493387,1986
691.0119451279091,2018
693.2926042362834,1980
695.5726406937516,2007
697.8520547196814,1936
700.1308465335215,2003
702.4090163547982,1922
704.6865644031171,2067
706.9634908981619,1975
709.2397960596965,1932
711.5154801075631,1955
713.7905432616823,1956
716.0649857420548,1947
718.3388077687592,2019
720.612009561953,1981
722.8845913418733,1969
725.1565533288352,1901
727.427895743234,1990
729.6986188055427,2013
731.9687227363137,1979
734.238207756178,1902
736.5070740858458,1980
738.7753219461066,2012
741.0429515578281,1964
743.3099631419569,1987
745.5763569195191,2003
747.8421331116193,2055
750.1072919394409,1958
752.3718336242467,1927
754.6357583873777,1983
756.8990664502545,2016
759.1617580343765,2001
761.423833361321,1911
763.6852926527457,1992
765.9461361303862,1887
768.206364016058,1937
770.4659765316536,2004
772.7249738991469,2018
774.9833563405886,1968
777.2411240781092,1980
779.4982773339183,1998
781.7548163303044,2100
784.010741289634,2062
786.2660524343538,2095
788.5207499869881,2052
790.7748341701416,1928
793.0283052064964,1992
795.2811633188143,2068
797.5334087299362,2032
799.7850416627813,2024
802.0360623403484,2062
804.2864709857143,1937
806.5362678220353,2009
808.7854530725468,2062
811.0340269605625,2042
813.2819897094754,2111
815.5293415427581,2025
817.77608268396,2071
820.0222133567116,2046
822.2677337847211,2040
824.5126441917765,2017
826.7569448017433,2037
829.0006358385675,2010
831.2437175262731,2015
833.4861900889629,2021
835.7280537508192,1943
837.9693087361026,2000
840.2099552691533,2032
842.4499935743896,2015
844.689423876309,2047
846.9282463994886,1994
849.1664613685833,1908
851.4040690083276,1994
853.6410695435349,1969
855.877463199097,1889
858.1132501999847,1958
860.3484307712487,2075
862.5830051380175,2047
864.8169735254988,1999
867.0503361589791,1974
869.2830932638243,2025
871.5152450654786,2092
873.7467917894654,2063
875.9777336613873,2017
878.2080709069252,1980
880.4378037518389,2034
882.666932421968,2089
884.8954571432301,2094
887.1233781416219,1943
889.3506956432192,2094
891.5774098741766,2026
893.803521060728,2145
896.0290294291852,2059
898.2539352059397,2154
900.4782386174619,2106
902.7019398903011,2073
904.925039251085,2098
907.147536926521,2047
909.3694331433943,2049
911.59072812857,2054
913.8114221089921,2044
916.0315153116827,2063
918.2510079637437,2043
920.4699002923547,2065
922.6881925247761,1996
924.905884888345,2077
927.1229776104793,2061
929.3394709186747,1961
931.555365040506,1967
933.7706602036275,1933
935.9853566357709,1994
938.1994545647489,2067
940.4129542184515,2021
942.6258558248488,2005
944.8381596119883,2000
947.0498658079974,2043
949.2609746410825,1956
951.4714863395287,1966
953.6814011316998,1983
955.8907192460387,2039
958.0994409110671,2009
960.3075663553858,2017
962.5150958076741,1928
964.7220294966913,1975
966.928367651274,1953
969.1341105003388,2030
971.3392582728806,1957
973.5438111979742,1905
975.747769504772,1955
977.9511334225061,1947
980.153903180487,1961
982.3560790081052,1960
984.5576611348289,1925
986.7586497902058,1934
988.9590452038618,1900
991.158847605503,1839
993.3580572249133,1836
995.5566742919558,1855
997.7546990365728,1793
999.952131688785,1819
1002.1489724786926,1745
1004.3452216364743,1692
1006.5408793923874,1714
1008.7359459767691,1758
1010.9304216200343,1690
1013.1243065526781,1709
1015.3176010052733,1706
1017.510305208472,1642
1019.7024193930064,1652
1021.8939437896848,1544
1024.0848786293977,1624
1026.2752241431122,1655
1028.4649805618747,1641
1030.6541481168115,1635
1032.842727039127,1622
1035.0307175601051,1609
1037.2181199111074,1560
1039.4049343235752,1533
1041.591161029029,1528
1043.7768002590683,1571
1045.9618522453698,1567
1048.1463172196918,1635
1050.3301954138697,1527
1052.513487059818,1540
1054.69619238953,1573
1056.8783116350783,1527
1059.0598450286152,1597
1061.2407928023704,1567
1063.4211551886528,1645
1065.6009324198508,1555
1067.780124728432,1611
1069.9587323469414,1527
1072.1367555080046,1599
1074.314194444325,1562
1076.4910493886855,1569
1078.667320573947,1553
1080.843008233051,1495
1083.0181125990161,1517
1085.1926339049414,1571
1087.3665723840027,1579
1089.5399282694575,1486
1091.7127017946405,1497
1093.8848931929647,1492
1096.0565026979243,1515
1098.2275305430899,1399
1100.3979769621128,1426
1102.567842188722,1519
1104.737126456726,1446
1106.9058300000124,1559
1109.0739530525475,1468
1111.2414958483764,1447
1113.4084586216231,1508
1115.5748416064907,1526
1117.7406450372605,1503
1119.9058691482942,1481
1122.0705141740304,1472
1124.2345803489884,1471
1126.3980679077658,1414
1128.5609770850388,1431
1130.7233081155623,1452
1132.8850612341707,1410
1135.0462366757774,1396
1137.2068346753745,1411
1139.3668554680326,1462
1141.526299288901,1459
1143.68516637321,1441
1145.8434569562655,1455
1148.001171273455,1414
1150.158309560244,1438
1152.3148720521767,1415
1154.470858984876,1440
1156.626270594044,1446
1158.7811071154629,1439
1160.9353687849912,1454
1163.089055838569,1439
1165.242168512213,1427
1167.3947070420209,1444
1169.5466716641677,1423
1171.6980626149075,1420
1173.8488801305748,1452
1175.9991244475814,1464
1178.1487958024186,1406
1180.2978944316555,1429
1182.4464205719428,1419
1184.5943744600072,1428
1186.7417563326567,1366
1188.8885664267755,1384
1191.0348049793297,1446
1193.1804722273619,1404
1195.325568407995,1447
1197.4700937584303,1445
1199.614048515948,1434
1201.7574329179074,1371
1203.900247201746,1387
1206.042491604982,1408
1208.1841663652099,1402
1210.3252717201053,1410
1212.465807907422,1490
1214.6057751649923,1378
1216.7451737307279,1360
1218.8840038426192,1447
1221.0222657387353,1434
1223.1599596572241,1436
1225.2970858363137,1451
1227.4336445143094,1465
1229.5696359295966,1387
1231.705060320639,1443
1233.8399179259786,1461
1235.9742089842384,1453
1238.107933734118,1430
1240.2410924143974,1419
1242.373685263935,1436
1244.5057125216676,1471
1246.6371744266116,1472
1248.7680712178621,1445
1250.898403134593,1441
1253.028170416058,1460
1255.1573733015875,1462
1257.2860120305932,1455
1259.4140868425648,1444
1261.54159797707,1373
1263.6685456737569,1450
1265.7949301723515,1431
1267.9207517126597,1460
1270.046010534565,1428
1272.1707068780306,1509
1274.2948409830983,1443
1276.4184130898889,1463
1278.541423438603,1484
1280.6638722695184,1485
1282.785759822993,1509
1284.9070863394636,1451
1287.0278520594447,1494
1289.1480572235314,1527
1291.2677020723963,1541
1293.3867868467923,1451
1295.5053117875495,1566
1297.623277135579,1528
1299.740683131868,1564
1301.8575300174857,1605
1303.973818033578,1521
1306.0895474213703,1499
1308.2047184221678,1519
1310.3193312773528,1572
1312.4333862283888,1577
1314.5468835168163,1577
1316.659823384255,1594
1318.7722060724045,1636
1320.8840318230418,1609
1322.9953008780249,1584
1325.1060134792888,1570
1327.2161698688478,1570
1329.3257702887959,1568
1331.4348149813054,1670
1333.5433041886276,1639
1335.6512381530933,1573
1337.7586171171101,1540
1339.8654413231675,1655
1341.9717110138317,1552
1344.0774264317488,1599
1346.1825878196432,1513
1348.2871954203192,1537
1350.3912494766587,1536
1352.4947502316231,1631
1354.5976979282532,1589
1356.7000928096686,1545
1358.8019351190665,1563
1360.9032250997243,1486
1363.0039629949988,1569
1365.1041490483235,1586
1367.2037835032133,1549
1369.3028666032606,1532
1371.401398592137,1532
1373.4993797135926,1540
1375.5968102114575,1526
1377.6936903296396,1541
1379.7900203121262,1575
1381.8858004029835,1547
1383.9810308463561,1580
1386.075711886469,1526
1388.1698437676241,1569
1390.2634267342032,1591
1392.356461030667,1627
1394.4489469015557,1608
1396.5408845914872,1653
1398.6322743451592,1611
1400.7231164073469,1543
1402.813411022907,1589
1404.903158436773,1570
1406.9923588939578,1637
1409.0810126395531,1583
1411.1691199187303,1651
1413.2566809767386,1615
1415.343696058907,1637
1417.4301654106425,1607
1419.5160892774315,1551
1421.6014679048399,1622
1423.6863015385125,1580
1425.7705904241707,1662
1427.8543348076178,1659
1429.9375349347342,1689
1432.0201910514802,1687
1434.102303403894,1676
1436.1838722380944,1733
1438.2648978002767,1630
1440.3453803367174,1691
1442.4253200937692,1702
1444.5047173178677,1764
1446.5835722555234,1759
1448.6618851533285,1755
1450.739656257952,1792
1452.8168858161434,1856
1454.8935740747306,1810
1456.96972128062,1817
1459.045327680797,1843
1461.120393522327,1878
1463.1949190523528,1917
1465.2689045180973,1969
1467.3423501668608,2004
1469.415256246024,1967
1471.4876230030463,1955
1473.559450685465,1986
1475.6307395408976,2051
1477.7014898170391,2084
1479.771701761665,2082
1481.8413756226287,2123
1483.9105116478618,2146
1485.9791100853772,2248
1488.0471711832643,2243
1490.1146951896926,2288
1492.1816823529098,2320
1494.2481329212433,2331
1496.3140471430984,2322
1498.3794252669609,2417
1500.4442675413939,2392
1502.5085742150404,2448
1504.572345536622,2496
1506.6355817549388,2438
1508.6982831188702,2475
1510.7604498773744,2493
1512.8220822794883,2622
1514.8831805743293,2540
1516.9437450110909,2654
1519.003775839048,2680
1521.0632733075522,2761
1523.1222376660367,2841
1525.1806691640113,2841
1527.2385680510652,2887
1529.2959345768668,2890
1531.3527689911643,3045
1533.4090715437833,3027
1535.4648424846291,3121
1537.5200820636855,3136
1539.5747905310159,3110
1541.6289681367616,3277
1543.6826151311434,3159
1545.7357317644614,3312
1547.7883182870937,3484
1549.8403749494987,3422
1551.8919020022113,3483
1553.9428996958477,3446
1555.9933682811015,3569
1558.0433080087469,3792
1560.0927191296346,3781
1562.1416018946961,3858
1564.1899565549415,3936
1566.2377833614592,3826
1568.2850825654164,3878
1570.3318544180606,3713
1572.3780991707158,3618
1574.423817074788,3515
1576.4690083817595,3387
1578.5136733431923,3177
1580.5578122107272,3018
1582.601425236085,2923
1584.6445126710646,2719
1586.6870747675434,2714
1588.7291117774776,2484
1590.7706239529034,2425
1592.8116115459347,2327
1594.8520748087658,2322
1596.8920139936686,2183
1598.9314293529933,2081
1600.9703211391711,2116
1603.008689604711,2011
1605.0465350022005,1993
1607.0838575843068,1851
1609.1206576037753,1838
1611.1569353134305,1853
1613.1926909661765,1803
1615.2279248149953,1759
1617.2626371129481,1695
1619.2968281131757,1732
1621.3304980688963,1678
1623.3636472334088,1669
1625.39627586009,1591
1627.428384202396,1628
1629.459972513861,1634
1631.4910410480993,1543
1633.5215900588028,1553
1635.551619799744,1567
1637.5811305247717,1603
1639.6101224878166,1575
1641.6385959428862,1577
1643.6665511440683,1575
1645.693988345528,1571
1647.7209078015112,1575
1649.7473097663405,1555
1651.7731944944203,1558
1653.7985622402307,1546
1655.823413258333,1540
1657.847747803366,1521
1659.8715661300494,1495
1661.8948684931793,1491
1663.9176551476316,1533
1665.9399263483624,1528
1667.9616823504057,1495
1669.982923408873,1411
1672.0036497789574,1448
1674.0238617159293,1491
1676.043559475138,1493
1678.0627433120121,1488
1680.081413482059,1478
1682.0995702408654,1445
1684.117213844096,1396
1686.134344547495,1514
1688.1509626068864,1435
1690.1670682781705,1546
1692.182661817329,1506
1694.1977434804217,1436
1696.2123135235875,1488
1698.226372203043,1471
1700.2399197750851,1429
1702.2529564960905,1520
1704.2654826225112,1426
1706.277498410882,1473
1708.2890041178139,1531
1710.2999999999988,1514
1712.3104863142066,1481
1714.3204633172854,1499
1716.329931266163,1472
1718.3388904178469,1499
1720.3473410294214,1440
1722.3552833580516,1441
1724.3627176609807,1502
1726.3696441955308,1421
1728.3760632191033,1423
1730.3819749891782,1408
1732.3873797633146,1425
1734.3922777991502,1444
1736.3966693544012,1431
1738.4005546868639,1411
1740.4039340544127,1395
1742.406807715001,1392
1744.4091759266616,1422
1746.4110389475054,1446
1748.4123970357223,1427
1750.413250449582,1356
1752.4135994474318,1413
1754.4134442876993,1379
1756.4127852288902,1397
1758.4116225295893,1346
1760.4099564484595,1398
1762.407787244244,1399
1764.405115175764,1424
1766.4019405019203,1407
1768.3982634816916,1390
1770.3940843741357,1371
1772.3894034383907,1353
1774.3842209336717,1404
1776.378537119274,1359
1778.372352254571,1352
1780.3656665990156,1379
1782.3584804121397,1306
1784.3507939535534,1364
1786.3426074829463,1405
1788.3339212600863,1387
1790.3247355448211,1332
1792.3150505970766,1365
1794.3048666768573,1342
1796.2941840442477,1360
1798.2830029594106,1308
1800.2713236825884,1325
1802.2591464741004,1368
1804.2464715943465,1345
1806.2332993038058,1316
1808.2196298630352,1371
1810.2054635326708,1315
1812.190800573428,1312
1814.175641246101,1324
1816.1599858115628,1337
1818.1438345307652,1376
1820.127187664738,1346
1822.1100454745924,1360
1824.092408221516,1317
1826.0742761667766,1351
1828.055649571721,1347
1830.0365286977735,1340
1832.0169138064398,1376
1833.9968051593014,1360
1835.9762030180214,1373
1837.9551076443408,1329
1839.9335193000788,1332
1841.9114382471344,1379
1843.888864747485,1380
1845.8657990631878,1316
1847.842241456378,1376
1849.8181921892697,1319
1851.7936515241558,1323
1853.7686197234098,1340
1855.7430970494815,1301
1857.7170837649014,1299
1859.6905801322787,1345
1861.6635864143004,1326
1863.6361028737338,1344
1865.608129773424,1364
1867.5796673762961,1325
1869.5507159453537,1365
1871.521275743678,1335
1873.4913470344313,1339
1875.4609300808534,1369
1877.4300251462632,1376
1879.3986324940588,1304
1881.366752387717,1421
1883.3343850907936,1350
1885.3015308669228,1321
1887.268189979819,1400
1889.2343626932739,1390
1891.2000492711595,1366
1893.1652499774254,1351
1895.1299650761011,1428
1897.0941948312952,1424
1899.0579395071945,1402
1901.0211993680641,1346
1902.98397467825,1387
1904.9462657021745,1333
1906.9080727043415,1366
1908.869395949332,1377
1910.8302357018065,1326
1912.790592226504,1374
1914.7504657882428,1352
1916.7098566519212,1336
1918.6687650825133,1406
1920.6271913450764,1398
1922.5851357047422,1354
1924.5425984267245,1356
1926.499579776314,1358
1928.4560800188833,1317
1930.4120994198802,1361
1932.367638244833,1421
1934.32269675935,1384
1936.2772752291175,1356
1938.231373919899,1355
1940.1849930975404,1347
1942.1381330279637,1301
1944.0907939771696,1377
1946.0429762112412,1401
1947.9946799963363,1315
1949.9459055986945,1344
1951.896653284633,1290
1953.8469233205478,1311
1955.7967159729142,1295
1957.7460315082863,1324
1959.6948701932974,1343
1961.6432322946594,1367
1963.5911180791632,1335
1965.5385278136787,1374
1967.4854617651545,1383
1969.4319202006182,1343
1971.377903387176,1317
1973.3234115920136,1344
1975.268445082395,1334
1977.2130041256642,1317
1979.1570889892423,1374
1981.1006999406304,1341
1983.04383724741,1316
1984.986501177238,1391
1986.928691997853,1371
1988.8704099770712,1348
1990.811655382789,1375
1992.7524284829801,1401
1994.692729545698,1278
1996.6325588390755,1315
1998.5719166313224,1302
2000.5108031907307,1324
2002.4492187856677,1361
2004.387163684583,1382
2006.3246381560011,1295
2008.2616424685298,1341
2010.1981768908527,1293
2012.1342416917332,1356
2014.069837140014,1276
2016.0049635046162,1362
2017.9396210545406,1345
2019.8738100588666,1331
2021.8075307867502,1321
2023.740783507431,1316
2025.6735684902228,1322
2027.6058860045214,1293
2029.5377363198004,1331
2031.4691197056118,1335
2033.4000364315875,1308
2035.3304867674374,1313
2037.260470982952,1299
2039.189989347998,1349
2041.1190421325232,1339
2043.047629606554,1314
2044.9757520401945,1338
2046.9034097036288,1300
2048.8306028671195,1325
2050.7573318010086,1292
2052.683596775716,1354
2054.609398061742,1319
2056.5347359296647,1330
2058.4596106501403,1323
2060.384022493906,1355
2062.3079717317764,1315
2064.231458634646,1319
2066.1544834734873,1379
2068.077046519352,1323
2069.99914804337,1355
2071.9207883167524,1334
2073.8419676107865,1334
2075.7626861968406,1345
2077.6829443463607,1328
2079.6027423308715,1318
2081.522080421977,1349
2083.440958891362,1375
2085.359378010786,1294
2087.2773380520907,1319
2089.194839287196,1318
2091.111881988101,1247
2093.0284664268825,1346
2094.9445928756973,1321
2096.86026160678,1323
2098.775472892446,1319
2100.690227005088,1310
2102.604524217178,1350
2104.5183648012676,1332
2106.431749029985,1332
2108.34467717604,1309
2110.2571495122206,1350
2112.169166311393,1280
2114.080727846503,1306
2115.9918343905747,1302
2117.902486216711,1286
2119.8126835980956,1362
2121.722426807987,1316
2123.6317161197285,1307
2125.5405518067364,1327
2127.448934142509,1278
2129.356863400624,1317
2131.264339854737,1321
2133.1713637785815,1318
2135.077935445972,1221
2136.9840551308002,1338
2138.889723107037,1307
2140.7949396487334,1292
2142.699705030018,1354
2144.6040195250994,1386
2146.507883408264,1323
2148.4112969538774,1303
2150.3142604363848,1280
2152.2167741303097,1361
2154.1188383102535,1335
2156.0204532508997,1339
2157.9216192270064,1323
2159.822336513414,1342
2161.7226053850413,1303
2163.622426116884,1280
2165.5217989840185,1317
2167.4207242616,1321
2169.319202224862,1277
2171.2172331491165,1332
2173.1148173097563,1331
2175.0119549822507,1344
2176.90864644215,1329
2178.8048919650823,1306
2180.7006918267534,1342
2182.596046302952,1366
2184.4909556695407,1352
2186.3854202024645,1327
2188.279440177746,1309
2190.173015871487,1294
2192.066147559868,1326
2193.958835519149,1353
2195.851080025667,1329
2197.7428813558417,1374
2199.6342397861667,1288
2201.5251555932186,1219
2203.415629053651,1264
2205.3056604441986,1308
2207.19525004167,1344
2209.084398122958,1309
2210.9731049650327,1297
2212.861370844941,1370
2214.749196039812,1362
2216.636580826851,1332
2218.523525483344,1310
2220.410030286655,1362
2222.296095514226,1325
2224.1817214435805,1290
2226.066908352319,1285
2227.951656518121,1323
2229.835966218746,1297
2231.71983773203,1314
2233.6032713358913,1313
2235.486267308324,1333
2237.3688259274036,1348
2239.2509474712824,1321
2241.132632218193,1379
2243.013880446447,1369
2244.8946924344323,1336
2246.7750684606203,1318
2248.6550088035574,1319
2250.534513741871,1333
2252.413583554265,1362
2254.292218519526,1318
2256.170418916517,1359
2258.0481850241786,1313
2259.925517121534,1362
2261.8024154876825,1292
2263.678880401803,1300
2265.5549121431536,1350
2267.430510991071,1338
2269.305677224971,1377
2271.180411124348,1335
2273.0547129687766,1325
2274.9285830379076,1320
2276.8020216114737,1351
2278.6750289692845,1348
2280.5476053912294,1326
2282.4197511572766,1318
2284.2914665474727,1340
2286.162751841943,1305
2288.0336073208937,1290
2289.904033264608,1333
2291.774029953448,1303
2293.6435976678554,1324
2295.5127366883517,1384
2297.381447295534,1275
2299.2497297700825,1318
2301.1175843927526,1299
2302.9850114443825,1375
2304.852011205885,1338
2306.7185839582553,1373
2308.5847299825664,1313
2310.4504495599676,1347
2312.3157429716925,1369
2314.1806104990483,1365
2316.0450524234247,1400
2317.9090690262888,1389
2319.772660589186,1370
2321.635827393742,1377
2323.498569721661,1379
2325.3608878547248,1335
2327.2227820747967,1374
2329.0842526638157,1343
2330.945299903803,1372
2332.805924076857,1354
2334.6661254651535,1335
2336.525904350951,1384
2338.3852610165827,1339
2340.244195744464,1294
2342.102708817088,1360
2343.9608005170253,1399
2345.8184711269287,1407
2347.675720929526,1315
2349.532550207628,1426
2351.38895924412,1380
2353.24494832197,1336
2355.100517724223,1377
2356.955667734004,1366
2358.810398634514,1343
2360.664710709037,1389
2362.5186042409337,1416
2364.3720795136437,1418
2366.225136810686,1366
2368.0777764156583,1352
2369.929998612237,1311
2371.7818036841777,1386
2373.633191915315,1347
2375.484163589562,1409
2377.3347189909114,1423
2379.184858403434,1403
2381.03458211128,1393
2382.8838903986775,1383
2384.732783549936,1392
2386.5812618494406,1409
2388.4293255816588,1359
2390.2769750311327,1432
2392.1242104824883,1415
2393.971032220427,1400
2395.8174405297295,1355
2397.6634356952563,1368
2399.509018001947,1390
2401.3541877348193,1396
2403.1989451789705,1350
2405.043290619576,1339
2406.8872243418905,1304
2408.730746631247,1382
2410.5738577730594,1373
2412.4165580528183,1426
2414.258847756095,1347
2416.100727168537,1360
2417.9421965758734,1322
2419.783256263912,1437
2421.623906518538,1408
2423.4641476257157,1387
2425.303979871491,1403
2427.143403541984,1356
2428.9824189233977,1405
2430.821026302012,1390
2432.6592259641866,1424
2434.497018196361,1423
2436.33440328505,1393
2438.171381516851,1465
2440.00795317844,1415
2441.844118556569,1454
2443.6798779380724,1362
2445.5152316098606,1462
2447.3501798589255,1399
2449.1847229723357,1414
2451.0188612372403,1350
2452.8525949408663,1393
2454.6859243705203,1360
2456.518849813587,1400
2458.3513715575314,1432
2460.183489889895,1411
2462.015205098301,1380
2463.8465174704493,1457
2465.67742729412,1438
2467.5079348571717,1406
2469.338040447542,1373
2471.1677443532476,1390
2472.9970468623833,1400
2474.825948263123,1415
2476.6544488437207,1351
2478.482548892508,1387
2480.310248697896,1388
2482.137548548374,1401
2483.9644487325118,1435
2485.790949538956,1412
2487.617051256433,1421
2489.44275417375,1365
2491.26805857979,1453
2493.0929647635157,1437
2494.917473013971,1431
2496.741583620276,1436
2498.5652968716304,1410
2500.3886130573137,1398
2502.2115324666834,1367
2504.0340553891765,1454
2505.856182114308,1422
2507.6779129316733,1423
2509.499248130945,1523
2511.3201880018764,1393
2513.140732834298,1466
2514.9608829181198,1467
2516.780638543331,1480
2518.6,1459
2520.418967578273,1426
2522.237541568376,1426
2524.0557222606144,1466
2525.8735099453706,1453
2527.6909049131086,1457
2529.507907454368,1438
2531.32451785977,1444
2533.140736420014,1421
2534.9565634258774,1494
2536.771999168218,1446
2538.5870439379714,1514
2540.4016980261526,1529
2542.2159617238544,1524
2544.02983532225,1544
2545.8433191125914,1512
2547.656413386209,1507
2549.4691184345115,1498
2551.2814345489874,1519
2553.093362021204,1503
2554.904901142808,1513
2556.716052205523,1553
2558.526815501153,1495
2560.3371913215824,1556
2562.147179958771,1594
2563.956781704761,1506
2565.7659968516705,1549
2567.5748256916986,1571
2569.3832685171224,1588
2571.1913256202984,1563
2572.9989972936614,1562
2574.806283829725,1608
2576.613185521084,1622
2578.4197026604074,1596
2580.2258355404483,1617
2582.031584454035,1641
2583.836949694077,1594
2585.6419315535613,1619
2587.4465303255533,1655
2589.2507463032002,1646
2591.0545797797245,1651
2592.8580310484303,1656
2594.6611004026995,1651
2596.463788135992,1641
2598.266094541849,1724
2600.0680199138874,1729
2601.869564545807,1700
2603.670728731383,1764
2605.4715127644704,1746
2607.2719169390048,1740
2609.071941548998,1664
2610.8715868885433,1672
2612.670853251811,1732
2614.469740933052,1670
2616.268250226594,1729
2618.0663814268455,1653
2619.864134828292,1691
2621.6615107255006,1649
2623.458509413115,1757
2625.2551311858597,1716
2627.0513763385347,1698
2628.8472451660223,1682
2630.6427379632833,1631
2632.4378550253564,1683
2634.232596647359,1677
2636.026963124488,1672
2637.8209547520187,1727
2639.6145718253065,1696
2641.407814639785,1592
2643.200683490966,1626
2644.9931786744414,1595
2646.7853004858807,1603
2648.577049221034,1579
2650.3684251757277,1585
2652.1594286458712,1586
2653.9500599274484,1579
2655.740319316525,1528
2657.5302071092437,1530
2659.3197236018286,1514
2661.10886909058,1531
2662.8976438718782,1558
2664.686048242183,1512
2666.4740824980327,1568
2668.2617469360443,1530
2670.0490418529134,1485
2671.8359675454153,1491
2673.622524310403,1512
2675.408712444811,1450
2677.1945322456495,1449
2678.979984010009,1497
2680.76506803506,1488
2682.5497846180497,1491
2684.334134056306,1468
2686.1181166472343,1482
2687.9017326883213,1476
2689.6849824771293,1482
2691.4678663113013,1408
2693.2503844885596,1469
2695.032537306705,1389
2696.8143250636167,1394
2698.5957480572542,1399
2700.3768065856534,1398
2702.1575009469316,1413
2703.937831439283,1414
2705.717798360982,1384
2707.4974020103837,1372
2709.276642685917,1371
2711.055520686095,1403
2712.834036309506,1386
2714.612189854819,1389
2716.389981620782,1422
2718.1674119062204,1374
2719.944481010041,1367
2721.721189231226,1341
2723.4975368688415,1377
2725.273524222027,1326
2727.0491515900053,1354
2728.824419272075,1348
2730.5993275676146,1365
2732.3738767760838,1369
2734.148067197016,1348
2735.921899130031,1331
2737.6953728748194,1352
2739.468488731156,1392
2741.2412469988926,1321
2743.0136479779617,1327
2744.785691968372,1354
2746.5573792702116,1355
2748.3287101836504,1373
2750.099685008934,1324
2751.870304046388,1315
2753.640567596418,1348
2755.4104759595057,1399
2757.1800294362156,1292
2758.949228327187,1347
2760.7180729331412,1309
2762.486563554877,1352
2764.254700493272,1358
2766.022484049284,1271
2767.789914523947,1334
2769.5569922183786,1345
2771.3237174337705,1355
2773.090090471394,1336
2774.8561116326036,1326
2776.6217812188274,1338
2778.3870995315756,1343
2780.1520668724356,1335
2781.9166835430747,1418
2783.6809498452394,1348
2785.444866080754,1355
2787.2084325515225,1346
2788.971649559527,1333
2790.73451740683,1323
2792.4970363955713,1313
2794.2592068279705,1306
2796.0210290063264,1333
2797.7825032330147,1314
2799.543629810493,1330
2801.304409041296,1345
2803.0648412280366,1311
2804.8249266734088,1372
2806.5846656801846,1320
2808.344058551212,1292
2810.1031055894246,1291
2811.8618070978273,1301
2813.6201633795085,1388
2815.378174737636,1339
2817.1358414754536,1318
2818.893163896285,1271
2820.6501423035334,1351
2822.4067770006814,1346
2824.1630682912883,1350
2825.9190164789957,1331
2827.6746218675207,1323
2829.429884760661,1334
2831.184805462294,1292
2832.9393842763743,1336
2834.693621506936,1351
2836.4475174580916,1385
2838.201072434034,1347
2839.954286739034,1347
2841.707160677441,1317
2843.459694553685,1333
2845.2118886722724,1343
2846.96374333779,1293
2848.7152588549034,1287
2850.4664355283567,1311
2852.217273662973,1317
2853.9677735636546,1293
2855.7179355353833,1319
2857.4677598832186,1316
2859.217246912299,1341
2860.9663969278427,1339
2862.715210235146,1286
2864.4636871395846,1286
2866.211827946614,1333
2867.9596329617652,1349
2869.7071024906536,1328
2871.4542368389684,1311
2873.20103631248,1291
2874.947501217038,1318
2876.6936318585695,1347
2878.4394285430812,1347
2880.1848915766604,1285
2881.9300212654707,1340
2883.6748179157553,1336
2885.4192818338374,1340
2887.1634133261173,1333
2888.907212699077,1345
2890.6506802592744,1348
2892.393816313348,1353
2894.1366211680142,1290
2895.8790951300693,1327
2897.621238506388,1297
2899.363051603925,1302
2901.1045347297118,1303
2902.8456881908596,1307
2904.58651229456,1345
2906.327007348081,1328
2908.067173658772,1308
2909.8070115340597,1323
2911.5465212814497,1328
2913.285703208527,1354
2915.0245576229563,1313
2916.7630848324807,1311
2918.5012851449196,1291
2920.2391588681758,1340
2921.976706310227,1295
2923.7139277791334,1340
2925.4508235830313,1334
2927.187394030137,1281
2928.923639428745,1337
2930.6595600872306,1346
2932.395156314046,1306
2934.1304284177218,1317
2935.8653767068713,1369
2937.6000014901815,1375
2939.3343030764227,1315
2941.068281774442,1361
2942.8019378931644,1323
2944.5352717415976,1366
2946.2682836288236,1363
2948.0009738640065,1305
2949.7333427563885,1338
2951.465390615289,1302
2953.1971177501086,1359
2954.9285244703265,1307
2956.6596110855,1362
2958.3903779052657,1267
2960.1208252393385,1341
2961.8509533975125,1336
2963.5807626896617,1347
2965.3102534257378,1330
2967.0394259157715,1331
2968.768280469873,1367
2970.496817398232,1313
2972.2250370111146,1279
2973.952939618869,1315
2975.6805255319196,1344
2977.4077950607707,1344
2979.134748516006,1332
2980.861386208289,1293
2982.587708448359,1363
2984.313715547037,1335
2986.039407815222,1301
2987.764785563891,1317
2989.489849104102,1363
2991.2145987469908,1289
2992.9390348037705,1337
2994.6631575857346,1365
2996.3869674042576,1334
2998.1104645707887,1362
2999.83364939686,1355
3001.5565221940783,1319
3003.2790832741334,1328
3005.0013329487924,1299
3006.7232715298996,1312
3008.4448993293804,1265
3010.166216659239,1280
3011.887223831558,1306
3013.607921158498,1289
3015.3283089522993,1275
3017.0483875252826,1288
3018.7681571898443,1270
3020.4876182584626,1311
3022.2067710436927,1322
3023.9256158581707,1326
3025.644153014609,1329
3027.362382825801,1323
3029.0803056046193,1318
3030.797921664012,1313
3032.5152313170106,1371
3034.2322348767225,1285
3035.9489326563353,1321
3037.665324969115,1325
3039.3814121284063,1297
3041.097194447633,1305
3042.812672240299,1316
3044.5278458199855,1336
3046.2427155003525,1356
3047.9572815951406,1302
3049.671544418167,1325
3051.38550428333,1327
3053.0991615046073,1358
3054.812516396051,1352
3056.5255692717974,1338
3058.2383204460575,1307
3059.9507702331257,1311
3061.662918947372,1311
3063.3747669032446,1309
3065.0863144152736,1334
3066.7975617980674,1284
3068.508509366309,1401
3070.219157434767,1277
3071.9295063182844,1400
3073.639556331785,1355
3075.3493077902704,1352
3077.058761008821,1306
3078.7679163025964,1365
3080.476773986837,1343
3082.1853343768594,1347
3083.89359778806,1301
3085.6015645359153,1393
3087.3092349359786,1325
3089.016609303884,1330
3090.7236879553434,1338
3092.4304712061476,1322
3094.136959372166,1325
3095.843152769349,1337
3097.5490517137237,1346
3099.2546565213966,1271
3100.959967508554,1306
3102.66498499146,1329
3104.3697092864577,1348
3106.0741407099695,1312
3107.778279578498,1302
3109.482126208622,1318
3111.1856809170004,1339
3112.8889440203716,1330
3114.5919158355528,1319
3116.294596679439,1307
3117.996986869006,1287
3119.6990867213062,1292
3121.4008965534726,1323
3123.102416682717,1321
3124.803647426329,1353
3126.5045891016784,1407
3128.205242026213,1335
3129.90560651746,1324
3131.605682893025,1311
3133.3054714705922,1401
3135.0049725679282,1343
3136.7041865028714,1331
3138.4031135933465,1346
3140.101754157353,1308
3141.800108512971,1340
3143.498176978357,1326
3145.1959598717494,1247
3146.8934575114636,1287
3148.5906702158954,1300
3150.2875983035183,1296
3151.9842420928853,1321
3153.680601902627,1371
3155.376678051456,1330
3157.07247085816,1310
3158.767980641609,1336
3160.463207720748,1316
3162.158152414606,1287
3163.8528150422862,1348
3165.5471959229726,1344
3167.2412953759303,1321
3168.9351137204976,1344
3170.628651276098,1348
3172.3219083622307,1321
3174.014885298474,1293
3175.707582404485,1314
3177.4000000000005,1322
3179.092138404835,1355
3180.7839979388846,1340
3182.47557892212,1304
3184.166881674594,1342
3185.8579065164386,1287
3187.5486537678626,1316
3189.2391237491547,1313
3190.9293167806827,1293
3192.6192331828934,1294
3194.3088732763117,1336
3195.998237381542,1313
3197.687325819268,1300
3199.376138910251,1317
3201.064676975334,1295
3202.7529403354347,1342
3204.4409293115523,1270
3206.1286442247647,1288
3207.816085396229,1273
3209.5032531471825,1232
3211.190147798936,1277
3212.8767696728846,1261
3214.5631190905015,1278
3216.2491963733373,1229
3217.9350018430214,1302
3219.6205358212637,1285
3221.305798629851,1267
3222.990790590651,1296
3224.6755120256103,1227
3226.359963256751,1266
3228.0441446061795,1302
3229.7280563960758,1259
3231.411698948703,1265
3233.0950725863995,1307
3234.778177631587,1249
3236.461014406761,1282
3238.1435832345005,1280
3239.8258844374595,1296
3241.507918338374,1318
3243.1896852600576,1285
3244.8711855254023,1275
3246.552419457381,1312
3248.233387379042,1288
3249.914089613516,1335
3251.59452648401,1355
3253.274698313813,1340
3254.95460542629,1317
3256.6342481448855,1288
3258.313626793125,1260
3259.9927416946084,1250
3261.6715931730196,1249
3263.3501815521176,1245
3265.0285071557437,1291
3266.706570307815,1301
3268.3843713323286,1282
3270.0619105533615,1274
3271.739188295068,1296
3273.4162048816834,1286
3275.0929606375184,1294
3276.769455886966,1296
3278.445690954498,1290
3280.1216661646613,1301
3281.797381842087,1265
3283.4728383114807,1283
3285.1480358976296,1378
3286.8229749253996,1286
3288.4976557197333,1226
3290.172078605655,1283
3291.846243908266,1275
3293.5201519527463,1270
3295.193803064357,1199
3296.8671975684374,1342
3298.5403357904024,1237
3300.21321805575,1269
3301.8858446900567,1261
3303.558216018975,1311
3305.23033236824,1279
3306.9021940636603,1332
3308.57380143113,1248
3310.2451547966184,1329
3311.916254486174,1309
3313.5871008259246,1309
3315.2576941420766,1250
3316.9280347609147,1274
3318.5981230088046,1263
3320.2679592121895,1304
3321.9375436975924,1258
3323.606876791612,1274
3325.27595882093,1265
3326.944790112305,1309
3328.6133709925753,1247
3330.2817017886573,1291
3331.949782827547,1258
3333.617614436319,1273
3335.2851969421245,1229
3336.952530672199,1251
3338.619615953853,1288
3340.286453114475,1221
3341.9530424815357,1254
3343.619384382583,1304
3345.2854791452437,1303
3346.951327097224,1296
3348.6169285663073,1303
3350.2822838803577,1297
3351.947393367319,1290
3353.61225735521,1310
3355.2768761721345,1278
3356.9412501462693,1325
3358.605379605873,1323
3360.2692648792827,1305
3361.9329062949146,1275
3363.596304181263,1284
