CollectionTime,6/26/2024 3:22:30 PM
ExposureUsed,3
CalibratedSpectrum
-962.7078968117929,656
-959.9714848408522,677
-957.2358232597828,667
-954.5009119013725,700
-951.7667505983302,729
-949.0333391832855,678
-946.3006774887896,689
-943.5687653473143,686
-940.837602591253,724
-938.1071890529199,701
-935.3775245645503,679
-932.6486089583007,707
-929.9204420662485,772
-927.1930237203925,711
-924.4663537526524,691
-921.7404319948689,722
-919.0152582788041,714
-916.2908324361409,727
-913.5671542984834,735
-910.8442236973568,747
-908.1220404642074,749
-905.4006044304027,760
-902.679915427231,700
-899.959973285902,743
-897.2407778375464,714
-894.5223289132158,766
-891.8046263438832,732
-889.0876699604426,712
-886.3714595937089,646
-883.6559950744183,713
-880.9412762332282,718
-878.2273029007168,679
-875.5140749073835,691
-872.8015920836489,712
-870.0898542598545,653
-867.3788612662631,664
-864.6686129330585,691
-861.9591090903457,659
-859.2503495681506,649
-856.5423341964203,686
-853.8350628050229,711
-851.1285352237478,706
-848.4227512823054,670
-845.7177108103272,639
-843.0134136373656,722
-840.3098595928943,632
-837.6070485063082,689
-834.9049802069229,706
-832.2036545239757,696
-829.5030712866244,668
-826.8032303239481,670
-824.1041314649472,671
-821.4057745385428,672
-818.7081593735775,673
-816.0112857988148,684
-813.3151536429393,661
-810.6197627345566,683
-807.9251129021936,654
-805.2312039742981,619
-802.5380357792392,661
-799.8456081453069,653
-797.1539209007124,643
-794.462973873588,715
-791.772766891987,648
-789.083299783884,651
-786.3945723771743,661
-783.7065844996748,658
-781.0193359791231,647
-778.3328266431781,714
-775.6470563194197,685
-772.9620248353489,685
-770.2777320183878,673
-767.5941776958798,662
-764.9113616950891,732
-762.2292838432011,691
-759.5479439673222,670
-756.8673418944801,699
-754.1874774516235,700
-751.5083504656222,704
-748.8299607632671,679
-746.15230817127,684
-743.475392516264,699
-740.7992136248035,689
-738.1237713233636,729
-735.4490654383407,721
-732.7750957960521,736
-730.1018622227365,709
-727.4293645445534,710
-724.7576025875837,709
-722.0865761778291,691
-719.4162851412126,744
-716.7467293035781,697
-714.0779084906909,730
-711.409822528237,765
-708.7424712418238,745
-706.0758544569796,718
-703.4099719991541,779
-700.7448236937178,766
-698.0804093659622,780
-695.4167288411002,752
-692.7537819442656,737
-690.0915685005134,766
-687.4300883348199,739
-684.7693412720819,747
-682.1093271371178,764
-679.4500457546669,758
-676.7914969493897,747
-674.1336805458676,779
-671.4765963686034,788
-668.8202442420206,796
-666.1646239904642,778
-663.5097354382001,769
-660.8555784094151,761
-658.2021527282176,758
-655.5494582186366,784
-652.8974947046223,823
-650.2462620100463,800
-647.5957599587009,794
-644.9459883742998,793
-642.2969470804776,816
-639.6486359007902,780
-637.0010546587141,866
-634.3542031776476,857
-631.7080812809096,815
-629.0626887917401,793
-626.4180255333008,805
-623.7740913286734,823
-621.1308860008619,805
-618.4884093727904,785
-615.8466612673046,814
-613.2056415071715,767
-610.5653499150785,798
-607.9257863136347,827
-605.28695052537,803
-602.6488423727357,817
-600.0114616781036,792
-597.3748082637674,774
-594.7388819519412,851
-592.1036825647604,768
-589.4692099242818,816
-586.8354638524829,838
-584.2024441712624,814
-581.5701507024403,800
-578.9385832677575,784
-576.3077416888759,843
-573.6776257873787,799
-571.0482353847704,799
-568.4195703024757,786
-565.7916303618415,824
-563.164415384135,888
-560.5379251905453,789
-557.9121596021815,779
-555.2871184400748,818
-552.6628015251767,823
-550.0392086783606,849
-547.4163397204204,889
-544.794194472071,848
-542.1727727539491,861
-539.5520743866118,850
-536.9320991905377,884
-534.3128469861261,920
-531.6943175936979,954
-529.0765108334947,961
-526.4594265256793,1031
-523.8430644903358,1093
-521.2274245474689,1300
-518.612506517005,1480
-515.9983102187913,1502
-513.3848354725959,1602
-510.77208209810846,1712
-508.16004991493924,1669
-505.5487387426199,1824
-502.9381484006032,1984
-500.3282787082628,2113
-497.71912948489364,2133
-495.1107005497117,2126
-492.5029917218539,2089
-489.8960028203786,1975
-487.28973366426493,1663
-484.68418407241325,1547
-482.07935386364494,1333
-479.47524285670266,1300
-476.87185087025,1210
-474.2691777228715,1236
-471.66722323307334,1200
-469.0659872192821,1123
-466.4654694998459,1116
-463.86566989303384,1123
-461.26658821703614,1086
-458.66822428996414,1073
-456.07057792985,1138
-453.4736489546475,1062
-450.877437182231,1022
-448.28194243039627,1035
-445.68716451686,1036
-443.09310325926003,1017
-440.49975847515555,1020
-437.9071299820263,1031
-435.31521759727354,1036
-432.72402113821954,1028
-430.13354042210767,1073
-427.5437752661022,1111
-424.95472548728867,1147
-422.36639090267386,1143
-419.7787713291855,1127
-417.1918665836721,1124
-414.60567648290385,1122
-412.0202008435715,1104
-409.4354394822874,1153
-406.8513922155845,1143
-404.26805885991723,1120
-401.685439231661,1137
-399.103533147112,1115
-396.522340422488,1119
-393.9418608739278,1172
-391.3620943174908,1145
-388.7830405691583,1145
-386.2046994448317,1112
-383.6270707603344,1062
-381.05015433141045,1009
-378.473949973725,916
-375.8984575028645,868
-373.32367673433623,794
-370.74960748356875,748
-368.1762495659117,671
-365.60360279663576,637
-363.03166699093265,626
-360.4604419639154,611
-357.8899275306178,577
-355.32012350599507,566
-352.7510297049233,543
-350.1826459421999,541
-347.61497203254316,581
-345.04800779059235,540
-342.4817530309082,505
-339.91620756797226,495
-337.35137121618743,487
-334.7872437898774,512
-332.22382510328725,528
-329.66111497058273,542
-327.09911320585127,586
-324.53781962310075,539
-321.9772340362607,551
-319.4173562591816,600
-316.8581861056348,645
-314.2997233893127,709
-311.7419679238294,715
-309.1849195227194,659
-306.62857799943856,591
-304.0729431673641,537
-301.51801483979375,527
-298.963792829947,566
-296.41027695096386,607
-293.85746701590574,643
-291.3053628377552,630
-288.7539642294155,623
-286.2032710037115,617
-283.65328297338897,586
-281.1039999511146,649
-278.5554217494762,739
-276.007548180983,669
-273.4603790580651,677
-270.9139141930734,624
-268.3681533982807,662
-265.8230964858798,665
-263.27874326798565,610
-260.7350935566336,611
-258.1921471637804,660
-255.6499039013039,762
-253.10836358100266,730
-250.56752601459698,736
-248.02739101372765,748
-245.48795838995704,807
-242.94922795476816,817
-240.41119951956557,713
-237.8738728956746,861
-235.33724789434166,907
-232.80132432673452,902
-230.2661020039418,954
-227.73158073697357,863
-225.19776033676033,797
-222.66464061415422,869
-220.1322213799284,816
-217.60050244477725,785
-215.06948361931552,814
-212.53916471408013,816
-210.00954553952818,808
-207.48062590603843,862
-204.9524056239104,865
-202.4248845033651,876
-199.8980623545441,973
-197.37193898751036,897
-194.84651421224817,872
-192.32178783866232,908
-189.79775967657952,886
-187.27442953574644,862
-184.7517972258321,915
-182.2298625564256,826
-179.7086253370378,939
-177.18808537710026,993
-174.66824248596583,1071
-172.14909647290835,1089
-169.6306471471229,1060
-167.11289431772548,966
-164.59583779375328,1077
-162.07947738416453,1152
-159.5638128978386,1089
-157.04884414357605,1182
-154.53457093009854,1245
-152.02099306604828,1088
-149.50811035998936,1178
-146.99592262040665,1245
-144.48442965570587,1219
-141.97363127421409,1234
-139.46352728417958,1315
-136.95411749377126,1444
-134.44540171107985,1526
-131.93737974411636,1423
-129.43005140081357,1388
-126.92341648902493,1486
-124.41747481652521,1551
-121.91222619101006,1554
-119.40767042009657,1456
-116.90380731132257,1393
-114.40063667214702,1455
-111.8981583099503,1651
-109.3963720320337,1802
-106.89527764561933,1439
-104.39487495785067,1639
-101.89516377579241,1841
-99.39614390642998,1855
-96.89781515667039,1641
-94.40017733334128,2066
-91.90323024319173,2135
-89.40697369289148,1890
-86.91140748903172,1636
-84.41653143812482,1892
-81.92234534660395,1962
-79.42884902082358,2034
-76.93604226705907,1956
-74.4439248915071,2196
-71.95249670028534,1997
-69.46175749943245,2285
-66.97170709490854,2437
-64.48234529259423,2767
-61.99367189829195,2837
-59.50568671772464,2836
-57.01838955653636,3259
-54.53178022029283,2948
-52.045858514480074,3192
-49.560624244506016,3994
-47.07607721569923,4127
-44.59221723330904,3844
-42.10904410250669,3506
-39.62655762838392,4931
-37.14475761595372,5729
-34.66364387015028,6080
-32.18321619582866,6389
-29.70347439776515,7472
-27.224418280657005,9047
-24.74604764912317,12495
-22.26836230770266,18381
-19.7913620608565,31484
-17.315046712966478,50223
-14.83941606833514,56455
-12.36446993118659,65038
-9.89020810566592,65038
-7.416630395839093,65038
-4.94373660569363,65038
-2.471526539137585,65038
-6.821210263296962E-13,65038
2.47084320796705,65038
4.941003281093458,65038
7.410480415786196,65038
9.879274808531363,65038
12.347386655893956,65038
14.814816154518212,65038
17.28156350112681,65038
19.74762889252179,65038
22.21301252558385,65038
24.67771459727237,65038
27.141735304626195,65038
29.605074844762612,26560
32.06773341487792,13457
34.52971121224755,9817
36.99100843422559,9938
39.45162527824516,10312
41.91156194181792,10868
44.370818622535126,11509
46.82939551806646,10475
49.287292826160524,11838
51.74451074464503,11658
54.201049471426245,8802
56.65690920448981,5920
59.112090141899785,4046
61.56659248179983,3985
64.02041642241159,3715
66.4735621620365,3524
68.92602989905402,2895
71.37781983192338,2711
73.82893215918205,3196
76.27936707944684,3214
78.72912479141326,3150
81.17820549385567,3029
83.62660938562783,2984
86.07433666566146,3078
88.5213875329681,3495
90.96776218663751,3417
93.41346082583925,3423
95.85848364982041,2760
98.30283085790859,2010
100.7465026495089,2076
103.18949922410604,2538
105.63182078126385,2175
108.07346752062438,2249
110.51443964190923,2136
112.95473734491827,1792
115.39436082953114,1708
117.83331029570547,1843
120.27158594347827,2240
122.7091879729652,1702
125.1461165843615,1493
127.58237197794062,1583
130.01795435405518,1400
132.4528639131364,1362
134.88710085569494,1545
137.32066538231982,1639
139.75355769367923,1539
142.1857779905207,1436
144.61732647366978,1480
147.04820334403132,1513
149.47840880258934,1410
151.90794305040674,1694
154.33680628862487,1752
156.76499871846443,1809
159.19252054122433,1952
161.61937195828352,1938
164.04555317109896,2013
166.47106438120693,2209
168.89590579022217,2612
171.320077599839,2663
173.7435800118302,2630
176.16641322804742,2773
178.58857745042144,2903
181.01007288096173,2910
183.43089972175687,2930
185.85105817497413,2958
188.27054844285988,2997
190.6893707277394,2886
193.10752523201643,2932
195.5250121581745,3059
197.9418317087751,3257
200.3579840864594,3106
202.7734694939469,3103
205.18828813403627,3108
207.6024402096051,3021
210.01592592360964,2961
212.42874547908548,2987
214.84089907914665,2968
217.2523869269868,2933
219.66320922587727,3040
222.0733661791695,3060
224.48285799029293,2955
226.8916848627572,3107
229.29984700014882,3096
231.7073446061355,3084
234.11417788446204,3058
236.520347038953,3248
238.92585227351185,3296
241.33069379212054,3551
243.73487179884035,3493
246.1383864978112,3242
248.541238093252,3175
250.9434267894609,3257
253.34495279081432,3279
255.74581630176783,3247
258.1460175268563,3367
260.54555667069314,3234
262.9444339379703,3232
265.3426495334594,3130
267.7402036620107,3149
270.1370965285529,3066
272.53332833809407,3061
274.9288992957214,2997
277.32380960660055,2872
279.718059475976,2851
282.1116491091717,2878
284.5045787115897,2784
286.89684848871195,2968
289.2884586460981,2868
291.67940938938807,2937
294.0697009242996,2871
296.4593334566299,2709
298.84830719225477,2770
301.23662233712923,2776
303.6242790972866,2800
306.01127767884,2908
308.39761828798066,2773
310.78330113097934,2739
313.16832641418534,2711
315.5526943440269,2639
317.9364051270112,2643
320.3194589697242,2562
322.70185607883093,2440
325.0835966610754,2585
327.4646809232805,2578
329.8451090723478,2605
332.2248813152577,2572
334.6039978590701,2480
336.9824589109231,2454
339.36026467803447,2489
341.7374153677,2442
344.113911187295,2419
346.48975234427337,2353
348.8649390461686,2378
351.2394715005918,2335
353.61334991523415,2261
355.9865744978655,2338
358.35914545633375,2284
360.73106299856715,2285
363.10232733257146,2268
365.47293866643247,2345
367.84289720831396,2338
370.2122031664593,2285
372.5808567491905,2260
374.9488581649083,2230
377.31620762209275,2276
379.6829053293021,2366
382.0489514951745,2307
384.4143463284262,2211
386.7790900378528,2248
389.14318283232853,2223
391.50662492080653,2258
393.86941651231916,2215
396.23155781597745,2204
398.5930490409713,2142
400.9538903965696,2198
403.3140820921202,2112
405.6736243370498,2141
408.03251734086336,2135
410.3907613131465,2131
412.74835646356166,2226
415.10530300185144,2174
417.4616011378372,2194
419.81725108141893,2228
422.1722530425758,2161
424.5266072313656,2094
426.880313857925,2182
429.2333731324701,2167
431.58578526529516,2181
433.9375504667738,2108
436.2886689473588,2041
438.63914091758113,2097
440.9889665880513,2058
443.33814616945835,2021
445.68667987257015,2060
448.03456790823395,1996
450.3818104873759,1980
452.72840782100013,2079
455.07436012019105,2047
457.41966759611057,2047
459.7643304600007,1996
462.10834892318155,2051
464.4517231970525,2094
466.79445349309174,2156
469.1365400228566,2111
471.4779829979826,2200
473.81878263018564,2122
476.15893913125876,2244
478.4984527130747,2226
480.8373235875855,2130
483.17555196682144,2254
485.5131380628919,2297
487.8500820879857,2427
490.1863842543697,2565
492.52204477439034,2734
494.8570638604725,3037
497.1914417251204,3376
499.52517858091653,3601
501.85827464052306,3668
504.19073011668036,3855
506.5225452222086,3799
508.85372017000566,3744
511.18425517304956,3446
513.514150444396,3691
515.8434061971808,4066
518.1720226446176,4706
520.4999999999999,5029
522.8273384766991,5392
525.1540382881666,5555
527.480099647932,5344
529.8055227696037,4671
532.1303078668694,3295
534.454455153496,2544
536.777964843328,2203
539.1008371502907,2023
541.4230722883866,2018
543.744670471698,2003
546.0656319143858,1981
548.3859568306899,2016
550.7056454349294,1867
553.0246979415016,1976
555.3431145648834,1906
557.6608955196306,1902
559.978041020377,1892
562.2945512818363,1877
564.6104265188006,1866
566.9256669461412,1885
569.2402727788082,1797
571.5542442318302,1829
573.8675815203156,1904
576.1802848594508,1861
578.4923544645015,1840
580.8037905508126,1814
583.114593333807,1863
585.4247630289875,1859
587.7342998519354,1842
590.0432040183106,1820
592.3514757438526,1810
594.6591152443794,1780
596.9661227357875,1844
599.2724984340531,1872
601.578242555231,1888
603.8833553154542,1889
606.1878369309362,1964
608.4916876179676,1932
610.7949075929192,2010
613.0974970722403,1908
615.3994562724587,1924
617.7007854101818,1871
620.0014847020951,1934
622.3015543649641,1802
624.6009946156324,1876
626.8998056710224,1878
629.1979877481361,1903
631.4955410640538,1795
633.7924658359349,1842
636.0887622810175,1909
638.3844306166192,1884
640.6794710601358,1881
642.9738838290426,1905
645.2676691408932,1921
647.5608272133207,1900
649.853358264037,1870
652.1452625108324,1951
654.4365401715764,1953
656.7271914642178,1919
659.0172166067838,1897
661.3066158173809,1988
663.5953893141935,1973
665.8835373154867,1925
668.1710600396028,1947
670.4579577049639,1934
672.7442305300709,1943
675.0298787335033,1852
677.3149025339197,1892
679.599302150058,1924
681.8830778007342,1918
684.1662297048437,1927
686.4487580813608,1956
688.7306631493387,1934
691.0119451279091,1898
693.2926042362834,1971
695.5726406937516,1927
697.8520547196814,1925
700.1308465335215,1936
702.4090163547982,1948
704.6865644031171,1918
706.9634908981619,1911
709.2397960596965,1963
711.5154801075631,1939
713.7905432616823,1952
716.0649857420548,1990
718.3388077687592,1842
720.612009561953,1880
722.8845913418733,1904
725.1565533288352,1828
727.427895743234,1981
729.6986188055427,1935
731.9687227363137,1947
734.238207756178,1907
736.5070740858458,1831
738.7753219461066,1948
741.0429515578281,1929
743.3099631419569,1908
745.5763569195191,1951
747.8421331116193,1996
750.1072919394409,1913
752.3718336242467,1854
754.6357583873777,1918
756.8990664502545,1906
759.1617580343765,1886
761.423833361321,1981
763.6852926527457,1913
765.9461361303862,1920
768.206364016058,1928
770.4659765316536,1945
772.7249738991469,1948
774.9833563405886,1991
777.2411240781092,1923
779.4982773339183,1864
781.7548163303044,2035
784.010741289634,1987
786.2660524343538,2029
788.5207499869881,1945
790.7748341701416,1936
793.0283052064964,1950
795.2811633188143,1979
797.5334087299362,1956
799.7850416627813,2008
802.0360623403484,1965
804.2864709857143,1923
806.5362678220353,1896
808.7854530725468,1935
811.0340269605625,1918
813.2819897094754,1966
815.5293415427581,2012
817.77608268396,1910
820.0222133567116,1978
822.2677337847211,1964
824.5126441917765,1903
826.7569448017433,1970
829.0006358385675,1971
831.2437175262731,1933
833.4861900889629,1925
835.7280537508192,1953
837.9693087361026,1959
840.2099552691533,1954
842.4499935743896,2035
844.689423876309,1905
846.9282463994886,1935
849.1664613685833,1940
851.4040690083276,1953
853.6410695435349,1905
855.877463199097,1906
858.1132501999847,1928
860.3484307712487,1972
862.5830051380175,1904
864.8169735254988,1953
867.0503361589791,1982
869.2830932638243,2028
871.5152450654786,2020
873.7467917894654,2050
875.9777336613873,1970
878.2080709069252,2004
880.4378037518389,2015
882.666932421968,2026
884.8954571432301,2047
887.1233781416219,2063
889.3506956432192,2008
891.5774098741766,2041
893.803521060728,2038
896.0290294291852,2046
898.2539352059397,2101
900.4782386174619,2063
902.7019398903011,2033
904.925039251085,2059
907.147536926521,1992
909.3694331433943,2007
911.59072812857,2002
913.8114221089921,2099
916.0315153116827,1996
918.2510079637437,1903
920.4699002923547,1919
922.6881925247761,2008
924.905884888345,1977
927.1229776104793,1965
929.3394709186747,1985
931.555365040506,1990
933.7706602036275,1948
935.9853566357709,2027
938.1994545647489,2034
940.4129542184515,2010
942.6258558248488,1969
944.8381596119883,2011
947.0498658079974,1969
949.2609746410825,1982
951.4714863395287,1913
953.6814011316998,1925
955.8907192460387,1900
958.0994409110671,1929
960.3075663553858,1955
962.5150958076741,1895
964.7220294966913,1922
966.928367651274,1849
969.1341105003388,1907
971.3392582728806,1897
973.5438111979742,1951
975.747769504772,1882
977.9511334225061,1907
980.153903180487,1831
982.3560790081052,1838
984.5576611348289,1864
986.7586497902058,1867
988.9590452038618,1830
991.158847605503,1787
993.3580572249133,1845
995.5566742919558,1775
997.7546990365728,1681
999.952131688785,1753
1002.1489724786926,1699
1004.3452216364743,1642
1006.5408793923874,1630
1008.7359459767691,1721
1010.9304216200343,1710
1013.1243065526781,1619
1015.3176010052733,1679
1017.510305208472,1571
1019.7024193930064,1645
1021.8939437896848,1626
1024.0848786293977,1608
1026.2752241431122,1566
1028.4649805618747,1516
1030.6541481168115,1574
1032.842727039127,1594
1035.0307175601051,1586
1037.2181199111074,1501
1039.4049343235752,1572
1041.591161029029,1586
1043.7768002590683,1518
1045.9618522453698,1519
1048.1463172196918,1541
1050.3301954138697,1539
1052.513487059818,1543
1054.69619238953,1591
1056.8783116350783,1542
1059.0598450286152,1483
1061.2407928023704,1551
1063.4211551886528,1603
1065.6009324198508,1530
1067.780124728432,1537
1069.9587323469414,1538
1072.1367555080046,1557
1074.314194444325,1500
1076.4910493886855,1503
1078.667320573947,1527
1080.843008233051,1451
1083.0181125990161,1543
1085.1926339049414,1558
1087.3665723840027,1498
1089.5399282694575,1546
1091.7127017946405,1462
1093.8848931929647,1476
1096.0565026979243,1449
1098.2275305430899,1411
1100.3979769621128,1483
1102.567842188722,1488
1104.737126456726,1499
1106.9058300000124,1478
1109.0739530525475,1491
1111.2414958483764,1443
1113.4084586216231,1393
1115.5748416064907,1439
1117.7406450372605,1447
1119.9058691482942,1435
1122.0705141740304,1484
1124.2345803489884,1412
1126.3980679077658,1411
1128.5609770850388,1420
1130.7233081155623,1412
1132.8850612341707,1424
1135.0462366757774,1450
1137.2068346753745,1405
1139.3668554680326,1434
1141.526299288901,1368
1143.68516637321,1416
1145.8434569562655,1401
1148.001171273455,1403
1150.158309560244,1436
1152.3148720521767,1363
1154.470858984876,1368
1156.626270594044,1457
1158.7811071154629,1399
1160.9353687849912,1394
1163.089055838569,1438
1165.242168512213,1456
1167.3947070420209,1354
1169.5466716641677,1395
1171.6980626149075,1373
1173.8488801305748,1383
1175.9991244475814,1335
1178.1487958024186,1392
1180.2978944316555,1389
1182.4464205719428,1462
1184.5943744600072,1385
1186.7417563326567,1345
1188.8885664267755,1380
1191.0348049793297,1363
1193.1804722273619,1307
1195.325568407995,1382
1197.4700937584303,1359
1199.614048515948,1352
1201.7574329179074,1388
1203.900247201746,1417
1206.042491604982,1379
1208.1841663652099,1388
1210.3252717201053,1373
1212.465807907422,1372
1214.6057751649923,1303
1216.7451737307279,1423
1218.8840038426192,1363
1221.0222657387353,1347
1223.1599596572241,1421
1225.2970858363137,1397
1227.4336445143094,1390
1229.5696359295966,1407
1231.705060320639,1436
1233.8399179259786,1428
1235.9742089842384,1396
1238.107933734118,1370
1240.2410924143974,1441
1242.373685263935,1395
1244.5057125216676,1400
1246.6371744266116,1365
1248.7680712178621,1434
1250.898403134593,1421
1253.028170416058,1402
1255.1573733015875,1395
1257.2860120305932,1452
1259.4140868425648,1481
1261.54159797707,1401
1263.6685456737569,1477
1265.7949301723515,1445
1267.9207517126597,1477
1270.046010534565,1453
1272.1707068780306,1491
1274.2948409830983,1444
1276.4184130898889,1436
1278.541423438603,1445
1280.6638722695184,1476
1282.785759822993,1458
1284.9070863394636,1468
1287.0278520594447,1480
1289.1480572235314,1517
1291.2677020723963,1495
1293.3867868467923,1560
1295.5053117875495,1494
1297.623277135579,1505
1299.740683131868,1513
1301.8575300174857,1597
1303.973818033578,1548
1306.0895474213703,1643
1308.2047184221678,1574
1310.3193312773528,1575
1312.4333862283888,1576
1314.5468835168163,1517
1316.659823384255,1549
1318.7722060724045,1561
1320.8840318230418,1560
1322.9953008780249,1583
1325.1060134792888,1576
1327.2161698688478,1594
1329.3257702887959,1641
1331.4348149813054,1557
1333.5433041886276,1573
1335.6512381530933,1544
1337.7586171171101,1550
1339.8654413231675,1537
1341.9717110138317,1510
1344.0774264317488,1517
1346.1825878196432,1523
1348.2871954203192,1595
1350.3912494766587,1530
1352.4947502316231,1511
1354.5976979282532,1587
1356.7000928096686,1578
1358.8019351190665,1512
1360.9032250997243,1498
1363.0039629949988,1520
1365.1041490483235,1517
1367.2037835032133,1526
1369.3028666032606,1515
1371.401398592137,1511
1373.4993797135926,1538
1375.5968102114575,1498
1377.6936903296396,1493
1379.7900203121262,1558
1381.8858004029835,1487
1383.9810308463561,1518
1386.075711886469,1568
1388.1698437676241,1577
1390.2634267342032,1541
1392.356461030667,1590
1394.4489469015557,1586
1396.5408845914872,1572
1398.6322743451592,1597
1400.7231164073469,1558
1402.813411022907,1558
1404.903158436773,1613
1406.9923588939578,1603
1409.0810126395531,1571
1411.1691199187303,1551
1413.2566809767386,1535
1415.343696058907,1583
1417.4301654106425,1590
1419.5160892774315,1625
1421.6014679048399,1666
1423.6863015385125,1574
1425.7705904241707,1603
1427.8543348076178,1589
1429.9375349347342,1653
1432.0201910514802,1674
1434.102303403894,1618
1436.1838722380944,1676
1438.2648978002767,1618
1440.3453803367174,1649
1442.4253200937692,1675
1444.5047173178677,1670
1446.5835722555234,1768
1448.6618851533285,1790
1450.739656257952,1769
1452.8168858161434,1800
1454.8935740747306,1840
1456.96972128062,1811
1459.045327680797,1880
1461.120393522327,1871
1463.1949190523528,1903
1465.2689045180973,1909
1467.3423501668608,1892
1469.415256246024,1994
1471.4876230030463,2011
1473.559450685465,2051
1475.6307395408976,2106
1477.7014898170391,2173
1479.771701761665,2049
1481.8413756226287,2101
1483.9105116478618,2143
1485.9791100853772,2225
1488.0471711832643,2246
1490.1146951896926,2239
1492.1816823529098,2311
1494.2481329212433,2375
1496.3140471430984,2399
1498.3794252669609,2361
1500.4442675413939,2404
1502.5085742150404,2418
1504.572345536622,2468
1506.6355817549388,2505
1508.6982831188702,2527
1510.7604498773744,2532
1512.8220822794883,2599
1514.8831805743293,2535
1516.9437450110909,2591
1519.003775839048,2577
1521.0632733075522,2627
1523.1222376660367,2783
1525.1806691640113,2854
1527.2385680510652,2841
1529.2959345768668,2844
1531.3527689911643,2877
1533.4090715437833,2966
1535.4648424846291,3065
1537.5200820636855,3178
1539.5747905310159,3156
1541.6289681367616,3190
1543.6826151311434,3368
1545.7357317644614,3378
1547.7883182870937,3376
1549.8403749494987,3488
1551.8919020022113,3454
1553.9428996958477,3559
1555.9933682811015,3617
1558.0433080087469,3742
1560.0927191296346,3755
1562.1416018946961,3852
1564.1899565549415,3801
1566.2377833614592,4013
1568.2850825654164,3920
1570.3318544180606,3802
1572.3780991707158,3640
1574.423817074788,3564
1576.4690083817595,3415
1578.5136733431923,3269
1580.5578122107272,3210
1582.601425236085,3002
1584.6445126710646,2784
1586.6870747675434,2653
1588.7291117774776,2535
1590.7706239529034,2381
1592.8116115459347,2340
1594.8520748087658,2252
1596.8920139936686,2216
1598.9314293529933,2161
1600.9703211391711,2036
1603.008689604711,1958
1605.0465350022005,1950
1607.0838575843068,1810
1609.1206576037753,1851
1611.1569353134305,1847
1613.1926909661765,1757
1615.2279248149953,1682
1617.2626371129481,1741
1619.2968281131757,1714
1621.3304980688963,1738
1623.3636472334088,1622
1625.39627586009,1606
1627.428384202396,1610
1629.459972513861,1601
1631.4910410480993,1568
1633.5215900588028,1573
1635.551619799744,1554
1637.5811305247717,1530
1639.6101224878166,1574
1641.6385959428862,1588
1643.6665511440683,1529
1645.693988345528,1482
1647.7209078015112,1559
1649.7473097663405,1565
1651.7731944944203,1463
1653.7985622402307,1462
1655.823413258333,1466
1657.847747803366,1469
1659.8715661300494,1491
1661.8948684931793,1474
1663.9176551476316,1485
1665.9399263483624,1502
1667.9616823504057,1508
1669.982923408873,1436
1672.0036497789574,1436
1674.0238617159293,1407
1676.043559475138,1474
1678.0627433120121,1478
1680.081413482059,1436
1682.0995702408654,1380
1684.117213844096,1480
1686.134344547495,1419
1688.1509626068864,1459
1690.1670682781705,1401
1692.182661817329,1476
1694.1977434804217,1415
1696.2123135235875,1413
1698.226372203043,1462
1700.2399197750851,1391
1702.2529564960905,1429
1704.2654826225112,1405
1706.277498410882,1469
1708.2890041178139,1436
1710.2999999999988,1498
1712.3104863142066,1480
1714.3204633172854,1481
1716.329931266163,1485
1718.3388904178469,1473
1720.3473410294214,1400
1722.3552833580516,1466
1724.3627176609807,1381
1726.3696441955308,1436
1728.3760632191033,1421
1730.3819749891782,1412
1732.3873797633146,1432
1734.3922777991502,1435
1736.3966693544012,1384
1738.4005546868639,1386
1740.4039340544127,1362
1742.406807715001,1397
1744.4091759266616,1373
1746.4110389475054,1399
1748.4123970357223,1402
1750.413250449582,1410
1752.4135994474318,1343
1754.4134442876993,1351
1756.4127852288902,1374
1758.4116225295893,1354
1760.4099564484595,1389
1762.407787244244,1376
1764.405115175764,1353
1766.4019405019203,1384
1768.3982634816916,1385
1770.3940843741357,1336
1772.3894034383907,1375
1774.3842209336717,1354
1776.378537119274,1379
1778.372352254571,1310
1780.3656665990156,1331
1782.3584804121397,1400
1784.3507939535534,1342
1786.3426074829463,1265
1788.3339212600863,1305
1790.3247355448211,1337
1792.3150505970766,1341
1794.3048666768573,1367
1796.2941840442477,1272
1798.2830029594106,1362
1800.2713236825884,1294
1802.2591464741004,1338
1804.2464715943465,1350
1806.2332993038058,1311
1808.2196298630352,1305
1810.2054635326708,1320
1812.190800573428,1346
1814.175641246101,1324
1816.1599858115628,1311
1818.1438345307652,1300
1820.127187664738,1310
1822.1100454745924,1286
1824.092408221516,1304
1826.0742761667766,1260
1828.055649571721,1319
1830.0365286977735,1321
1832.0169138064398,1282
1833.9968051593014,1346
1835.9762030180214,1322
1837.9551076443408,1273
1839.9335193000788,1322
1841.9114382471344,1298
1843.888864747485,1283
1845.8657990631878,1309
1847.842241456378,1314
1849.8181921892697,1319
1851.7936515241558,1319
1853.7686197234098,1333
1855.7430970494815,1340
1857.7170837649014,1310
1859.6905801322787,1288
1861.6635864143004,1298
1863.6361028737338,1370
1865.608129773424,1307
1867.5796673762961,1325
1869.5507159453537,1324
1871.521275743678,1312
1873.4913470344313,1333
1875.4609300808534,1359
1877.4300251462632,1272
1879.3986324940588,1262
1881.366752387717,1342
1883.3343850907936,1283
1885.3015308669228,1289
1887.268189979819,1310
1889.2343626932739,1305
1891.2000492711595,1308
1893.1652499774254,1352
1895.1299650761011,1331
1897.0941948312952,1309
1899.0579395071945,1302
1901.0211993680641,1326
1902.98397467825,1308
1904.9462657021745,1335
1906.9080727043415,1255
1908.869395949332,1339
1910.8302357018065,1322
1912.790592226504,1341
1914.7504657882428,1281
1916.7098566519212,1326
1918.6687650825133,1354
1920.6271913450764,1278
1922.5851357047422,1324
1924.5425984267245,1322
1926.499579776314,1306
1928.4560800188833,1369
1930.4120994198802,1309
1932.367638244833,1366
1934.32269675935,1346
1936.2772752291175,1312
1938.231373919899,1306
1940.1849930975404,1317
1942.1381330279637,1322
1944.0907939771696,1354
1946.0429762112412,1363
1947.9946799963363,1285
1949.9459055986945,1314
1951.896653284633,1306
1953.8469233205478,1334
1955.7967159729142,1269
1957.7460315082863,1333
1959.6948701932974,1314
1961.6432322946594,1367
1963.5911180791632,1305
1965.5385278136787,1276
1967.4854617651545,1316
1969.4319202006182,1312
1971.377903387176,1300
1973.3234115920136,1305
1975.268445082395,1306
1977.2130041256642,1365
1979.1570889892423,1332
1981.1006999406304,1286
1983.04383724741,1287
1984.986501177238,1316
1986.928691997853,1368
1988.8704099770712,1326
1990.811655382789,1318
1992.7524284829801,1342
1994.692729545698,1310
1996.6325588390755,1344
1998.5719166313224,1300
2000.5108031907307,1255
2002.4492187856677,1276
2004.387163684583,1263
2006.3246381560011,1303
2008.2616424685298,1197
2010.1981768908527,1219
2012.1342416917332,1274
2014.069837140014,1230
2016.0049635046162,1273
2017.9396210545406,1292
2019.8738100588666,1283
2021.8075307867502,1291
2023.740783507431,1285
2025.6735684902228,1279
2027.6058860045214,1298
2029.5377363198004,1282
2031.4691197056118,1271
2033.4000364315875,1302
2035.3304867674374,1314
2037.260470982952,1242
2039.189989347998,1279
2041.1190421325232,1338
2043.047629606554,1288
2044.9757520401945,1250
2046.9034097036288,1276
2048.8306028671195,1313
2050.7573318010086,1305
2052.683596775716,1253
2054.609398061742,1258
2056.5347359296647,1279
2058.4596106501403,1281
2060.384022493906,1309
2062.3079717317764,1248
2064.231458634646,1267
2066.1544834734873,1255
2068.077046519352,1321
2069.99914804337,1251
2071.9207883167524,1318
2073.8419676107865,1321
2075.7626861968406,1266
2077.6829443463607,1242
2079.6027423308715,1343
2081.522080421977,1304
2083.440958891362,1269
2085.359378010786,1308
2087.2773380520907,1258
2089.194839287196,1292
2091.111881988101,1285
2093.0284664268825,1320
2094.9445928756973,1322
2096.86026160678,1254
2098.775472892446,1232
2100.690227005088,1270
2102.604524217178,1259
2104.5183648012676,1266
2106.431749029985,1258
2108.34467717604,1268
2110.2571495122206,1290
2112.169166311393,1281
2114.080727846503,1266
2115.9918343905747,1260
2117.902486216711,1268
2119.8126835980956,1214
2121.722426807987,1290
2123.6317161197285,1267
2125.5405518067364,1274
2127.448934142509,1248
2129.356863400624,1203
2131.264339854737,1296
2133.1713637785815,1302
2135.077935445972,1304
2136.9840551308002,1317
2138.889723107037,1270
2140.7949396487334,1280
2142.699705030018,1314
2144.6040195250994,1264
2146.507883408264,1260
2148.4112969538774,1269
2150.3142604363848,1291
2152.2167741303097,1311
2154.1188383102535,1244
2156.0204532508997,1250
2157.9216192270064,1272
2159.822336513414,1259
2161.7226053850413,1278
2163.622426116884,1328
2165.5217989840185,1355
2167.4207242616,1324
2169.319202224862,1257
2171.2172331491165,1252
2173.1148173097563,1275
2175.0119549822507,1299
2176.90864644215,1266
2178.8048919650823,1264
2180.7006918267534,1303
2182.596046302952,1237
2184.4909556695407,1283
2186.3854202024645,1331
2188.279440177746,1252
2190.173015871487,1325
2192.066147559868,1297
2193.958835519149,1253
2195.851080025667,1266
2197.7428813558417,1250
2199.6342397861667,1323
2201.5251555932186,1243
2203.415629053651,1287
2205.3056604441986,1307
2207.19525004167,1267
2209.084398122958,1304
2210.9731049650327,1280
2212.861370844941,1304
2214.749196039812,1320
2216.636580826851,1351
2218.523525483344,1221
2220.410030286655,1279
2222.296095514226,1277
2224.1817214435805,1327
2226.066908352319,1294
2227.951656518121,1294
2229.835966218746,1301
2231.71983773203,1272
2233.6032713358913,1270
2235.486267308324,1330
2237.3688259274036,1309
2239.2509474712824,1282
2241.132632218193,1363
2243.013880446447,1270
2244.8946924344323,1306
2246.7750684606203,1302
2248.6550088035574,1296
2250.534513741871,1246
2252.413583554265,1246
2254.292218519526,1282
2256.170418916517,1257
2258.0481850241786,1267
2259.925517121534,1283
2261.8024154876825,1262
2263.678880401803,1243
2265.5549121431536,1266
2267.430510991071,1270
2269.305677224971,1290
2271.180411124348,1263
2273.0547129687766,1280
2274.9285830379076,1312
2276.8020216114737,1352
2278.6750289692845,1207
2280.5476053912294,1262
2282.4197511572766,1226
2284.2914665474727,1268
2286.162751841943,1291
2288.0336073208937,1283
2289.904033264608,1263
2291.774029953448,1311
2293.6435976678554,1356
2295.5127366883517,1308
2297.381447295534,1300
2299.2497297700825,1318
2301.1175843927526,1281
2302.9850114443825,1291
2304.852011205885,1278
2306.7185839582553,1343
2308.5847299825664,1335
2310.4504495599676,1307
2312.3157429716925,1271
2314.1806104990483,1268
2316.0450524234247,1331
2317.9090690262888,1288
2319.772660589186,1349
2321.635827393742,1243
2323.498569721661,1249
2325.3608878547248,1337
2327.2227820747967,1302
2329.0842526638157,1334
2330.945299903803,1356
2332.805924076857,1271
2334.6661254651535,1278
2336.525904350951,1314
2338.3852610165827,1300
2340.244195744464,1295
2342.102708817088,1299
2343.9608005170253,1315
2345.8184711269287,1309
2347.675720929526,1309
2349.532550207628,1306
2351.38895924412,1316
2353.24494832197,1307
2355.100517724223,1299
2356.955667734004,1276
2358.810398634514,1276
2360.664710709037,1306
2362.5186042409337,1350
2364.3720795136437,1326
2366.225136810686,1283
2368.0777764156583,1322
2369.929998612237,1293
2371.7818036841777,1296
2373.633191915315,1342
2375.484163589562,1320
2377.3347189909114,1328
2379.184858403434,1364
2381.03458211128,1352
2382.8838903986775,1342
2384.732783549936,1339
2386.5812618494406,1336
2388.4293255816588,1362
2390.2769750311327,1338
2392.1242104824883,1319
2393.971032220427,1365
2395.8174405297295,1389
2397.6634356952563,1331
2399.509018001947,1327
2401.3541877348193,1367
2403.1989451789705,1328
2405.043290619576,1287
2406.8872243418905,1359
2408.730746631247,1308
2410.5738577730594,1313
2412.4165580528183,1288
2414.258847756095,1357
2416.100727168537,1353
2417.9421965758734,1423
2419.783256263912,1343
2421.623906518538,1425
2423.4641476257157,1363
2425.303979871491,1332
2427.143403541984,1424
2428.9824189233977,1406
2430.821026302012,1392
2432.6592259641866,1346
2434.497018196361,1377
2436.33440328505,1360
2438.171381516851,1337
2440.00795317844,1383
2441.844118556569,1376
2443.6798779380724,1371
2445.5152316098606,1396
2447.3501798589255,1356
2449.1847229723357,1375
2451.0188612372403,1356
2452.8525949408663,1354
2454.6859243705203,1330
2456.518849813587,1363
2458.3513715575314,1350
2460.183489889895,1363
2462.015205098301,1332
2463.8465174704493,1330
2465.67742729412,1350
2467.5079348571717,1368
2469.338040447542,1381
2471.1677443532476,1366
2472.9970468623833,1338
2474.825948263123,1342
2476.6544488437207,1329
2478.482548892508,1329
2480.310248697896,1393
2482.137548548374,1367
2483.9644487325118,1397
2485.790949538956,1406
2487.617051256433,1369
2489.44275417375,1355
2491.26805857979,1415
2493.0929647635157,1331
2494.917473013971,1323
2496.741583620276,1377
2498.5652968716304,1317
2500.3886130573137,1392
2502.2115324666834,1402
2504.0340553891765,1409
2505.856182114308,1414
2507.6779129316733,1339
2509.499248130945,1403
2511.3201880018764,1346
2513.140732834298,1404
2514.9608829181198,1468
2516.780638543331,1355
2518.6,1407
2520.418967578273,1411
2522.237541568376,1395
2524.0557222606144,1383
2525.8735099453706,1383
2527.6909049131086,1373
2529.507907454368,1396
2531.32451785977,1412
2533.140736420014,1487
2534.9565634258774,1407
2536.771999168218,1388
2538.5870439379714,1399
2540.4016980261526,1434
2542.2159617238544,1406
2544.02983532225,1479
2545.8433191125914,1510
2547.656413386209,1469
2549.4691184345115,1491
2551.2814345489874,1502
2553.093362021204,1467
2554.904901142808,1462
2556.716052205523,1473
2558.526815501153,1517
2560.3371913215824,1525
2562.147179958771,1598
2563.956781704761,1503
2565.7659968516705,1544
2567.5748256916986,1499
2569.3832685171224,1574
2571.1913256202984,1588
2572.9989972936614,1562
2574.806283829725,1509
2576.613185521084,1633
2578.4197026604074,1534
2580.2258355404483,1586
2582.031584454035,1577
2583.836949694077,1567
2585.6419315535613,1635
2587.4465303255533,1600
2589.2507463032002,1559
2591.0545797797245,1610
2592.8580310484303,1624
2594.6611004026995,1611
2596.463788135992,1619
2598.266094541849,1652
2600.0680199138874,1635
2601.869564545807,1648
2603.670728731383,1693
2605.4715127644704,1727
2607.2719169390048,1661
2609.071941548998,1693
2610.8715868885433,1668
2612.670853251811,1656
2614.469740933052,1635
2616.268250226594,1640
2618.0663814268455,1693
2619.864134828292,1656
2621.6615107255006,1714
2623.458509413115,1659
2625.2551311858597,1662
2627.0513763385347,1631
2628.8472451660223,1628
2630.6427379632833,1664
2632.4378550253564,1635
2634.232596647359,1590
2636.026963124488,1635
2637.8209547520187,1590
2639.6145718253065,1585
2641.407814639785,1570
2643.200683490966,1546
2644.9931786744414,1623
2646.7853004858807,1549
2648.577049221034,1590
2650.3684251757277,1630
2652.1594286458712,1510
2653.9500599274484,1565
2655.740319316525,1524
2657.5302071092437,1532
2659.3197236018286,1488
2661.10886909058,1539
2662.8976438718782,1487
2664.686048242183,1445
2666.4740824980327,1445
2668.2617469360443,1534
2670.0490418529134,1428
2671.8359675454153,1454
2673.622524310403,1460
2675.408712444811,1394
2677.1945322456495,1399
2678.979984010009,1395
2680.76506803506,1397
2682.5497846180497,1387
2684.334134056306,1402
2686.1181166472343,1436
2687.9017326883213,1358
2689.6849824771293,1465
2691.4678663113013,1405
2693.2503844885596,1374
2695.032537306705,1384
2696.8143250636167,1374
2698.5957480572542,1349
2700.3768065856534,1370
2702.1575009469316,1355
2703.937831439283,1356
2705.717798360982,1378
2707.4974020103837,1379
2709.276642685917,1395
2711.055520686095,1321
2712.834036309506,1346
2714.612189854819,1352
2716.389981620782,1324
2718.1674119062204,1288
2719.944481010041,1358
2721.721189231226,1323
2723.4975368688415,1351
2725.273524222027,1326
2727.0491515900053,1289
2728.824419272075,1305
2730.5993275676146,1336
2732.3738767760838,1318
2734.148067197016,1281
2735.921899130031,1293
2737.6953728748194,1355
2739.468488731156,1304
2741.2412469988926,1346
2743.0136479779617,1305
2744.785691968372,1297
2746.5573792702116,1326
2748.3287101836504,1338
2750.099685008934,1294
2751.870304046388,1319
2753.640567596418,1245
2755.4104759595057,1281
2757.1800294362156,1295
2758.949228327187,1347
2760.7180729331412,1316
2762.486563554877,1277
2764.254700493272,1258
2766.022484049284,1347
2767.789914523947,1257
2769.5569922183786,1303
2771.3237174337705,1329
2773.090090471394,1272
2774.8561116326036,1292
2776.6217812188274,1348
2778.3870995315756,1276
2780.1520668724356,1282
2781.9166835430747,1281
2783.6809498452394,1280
2785.444866080754,1386
2787.2084325515225,1298
2788.971649559527,1301
2790.73451740683,1330
2792.4970363955713,1355
2794.2592068279705,1301
2796.0210290063264,1304
2797.7825032330147,1277
2799.543629810493,1293
2801.304409041296,1281
2803.0648412280366,1263
2804.8249266734088,1304
2806.5846656801846,1321
2808.344058551212,1292
2810.1031055894246,1256
2811.8618070978273,1282
2813.6201633795085,1279
2815.378174737636,1277
2817.1358414754536,1343
2818.893163896285,1267
2820.6501423035334,1291
2822.4067770006814,1265
2824.1630682912883,1273
2825.9190164789957,1280
2827.6746218675207,1314
2829.429884760661,1279
2831.184805462294,1317
2832.9393842763743,1274
2834.693621506936,1260
2836.4475174580916,1291
2838.201072434034,1247
2839.954286739034,1299
2841.707160677441,1330
2843.459694553685,1313
2845.2118886722724,1335
2846.96374333779,1259
2848.7152588549034,1257
2850.4664355283567,1279
2852.217273662973,1283
2853.9677735636546,1295
2855.7179355353833,1242
2857.4677598832186,1298
2859.217246912299,1294
2860.9663969278427,1275
2862.715210235146,1280
2864.4636871395846,1334
2866.211827946614,1333
2867.9596329617652,1276
2869.7071024906536,1282
2871.4542368389684,1219
2873.20103631248,1282
2874.947501217038,1304
2876.6936318585695,1301
2878.4394285430812,1281
2880.1848915766604,1293
2881.9300212654707,1305
2883.6748179157553,1335
2885.4192818338374,1287
2887.1634133261173,1291
2888.907212699077,1250
2890.6506802592744,1320
2892.393816313348,1289
2894.1366211680142,1273
2895.8790951300693,1271
2897.621238506388,1222
2899.363051603925,1278
2901.1045347297118,1258
2902.8456881908596,1274
2904.58651229456,1276
2906.327007348081,1270
2908.067173658772,1311
2909.8070115340597,1270
2911.5465212814497,1259
2913.285703208527,1290
2915.0245576229563,1255
2916.7630848324807,1276
2918.5012851449196,1266
2920.2391588681758,1308
2921.976706310227,1262
2923.7139277791334,1259
2925.4508235830313,1267
2927.187394030137,1281
2928.923639428745,1228
2930.6595600872306,1266
2932.395156314046,1265
2934.1304284177218,1284
2935.8653767068713,1251
2937.6000014901815,1297
2939.3343030764227,1284
2941.068281774442,1266
2942.8019378931644,1273
2944.5352717415976,1315
2946.2682836288236,1249
2948.0009738640065,1295
2949.7333427563885,1304
2951.465390615289,1246
2953.1971177501086,1336
2954.9285244703265,1288
2956.6596110855,1324
2958.3903779052657,1247
2960.1208252393385,1273
2961.8509533975125,1296
2963.5807626896617,1288
2965.3102534257378,1263
2967.0394259157715,1297
2968.768280469873,1252
2970.496817398232,1233
2972.2250370111146,1278
2973.952939618869,1222
2975.6805255319196,1277
2977.4077950607707,1269
2979.134748516006,1254
2980.861386208289,1256
2982.587708448359,1241
2984.313715547037,1303
2986.039407815222,1257
2987.764785563891,1347
2989.489849104102,1295
2991.2145987469908,1251
2992.9390348037705,1299
2994.6631575857346,1238
2996.3869674042576,1257
2998.1104645707887,1335
2999.83364939686,1261
3001.5565221940783,1315
3003.2790832741334,1274
3005.0013329487924,1251
3006.7232715298996,1253
3008.4448993293804,1267
3010.166216659239,1275
3011.887223831558,1228
3013.607921158498,1289
3015.3283089522993,1225
3017.0483875252826,1261
3018.7681571898443,1278
3020.4876182584626,1271
3022.2067710436927,1256
3023.9256158581707,1313
3025.644153014609,1280
3027.362382825801,1234
3029.0803056046193,1304
3030.797921664012,1291
3032.5152313170106,1264
3034.2322348767225,1267
3035.9489326563353,1287
3037.665324969115,1255
3039.3814121284063,1266
3041.097194447633,1271
3042.812672240299,1312
3044.5278458199855,1279
3046.2427155003525,1256
3047.9572815951406,1286
3049.671544418167,1255
3051.38550428333,1277
3053.0991615046073,1269
3054.812516396051,1279
3056.5255692717974,1328
3058.2383204460575,1288
3059.9507702331257,1284
3061.662918947372,1267
3063.3747669032446,1250
3065.0863144152736,1263
3066.7975617980674,1241
3068.508509366309,1278
3070.219157434767,1296
3071.9295063182844,1288
3073.639556331785,1252
3075.3493077902704,1297
3077.058761008821,1256
3078.7679163025964,1326
3080.476773986837,1249
3082.1853343768594,1272
3083.89359778806,1255
3085.6015645359153,1257
3087.3092349359786,1294
3089.016609303884,1289
3090.7236879553434,1300
3092.4304712061476,1238
3094.136959372166,1270
3095.843152769349,1304
3097.5490517137237,1283
3099.2546565213966,1295
3100.959967508554,1240
3102.66498499146,1277
3104.3697092864577,1256
3106.0741407099695,1268
3107.778279578498,1301
3109.482126208622,1343
3111.1856809170004,1254
3112.8889440203716,1290
3114.5919158355528,1266
3116.294596679439,1284
3117.996986869006,1289
3119.6990867213062,1319
3121.4008965534726,1337
3123.102416682717,1301
3124.803647426329,1315
3126.5045891016784,1308
3128.205242026213,1255
3129.90560651746,1278
3131.605682893025,1329
3133.3054714705922,1333
3135.0049725679282,1317
3136.7041865028714,1294
3138.4031135933465,1270
3140.101754157353,1301
3141.800108512971,1279
3143.498176978357,1263
3145.1959598717494,1278
3146.8934575114636,1223
3148.5906702158954,1297
3150.2875983035183,1304
3151.9842420928853,1302
3153.680601902627,1346
3155.376678051456,1282
3157.07247085816,1292
3158.767980641609,1370
3160.463207720748,1243
3162.158152414606,1248
3163.8528150422862,1242
3165.5471959229726,1243
3167.2412953759303,1282
3168.9351137204976,1247
3170.628651276098,1299
3172.3219083622307,1280
3174.014885298474,1304
3175.707582404485,1263
3177.4000000000005,1277
3179.092138404835,1318
3180.7839979388846,1282
3182.47557892212,1239
3184.166881674594,1276
3185.8579065164386,1288
3187.5486537678626,1298
3189.2391237491547,1243
3190.9293167806827,1216
3192.6192331828934,1265
3194.3088732763117,1281
3195.998237381542,1246
3197.687325819268,1292
3199.376138910251,1284
3201.064676975334,1247
3202.7529403354347,1313
3204.4409293115523,1216
3206.1286442247647,1225
3207.816085396229,1250
3209.5032531471825,1223
3211.190147798936,1236
3212.8767696728846,1244
3214.5631190905015,1196
3216.2491963733373,1190
3217.9350018430214,1221
3219.6205358212637,1240
3221.305798629851,1264
3222.990790590651,1292
3224.6755120256103,1270
3226.359963256751,1202
3228.0441446061795,1202
3229.7280563960758,1254
3231.411698948703,1222
3233.0950725863995,1229
3234.778177631587,1287
3236.461014406761,1260
3238.1435832345005,1261
3239.8258844374595,1253
3241.507918338374,1266
3243.1896852600576,1293
3244.8711855254023,1224
3246.552419457381,1272
3248.233387379042,1191
3249.914089613516,1221
3251.59452648401,1189
3253.274698313813,1235
3254.95460542629,1240
3256.6342481448855,1270
3258.313626793125,1314
3259.9927416946084,1207
3261.6715931730196,1238
3263.3501815521176,1240
3265.0285071557437,1184
3266.706570307815,1219
3268.3843713323286,1197
3270.0619105533615,1259
3271.739188295068,1242
3273.4162048816834,1252
3275.0929606375184,1228
3276.769455886966,1301
3278.445690954498,1232
3280.1216661646613,1279
3281.797381842087,1267
3283.4728383114807,1286
3285.1480358976296,1214
3286.8229749253996,1249
3288.4976557197333,1252
3290.172078605655,1296
3291.846243908266,1252
3293.5201519527463,1213
3295.193803064357,1211
3296.8671975684374,1261
3298.5403357904024,1213
3300.21321805575,1167
3301.8858446900567,1280
3303.558216018975,1272
3305.23033236824,1269
3306.9021940636603,1249
3308.57380143113,1195
3310.2451547966184,1268
3311.916254486174,1274
3313.5871008259246,1253
3315.2576941420766,1250
3316.9280347609147,1245
3318.5981230088046,1245
3320.2679592121895,1208
3321.9375436975924,1241
3323.606876791612,1233
3325.27595882093,1249
3326.944790112305,1190
3328.6133709925753,1193
3330.2817017886573,1235
3331.949782827547,1269
3333.617614436319,1190
3335.2851969421245,1239
3336.952530672199,1283
3338.619615953853,1228
3340.286453114475,1270
3341.9530424815357,1239
3343.619384382583,1303
3345.2854791452437,1273
3346.951327097224,1289
3348.6169285663073,1236
3350.2822838803577,1242
3351.947393367319,1250
3353.61225735521,1245
3355.2768761721345,1244
3356.9412501462693,1233
3358.605379605873,1285
3360.2692648792827,1236
3361.9329062949146,1270
3363.596304181263,1174
