CollectionTime,6/26/2024 3:23:55 PM
ExposureUsed,3
CalibratedSpectrum
-962.7078968117929,1003
-959.9714848408522,1023
-957.2358232597828,957
-954.5009119013725,1003
-951.7667505983302,1034
-949.0333391832855,1020
-946.3006774887896,1032
-943.5687653473143,1057
-940.837602591253,1060
-938.1071890529199,1075
-935.3775245645503,1070
-932.6486089583007,1075
-929.9204420662485,1098
-927.1930237203925,1042
-924.4663537526524,1070
-921.7404319948689,1082
-919.0152582788041,1063
-916.2908324361409,1087
-913.5671542984834,1100
-910.8442236973568,1125
-908.1220404642074,1079
-905.4006044304027,1065
-902.679915427231,1038
-899.959973285902,1066
-897.2407778375464,1050
-894.5223289132158,1056
-891.8046263438832,1083
-889.0876699604426,1037
-886.3714595937089,1033
-883.6559950744183,1017
-880.9412762332282,1052
-878.2273029007168,1002
-875.5140749073835,1010
-872.8015920836489,1013
-870.0898542598545,991
-867.3788612662631,992
-864.6686129330585,1012
-861.9591090903457,976
-859.2503495681506,948
-856.5423341964203,969
-853.8350628050229,1054
-851.1285352237478,1073
-848.4227512823054,983
-845.7177108103272,985
-843.0134136373656,998
-840.3098595928943,995
-837.6070485063082,1027
-834.9049802069229,993
-832.2036545239757,1012
-829.5030712866244,1065
-826.8032303239481,1094
-824.1041314649472,1012
-821.4057745385428,995
-818.7081593735775,1008
-816.0112857988148,958
-813.3151536429393,1000
-810.6197627345566,964
-807.9251129021936,1025
-805.2312039742981,1002
-802.5380357792392,1003
-799.8456081453069,1019
-797.1539209007124,1001
-794.462973873588,1035
-791.772766891987,1036
-789.083299783884,994
-786.3945723771743,991
-783.7065844996748,979
-781.0193359791231,1020
-778.3328266431781,1042
-775.6470563194197,1055
-772.9620248353489,1049
-770.2777320183878,1013
-767.5941776958798,1048
-764.9113616950891,1112
-762.2292838432011,1082
-759.5479439673222,1053
-756.8673418944801,1025
-754.1874774516235,1034
-751.5083504656222,1063
-748.8299607632671,991
-746.15230817127,1027
-743.475392516264,1067
-740.7992136248035,1088
-738.1237713233636,1078
-735.4490654383407,1098
-732.7750957960521,1116
-730.1018622227365,1124
-727.4293645445534,1126
-724.7576025875837,1078
-722.0865761778291,1047
-719.4162851412126,1108
-716.7467293035781,1082
-714.0779084906909,1161
-711.409822528237,1134
-708.7424712418238,1103
-706.0758544569796,1113
-703.4099719991541,1143
-700.7448236937178,1161
-698.0804093659622,1136
-695.4167288411002,1103
-692.7537819442656,1091
-690.0915685005134,1105
-687.4300883348199,1151
-684.7693412720819,1150
-682.1093271371178,1134
-679.4500457546669,1128
-676.7914969493897,1146
-674.1336805458676,1159
-671.4765963686034,1143
-668.8202442420206,1095
-666.1646239904642,1118
-663.5097354382001,1112
-660.8555784094151,1111
-658.2021527282176,1214
-655.5494582186366,1175
-652.8974947046223,1182
-650.2462620100463,1134
-647.5957599587009,1239
-644.9459883742998,1187
-642.2969470804776,1227
-639.6486359007902,1240
-637.0010546587141,1256
-634.3542031776476,1219
-631.7080812809096,1193
-629.0626887917401,1150
-626.4180255333008,1165
-623.7740913286734,1186
-621.1308860008619,1216
-618.4884093727904,1188
-615.8466612673046,1162
-613.2056415071715,1148
-610.5653499150785,1194
-607.9257863136347,1236
-605.28695052537,1183
-602.6488423727357,1222
-600.0114616781036,1200
-597.3748082637674,1201
-594.7388819519412,1237
-592.1036825647604,1256
-589.4692099242818,1211
-586.8354638524829,1271
-584.2024441712624,1225
-581.5701507024403,1196
-578.9385832677575,1237
-576.3077416888759,1250
-573.6776257873787,1168
-571.0482353847704,1227
-568.4195703024757,1199
-565.7916303618415,1240
-563.164415384135,1246
-560.5379251905453,1214
-557.9121596021815,1251
-555.2871184400748,1230
-552.6628015251767,1192
-550.0392086783606,1264
-547.4163397204204,1213
-544.794194472071,1291
-542.1727727539491,1299
-539.5520743866118,1224
-536.9320991905377,1335
-534.3128469861261,1355
-531.6943175936979,1269
-529.0765108334947,1373
-526.4594265256793,1472
-523.8430644903358,1571
-521.2274245474689,1759
-518.612506517005,1875
-515.9983102187913,2015
-513.3848354725959,2048
-510.77208209810846,2068
-508.16004991493924,2102
-505.5487387426199,2242
-502.9381484006032,2391
-500.3282787082628,2461
-497.71912948489364,2631
-495.1107005497117,2638
-492.5029917218539,2585
-489.8960028203786,2415
-487.28973366426493,2263
-484.68418407241325,2048
-482.07935386364494,1873
-479.47524285670266,1777
-476.87185087025,1694
-474.2691777228715,1717
-471.66722323307334,1614
-469.0659872192821,1582
-466.4654694998459,1659
-463.86566989303384,1565
-461.26658821703614,1567
-458.66822428996414,1544
-456.07057792985,1471
-453.4736489546475,1552
-450.877437182231,1497
-448.28194243039627,1502
-445.68716451686,1559
-443.09310325926003,1514
-440.49975847515555,1508
-437.9071299820263,1469
-435.31521759727354,1483
-432.72402113821954,1514
-430.13354042210767,1538
-427.5437752661022,1527
-424.95472548728867,1560
-422.36639090267386,1537
-419.7787713291855,1527
-417.1918665836721,1561
-414.60567648290385,1549
-412.0202008435715,1596
-409.4354394822874,1588
-406.8513922155845,1502
-404.26805885991723,1605
-401.685439231661,1591
-399.103533147112,1590
-396.522340422488,1565
-393.9418608739278,1630
-391.3620943174908,1560
-388.7830405691583,1517
-386.2046994448317,1474
-383.6270707603344,1402
-381.05015433141045,1318
-378.473949973725,1194
-375.8984575028645,1089
-373.32367673433623,998
-370.74960748356875,955
-368.1762495659117,828
-365.60360279663576,817
-363.03166699093265,784
-360.4604419639154,712
-357.8899275306178,685
-355.32012350599507,600
-352.7510297049233,581
-350.1826459421999,545
-347.61497203254316,585
-345.04800779059235,598
-342.4817530309082,559
-339.91620756797226,548
-337.35137121618743,553
-334.7872437898774,590
-332.22382510328725,528
-329.66111497058273,545
-327.09911320585127,558
-324.53781962310075,559
-321.9772340362607,559
-319.4173562591816,608
-316.8581861056348,656
-314.2997233893127,671
-311.7419679238294,682
-309.1849195227194,666
-306.62857799943856,592
-304.0729431673641,558
-301.51801483979375,544
-298.963792829947,581
-296.41027695096386,604
-293.85746701590574,688
-291.3053628377552,642
-288.7539642294155,622
-286.2032710037115,610
-283.65328297338897,635
-281.1039999511146,727
-278.5554217494762,757
-276.007548180983,693
-273.4603790580651,694
-270.9139141930734,685
-268.3681533982807,695
-265.8230964858798,673
-263.27874326798565,657
-260.7350935566336,662
-258.1921471637804,700
-255.6499039013039,798
-253.10836358100266,759
-250.56752601459698,769
-248.02739101372765,769
-245.48795838995704,836
-242.94922795476816,818
-240.41119951956557,717
-237.8738728956746,888
-235.33724789434166,884
-232.80132432673452,955
-230.2661020039418,1076
-227.73158073697357,1000
-225.19776033676033,843
-222.66464061415422,870
-220.1322213799284,839
-217.60050244477725,846
-215.06948361931552,858
-212.53916471408013,875
-210.00954553952818,841
-207.48062590603843,909
-204.9524056239104,919
-202.4248845033651,853
-199.8980623545441,951
-197.37193898751036,900
-194.84651421224817,851
-192.32178783866232,911
-189.79775967657952,940
-187.27442953574644,901
-184.7517972258321,911
-182.2298625564256,875
-179.7086253370378,1005
-177.18808537710026,1053
-174.66824248596583,1114
-172.14909647290835,1153
-169.6306471471229,1098
-167.11289431772548,989
-164.59583779375328,1089
-162.07947738416453,1185
-159.5638128978386,1198
-157.04884414357605,1206
-154.53457093009854,1329
-152.02099306604828,1174
-149.50811035998936,1193
-146.99592262040665,1238
-144.48442965570587,1205
-141.97363127421409,1139
-139.46352728417958,1262
-136.95411749377126,1351
-134.44540171107985,1576
-131.93737974411636,1444
-129.43005140081357,1406
-126.92341648902493,1429
-124.41747481652521,1542
-121.91222619101006,1514
-119.40767042009657,1410
-116.90380731132257,1405
-114.40063667214702,1545
-111.8981583099503,1774
-109.3963720320337,1735
-106.89527764561933,1374
-104.39487495785067,1500
-101.89516377579241,1790
-99.39614390642998,1804
-96.89781515667039,1749
-94.40017733334128,2115
-91.90323024319173,2240
-89.40697369289148,1952
-86.91140748903172,1777
-84.41653143812482,1867
-81.92234534660395,2043
-79.42884902082358,2055
-76.93604226705907,2047
-74.4439248915071,2114
-71.95249670028534,1946
-69.46175749943245,2327
-66.97170709490854,2544
-64.48234529259423,2789
-61.99367189829195,2817
-59.50568671772464,2918
-57.01838955653636,3249
-54.53178022029283,2964
-52.045858514480074,3083
-49.560624244506016,4097
-47.07607721569923,3976
-44.59221723330904,3740
-42.10904410250669,3410
-39.62655762838392,4682
-37.14475761595372,5747
-34.66364387015028,5892
-32.18321619582866,6010
-29.70347439776515,7062
-27.224418280657005,8852
-24.74604764912317,11704
-22.26836230770266,17040
-19.7913620608565,28849
-17.315046712966478,46783
-14.83941606833514,55706
-12.36446993118659,65039
-9.89020810566592,65039
-7.416630395839093,65039
-4.94373660569363,65039
-2.471526539137585,65039
-6.821210263296962E-13,65039
2.47084320796705,65039
4.941003281093458,65039
7.410480415786196,65039
9.879274808531363,65039
12.347386655893956,65039
14.814816154518212,65039
17.28156350112681,65039
19.74762889252179,65039
22.21301252558385,65039
24.67771459727237,65039
27.141735304626195,65039
29.605074844762612,34371
32.06773341487792,14745
34.52971121224755,9842
36.99100843422559,9808
39.45162527824516,10607
41.91156194181792,11510
44.370818622535126,11904
46.82939551806646,10952
49.287292826160524,11652
51.74451074464503,10614
54.201049471426245,8011
56.65690920448981,5699
59.112090141899785,3964
61.56659248179983,3615
64.02041642241159,3504
66.4735621620365,3340
68.92602989905402,2916
71.37781983192338,2793
73.82893215918205,2989
76.27936707944684,3406
78.72912479141326,3495
81.17820549385567,3259
83.62660938562783,3177
86.07433666566146,2946
88.5213875329681,3503
90.96776218663751,3383
93.41346082583925,3708
95.85848364982041,3056
98.30283085790859,2046
100.7465026495089,2267
103.18949922410604,2541
105.63182078126385,2200
108.07346752062438,2412
110.51443964190923,2426
112.95473734491827,1811
115.39436082953114,1818
117.83331029570547,1923
120.27158594347827,2111
122.7091879729652,1868
125.1461165843615,1467
127.58237197794062,1575
130.01795435405518,1383
132.4528639131364,1389
134.88710085569494,1560
137.32066538231982,1730
139.75355769367923,1531
142.1857779905207,1459
144.61732647366978,1437
147.04820334403132,1507
149.47840880258934,1448
151.90794305040674,1627
154.33680628862487,1751
156.76499871846443,1841
159.19252054122433,1966
161.61937195828352,2174
164.04555317109896,2152
166.47106438120693,2433
168.89590579022217,2772
171.320077599839,2987
173.7435800118302,2872
176.16641322804742,2963
178.58857745042144,3145
181.01007288096173,3299
183.43089972175687,3259
185.85105817497413,3211
188.27054844285988,3274
190.6893707277394,3382
193.10752523201643,3376
195.5250121581745,3701
197.9418317087751,3654
200.3579840864594,3607
202.7734694939469,3523
205.18828813403627,3518
207.6024402096051,3515
210.01592592360964,3456
212.42874547908548,3436
214.84089907914665,3351
217.2523869269868,3368
219.66320922587727,3548
222.0733661791695,3496
224.48285799029293,3356
226.8916848627572,3480
229.29984700014882,3643
231.7073446061355,3554
234.11417788446204,3556
236.520347038953,3673
238.92585227351185,3690
241.33069379212054,3950
243.73487179884035,3902
246.1383864978112,3625
248.541238093252,3592
250.9434267894609,3627
253.34495279081432,3755
255.74581630176783,3735
258.1460175268563,3744
260.54555667069314,3745
262.9444339379703,3705
265.3426495334594,3645
267.7402036620107,3674
270.1370965285529,3525
272.53332833809407,3430
274.9288992957214,3451
277.32380960660055,3443
279.718059475976,3313
282.1116491091717,3318
284.5045787115897,3551
286.89684848871195,3559
289.2884586460981,3495
291.67940938938807,3350
294.0697009242996,3324
296.4593334566299,3232
298.84830719225477,3230
301.23662233712923,3186
303.6242790972866,3259
306.01127767884,3195
308.39761828798066,3302
310.78330113097934,3188
313.16832641418534,3079
315.5526943440269,3166
317.9364051270112,3140
320.3194589697242,2912
322.70185607883093,3026
325.0835966610754,3024
327.4646809232805,2945
329.8451090723478,2976
332.2248813152577,3029
334.6039978590701,2894
336.9824589109231,2999
339.36026467803447,2854
341.7374153677,2854
344.113911187295,2799
346.48975234427337,2832
348.8649390461686,2797
351.2394715005918,2795
353.61334991523415,2765
355.9865744978655,2802
358.35914545633375,2837
360.73106299856715,2706
363.10232733257146,2753
365.47293866643247,2684
367.84289720831396,2724
370.2122031664593,2720
372.5808567491905,2745
374.9488581649083,2708
377.31620762209275,2685
379.6829053293021,2726
382.0489514951745,2737
384.4143463284262,2672
386.7790900378528,2594
389.14318283232853,2599
391.50662492080653,2646
393.86941651231916,2721
396.23155781597745,2638
398.5930490409713,2669
400.9538903965696,2597
403.3140820921202,2650
405.6736243370498,2626
408.03251734086336,2532
410.3907613131465,2555
412.74835646356166,2614
415.10530300185144,2556
417.4616011378372,2581
419.81725108141893,2637
422.1722530425758,2600
424.5266072313656,2441
426.880313857925,2500
429.2333731324701,2595
431.58578526529516,2467
433.9375504667738,2508
436.2886689473588,2435
438.63914091758113,2418
440.9889665880513,2541
443.33814616945835,2527
445.68667987257015,2504
448.03456790823395,2490
450.3818104873759,2501
452.72840782100013,2458
455.07436012019105,2480
457.41966759611057,2503
459.7643304600007,2444
462.10834892318155,2603
464.4517231970525,2510
466.79445349309174,2570
469.1365400228566,2524
471.4779829979826,2485
473.81878263018564,2564
476.15893913125876,2669
478.4984527130747,2690
480.8373235875855,2634
483.17555196682144,2680
485.5131380628919,2766
487.8500820879857,2911
490.1863842543697,3027
492.52204477439034,3353
494.8570638604725,3534
497.1914417251204,3743
499.52517858091653,4043
501.85827464052306,4180
504.19073011668036,4204
506.5225452222086,4084
508.85372017000566,4028
511.18425517304956,3863
513.514150444396,3892
515.8434061971808,4515
518.1720226446176,5184
520.4999999999999,5573
522.8273384766991,5894
525.1540382881666,5998
527.480099647932,5927
529.8055227696037,5070
532.1303078668694,3754
534.454455153496,2938
536.777964843328,2611
539.1008371502907,2524
541.4230722883866,2467
543.744670471698,2409
546.0656319143858,2404
548.3859568306899,2341
550.7056454349294,2297
553.0246979415016,2326
555.3431145648834,2323
557.6608955196306,2365
559.978041020377,2323
562.2945512818363,2339
564.6104265188006,2308
566.9256669461412,2275
569.2402727788082,2283
571.5542442318302,2343
573.8675815203156,2293
576.1802848594508,2330
578.4923544645015,2289
580.8037905508126,2256
583.114593333807,2331
585.4247630289875,2287
587.7342998519354,2299
590.0432040183106,2344
592.3514757438526,2170
594.6591152443794,2240
596.9661227357875,2315
599.2724984340531,2318
601.578242555231,2220
603.8833553154542,2295
606.1878369309362,2361
608.4916876179676,2446
610.7949075929192,2507
613.0974970722403,2302
615.3994562724587,2301
617.7007854101818,2340
620.0014847020951,2328
622.3015543649641,2362
624.6009946156324,2297
626.8998056710224,2311
629.1979877481361,2310
631.4955410640538,2265
633.7924658359349,2281
636.0887622810175,2373
638.3844306166192,2304
640.6794710601358,2327
642.9738838290426,2319
645.2676691408932,2347
647.5608272133207,2342
649.853358264037,2392
652.1452625108324,2364
654.4365401715764,2355
656.7271914642178,2365
659.0172166067838,2293
661.3066158173809,2348
663.5953893141935,2332
665.8835373154867,2399
668.1710600396028,2389
670.4579577049639,2330
672.7442305300709,2325
675.0298787335033,2364
677.3149025339197,2342
679.599302150058,2368
681.8830778007342,2344
684.1662297048437,2311
686.4487580813608,2388
688.7306631493387,2299
691.0119451279091,2434
693.2926042362834,2313
695.5726406937516,2399
697.8520547196814,2393
700.1308465335215,2371
702.4090163547982,2305
704.6865644031171,2426
706.9634908981619,2416
709.2397960596965,2354
711.5154801075631,2353
713.7905432616823,2308
716.0649857420548,2314
718.3388077687592,2356
720.612009561953,2278
722.8845913418733,2327
725.1565533288352,2363
727.427895743234,2383
729.6986188055427,2361
731.9687227363137,2382
734.238207756178,2269
736.5070740858458,2340
738.7753219461066,2357
741.0429515578281,2344
743.3099631419569,2298
745.5763569195191,2407
747.8421331116193,2335
750.1072919394409,2406
752.3718336242467,2313
754.6357583873777,2307
756.8990664502545,2341
759.1617580343765,2399
761.423833361321,2446
763.6852926527457,2333
765.9461361303862,2363
768.206364016058,2414
770.4659765316536,2407
772.7249738991469,2279
774.9833563405886,2357
777.2411240781092,2352
779.4982773339183,2372
781.7548163303044,2399
784.010741289634,2445
786.2660524343538,2574
788.5207499869881,2361
790.7748341701416,2399
793.0283052064964,2385
795.2811633188143,2418
797.5334087299362,2400
799.7850416627813,2421
802.0360623403484,2366
804.2864709857143,2383
806.5362678220353,2337
808.7854530725468,2399
811.0340269605625,2343
813.2819897094754,2432
815.5293415427581,2437
817.77608268396,2396
820.0222133567116,2354
822.2677337847211,2432
824.5126441917765,2381
826.7569448017433,2402
829.0006358385675,2363
831.2437175262731,2389
833.4861900889629,2332
835.7280537508192,2361
837.9693087361026,2386
840.2099552691533,2335
842.4499935743896,2338
844.689423876309,2337
846.9282463994886,2419
849.1664613685833,2413
851.4040690083276,2406
853.6410695435349,2382
855.877463199097,2363
858.1132501999847,2284
860.3484307712487,2295
862.5830051380175,2398
864.8169735254988,2392
867.0503361589791,2370
869.2830932638243,2356
871.5152450654786,2428
873.7467917894654,2362
875.9777336613873,2397
878.2080709069252,2426
880.4378037518389,2459
882.666932421968,2352
884.8954571432301,2457
887.1233781416219,2426
889.3506956432192,2408
891.5774098741766,2457
893.803521060728,2437
896.0290294291852,2443
898.2539352059397,2440
900.4782386174619,2403
902.7019398903011,2365
904.925039251085,2461
907.147536926521,2517
909.3694331433943,2466
911.59072812857,2346
913.8114221089921,2343
916.0315153116827,2328
918.2510079637437,2441
920.4699002923547,2407
922.6881925247761,2316
924.905884888345,2348
927.1229776104793,2402
929.3394709186747,2419
931.555365040506,2400
933.7706602036275,2291
935.9853566357709,2327
938.1994545647489,2393
940.4129542184515,2398
942.6258558248488,2315
944.8381596119883,2364
947.0498658079974,2401
949.2609746410825,2358
951.4714863395287,2316
953.6814011316998,2279
955.8907192460387,2272
958.0994409110671,2309
960.3075663553858,2304
962.5150958076741,2278
964.7220294966913,2285
966.928367651274,2263
969.1341105003388,2248
971.3392582728806,2316
973.5438111979742,2371
975.747769504772,2275
977.9511334225061,2330
980.153903180487,2328
982.3560790081052,2203
984.5576611348289,2207
986.7586497902058,2240
988.9590452038618,2089
991.158847605503,2196
993.3580572249133,2114
995.5566742919558,2113
997.7546990365728,2136
999.952131688785,2093
1002.1489724786926,1920
1004.3452216364743,2025
1006.5408793923874,2066
1008.7359459767691,2091
1010.9304216200343,2101
1013.1243065526781,1993
1015.3176010052733,2022
1017.510305208472,1980
1019.7024193930064,2029
1021.8939437896848,1994
1024.0848786293977,1940
1026.2752241431122,1922
1028.4649805618747,1880
1030.6541481168115,1897
1032.842727039127,1921
1035.0307175601051,1901
1037.2181199111074,1876
1039.4049343235752,1881
1041.591161029029,1914
1043.7768002590683,1931
1045.9618522453698,1867
1048.1463172196918,1920
1050.3301954138697,1853
1052.513487059818,1874
1054.69619238953,1939
1056.8783116350783,1927
1059.0598450286152,1879
1061.2407928023704,1901
1063.4211551886528,1936
1065.6009324198508,1942
1067.780124728432,1881
1069.9587323469414,1852
1072.1367555080046,1792
1074.314194444325,1840
1076.4910493886855,1933
1078.667320573947,1848
1080.843008233051,1792
1083.0181125990161,1865
1085.1926339049414,1800
1087.3665723840027,1828
1089.5399282694575,1810
1091.7127017946405,1787
1093.8848931929647,1799
1096.0565026979243,1729
1098.2275305430899,1789
1100.3979769621128,1703
1102.567842188722,1767
1104.737126456726,1828
1106.9058300000124,1845
1109.0739530525475,1724
1111.2414958483764,1749
1113.4084586216231,1755
1115.5748416064907,1784
1117.7406450372605,1773
1119.9058691482942,1769
1122.0705141740304,1729
1124.2345803489884,1768
1126.3980679077658,1768
1128.5609770850388,1762
1130.7233081155623,1744
1132.8850612341707,1739
1135.0462366757774,1772
1137.2068346753745,1748
1139.3668554680326,1732
1141.526299288901,1720
1143.68516637321,1731
1145.8434569562655,1770
1148.001171273455,1741
1150.158309560244,1655
1152.3148720521767,1669
1154.470858984876,1654
1156.626270594044,1701
1158.7811071154629,1671
1160.9353687849912,1684
1163.089055838569,1667
1165.242168512213,1703
1167.3947070420209,1660
1169.5466716641677,1637
1171.6980626149075,1718
1173.8488801305748,1710
1175.9991244475814,1703
1178.1487958024186,1657
1180.2978944316555,1744
1182.4464205719428,1666
1184.5943744600072,1689
1186.7417563326567,1619
1188.8885664267755,1629
1191.0348049793297,1631
1193.1804722273619,1629
1195.325568407995,1697
1197.4700937584303,1677
1199.614048515948,1630
1201.7574329179074,1649
1203.900247201746,1665
1206.042491604982,1677
1208.1841663652099,1666
1210.3252717201053,1717
1212.465807907422,1671
1214.6057751649923,1693
1216.7451737307279,1599
1218.8840038426192,1678
1221.0222657387353,1672
1223.1599596572241,1710
1225.2970858363137,1698
1227.4336445143094,1725
1229.5696359295966,1697
1231.705060320639,1673
1233.8399179259786,1659
1235.9742089842384,1727
1238.107933734118,1695
1240.2410924143974,1720
1242.373685263935,1701
1244.5057125216676,1640
1246.6371744266116,1692
1248.7680712178621,1707
1250.898403134593,1712
1253.028170416058,1656
1255.1573733015875,1675
1257.2860120305932,1694
1259.4140868425648,1723
1261.54159797707,1617
1263.6685456737569,1700
1265.7949301723515,1678
1267.9207517126597,1743
1270.046010534565,1699
1272.1707068780306,1732
1274.2948409830983,1709
1276.4184130898889,1696
1278.541423438603,1708
1280.6638722695184,1717
1282.785759822993,1785
1284.9070863394636,1719
1287.0278520594447,1818
1289.1480572235314,1721
1291.2677020723963,1783
1293.3867868467923,1779
1295.5053117875495,1761
1297.623277135579,1823
1299.740683131868,1791
1301.8575300174857,1810
1303.973818033578,1849
1306.0895474213703,1841
1308.2047184221678,1823
1310.3193312773528,1791
1312.4333862283888,1837
1314.5468835168163,1835
1316.659823384255,1815
1318.7722060724045,1824
1320.8840318230418,1841
1322.9953008780249,1806
1325.1060134792888,1868
1327.2161698688478,1808
1329.3257702887959,1882
1331.4348149813054,1847
1333.5433041886276,1794
1335.6512381530933,1777
1337.7586171171101,1778
1339.8654413231675,1841
1341.9717110138317,1844
1344.0774264317488,1787
1346.1825878196432,1834
1348.2871954203192,1811
1350.3912494766587,1806
1352.4947502316231,1794
1354.5976979282532,1841
1356.7000928096686,1770
1358.8019351190665,1769
1360.9032250997243,1738
1363.0039629949988,1803
1365.1041490483235,1785
1367.2037835032133,1795
1369.3028666032606,1806
1371.401398592137,1762
1373.4993797135926,1793
1375.5968102114575,1752
1377.6936903296396,1797
1379.7900203121262,1724
1381.8858004029835,1754
1383.9810308463561,1831
1386.075711886469,1839
1388.1698437676241,1822
1390.2634267342032,1799
1392.356461030667,1712
1394.4489469015557,1762
1396.5408845914872,1785
1398.6322743451592,1808
1400.7231164073469,1777
1402.813411022907,1766
1404.903158436773,1778
1406.9923588939578,1852
1409.0810126395531,1891
1411.1691199187303,1819
1413.2566809767386,1793
1415.343696058907,1811
1417.4301654106425,1844
1419.5160892774315,1938
1421.6014679048399,1875
1423.6863015385125,1850
1425.7705904241707,1887
1427.8543348076178,1905
1429.9375349347342,1798
1432.0201910514802,1859
1434.102303403894,1861
1436.1838722380944,1884
1438.2648978002767,1937
1440.3453803367174,1883
1442.4253200937692,1926
1444.5047173178677,1974
1446.5835722555234,1969
1448.6618851533285,2038
1450.739656257952,2009
1452.8168858161434,2023
1454.8935740747306,2103
1456.96972128062,1994
1459.045327680797,2101
1461.120393522327,2079
1463.1949190523528,2100
1465.2689045180973,2112
1467.3423501668608,2123
1469.415256246024,2202
1471.4876230030463,2232
1473.559450685465,2200
1475.6307395408976,2285
1477.7014898170391,2291
1479.771701761665,2369
1481.8413756226287,2352
1483.9105116478618,2456
1485.9791100853772,2403
1488.0471711832643,2427
1490.1146951896926,2564
1492.1816823529098,2507
1494.2481329212433,2487
1496.3140471430984,2513
1498.3794252669609,2604
1500.4442675413939,2666
1502.5085742150404,2775
1504.572345536622,2721
1506.6355817549388,2790
1508.6982831188702,2727
1510.7604498773744,2805
1512.8220822794883,2907
1514.8831805743293,2905
1516.9437450110909,2930
1519.003775839048,3013
1521.0632733075522,2965
1523.1222376660367,3042
1525.1806691640113,3197
1527.2385680510652,3129
1529.2959345768668,3223
1531.3527689911643,3207
1533.4090715437833,3402
1535.4648424846291,3376
1537.5200820636855,3438
1539.5747905310159,3576
1541.6289681367616,3477
1543.6826151311434,3644
1545.7357317644614,3650
1547.7883182870937,3637
1549.8403749494987,3650
1551.8919020022113,3804
1553.9428996958477,3827
1555.9933682811015,3962
1558.0433080087469,4019
1560.0927191296346,4001
1562.1416018946961,4126
1564.1899565549415,4180
1566.2377833614592,4143
1568.2850825654164,4235
1570.3318544180606,3993
1572.3780991707158,3861
1574.423817074788,3824
1576.4690083817595,3650
1578.5136733431923,3533
1580.5578122107272,3377
1582.601425236085,3198
1584.6445126710646,3060
1586.6870747675434,2919
1588.7291117774776,2753
1590.7706239529034,2631
1592.8116115459347,2601
1594.8520748087658,2576
1596.8920139936686,2350
1598.9314293529933,2333
1600.9703211391711,2302
1603.008689604711,2237
1605.0465350022005,2144
1607.0838575843068,2154
1609.1206576037753,2122
1611.1569353134305,2060
1613.1926909661765,1995
1615.2279248149953,1959
1617.2626371129481,1916
1619.2968281131757,1889
1621.3304980688963,1920
1623.3636472334088,1819
1625.39627586009,1841
1627.428384202396,1846
1629.459972513861,1779
1631.4910410480993,1895
1633.5215900588028,1856
1635.551619799744,1839
1637.5811305247717,1848
1639.6101224878166,1769
1641.6385959428862,1743
1643.6665511440683,1786
1645.693988345528,1783
1647.7209078015112,1729
1649.7473097663405,1739
1651.7731944944203,1711
1653.7985622402307,1723
1655.823413258333,1741
1657.847747803366,1745
1659.8715661300494,1700
1661.8948684931793,1732
1663.9176551476316,1721
1665.9399263483624,1720
1667.9616823504057,1751
1669.982923408873,1777
1672.0036497789574,1674
1674.0238617159293,1639
1676.043559475138,1670
1678.0627433120121,1655
1680.081413482059,1668
1682.0995702408654,1687
1684.117213844096,1700
1686.134344547495,1718
1688.1509626068864,1730
1690.1670682781705,1678
1692.182661817329,1662
1694.1977434804217,1706
1696.2123135235875,1663
1698.226372203043,1612
1700.2399197750851,1673
1702.2529564960905,1666
1704.2654826225112,1717
1706.277498410882,1684
1708.2890041178139,1663
1710.2999999999988,1681
1712.3104863142066,1733
1714.3204633172854,1699
1716.329931266163,1642
1718.3388904178469,1652
1720.3473410294214,1661
1722.3552833580516,1664
1724.3627176609807,1674
1726.3696441955308,1653
1728.3760632191033,1681
1730.3819749891782,1664
1732.3873797633146,1629
1734.3922777991502,1690
1736.3966693544012,1613
1738.4005546868639,1607
1740.4039340544127,1677
1742.406807715001,1605
1744.4091759266616,1631
1746.4110389475054,1612
1748.4123970357223,1658
1750.413250449582,1598
1752.4135994474318,1618
1754.4134442876993,1578
1756.4127852288902,1635
1758.4116225295893,1642
1760.4099564484595,1672
1762.407787244244,1630
1764.405115175764,1582
1766.4019405019203,1543
1768.3982634816916,1560
1770.3940843741357,1590
1772.3894034383907,1592
1774.3842209336717,1574
1776.378537119274,1565
1778.372352254571,1561
1780.3656665990156,1623
1782.3584804121397,1610
1784.3507939535534,1599
1786.3426074829463,1585
1788.3339212600863,1608
1790.3247355448211,1574
1792.3150505970766,1579
1794.3048666768573,1593
1796.2941840442477,1544
1798.2830029594106,1572
1800.2713236825884,1561
1802.2591464741004,1539
1804.2464715943465,1487
1806.2332993038058,1579
1808.2196298630352,1518
1810.2054635326708,1611
1812.190800573428,1589
1814.175641246101,1563
1816.1599858115628,1507
1818.1438345307652,1531
1820.127187664738,1545
1822.1100454745924,1592
1824.092408221516,1580
1826.0742761667766,1601
1828.055649571721,1486
1830.0365286977735,1594
1832.0169138064398,1611
1833.9968051593014,1590
1835.9762030180214,1536
1837.9551076443408,1539
1839.9335193000788,1595
1841.9114382471344,1575
1843.888864747485,1570
1845.8657990631878,1565
1847.842241456378,1539
1849.8181921892697,1547
1851.7936515241558,1564
1853.7686197234098,1536
1855.7430970494815,1559
1857.7170837649014,1654
1859.6905801322787,1591
1861.6635864143004,1643
1863.6361028737338,1612
1865.608129773424,1602
1867.5796673762961,1591
1869.5507159453537,1593
1871.521275743678,1547
1873.4913470344313,1571
1875.4609300808534,1562
1877.4300251462632,1626
1879.3986324940588,1606
1881.366752387717,1553
1883.3343850907936,1543
1885.3015308669228,1644
1887.268189979819,1642
1889.2343626932739,1626
1891.2000492711595,1588
1893.1652499774254,1607
1895.1299650761011,1596
1897.0941948312952,1617
1899.0579395071945,1658
1901.0211993680641,1575
1902.98397467825,1643
1904.9462657021745,1618
1906.9080727043415,1580
1908.869395949332,1539
1910.8302357018065,1577
1912.790592226504,1584
1914.7504657882428,1657
1916.7098566519212,1568
1918.6687650825133,1604
1920.6271913450764,1620
1922.5851357047422,1668
1924.5425984267245,1576
1926.499579776314,1623
1928.4560800188833,1554
1930.4120994198802,1583
1932.367638244833,1584
1934.32269675935,1592
1936.2772752291175,1609
1938.231373919899,1606
1940.1849930975404,1594
1942.1381330279637,1550
1944.0907939771696,1646
1946.0429762112412,1660
1947.9946799963363,1563
1949.9459055986945,1631
1951.896653284633,1585
1953.8469233205478,1604
1955.7967159729142,1659
1957.7460315082863,1565
1959.6948701932974,1569
1961.6432322946594,1560
1963.5911180791632,1596
1965.5385278136787,1570
1967.4854617651545,1667
1969.4319202006182,1616
1971.377903387176,1611
1973.3234115920136,1599
1975.268445082395,1576
1977.2130041256642,1601
1979.1570889892423,1552
1981.1006999406304,1607
1983.04383724741,1574
1984.986501177238,1608
1986.928691997853,1614
1988.8704099770712,1573
1990.811655382789,1596
1992.7524284829801,1572
1994.692729545698,1578
1996.6325588390755,1572
1998.5719166313224,1555
2000.5108031907307,1512
2002.4492187856677,1573
2004.387163684583,1535
2006.3246381560011,1592
2008.2616424685298,1548
2010.1981768908527,1536
2012.1342416917332,1591
2014.069837140014,1579
2016.0049635046162,1579
2017.9396210545406,1563
2019.8738100588666,1543
2021.8075307867502,1643
2023.740783507431,1509
2025.6735684902228,1547
2027.6058860045214,1570
2029.5377363198004,1562
2031.4691197056118,1563
2033.4000364315875,1571
2035.3304867674374,1523
2037.260470982952,1542
2039.189989347998,1577
2041.1190421325232,1612
2043.047629606554,1571
2044.9757520401945,1537
2046.9034097036288,1535
2048.8306028671195,1520
2050.7573318010086,1523
2052.683596775716,1485
2054.609398061742,1544
2056.5347359296647,1563
2058.4596106501403,1526
2060.384022493906,1544
2062.3079717317764,1547
2064.231458634646,1578
2066.1544834734873,1568
2068.077046519352,1526
2069.99914804337,1599
2071.9207883167524,1577
2073.8419676107865,1522
2075.7626861968406,1492
2077.6829443463607,1553
2079.6027423308715,1536
2081.522080421977,1531
2083.440958891362,1547
2085.359378010786,1615
2087.2773380520907,1579
2089.194839287196,1593
2091.111881988101,1558
2093.0284664268825,1535
2094.9445928756973,1536
2096.86026160678,1532
2098.775472892446,1557
2100.690227005088,1535
2102.604524217178,1543
2104.5183648012676,1525
2106.431749029985,1523
2108.34467717604,1597
2110.2571495122206,1540
2112.169166311393,1524
2114.080727846503,1541
2115.9918343905747,1502
2117.902486216711,1585
2119.8126835980956,1618
2121.722426807987,1579
2123.6317161197285,1527
2125.5405518067364,1541
2127.448934142509,1508
2129.356863400624,1515
2131.264339854737,1562
2133.1713637785815,1495
2135.077935445972,1540
2136.9840551308002,1556
2138.889723107037,1578
2140.7949396487334,1558
2142.699705030018,1603
2144.6040195250994,1626
2146.507883408264,1556
2148.4112969538774,1534
2150.3142604363848,1561
2152.2167741303097,1572
2154.1188383102535,1512
2156.0204532508997,1523
2157.9216192270064,1546
2159.822336513414,1574
2161.7226053850413,1550
2163.622426116884,1516
2165.5217989840185,1510
2167.4207242616,1558
2169.319202224862,1515
2171.2172331491165,1587
2173.1148173097563,1497
2175.0119549822507,1505
2176.90864644215,1509
2178.8048919650823,1575
2180.7006918267534,1559
2182.596046302952,1488
2184.4909556695407,1564
2186.3854202024645,1507
2188.279440177746,1526
2190.173015871487,1535
2192.066147559868,1566
2193.958835519149,1575
2195.851080025667,1473
2197.7428813558417,1577
2199.6342397861667,1484
2201.5251555932186,1527
2203.415629053651,1548
2205.3056604441986,1574
2207.19525004167,1535
2209.084398122958,1587
2210.9731049650327,1517
2212.861370844941,1545
2214.749196039812,1487
2216.636580826851,1510
2218.523525483344,1524
2220.410030286655,1592
2222.296095514226,1525
2224.1817214435805,1605
2226.066908352319,1502
2227.951656518121,1535
2229.835966218746,1512
2231.71983773203,1573
2233.6032713358913,1540
2235.486267308324,1503
2237.3688259274036,1513
2239.2509474712824,1538
2241.132632218193,1630
2243.013880446447,1594
2244.8946924344323,1557
2246.7750684606203,1604
2248.6550088035574,1503
2250.534513741871,1542
2252.413583554265,1501
2254.292218519526,1536
2256.170418916517,1542
2258.0481850241786,1521
2259.925517121534,1557
2261.8024154876825,1529
2263.678880401803,1525
2265.5549121431536,1573
2267.430510991071,1471
2269.305677224971,1555
2271.180411124348,1564
2273.0547129687766,1512
2274.9285830379076,1580
2276.8020216114737,1535
2278.6750289692845,1522
2280.5476053912294,1568
2282.4197511572766,1543
2284.2914665474727,1549
2286.162751841943,1498
2288.0336073208937,1543
2289.904033264608,1507
2291.774029953448,1485
2293.6435976678554,1568
2295.5127366883517,1557
2297.381447295534,1544
2299.2497297700825,1519
2301.1175843927526,1502
2302.9850114443825,1564
2304.852011205885,1557
2306.7185839582553,1553
2308.5847299825664,1581
2310.4504495599676,1503
2312.3157429716925,1595
2314.1806104990483,1568
2316.0450524234247,1574
2317.9090690262888,1555
2319.772660589186,1589
2321.635827393742,1588
2323.498569721661,1565
2325.3608878547248,1491
2327.2227820747967,1570
2329.0842526638157,1502
2330.945299903803,1564
2332.805924076857,1541
2334.6661254651535,1608
2336.525904350951,1594
2338.3852610165827,1630
2340.244195744464,1613
2342.102708817088,1506
2343.9608005170253,1512
2345.8184711269287,1560
2347.675720929526,1592
2349.532550207628,1571
2351.38895924412,1571
2353.24494832197,1600
2355.100517724223,1568
2356.955667734004,1532
2358.810398634514,1526
2360.664710709037,1627
2362.5186042409337,1640
2364.3720795136437,1591
2366.225136810686,1567
2368.0777764156583,1541
2369.929998612237,1556
2371.7818036841777,1614
2373.633191915315,1546
2375.484163589562,1519
2377.3347189909114,1628
2379.184858403434,1600
2381.03458211128,1588
2382.8838903986775,1590
2384.732783549936,1546
2386.5812618494406,1568
2388.4293255816588,1578
2390.2769750311327,1628
2392.1242104824883,1557
2393.971032220427,1538
2395.8174405297295,1618
2397.6634356952563,1624
2399.509018001947,1619
2401.3541877348193,1590
2403.1989451789705,1627
2405.043290619576,1608
2406.8872243418905,1611
2408.730746631247,1617
2410.5738577730594,1571
2412.4165580528183,1593
2414.258847756095,1633
2416.100727168537,1655
2417.9421965758734,1665
2419.783256263912,1644
2421.623906518538,1608
2423.4641476257157,1628
2425.303979871491,1634
2427.143403541984,1625
2428.9824189233977,1582
2430.821026302012,1633
2432.6592259641866,1612
2434.497018196361,1611
2436.33440328505,1629
2438.171381516851,1647
2440.00795317844,1632
2441.844118556569,1626
2443.6798779380724,1662
2445.5152316098606,1658
2447.3501798589255,1649
2449.1847229723357,1654
2451.0188612372403,1656
2452.8525949408663,1619
2454.6859243705203,1588
2456.518849813587,1631
2458.3513715575314,1602
2460.183489889895,1661
2462.015205098301,1702
2463.8465174704493,1565
2465.67742729412,1640
2467.5079348571717,1605
2469.338040447542,1634
2471.1677443532476,1626
2472.9970468623833,1637
2474.825948263123,1608
2476.6544488437207,1613
2478.482548892508,1653
2480.310248697896,1560
2482.137548548374,1556
2483.9644487325118,1631
2485.790949538956,1632
2487.617051256433,1560
2489.44275417375,1613
2491.26805857979,1624
2493.0929647635157,1695
2494.917473013971,1661
2496.741583620276,1678
2498.5652968716304,1688
2500.3886130573137,1688
2502.2115324666834,1686
2504.0340553891765,1654
2505.856182114308,1654
2507.6779129316733,1633
2509.499248130945,1690
2511.3201880018764,1627
2513.140732834298,1627
2514.9608829181198,1662
2516.780638543331,1702
2518.6,1651
2520.418967578273,1628
2522.237541568376,1607
2524.0557222606144,1664
2525.8735099453706,1658
2527.6909049131086,1657
2529.507907454368,1702
2531.32451785977,1705
2533.140736420014,1711
2534.9565634258774,1688
2536.771999168218,1699
2538.5870439379714,1769
2540.4016980261526,1670
2542.2159617238544,1709
2544.02983532225,1711
2545.8433191125914,1744
2547.656413386209,1636
2549.4691184345115,1779
2551.2814345489874,1763
2553.093362021204,1764
2554.904901142808,1772
2556.716052205523,1716
2558.526815501153,1775
2560.3371913215824,1763
2562.147179958771,1788
2563.956781704761,1870
2565.7659968516705,1813
2567.5748256916986,1768
2569.3832685171224,1792
2571.1913256202984,1840
2572.9989972936614,1766
2574.806283829725,1773
2576.613185521084,1807
2578.4197026604074,1739
2580.2258355404483,1872
2582.031584454035,1875
2583.836949694077,1856
2585.6419315535613,1889
2587.4465303255533,1888
2589.2507463032002,1832
2591.0545797797245,1877
2592.8580310484303,1891
2594.6611004026995,1955
2596.463788135992,1878
2598.266094541849,1901
2600.0680199138874,1877
2601.869564545807,1941
2603.670728731383,1832
2605.4715127644704,1907
2607.2719169390048,1949
2609.071941548998,1958
2610.8715868885433,1954
2612.670853251811,1969
2614.469740933052,1927
2616.268250226594,1880
2618.0663814268455,1972
2619.864134828292,1946
2621.6615107255006,1890
2623.458509413115,1945
2625.2551311858597,1919
2627.0513763385347,1918
2628.8472451660223,1841
2630.6427379632833,1862
2632.4378550253564,1865
2634.232596647359,1904
2636.026963124488,1866
2637.8209547520187,1894
2639.6145718253065,1808
2641.407814639785,1822
2643.200683490966,1875
2644.9931786744414,1820
2646.7853004858807,1769
2648.577049221034,1781
2650.3684251757277,1783
2652.1594286458712,1771
2653.9500599274484,1785
2655.740319316525,1755
2657.5302071092437,1709
2659.3197236018286,1718
2661.10886909058,1748
2662.8976438718782,1730
2664.686048242183,1774
2666.4740824980327,1778
2668.2617469360443,1703
2670.0490418529134,1740
2671.8359675454153,1731
2673.622524310403,1758
2675.408712444811,1733
2677.1945322456495,1692
2678.979984010009,1675
2680.76506803506,1672
2682.5497846180497,1748
2684.334134056306,1667
2686.1181166472343,1687
2687.9017326883213,1689
2689.6849824771293,1665
2691.4678663113013,1655
2693.2503844885596,1693
2695.032537306705,1619
2696.8143250636167,1618
2698.5957480572542,1600
2700.3768065856534,1632
2702.1575009469316,1651
2703.937831439283,1662
2705.717798360982,1671
2707.4974020103837,1627
2709.276642685917,1590
2711.055520686095,1610
2712.834036309506,1582
2714.612189854819,1574
2716.389981620782,1645
2718.1674119062204,1635
2719.944481010041,1620
2721.721189231226,1627
2723.4975368688415,1645
2725.273524222027,1609
2727.0491515900053,1567
2728.824419272075,1620
2730.5993275676146,1633
2732.3738767760838,1519
2734.148067197016,1637
2735.921899130031,1595
2737.6953728748194,1555
2739.468488731156,1601
2741.2412469988926,1545
2743.0136479779617,1520
2744.785691968372,1588
2746.5573792702116,1568
2748.3287101836504,1572
2750.099685008934,1618
2751.870304046388,1568
2753.640567596418,1599
2755.4104759595057,1597
2757.1800294362156,1553
2758.949228327187,1551
2760.7180729331412,1586
2762.486563554877,1602
2764.254700493272,1558
2766.022484049284,1542
2767.789914523947,1606
2769.5569922183786,1504
2771.3237174337705,1570
2773.090090471394,1580
2774.8561116326036,1529
2776.6217812188274,1623
2778.3870995315756,1561
2780.1520668724356,1545
2781.9166835430747,1558
2783.6809498452394,1592
2785.444866080754,1526
2787.2084325515225,1585
2788.971649559527,1561
2790.73451740683,1596
2792.4970363955713,1573
2794.2592068279705,1528
2796.0210290063264,1553
2797.7825032330147,1562
2799.543629810493,1558
2801.304409041296,1566
2803.0648412280366,1578
2804.8249266734088,1566
2806.5846656801846,1582
2808.344058551212,1476
2810.1031055894246,1546
2811.8618070978273,1599
2813.6201633795085,1586
2815.378174737636,1548
2817.1358414754536,1546
2818.893163896285,1523
2820.6501423035334,1578
2822.4067770006814,1532
2824.1630682912883,1533
2825.9190164789957,1542
2827.6746218675207,1523
2829.429884760661,1573
2831.184805462294,1591
2832.9393842763743,1577
2834.693621506936,1574
2836.4475174580916,1608
2838.201072434034,1538
2839.954286739034,1561
2841.707160677441,1534
2843.459694553685,1625
2845.2118886722724,1620
2846.96374333779,1609
2848.7152588549034,1552
2850.4664355283567,1614
2852.217273662973,1596
2853.9677735636546,1535
2855.7179355353833,1563
2857.4677598832186,1531
2859.217246912299,1562
2860.9663969278427,1542
2862.715210235146,1595
2864.4636871395846,1631
2866.211827946614,1590
2867.9596329617652,1573
2869.7071024906536,1584
2871.4542368389684,1578
2873.20103631248,1592
2874.947501217038,1527
2876.6936318585695,1599
2878.4394285430812,1577
2880.1848915766604,1578
2881.9300212654707,1533
2883.6748179157553,1581
2885.4192818338374,1590
2887.1634133261173,1520
2888.907212699077,1580
2890.6506802592744,1570
2892.393816313348,1591
2894.1366211680142,1566
2895.8790951300693,1573
2897.621238506388,1538
2899.363051603925,1574
2901.1045347297118,1563
2902.8456881908596,1527
2904.58651229456,1508
2906.327007348081,1540
2908.067173658772,1606
2909.8070115340597,1569
2911.5465212814497,1552
2913.285703208527,1591
2915.0245576229563,1534
2916.7630848324807,1523
2918.5012851449196,1542
2920.2391588681758,1579
2921.976706310227,1600
2923.7139277791334,1586
2925.4508235830313,1594
2927.187394030137,1536
2928.923639428745,1580
2930.6595600872306,1584
2932.395156314046,1622
2934.1304284177218,1526
2935.8653767068713,1538
2937.6000014901815,1584
2939.3343030764227,1521
2941.068281774442,1552
2942.8019378931644,1570
2944.5352717415976,1581
2946.2682836288236,1552
2948.0009738640065,1600
2949.7333427563885,1587
2951.465390615289,1581
2953.1971177501086,1596
2954.9285244703265,1564
2956.6596110855,1584
2958.3903779052657,1461
2960.1208252393385,1555
2961.8509533975125,1562
2963.5807626896617,1575
2965.3102534257378,1537
2967.0394259157715,1511
2968.768280469873,1584
2970.496817398232,1588
2972.2250370111146,1580
2973.952939618869,1597
2975.6805255319196,1476
2977.4077950607707,1558
2979.134748516006,1564
2980.861386208289,1555
2982.587708448359,1570
2984.313715547037,1593
2986.039407815222,1606
2987.764785563891,1588
2989.489849104102,1638
2991.2145987469908,1592
2992.9390348037705,1603
2994.6631575857346,1574
2996.3869674042576,1570
2998.1104645707887,1555
2999.83364939686,1519
3001.5565221940783,1587
3003.2790832741334,1539
3005.0013329487924,1533
3006.7232715298996,1602
3008.4448993293804,1578
3010.166216659239,1548
3011.887223831558,1540
3013.607921158498,1511
3015.3283089522993,1563
3017.0483875252826,1516
3018.7681571898443,1527
3020.4876182584626,1518
3022.2067710436927,1466
3023.9256158581707,1555
3025.644153014609,1537
3027.362382825801,1588
3029.0803056046193,1531
3030.797921664012,1537
3032.5152313170106,1485
3034.2322348767225,1485
3035.9489326563353,1554
3037.665324969115,1563
3039.3814121284063,1535
3041.097194447633,1624
3042.812672240299,1544
3044.5278458199855,1547
3046.2427155003525,1564
3047.9572815951406,1612
3049.671544418167,1533
3051.38550428333,1605
3053.0991615046073,1564
3054.812516396051,1576
3056.5255692717974,1514
3058.2383204460575,1550
3059.9507702331257,1535
3061.662918947372,1543
3063.3747669032446,1552
3065.0863144152736,1574
3066.7975617980674,1547
3068.508509366309,1592
3070.219157434767,1554
3071.9295063182844,1573
3073.639556331785,1563
3075.3493077902704,1570
3077.058761008821,1568
3078.7679163025964,1592
3080.476773986837,1607
3082.1853343768594,1571
3083.89359778806,1620
3085.6015645359153,1552
3087.3092349359786,1543
3089.016609303884,1583
3090.7236879553434,1618
3092.4304712061476,1556
3094.136959372166,1528
3095.843152769349,1511
3097.5490517137237,1579
3099.2546565213966,1575
3100.959967508554,1544
3102.66498499146,1597
3104.3697092864577,1534
3106.0741407099695,1596
3107.778279578498,1571
3109.482126208622,1577
3111.1856809170004,1519
3112.8889440203716,1568
3114.5919158355528,1543
3116.294596679439,1559
3117.996986869006,1546
3119.6990867213062,1559
3121.4008965534726,1546
3123.102416682717,1635
3124.803647426329,1604
3126.5045891016784,1575
3128.205242026213,1589
3129.90560651746,1572
3131.605682893025,1560
3133.3054714705922,1555
3135.0049725679282,1633
3136.7041865028714,1563
3138.4031135933465,1625
3140.101754157353,1623
3141.800108512971,1582
3143.498176978357,1527
3145.1959598717494,1564
3146.8934575114636,1559
3148.5906702158954,1572
3150.2875983035183,1498
3151.9842420928853,1543
3153.680601902627,1571
3155.376678051456,1622
3157.07247085816,1552
3158.767980641609,1590
3160.463207720748,1588
3162.158152414606,1551
3163.8528150422862,1691
3165.5471959229726,1575
3167.2412953759303,1588
3168.9351137204976,1477
3170.628651276098,1565
3172.3219083622307,1591
3174.014885298474,1555
3175.707582404485,1580
3177.4000000000005,1533
3179.092138404835,1578
3180.7839979388846,1582
3182.47557892212,1603
3184.166881674594,1556
3185.8579065164386,1585
3187.5486537678626,1594
3189.2391237491547,1575
3190.9293167806827,1534
3192.6192331828934,1558
3194.3088732763117,1555
3195.998237381542,1550
3197.687325819268,1560
3199.376138910251,1541
3201.064676975334,1541
3202.7529403354347,1498
3204.4409293115523,1525
3206.1286442247647,1537
3207.816085396229,1566
3209.5032531471825,1518
3211.190147798936,1521
3212.8767696728846,1552
3214.5631190905015,1515
3216.2491963733373,1458
3217.9350018430214,1527
3219.6205358212637,1483
3221.305798629851,1528
3222.990790590651,1483
3224.6755120256103,1486
3226.359963256751,1543
3228.0441446061795,1510
3229.7280563960758,1563
3231.411698948703,1531
3233.0950725863995,1566
3234.778177631587,1528
3236.461014406761,1555
3238.1435832345005,1572
3239.8258844374595,1537
3241.507918338374,1586
3243.1896852600576,1534
3244.8711855254023,1559
3246.552419457381,1500
3248.233387379042,1555
3249.914089613516,1497
3251.59452648401,1506
3253.274698313813,1495
3254.95460542629,1494
3256.6342481448855,1476
3258.313626793125,1542
3259.9927416946084,1540
3261.6715931730196,1494
3263.3501815521176,1471
3265.0285071557437,1459
3266.706570307815,1473
3268.3843713323286,1511
3270.0619105533615,1485
3271.739188295068,1503
3273.4162048816834,1551
3275.0929606375184,1525
3276.769455886966,1474
3278.445690954498,1530
3280.1216661646613,1550
3281.797381842087,1534
3283.4728383114807,1535
3285.1480358976296,1559
3286.8229749253996,1484
3288.4976557197333,1441
3290.172078605655,1462
3291.846243908266,1503
3293.5201519527463,1459
3295.193803064357,1459
3296.8671975684374,1473
3298.5403357904024,1479
3300.21321805575,1444
3301.8858446900567,1509
3303.558216018975,1489
3305.23033236824,1507
3306.9021940636603,1529
3308.57380143113,1530
3310.2451547966184,1541
3311.916254486174,1509
3313.5871008259246,1483
3315.2576941420766,1526
3316.9280347609147,1495
3318.5981230088046,1481
3320.2679592121895,1493
3321.9375436975924,1456
3323.606876791612,1486
3325.27595882093,1475
3326.944790112305,1486
3328.6133709925753,1481
3330.2817017886573,1508
3331.949782827547,1482
3333.617614436319,1495
3335.2851969421245,1483
3336.952530672199,1482
3338.619615953853,1517
3340.286453114475,1519
3341.9530424815357,1469
3343.619384382583,1548
3345.2854791452437,1520
3346.951327097224,1511
3348.6169285663073,1495
3350.2822838803577,1531
3351.947393367319,1470
3353.61225735521,1529
3355.2768761721345,1529
3356.9412501462693,1547
3358.605379605873,1522
3360.2692648792827,1519
3361.9329062949146,1466
3363.596304181263,1512
