CollectionTime,4/2/2024 11:37:13 AM
ExposureUsed,3
CalibratedSpectrum
-994.8464149364308,606
-991.9439705588344,691
-989.042830375826,626
-986.1429931109675,668
-983.2444574887519,731
-980.3472222346043,782
-977.4512860748813,672
-974.5566477368716,649
-971.6633059487953,652
-968.7712594398042,682
-965.8805069399822,642
-962.9910471803447,655
-960.1028788928387,629
-957.2160008103432,645
-954.3304116666687,692
-951.4461101965578,706
-948.5630951356844,655
-945.6813652206545,779
-942.8009191890055,875
-939.9217557792067,744
-937.0438737306594,721
-934.167271783696,712
-931.2919486795813,663
-928.4179031605115,678
-925.5451339696144,687
-922.67363985095,805
-919.8034195495097,786
-916.9344718112166,679
-914.0667953829256,792
-911.2003890124234,746
-908.3352514484286,744
-905.471381440591,741
-902.6087777394928,686
-899.7474390966474,745
-896.8873642645002,777
-894.0285519964284,740
-891.1710010467407,722
-888.3147101706776,691
-885.4596781244115,698
-882.6059036650465,634
-879.7533855506183,632
-876.9021225400943,649
-874.0521133933738,703
-871.2033568712878,710
-868.3558517355991,716
-865.509596749002,830
-862.6645906751228,859
-859.8208322785192,806
-856.9783203246812,829
-854.1370535800299,693
-851.2970308119186,718
-848.4582507886321,724
-845.620712279387,710
-842.7844140543316,688
-839.9493548845461,694
-837.1155335420422,688
-834.2829487997635,678
-831.4515994315852,689
-828.6214842123144,807
-825.7926019176898,790
-822.9649513243819,756
-820.138531209993,755
-817.3133403530569,754
-814.4893775330396,784
-811.6666415303382,759
-808.845131126282,731
-806.0248451031321,760
-803.2057822440808,680
-800.3879413332527,685
-797.5713211557038,797
-794.755920497422,832
-791.941738145327,735
-789.1287728872701,751
-786.3170235120342,810
-783.5064888093341,736
-780.6971675698165,715
-777.8890585850597,690
-775.0821606475735,815
-772.2764725507997,762
-769.4719930891118,713
-766.6687210578151,785
-763.8666552531465,947
-761.0657944722747,1058
-758.2661375133,969
-755.4676831752547,829
-752.6704302581027,729
-749.8743775627395,720
-747.0795238909925,735
-744.285868045621,721
-741.4934088303156,757
-738.702145049699,730
-735.9120755093254,813
-733.123199015681,1016
-730.3355143761836,1062
-727.5490203991826,846
-724.7637158939592,760
-721.9795996707265,726
-719.1966705406293,738
-716.4149273157439,710
-713.6343688090786,722
-710.8549938345734,669
-708.0768012070998,678
-705.2997897424614,777
-702.5239582573931,797
-699.7493055695622,793
-696.9758304975669,825
-694.2035318609377,786
-691.4324084801367,784
-688.6624591765578,760
-685.8936827725265,797
-683.1260780913001,778
-680.3596439570675,821
-677.5943791949499,820
-674.8302826309991,725
-672.0673530922,703
-669.3055894064685,819
-666.5449904026519,871
-663.78555491053,813
-661.0272817608139,776
-658.2701697851465,772
-655.5142178161026,879
-652.7594246871884,862
-650.0057892328422,771
-647.2533102884337,800
-644.5019866902646,795
-641.7518172755683,784
-639.0028008825099,765
-636.254936350186,855
-633.5082225186254,871
-630.7626582287882,830
-628.0182423225665,820
-625.2749736427841,793
-622.5328510331965,865
-619.7918733384909,865
-617.0520394042862,912
-614.3133480771331,862
-611.5757982045143,894
-608.8393886348437,985
-606.1041182174672,1005
-603.3699858026625,1053
-600.6369902416393,1037
-597.9051303865383,991
-595.1744050904326,1003
-592.4448132073267,1120
-589.7163535921568,1133
-586.9890251007912,1002
-584.2628265900296,896
-581.5377569176036,944
-578.8138149421764,992
-576.090999523343,986
-573.3693095216302,922
-570.6487437984965,931
-567.9293012163321,1056
-565.210980638459,1045
-562.4937809291307,975
-559.7777009535329,950
-557.0627395777825,988
-554.3488956689287,994
-551.6361680949519,1064
-548.9245557247644,1070
-546.2140574282107,1181
-543.5046720760662,1208
-540.7963985400388,1158
-538.0892356927677,1105
-535.3831824078238,1175
-532.6782375597103,1293
-529.9744000238613,1384
-527.2716686766433,1395
-524.5700423953542,1670
-521.8695200582238,1521
-519.1701005444136,1484
-516.4717827340166,1561
-513.7745655080581,1758
-511.0784477484944,1944
-508.38342833821423,1989
-505.68950616103757,2103
-502.9966801017163,2220
-500.3049490459341,2266
-497.61431188030633,2091
-494.9247674923801,1778
-492.2363147706342,1481
-489.54895260447927,1390
-486.86267988425755,1371
-484.1774955012431,1457
-481.4933983476417,1559
-478.8103873165908,1340
-476.1284613021596,1220
-473.44761919934945,1185
-470.7678599040928,1250
-468.089182313254,1307
-465.4115853246294,1362
-462.735067836947,1348
-460.0596287498663,1391
-457.3852669639789,1161
-454.71198138080774,1020
-452.03977090280773,1069
-449.3686344333656,1095
-446.69857087679964,1209
-444.02957913835996,1300
-441.36165812422837,1278
-438.6948067415183,1258
-436.0290238982752,1188
-433.36430850347597,1126
-430.7006594670296,1202
-428.0380756997763,1261
-425.3765561134885,1302
-422.7160996208702,1275
-420.0567051355571,1390
-417.3983715721164,1381
-414.7410978460475,1257
-412.08488287378145,1336
-409.4297255726806,1303
-406.77562486103955,1138
-404.1225796580843,1156
-401.4705888839728,1045
-398.8196514597947,949
-396.1697663075713,1046
-393.5209323502555,1033
-390.8731485117323,860
-388.22641371681823,925
-385.5807268912615,1136
-382.93608696174226,1051
-380.29249285587207,846
-377.64994350219456,846
-375.0084378301849,931
-372.36797477025016,855
-369.7285532537287,915
-367.0901722128914,969
-364.45283058094014,919
-361.8165272920089,926
-359.1812612811634,850
-356.54703148440103,673
-353.9138368386507,657
-351.28167628177346,837
-348.6505487525617,1009
-346.02045319074,907
-343.3913885369643,838
-340.76335373282245,907
-338.1363477208339,928
-335.5103694444499,990
-332.8854178480535,995
-330.26149187695944,962
-327.63859047741425,828
-325.016712596596,746
-322.3958571826148,724
-319.77602318451227,806
-317.15720955226186,820
-314.5394152367686,846
-311.9226391898695,785
-309.3068803643333,877
-306.69213771386023,1125
-304.0784101930824,1324
-301.4656967575635,1234
-298.8539963637994,1071
-296.2433079692172,1061
-293.6336305321761,1110
-291.02496301196675,1027
-288.41730436881176,1173
-285.81065356386534,1092
-283.2050095592135,983
-280.60037131787396,1437
-277.9967378037961,1772
-275.39410798186134,1431
-272.7924808178824,1408
-270.19185527860407,1461
-267.5922303317028,1284
-264.9936049457866,1381
-262.3959780903955,1363
-259.79934873600087,1442
-257.2037158540064,1398
-254.6090784167469,1492
-252.01543539748934,1650
-249.42278577043237,1217
-246.8311285107061,1154
-244.24046259437262,1259
-241.6507869984256,1306
-239.0621007007909,1288
-236.4744026803254,1452
-233.88769191681808,1479
-231.30196739098994,1430
-228.7172280844934,1261
-226.13347297991243,1350
-223.550701060763,1598
-220.9689113114929,1461
-218.3881027174814,1251
-215.8082742650397,1531
-213.22942494141068,1955
-210.65155373476898,2325
-208.07465963422078,2188
-205.49874162980439,1997
-202.92379871248932,2145
-200.34982987417743,2071
-197.7768341077018,1706
-195.20481040682762,1264
-192.63375776625162,1305
-190.0636751816021,1470
-187.49456164943945,1533
-184.92641616725564,1683
-182.3592377334743,1821
-179.79302534745102,1847
-177.2277780094729,2017
-174.66349472075865,2038
-172.10017448345923,2168
-169.5378163006569,2056
-166.97641917636565,1777
-164.41598211553162,2059
-161.8565041240322,2499
-159.29798420867678,2488
-156.74042137720642,2320
-154.18381463829382,2237
-151.6281630015436,2154
-149.07346547749228,1926
-146.51972107760753,1701
-143.96692881428908,1958
-141.41508770086864,2324
-138.86419675160937,2248
-136.31425498170609,1977
-133.7652614072856,2130
-131.21721504540642,2186
-128.67011491405844,2480
-126.12396003216395,3181
-123.57874941957618,4047
-121.03448209708074,3552
-118.49115708639465,2969
-115.94877341016684,3217
-113.40733009197788,3410
-110.86682615633993,3136
-108.32726062869733,2931
-105.78863253542556,3802
-103.25094090383243,5337
-100.71418476215695,5027
-98.17836313957025,4511
-95.64347506617503,3944
-93.10951957300585,3562
-90.57649569202886,3815
-88.04440245614194,3893
-85.51323889917478,4446
-82.98300405588896,4762
-80.45369696197747,6222
-77.925316654065,8059
-75.39786216970867,10554
-72.87133254739649,12623
-70.34572682654857,15403
-67.82104404751692,17281
-65.29728325158499,23550
-62.774443480968216,29812
-60.252523778813384,36202
-57.73152318919938,42666
-55.21144075713676,41829
-52.69227552856796,36648
-50.17402655036665,37236
-47.65669287033859,29587
-45.14027353722133,22851
-42.624767600684095,30512
-40.11017411132775,38827
-37.59649212068507,45629
-35.08372068122037,54406
-32.57185884632963,59579
-30.06090567034107,50979
-27.550860208513996,52822
-25.04172151704006,61991
-22.533488653042014,65042
-20.02616067457484,65042
-17.51973664062507,65042
-15.014215611111126,65042
-12.509596646882983,65042
-10.005878809722162,65042
-7.503061162342419,65042
-5.001142768389059,65042
-2.5001226924387083,65042
-3.410605131648481E-13,65042
2.49922624248552,65042
4.997556967646801,65042
7.494993107179766,65042
9.99153559184856,65042
12.487185351485778,65042
14.98194331499235,65042
17.475810410337544,65042
19.96878756455851,65042
22.46087570376085,65042
24.952075753118834,38702
27.442388636874625,13790
29.93181527833849,9812
32.42035659988892,9136
34.90801352297353,13028
37.39478696810693,12132
39.880677854873056,12568
42.36568710192364,10588
44.8498156269784,9545
47.33306434682618,10124
49.815434177322686,9060
52.296926033393675,9510
54.77754082903198,8771
57.25727947729865,10148
59.736142890323435,10031
62.214131979304284,6617
64.6912476545076,4786
67.16749082526735,3920
69.64286239998614,3469
72.11736328613551,4125
74.59099439025431,4724
77.06375661794982,5576
79.53565087389825,5023
82.0066780618431,4514
84.4768390845968,3666
86.94613484403999,3738
89.41456624112152,5695
91.88213417585825,5782
94.34883954733527,4026
96.81468325370679,3563
99.2796661921941,3001
101.74378925908763,3438
104.20705334974559,3651
106.66945935859462,4107
109.1310081791296,4090
111.59170070391383,5377
114.05153782457865,5164
116.5105204318238,3369
118.96864941541708,3269
121.42592566419489,4373
123.88235006606146,4398
126.3379235079899,3706
128.79264687602085,3218
131.2465210552641,3172
133.69954692989631,3193
136.15172538316415,3911
138.60305729738116,3608
141.05354355393,2988
143.50318503326116,2958
145.95198261489327,2845
148.39993717741368,2865
150.84704959847772,3415
153.29332075480897,4138
155.73875152219944,4370
158.18334277550935,3943
160.62709538866693,3454
163.0700102346691,3221
165.51208818558075,3227
167.953330112535,3437
170.39373688573346,3102
172.8333093744459,3265
175.2720484470101,3265
177.70995497083277,3531
180.14702981238815,4266
182.58327383721917,3967
185.01868790993672,3631
187.45327289422062,3533
189.88702965281777,3187
192.31995904754444,3117
194.75206193928489,3555
197.18333918799135,3459
199.61379165268454,3283
202.04342019145315,3364
204.4722256614548,3446
206.90020891891436,3654
209.32737081912592,3590
211.7537122164515,3289
214.17923396432116,3259
216.6039369152336,3470
219.0278219207553,3414
221.45088983152186,3421
223.8731414972358,3464
226.29457776666914,3245
228.71519948766172,3276
231.1350075071216,3408
233.55400267102482,3498
235.97218582441633,3554
238.38955781140908,3351
240.806119475184,3441
243.2218716579905,3583
245.6368152011462,3558
248.05095094503736,3588
250.46427972911806,3631
252.87680239191036,3481
255.28851977100544,3580
257.69943270306203,3548
260.10954202380753,3127
262.5188485680378,3185
264.92735316961557,3542
267.33505666147425,3555
269.7419598756128,3449
272.14806364310084,3411
274.5533687940747,3237
276.95787615773975,3142
279.361586562369,3214
281.7645008353045,3087
284.1666198029559,3114
286.5679442908013,3152
288.96847512338695,3221
291.3682131243279,3283
293.7671591163071,3329
296.1653139210757,3288
298.562678359453,3287
300.9592532513268,3201
303.3550394156532,3391
305.75003767045655,3177
308.14424883282936,3247
310.53767371893196,3293
312.93031314399377,3078
315.3221679223125,2870
317.71323886725304,2932
320.1035267912496,2871
322.49303250580397,2878
324.881756821487,2798
327.2697005479374,2773
329.65686449386135,2730
332.0432494670347,2934
334.4288562743004,2949
336.81368572157066,2849
339.19773861382487,2724
341.58101575511205,2736
343.96351794854786,2690
346.3452459963173,2569
348.72620069967365,2657
351.1063828589379,2827
353.48579327349967,2924
355.8644327418169,2796
358.24230206141533,2728
360.6194020288899,2749
362.99573343990255,2568
365.3712970891845,2638
367.7460937705348,2487
370.12012427682066,2575
372.493389399978,2508
374.86588993101077,2549
377.23762665999084,2482
379.6086003760588,2465
381.9788118674235,2446
384.34826192136165,2461
386.7169513242188,2507
389.08488086140824,2481
391.4520513174118,2562
393.8184634757795,2529
396.1841181191296,2662
398.54901602914856,2768
400.9131579865916,2710
403.2765447712811,2665
405.63917716210926,2648
408.00105593703483,2659
410.36218187308646,2452
412.7225557463596,2424
415.0821783320191,2381
417.4410504042976,2403
419.79917273649585,2365
422.1565461009834,2483
424.5131712691973,2389
426.869049011643,2481
429.22418009789544,2532
431.578565296596,2369
433.9322053754556,2312
436.28510110125285,2304
438.6372532398352,2280
440.98866255611733,2300
443.33932981408293,2325
445.6892557767842,2378
448.0384412063411,2302
450.38688686394175,2482
452.7345935098431,2526
455.0815619033697,2483
457.42779280291506,2412
459.7732869659403,2538
462.1180451489754,2521
464.4620681076178,2516
466.80535659653424,2372
469.1479113694588,2411
471.48973317919445,2595
473.8308227776122,2610
476.17118091565135,2794
478.51080834331924,2718
480.8497058096914,2777
483.1878740629122,3035
485.5253138501944,3072
487.8620259178176,3116
490.1980110111317,3592
492.53326987455307,3619
494.86780325156724,3854
497.201611884728,4065
499.53469651565683,4234
501.8670578850447,4071
504.1986967326493,4093
506.52961379729754,3847
508.85980981688454,3530
511.18928552837315,3436
513.5180416677952,3328
515.8460789702503,3379
518.1733981699067,4054
520.5,4998
522.8258851928354,5231
525.1510544797857,4878
527.4755085912916,4442
529.7992482568625,3878
532.1222742050759,3206
534.4445871635783,2747
536.766187859083,2401
539.0870770173726,2350
541.4072553632982,2329
543.7267236207783,2211
546.0454825128002,2255
548.363532761419,2272
550.6808750877592,2305
552.9975102120118,2246
555.3134388534377,2222
557.6286617303654,2167
559.9431795601911,2308
562.2569930593802,2285
564.570102943466,2274
566.88250992705,2411
569.1942147238021,2171
571.5052180464602,2150
573.8155206068309,2228
576.1251231157885,2444
578.4340262832759,2298
580.7422308183045,2216
583.0497374289534,2113
585.3565468223703,2183
587.6626597047714,2245
589.9680767814409,2120
592.2727987567309,2070
594.5768263340624,2197
596.8801602159238,2128
599.1828011038731,2119
601.4847496985356,2157
603.7860066996047,2181
606.0865728058427,2178
608.3864487150802,2139
610.6856351242152,2116
612.9841327292149,2124
615.2819422251141,2141
617.5790643060163,2123
619.8754996650935,2144
622.1712489945849,2069
624.466312985799,2153
626.7606923291121,2074
629.0543877139692,2171
631.347399828883,2271
633.6397293614343,2196
635.9313769982732,2117
638.2223434251173,2104
640.5126293267522,2161
642.8022353870326,2072
645.0911622888809,2134
647.3794107142876,2165
649.666981344312,2159
651.9538748590815,2116
654.2400919377915,2252
656.525633258706,2160
658.8104994991568,2143
661.0946913355442,2265
663.3782094433375,2243
665.6610544970729,2222
667.9432271703561,2215
670.22472813586,2135
672.5055580653268,2251
674.7857176295659,2278
677.065207498456,2214
679.3440283409432,2171
681.6221808250425,2115
683.899665617837,2088
686.1764833854772,2177
688.4526347931837,2143
690.7281205052436,2213
693.0029411850135,2269
695.2770974949171,2229
697.5505900964474,2199
699.8234196501651,2237
702.0955868156989,2122
704.3670922517472,2150
706.6379366160747,2132
708.9081205655159,2129
711.1776447559728,2208
713.4465098424155,2207
715.714716478883,2187
717.9822653184822,2194
720.2491570133882,2312
722.5153922148452,2194
724.7809715731639,2170
727.0458957377248,2123
729.3101653569763,2036
731.5737810784346,2068
733.8367435486853,2139
736.0990534133803,2206
738.3607113172418,2266
740.6217179040591,2147
742.8820738166899,2276
745.1417796970607,2205
747.4008361861659,2231
749.6592439240678,2140
751.9170035498973,2232
754.1741157018539,2361
756.4305810172048,2289
758.686400132286,2195
760.9415736825013,2189
763.196102302323,2239
765.4499866252911,2238
767.7032272840152,2324
769.9558249101717,2258
772.207780134506,2259
774.4590935868323,2371
776.7097658960313,2454
778.9597976900541,2410
781.2091895959184,2319
783.457942239711,2208
785.7060562465867,2158
787.9535322407687,2296
790.2003708455488,2362
792.4465726832861,2294
794.6921383754088,2396
796.9370685424128,2366
799.1813638038632,2412
801.4250247783918,2374
803.6680520837006,2250
805.9104463365579,2341
808.1522081528019,2336
810.393338147338,2330
812.6338369341406,2189
814.8737051262517,2224
817.1129433357819,2282
819.35155217391,2242
821.5895322508834,2187
823.8268841760168,2178
826.0636085576946,2196
828.2997060033681,2272
830.535177119558,2139
832.7700225118522,2183
835.0042427849078,2195
837.2378385424493,2294
839.4708103872701,2194
841.7031589212318,2225
843.9348847452643,2209
846.1659884593648,2376
848.3964706626004,2231
850.6263319531054,2296
852.8555729280824,2225
855.0841941838025,2250
857.3121963156052,2231
859.5395799178978,2190
861.7663455841566,2257
863.9924939069251,2366
866.2180254778159,2392
868.4429408875103,2270
870.6672407257561,2278
872.890925581371,2290
875.1139960422404,2249
877.336452695318,2295
879.5582961266261,2347
881.7795269212543,2339
884.0001456633613,2398
886.2201529361741,2378
888.4395493219874,2351
890.6583354021648,2385
892.8765117571375,2321
895.094078966405,2249
897.3110376085365,2352
899.5273882611671,2317
901.7431315010019,2290
903.958267903814,2185
906.1727980444443,2218
908.3867224968019,2194
910.6000418338647,2253
912.8127566276792,2257
915.0248674493587,2428
917.2363748690857,2381
919.4472794561113,2271
921.6575817787543,2296
923.867282404402,2172
926.0763818995099,2079
928.2848808296014,2149
930.4927797592693,2166
932.700079252173,2130
934.9067798710416,2176
937.112882177672,2191
939.3183867329287,2100
941.5232940967453,2119
943.727604828124,2181
945.9313194851336,2143
948.1344386249132,2018
950.3369628036685,2259
952.5388925766747,2206
954.7402284982745,2158
956.9409711218789,2090
959.1411209999676,2041
961.3406786840883,2125
963.5396447248565,2132
965.7380196719573,2117
967.9358040741427,2183
970.1329984792335,2136
972.3296034341188,2122
974.5256194847555,2066
976.72104717617,2051
978.9158870524552,2074
981.1101396567742,2070
983.3038055313566,2049
985.4968852175009,2079
987.6893792555747,2051
989.8812881850124,2091
992.072612544318,2004
994.263352871063,2044
996.453509701887,2066
998.6430835724984,2034
1000.832075017674,1979
1003.0204845712583,1850
1005.208312766164,1870
1007.3955601343728,1915
1009.5822272069338,1937
1011.7683145139652,1874
1013.9538225846525,1918
1016.1387519472505,1864
1018.3231031290818,1938
1020.5068766565371,1816
1022.6900730550753,1998
1024.872692849224,1991
1027.054736562579,1935
1029.2362047178037,1818
1031.4170978366305,1780
1033.5974164398597,1835
1035.7771610473603,1822
1037.9563321780693,1886
1040.1349303499917,1758
1042.3129560802006,1813
1044.490409884838,1807
1046.667292279115,1760
1048.8436037773079,1755
1051.0193448927644,1800
1053.1945161378994,1794
1055.3691180241954,1895
1057.5431510622038,1840
1059.7166157615447,1801
1061.8895126309053,1819
1064.0618421780423,1753
1066.2336049097798,1818
1068.4048013320107,1805
1070.5754319496955,1753
1072.745497266863,1684
1074.9149977866118,1709
1077.0839340111065,1765
1079.2523064415818,1727
1081.4201155783398,1756
1083.587361920751,1679
1085.7540459672537,1699
1087.9201682153553,1749
1090.0857291616308,1719
1092.2507293017238,1601
1094.4151691303464,1654
1096.579049141279,1677
1098.7423698273687,1647
1100.9051316805335,1691
1103.0673351917571,1650
1105.2289808510936,1686
1107.3900691476633,1746
1109.550600569657,1725
1111.710575604332,1750
1113.8699947380146,1658
1116.028858456099,1636
1118.1871672430489,1660
1120.344921582394,1674
1122.5021219567334,1666
1124.6587688477362,1702
1126.8148627361365,1588
1128.9704041017399,1635
1131.1253934234173,1695
1133.2798311791098,1653
1135.4337178458263,1713
1137.5870538996437,1674
1139.7398398157075,1658
1141.8920760682313,1627
1144.0437631304972,1623
1146.1949014748543,1628
1148.3454915727225,1650
1150.4955338945874,1645
1152.6450289100044,1627
1154.7939770875969,1727
1156.9423788950558,1669
1159.0902347991405,1753
1161.2375452656802,1667
1163.3843107595703,1700
1165.530531744775,1623
1167.6762086843282,1681
1169.8213420403304,1631
1171.9659322739503,1651
1174.1099798454266,1706
1176.2534852140639,1633
1178.3964488382376,1649
1180.538871175389,1671
1182.680752682029,1705
1184.8220938137365,1614
1186.9628950251595,1604
1189.103156770012,1613
1191.2428795010783,1718
1193.3820636702108,1640
1195.5207097283287,1683
1197.6588181254215,1595
1199.7963893105457,1630
1201.9334237318253,1550
1204.0699218364548,1652
1206.2058840706954,1709
1208.3413108798773,1610
1210.476202708397,1610
1212.6105599997222,1666
1214.7443831963874,1636
1216.877672739995,1587
1219.0104290712165,1636
1221.1426526297905,1728
1223.2743438545253,1628
1225.4055031832972,1673
1227.5361310530493,1673
1229.6662278997946,1740
1231.7957941586142,1653
1233.9248302636565,1643
1236.053336648139,1586
1238.1813137443464,1661
1240.3087619836338,1643
1242.4356817964222,1623
1244.5620736122019,1743
1246.6879378595318,1667
1248.813274966039,1616
1250.938085358418,1638
1253.062369462432,1708
1255.186127702913,1688
1257.3093605037611,1673
1259.4320682879434,1714
1261.554251477498,1681
1263.6759104935277,1733
1265.797045756206,1604
1267.9176576847744,1784
1270.0377466975428,1742
1272.1573132118879,1649
1274.2763576442567,1659
1276.394880410162,1723
1278.5128819241877,1701
1280.6303625999835,1763
1282.7473228502695,1694
1284.8637630868325,1702
1286.9796837205272,1747
1289.0950851612783,1745
1291.209967818078,1725
1293.3243320989864,1762
1295.4381784111324,1827
1297.551507160712,1829
1299.6643187529912,1782
1301.776613592303,1745
1303.888392082049,1778
1305.9996546246998,1786
1308.1104016217923,1760
1310.220633473934,1825
1312.3303505807999,1833
1314.4395533411316,1801
1316.5482421527418,1714
1318.6564174125092,1738
1320.7640795163816,1725
1322.8712288593752,1779
1324.9778658355744,1776
1327.0839908381313,1731
1329.1896042592675,1777
1331.2947064902714,1786
1333.3992979215009,1771
1335.503378942381,1850
1337.6069499414057,1810
1339.7100113061383,1729
1341.8125634232074,1784
1343.9146066783128,1767
1346.0161414562212,1760
1348.1171681407677,1782
1350.2176871148563,1790
1352.3176987604575,1789
1354.4172034586127,1792
1356.5162015894289,1729
1358.6146935320835,1719
1360.7126796648213,1754
1362.8101603649548,1726
1364.9071360088656,1726
1367.0036069720036,1755
1369.099573628886,1649
1371.195036353099,1710
1373.2899955172975,1749
1375.3844514932039,1776
1377.4784046516088,1673
1379.5718553623715,1673
1381.6648039944193,1723
1383.7572509157485,1746
1385.8491964934224,1780
1387.9406410935735,1715
1390.0315850814022,1702
1392.122028821177,1738
1394.2119726762357,1809
1396.3014170089828,1727
1398.3903621808918,1727
1400.4788085525051,1698
1402.566756483432,1666
1404.6542063323514,1685
1406.7411584570095,1724
1408.8276132142219,1745
1410.9135709598704,1738
1412.9990320489078,1722
1415.083996835353,1737
1417.1684656722937,1693
1419.2524389118867,1687
1421.3359169053565,1691
1423.4189000029946,1743
1425.5013885541634,1732
1427.5833829072913,1711
1429.664883409876,1668
1431.7458904084833,1678
1433.8264042487467,1652
1435.9064252753697,1651
1437.9859538321216,1677
1440.0649902618416,1756
1442.1435349064373,1737
1444.2215881068837,1768
1446.2991502032237,1721
1448.37622153457,1766
1450.452802439103,1705
1452.5288932540698,1775
1454.604494315788,1795
1456.6796059596427,1764
1458.7542285200866,1805
1460.8283623306415,1724
1462.902007723897,1692
1464.9751650315106,1761
1467.0478345842089,1797
1469.1200167117868,1761
1471.1917117431062,1699
1473.2629200060992,1777
1475.333641827764,1793
1477.4038775341692,1721
1479.4736274504498,1732
1481.5428919008104,1770
1483.6116712085222,1745
1485.6799656959279,1869
1487.7477756844346,1800
1489.8151014945201,1772
1491.88194344573,1730
1493.9483018566775,1755
1496.0141770450455,1768
1498.0795693275822,1742
1500.1444790201076,1684
1502.2089064375086,1702
1504.2728518937402,1712
1506.3363157018239,1809
1508.3992981738534,1735
1510.4617996209872,1803
1512.5238203534536,1751
1514.5853606805495,1766
1516.6464209106384,1828
1518.7070013511543,1796
1520.7671023085973,1845
1522.8267240885375,1800
1524.885866995612,1821
1526.9445313335268,1751
1529.002717405056,1842
1531.0604255120425,1886
1533.1176559553965,1812
1535.1744090350971,1782
1537.2306850501914,1799
1539.2864842987956,1828
1541.3418070780922,1816
1543.396653684334,1807
1545.4510244128405,1838
1547.5049195580013,1875
1549.5583394132727,1898
1551.61128427118,1942
1553.6637544233158,1856
1555.7157501603415,1884
1557.7672717719888,1927
1559.8183195470538,2018
1561.8688937734037,1948
1563.9189947379737,1876
1565.9686227267657,1912
1568.0177780248514,1931
1570.0664609163696,1908
1572.1146716845292,1882
1574.162410611605,1890
1576.2096779789413,1920
1578.2564740669518,1881
1580.3027991551157,1881
1582.3486535219831,1792
1584.3940374451709,1838
1586.4389512013645,1781
1588.4833950663178,1817
1590.5273693148533,1785
1592.5708742208603,1747
1594.6139100572982,1794
1596.6564770961936,1701
1598.698575608642,1772
1600.7402058648063,1739
1602.7813681339185,1768
1604.8220626842776,1778
1606.8622897832533,1724
1608.9020496972812,1741
1610.9413426918663,1803
1612.9801690315808,1841
1615.018528980066,1732
1617.056422800033,1726
1619.0938507532578,1788
1621.1308131005876,1747
1623.1673101019355,1743
1625.2033420162848,1801
1627.2389091016862,1760
1629.274011615259,1774
1631.3086498131897,1730
1633.3428239507352,1782
1635.376534282219,1787
1637.4097810610324,1712
1639.4425645396364,1822
1641.4748849695593,1739
1643.5067426013989,1722
1645.53813768482,1699
1647.5690704685549,1772
1649.5995412004067,1784
1651.6295501272452,1739
1653.6590974950086,1828
1655.6881835487025,1729
1657.7168085324029,1803
1659.7449726892523,1724
1661.772676261462,1736
1663.7999194903114,1791
1665.8267026161484,1782
1667.8530258783894,1678
1669.8788895155185,1722
1671.9042937650888,1741
1673.9292388637205,1689
1675.953725047103,1732
1677.977752549994,1773
1680.0013216062184,1765
1682.0244324486712,1702
1684.0470853093134,1706
1686.0692804191767,1806
1688.0910180083588,1667
1690.1122983060268,1725
1692.1331215404175,1721
1694.1534879388319,1768
1696.173397727644,1792
1698.1928511322926,1790
1700.211848377286,1763
1702.2303896862018,1800
1704.248475281684,1811
1706.2661053854458,1823
1708.2832802182684,1818
1710.300000000002,1797
1712.3162649495644,1747
1714.3320752849409,1686
1716.3474312231865,1695
1718.362332980424,1700
1720.376780771845,1726
1722.3907748117072,1740
1724.4043153133393,1696
1726.4174024891367,1734
1728.4300365505628,1789
1730.442217708151,1731
1732.4539461715008,1721
1734.465222149282,1733
1736.4760458492306,1785
1738.4864174781524,1729
1740.496337241921,1728
1742.5058053454786,1721
1744.5148219928346,1784
1746.523387387068,1716
1748.531501730325,1721
1750.5391652238209,1747
1752.5463780678388,1734
1754.55314046173,1776
1756.5594526039135,1739
1758.565314691879,1735
1760.5707269221812,1812
1762.5756894904443,1715
1764.580202591363,1827
1766.5842664186966,1793
1768.5878811652751,1694
1770.591047022996,1761
1772.593764182825,1826
1774.5960328347965,1671
1776.5978531680116,1746
1778.5992253706427,1703
1780.6001496299273,1741
1782.6006261321731,1710
1784.6006550627553,1721
1786.6002366061175,1752
1788.5993709457725,1804
1790.5980582642992,1756
1792.5962987433468,1757
1794.5940925636314,1772
1796.5914399049389,1690
1798.5883409461221,1727
1800.584795865102,1769
1802.580804838869,1789
1804.5763680434807,1745
1806.571485654064,1731
1808.566157844813,1748
1810.5603847889902,1748
1812.5541666589274,1762
1814.5475036260236,1728
1816.5403958607467,1784
1818.5328435326323,1756
1820.5248468102845,1844
1822.5164058613755,1785
1824.5075208526468,1736
1826.4981919499064,1721
1828.488419318032,1804
1830.4782031209684,1707
1832.4675435217305,1690
1834.4564406823993,1764
1836.4448947641258,1792
1838.432905927128,1754
1840.4204743306927,1829
1842.4076001331746,1751
1844.3942834919985,1822
1846.380524563654,1785
1848.366323503702,1764
1850.351680466771,1761
1852.3365956065563,1765
1854.3210690758228,1747
1856.3051010264044,1758
1858.2886916092007,1762
1860.271840974182,1764
1862.2545492703862,1807
1864.2368166459191,1856
1866.2186432479543,1802
1868.2000292227349,1766
1870.1809747155717,1710
1872.1614798708429,1830
1874.1415448319963,1814
1876.1211697415474,1821
1878.1003547410805,1803
1880.0790999712472,1765
1882.0574055717675,1733
1884.0352716814305,1784
1886.0126984380927,1780
1887.989685978679,1788
1889.9662344391836,1847
1891.9423439546672,1783
1893.9180146592607,1747
1895.893246686161,1781
1897.868040167636,1836
1899.8423952350195,1734
1901.8163120187137,1794
1903.7897906481917,1756
1905.7628312519923,1787
1907.7354339577219,1785
1909.7075988920578,1788
1911.6793261807447,1808
1913.6506159485943,1813
1915.6214683194871,1823
1917.5918834163726,1798
1919.5618613612687,1782
1921.5314022752605,1738
1923.5005062785012,1736
1925.4691734902144,1802
1927.4374040286893,1803
1929.4051980112845,1848
1931.3725555544274,1768
1933.3394767736136,1874
1935.305961783406,1853
1937.2720106974361,1822
1939.237623628404,1867
1941.2028006880778,1787
1943.167541987295,1755
1945.1318476359588,1780
1947.0957177430432,1831
1949.0591524165898,1833
1951.0221517637078,1809
1952.984715890574,1824
1954.9468449024357,1838
1956.9085389036072,1782
1958.8697979974704,1797
1960.8306222864767,1781
1962.7910118721456,1799
1964.7509668550638,1749
1966.7104873348871,1770
1968.6695734103387,1771
1970.6282251792127,1807
1972.586442738368,1785
1974.5442261837343,1853
1976.501575610307,1774
1978.4584911121533,1773
1980.4149727824056,1756
1982.3710207132658,1818
1984.326634996004,1800
1986.2818157209585,1850
1988.2365629775359,1825
1990.1908768542116,1893
1992.144757438527,1865
1994.0982048170954,1908
1996.0512190755953,1821
1998.0038002987749,1776
1999.95594857045,1773
2001.9076639735054,1856
2003.8589465898945,1777
2005.8097965006368,1835
2007.760213785822,1857
2009.7101985246077,1853
2011.6597507952201,1826
2013.6088706749524,1783
2015.5575582401675,1779
2017.5058135662953,1839
2019.4536367278351,1828
2021.4010277983534,1788
2023.347986850486,1736
2025.2945139559365,1808
2027.2406091854768,1800
2029.1862726089462,1845
2031.1315042952538,1838
2033.0763043123766,1860
2035.0206727273585,1838
2036.964609606313,1872
2038.908115014422,1850
2040.8511890159348,1844
2042.7938316741693,1825
2044.7360430515123,1820
2046.677823209417,1806
2048.6191722084077,1804
2050.5600901080743,1798
2052.5005769670765,1894
2054.440632843142,1798
2056.380257793066,1767
2058.3194518727128,1809
2060.258215137015,1805
2062.1965476399732,1825
2064.1344494346554,1795
2066.0719205732,1801
2068.008961106812,1850
2069.945571085764,1775
2071.8817505593997,1799
2073.817499576128,1845
2075.7528181834273,1787
2077.6877064278447,1852
2079.622164354995,1813
2081.556192009562,1820
2083.4897894352966,1784
2085.4229566750187,1787
2087.355693770616,1757
2089.2880007630456,1822
2091.219877692331,1787
2093.151324597566,1888
2095.0823415169107,1819
2097.012928487595,1886
2098.9430855459173,1766
2100.872812727242,1812
2102.8021100660035,1763
2104.730977595705,1878
2106.659415348917,1842
2108.5874233572777,1852
2110.5150016514945,1857
2112.442150261343,1831
2114.3688692156675,1816
2116.2951585423793,1850
2118.2210182684585,1821
2120.146448419954,1806
2122.0714490219825,1844
2123.9960200987293,1822
2125.920161673447,1795
2127.843873768458,1847
2129.767156405151,1823
2131.690009603985,1885
2133.612433384486,1750
2135.534427765249,1841
2137.4559927639366,1849
2139.37712839728,1853
2141.2978346810783,1851
2143.2181116301995,1824
2145.1379592585795,1800
2147.057377579222,1754
2148.9763666042,1856
2150.894926344655,1823
2152.813056810794,1814
2154.730758011896,1775
2156.648029956306,1778
2158.564872651437,1804
2160.481286103772,1824
2162.397270318861,1804
2164.312825301323,1784
2166.227951054844,1836
2168.14264758218,1849
2170.056914885153,1859
2171.9707529646566,1756
2173.8841618206484,1852
2175.7971414521585,1771
2177.7096918572825,1813
2179.621813033186,1817
2181.5335049761,1865
2183.444767681327,1882
2185.355601143236,1809
2187.2660053552654,1844
2189.1759803099208,1846
2191.085525998777,1887
2192.994642412475,1889
2194.903329540727,1898
2196.811587372312,1858
2198.7194158950765,1837
2200.626815095937,1804
2202.5337849608763,1896
2204.440325474948,1850
2206.346436622271,1900
2208.2521183860345,1785
2210.157370748496,1874
2212.0621936909793,1838
2213.966587193879,1847
2215.8705512366573,1803
2217.774085797842,1840
2219.677190855033,1821
2221.579866384897,1891
2223.4821123631677,1869
2225.3839287646483,1830
2227.2853155632106,1835
2229.186272731794,1910
2231.0868002424063,1948
2232.986898066123,1838
2234.8865661730892,1843
2236.785804532517,1846
2238.6846131126877,1875
2240.5829918809495,1825
2242.4809408037213,1879
2244.3784598464877,1878
2246.275548973803,1838
2248.172208149288,1802
2250.0684373356357,1816
2251.964236494603,1814
2253.859605587017,1791
2255.7545445727733,1854
2257.6490534108357,1842
2259.5431320592356,1843
2261.436780475073,1863
2263.329998614516,1860
2265.222786432802,1878
2267.1151438842344,1799
2269.0070709221877,1775
2270.8985674991022,1827
2272.789633566488,1809
2274.6802690749237,1838
2276.570473974053,1834
2278.4602482125933,1823
2280.3495917383257,1833
2282.238504498101,1763
2284.1269864378387,1874
2286.0150375025264,1776
2287.9026576362203,1814
2289.789846782043,1863
2291.6766048821873,1871
2293.5629318779147,1930
2295.4488277095534,1816
2297.3342923164996,1810
2299.2193256372193,1867
2301.1039276092465,1918
2302.9880981691817,1881
2304.871837252696,1831
2306.755144794528,1926
2308.6380207284838,1869
2310.5204649874386,1905
2312.4024775033354,1914
2314.2840582071854,1965
2316.165207029068,1926
2318.0459238981325,1862
2319.926208742594,1872
2321.8060614897363,1872
2323.6854820659137,1870
2325.5644703965463,1897
2327.443026406124,1866
2329.321150018203,1872
2331.1988411554107,1956
2333.0760997394395,1928
2334.952925691053,1845
2336.829318930082,1874
2338.705279375424,1865
2340.5808069450477,1815
2342.4559015559867,1893
2344.3305631243456,1873
2346.204791565297,1923
2348.07858679308,1818
2349.9519487210027,1883
2351.824877261443,1889
2353.6973723258448,1885
2355.5694338247226,1859
2357.4410616676564,1883
2359.312255763297,1902
2361.1830160193617,1987
2363.053342342637,1877
2364.9232346389776,1898
2366.792692813306,1852
2368.6617167696145,1874
2370.5303064109603,1836
2372.3984616394723,1852
2374.2661823563467,1910
2376.1334684618464,1838
2378.0003198553054,1833
2379.8667364351227,1771
2381.7327180987672,1854
2383.5982647427777,1905
2385.4633762627586,1931
2387.3280525533837,1912
2389.192293508395,1902
2391.0560990206027,1927
2392.919468981885,1886
2394.782403283189,1956
2396.644901814531,1888
2398.5069644649916,1877
2400.3685911227235,1864
2402.2297816749474,1908
2404.0905360079505,1879
2405.950854007089,1882
2407.8107355567886,2012
2409.670180540541,1926
2411.529188840908,1909
2413.387760339518,1858
2415.2458949170705,1942
2417.1035924533294,1910
2418.96085282713,1829
2420.8176759163744,1855
2422.6740615980334,1864
2424.5300097481468,1915
2426.38552024182,1908
2428.24059295323,1911
2430.0952277556207,1947
2431.949424521303,1894
2433.803183121658,1866
2435.6565034271343,1917
2437.5093853072485,1893
2439.361828630585,1992
2441.213833264798,1941
2443.0653990766095,1939
2444.916525931808,1964
2446.7672136952524,1887
2448.6174622308695,1906
2450.4672714016538,1924
2452.3166410696676,1950
2454.165571096043,1913
2456.0140613409794,1836
2457.8621116637432,1982
2459.709721922672,1924
2461.556891975169,1939
2463.403621677707,1850
2465.249910885827,1982
2467.0957594541383,1845
2468.9411672363167,1865
2470.78613408511,1861
2472.630659852331,1958
2474.4747443888614,1912
2476.3183875446516,1949
2478.161589168721,1953
2480.0043491091556,1816
2481.8466672131112,1841
2483.6885433268108,1952
2485.529977295547,1951
2487.370968963678,1919
2489.2115181746335,1854
2491.0516247709097,1914
2492.891288594071,1919
2494.7305094847497,1906
2496.569287282649,1860
2498.407621826537,1856
2500.2455129542523,1909
2502.0829605027,1901
2503.919964307855,1886
2505.7565242047594,1907
2507.5926400275252,1893
2509.42831160933,1923
2511.263538782423,1903
2513.0983213781174,1905
2514.9326592267994,1904
2516.76655215792,1874
2518.5999999999995,1955
2520.4330025806275,1937
2522.2655597264607,1913
2524.0976712632237,1889
2525.9293370157097,1926
2527.760556807782,1895
2529.591330462369,1932
2531.4216578014702,1894
2533.2515386461523,1911
2535.080972816548,1987
2536.9099601318626,1916
2538.738500410366,1911
2540.5665934693993,1921
2542.3942391253695,1944
2544.221437193752,1880
2546.0481874890925,1836
2547.874489825003,1949
2549.700344014164,1872
2551.5257498683245,1903
2553.350707198304,1909
2555.175215813986,1995
2556.9992755243256,1916
2558.8228861373454,1895
2560.646047460134,1915
2562.468759298852,1954
2564.2910214587255,1956
2566.1128337440496,1967
2567.93419595819,1931
2569.7551079035757,1873
2571.5755693817077,1937
2573.395580193155,1929
2575.2151401375536,1892
2577.034249013609,1939
2578.8529066190936,1969
2580.6711127508493,1896
2582.488867204785,1885
2584.3061697758794,1932
2586.1230202581787,1925
2587.939418444797,1941
2589.7553641279183,1898
2591.570857098791,1949
2593.385897147736,1901
2595.200484064141,1952
2597.014617636461,1952
2598.8282976522214,1951
2600.6415238980126,1916
2602.454296159496,1891
2604.266614221401,1930
2606.0784778675243,1909
2607.8898868807305,1897
2609.700841042955,1990
2611.5113401351973,1922
2613.32138393753,1908
2615.13097222909,1901
2616.940104788084,1946
2618.748781391788,1929
2620.557001816543,1964
2622.364765837763,1962
2624.1720732299264,1995
2625.9789237665814,1971
2627.7853172203445,2004
2629.5912533629,1954
2631.396731965001,1956
2633.2017527964676,1982
2635.0063156261904,1888
2636.810420222126,1846
2638.614066351301,1919
2640.417253779809,2005
2642.219982272813,1988
2644.022251594542,1950
2645.8240615082973,1919
2647.625411776444,1869
2649.4263021604183,1968
2651.226732420724,1896
2653.026702316933,1924
2654.8262116076858,1945
2656.625260050691,1975
2658.423847402724,1914
2660.221973419631,1890
2662.0196378563246,1985
2663.8168404667867,1946
2665.613581004068,2003
2667.4098592202854,1885
2669.2056748666246,1996
2671.0010276933417,1876
2672.7959174497596,1892
2674.5903438842674,1932
2676.384306744327,1942
2678.177805776465,1861
2679.9708407262765,1939
2681.7634113384274,2060
2683.555517356648,1998
2685.3471585237403,1987
2687.138334581574,1978
2688.9290452710843,1967
2690.7192903322784,1982
2692.50906950423,1972
2694.2983825250794,1877
2696.087229132039,1919
2697.875609061386,2000
2699.6635220484677,1896
2701.450967827699,1987
2703.237946132564,1946
2705.0244566956126,1888
2706.8104992484664,1944
2708.596073521813,1999
2710.381179245408,1985
2712.1658161480777,1905
2713.949983957714,1927
2715.7336824012773,1881
2717.516911204798,1997
2719.299670093374,1956
2721.0819587911706,1885
2722.8637770214223,1923
2724.6451245064322,1885
2726.426000967571,2053
2728.2064061252763,1931
2729.986339699057,1953
2731.765801407488,1959
2733.5447909682134,1930
2735.323308097945,1897
2737.101352512463,1887
2738.8789239266166,1953
2740.6560220543215,1987
2742.4326466085645,1891
2744.2087973013977,1926
2745.984473843944,1824
2747.7596759463922,1928
2749.534403318001,1946
2751.308655667096,1889
2753.0824327010737,2005
2754.8557341263954,2005
2756.628559648593,1924
2758.4009089722667,1865
2760.172781801083,1922
2761.944177837779,1993
2763.715096784159,1949
2765.4855383410945,1900
2767.2555022085267,1925
2769.024988085465,1915
2770.793995669988,1954
2772.5625246592385,1893
2774.3305747494323,1880
2776.098145635852,1945
2777.865237012847,1988
2779.6318485738357,1836
2781.397980011306,1949
2783.163631016813,1954
2784.928801280979,1926
2786.6934904934974,1822
2788.457698343127,1958
2790.221424517697,1898
2791.9846687041027,1967
2793.74743058831,1906
2795.5097098553515,1952
2797.2715061893286,1993
2799.0328192734105,1971
2800.793648789836,1974
2802.553994419911,1891
2804.3138558440087,1908
2806.073232741573,1973
2807.8321247911135,1972
2809.590531670211,1965
2811.3484530555115,1884
2813.105888622732,1925
2814.8628380466557,1900
2816.6193010011348,1941
2818.3752771590903,1919
2820.13076619251,1918
2821.885767772452,1912
2823.640281569041,1946
2825.3943072514703,1886
2827.147844488002,1978
2828.9008929459665,1991
2830.6534522917614,1912
2832.405522190854,1982
2834.1571023077786,1965
2835.9081923061394,1948
2837.658791848606,1921
2839.40890059692,2005
2841.1585182118874,1973
2842.907644353386,1962
2844.6562786803593,2023
2846.4044208508203,1983
2848.15207052185,1883
2849.899227349598,1910
2851.6458909892804,1951
2853.392061095185,1936
2855.137737320664,1998
2856.882919318142,1947
2858.6276067391063,2010
2860.371799234118,1908
2862.1154964528037,1972
2863.8586980438586,1878
2865.6014036550464,1960
2867.343612933199,1995
2869.0853255242173,1986
2870.826541073068,1956
2872.567259223789,1976
2874.307479619485,2034
2876.0472019023287,1959
2877.7864257135625,2034
2879.525150693495,1998
2881.263376481505,1966
2883.0011027160385,1971
2884.73832903461,1911
2886.4750550738027,2017
2888.2112804692665,2008
2889.9470048557223,1971
2891.682227866956,1957
2893.416949135825,1948
2895.151168294252,1982
2896.88488497323,1990
2898.6180988028204,1993
2900.3508094121503,1981
2902.083016429419,2030
2903.81471948189,2045
2905.5459181958972,2046
2907.276612196844,2026
2909.0068011091994,1969
2910.736484556502,1922
2912.465662161359,1902
2914.194333545445,1958
2915.922498329504,1943
2917.650156133346,1967
2919.377306575852,1929
2921.103949274969,1965
2922.830083847715,1972
2924.555709910173,1967
2926.2808270774967,1933
2928.005434963907,1902
2929.7295331826936,1918
2931.4531213462133,1910
2933.1761990658924,1980
2934.8987659522254,2023
2936.6208216147747,1982
2938.3423656621694,1991
2940.0633977021116,2054
2941.783917341366,1994
2943.503924185768,2065
2945.223417840223,2002
2946.9423979087023,2007
2948.6608639942456,2013
2950.378815698962,2028
2952.096252624029,2056
2953.81317436969,2002
2955.529580535259,2030
2957.2454707191177,1951
2958.9608445187164,1955
2960.6757015305734,2025
2962.3900413502733,1940
2964.103863572472,1973
2965.817167790894,2022
2967.529953598327,1962
2969.2422205866337,1989
2970.953968346739,1943
2972.6651964686407,1999
2974.3759045414035,1992
2976.0860921531585,2010
2977.7957588911067,1958
2979.504904341517,2012
2981.2135280897273,1956
2982.9216297201433,1982
2984.629208816238,2037
2986.336264960554,2025
2988.0427977347017,1969
2989.7488067193594,1943
2991.454291494274,2038
2993.1592516382607,2030
2994.8636867292034,2014
2996.567596344053,1967
2998.2709800588295,1991
2999.973837448621,1994
3001.6761680875857,1934
3003.377971548946,2024
3005.0792474049954,1982
3006.7799952270957,2011
3008.480214585676,1983
3010.1799050502345,1998
3011.8790661893368,1969
3013.5776975706176,1936
3015.2757987607793,1945
3016.973369325592,1934
3018.6704088298966,1949
3020.366916837598,1917
3022.0628929116747,1979
3023.7583366141675,2002
3025.4532475061915,2016
3027.147625147925,1931
3028.841469098617,1969
3030.534778916585,1948
3032.2275541592144,2056
3033.9197943829577,2006
3035.611499143338,1993
3037.302667994943,1989
3038.9933004914333,1974
3040.683396185535,1949
3042.372954629042,1988
3044.061975372817,1956
3045.7504579667934,1919
3047.4384019599684,1993
3049.1258069004116,1920
3050.812672335258,1980
3052.4989978107124,2009
3054.184782872047,1939
3055.870027063603,2006
3057.554729928791,1966
3059.238891010086,1975
3060.9225098490347,2018
3062.6055859862518,2030
3064.2881189614177,2020
3065.970108313285,2007
3067.651553579671,1947
3069.3324542974633,2025
3071.012810002616,2030
3072.6926202301543,1950
3074.3718845141702,1995
3076.050602387822,2041
3077.728773383339,1976
3079.406397032018,1964
3081.083472864223,2026
3082.7600004093874,1955
3084.4359791960137,1956
3086.11140875167,1993
3087.7862886029952,1968
3089.4606182756943,1989
3091.134397294544,1933
3092.807625183385,1980
3094.4803014651284,2014
3096.152425661755,1928
3097.8239972943097,1996
3099.49501588291,1997
3101.165480946741,2019
3102.8353920040518,1993
3104.504748572165,1992
3106.1735501674693,2016
3107.8417963054226,2013
3109.5094865005485,1966
3111.176620266441,1964
3112.8431971157625,1992
3114.5092165602427,1997
3116.1746781106813,2015
3117.839581276943,2025
3119.503925567965,2025
3121.167710491747,1963
3122.830935555364,1972
3124.493600264954,2019
3126.1557041257247,2062
3127.817246641952,2008
3129.478227316982,2041
3131.1386456532273,1987
3132.798501152168,1986
3134.4577933143537,2043
3136.116521639402,1998
3137.7746856259982,2073
3139.4322847718977,2003
3141.0893185739224,1963
3142.745786527962,1970
3144.4016881289754,2049
3146.0570228709903,1975
3147.711790247102,2064
3149.3659897494754,2000
3151.0196208693396,2034
3152.6726830969974,2039
3154.3251759218165,1961
3155.9770988322334,1973
3157.6284513157534,2014
3159.2792328589485,1950
3160.929442947461,1968
3162.579081066002,2020
3164.2281466983477,1974
3165.8766393273454,1987
3167.5245584349086,1991
3169.1719035020224,1927
3170.818674008735,1990
3172.4648694341677,2050
3174.110489256508,2041
3175.7555329530105,1956
3177.4000000000005,2027
3179.0438898728707,1958
3180.6872020460805,2054
3182.32993599316,2075
3183.972091186706,2044
3185.613667098384,2052
3187.254663198927,2030
3188.8950789581386,2032
3190.5349138448873,2058
3192.1741673271126,2009
3193.8128388718224,1891
3195.4509279450886,2044
3197.0884340120574,2036
3198.725356536939,2025
3200.361694983014,2003
3201.997448812629,1988
3203.632617487203,1988
3205.2672004672195,1978
3206.901197212229,2021
3208.5346071808563,1995
3210.167429830789,2007
3211.799664618785,1906
3213.4313110006706,2004
3215.0623684313387,1919
3216.692836364753,1974
3218.3227142539445,2024
3219.9520015510125,1948
3221.5806977071215,1941
3223.2088021725103,1972
3224.8363143964816,1988
3226.4632338274077,2019
3228.089559912728,2006
3229.715292098951,1976
3231.3404298316545,2013
3232.9649725554846,2004
3234.5889197141523,1930
3236.2122707504395,2012
3237.8350251061984,2029
3239.457182222345,1964
3241.0787415388677,2000
3242.6997024948187,2006
3244.3200645283223,2001
3245.9398270765696,1968
3247.558989575821,2024
3249.177551461403,2019
3250.7955121677123,2002
3252.412871128213,2044
3254.029627775437,2028
3255.6457815409867,2030
3257.2613318555286,1947
3258.876278148802,1967
3260.490619849613,2007
3262.1043563858348,2039
3263.717487184408,1924
3265.3300116713453,1953
3266.941929271725,1930
3268.5532394096917,1925
3270.1639415084646,1959
3271.7740349903233,2019
3273.383519276621,2080
3274.9923937877775,2043
3276.6006579432833,2044
3278.2083111616903,2015
3279.815352860627,2043
3281.421782456786,2010
3283.027599365927,2018
3284.632803002881,2022
3286.237392781545,2040
3287.841368114885,2019
3289.4447284149373,1910
3291.047473092801,1987
3292.649601558651,2037
3294.2511132217223,1934
3295.8520074903254,1985
3297.452283771835,1994
3299.051941472695,2032
3300.650979998417,2026
3302.2493987535827,2026
3303.8471971418403,2088
3305.4443745659064,2036
3307.0409304275654,1995
3308.636864127674,2050
3310.2321750661513,2004
3311.8268626419876,2054
3313.420926253242,2010
3315.01436529704,1981
3316.6071791695776,1991
3318.1993672661183,2005
3319.7909289809913,2008
3321.3818637075983,2023
3322.972170838406,2018
3324.561849764951,1971
3326.150899877838,2040
3327.7393205667386,2018
3329.3271112203956,2036
3330.9142712266166,1985
3332.5007999722793,1976
3334.08669684333,1989
3335.6719612247834,1976
3337.2565925007193,2070
3338.840590054291,2033
3340.4239532677157,2067
3342.006681522281,2044
3343.5887741983406,2032
3345.1702306753214,2095
3346.7510503317126,2014
3348.3312325450743,2102
3349.910776692037,2004
3351.4896821482953,2012
3353.0679482886153,2041
3354.645574486829,2009
3356.2225601158398,2079
3357.798904547615,1944
