CollectionTime,4/2/2024 11:35:41 AM
ExposureUsed,3
CalibratedSpectrum
-994.8464149364308,669
-991.9439705588344,689
-989.042830375826,662
-986.1429931109675,681
-983.2444574887519,785
-980.3472222346043,753
-977.4512860748813,702
-974.5566477368716,667
-971.6633059487953,626
-968.7712594398042,712
-965.8805069399822,694
-962.9910471803447,652
-960.1028788928387,657
-957.2160008103432,675
-954.3304116666687,703
-951.4461101965578,714
-948.5630951356844,718
-945.6813652206545,816
-942.8009191890055,876
-939.9217557792067,847
-937.0438737306594,745
-934.167271783696,729
-931.2919486795813,683
-928.4179031605115,650
-925.5451339696144,730
-922.67363985095,763
-919.8034195495097,793
-916.9344718112166,748
-914.0667953829256,790
-911.2003890124234,788
-908.3352514484286,773
-905.471381440591,761
-902.6087777394928,698
-899.7474390966474,791
-896.8873642645002,862
-894.0285519964284,789
-891.1710010467407,793
-888.3147101706776,740
-885.4596781244115,750
-882.6059036650465,676
-879.7533855506183,687
-876.9021225400943,697
-874.0521133933738,740
-871.2033568712878,745
-868.3558517355991,729
-865.509596749002,821
-862.6645906751228,864
-859.8208322785192,830
-856.9783203246812,826
-854.1370535800299,768
-851.2970308119186,728
-848.4582507886321,782
-845.620712279387,761
-842.7844140543316,723
-839.9493548845461,746
-837.1155335420422,745
-834.2829487997635,705
-831.4515994315852,722
-828.6214842123144,794
-825.7926019176898,808
-822.9649513243819,764
-820.138531209993,796
-817.3133403530569,806
-814.4893775330396,745
-811.6666415303382,778
-808.845131126282,769
-806.0248451031321,789
-803.2057822440808,723
-800.3879413332527,726
-797.5713211557038,815
-794.755920497422,879
-791.941738145327,825
-789.1287728872701,799
-786.3170235120342,890
-783.5064888093341,817
-780.6971675698165,711
-777.8890585850597,699
-775.0821606475735,881
-772.2764725507997,822
-769.4719930891118,755
-766.6687210578151,821
-763.8666552531465,956
-761.0657944722747,1106
-758.2661375133,975
-755.4676831752547,864
-752.6704302581027,742
-749.8743775627395,737
-747.0795238909925,748
-744.285868045621,787
-741.4934088303156,791
-738.702145049699,768
-735.9120755093254,864
-733.123199015681,1087
-730.3355143761836,1071
-727.5490203991826,880
-724.7637158939592,820
-721.9795996707265,836
-719.1966705406293,749
-716.4149273157439,791
-713.6343688090786,712
-710.8549938345734,723
-708.0768012070998,767
-705.2997897424614,817
-702.5239582573931,792
-699.7493055695622,802
-696.9758304975669,754
-694.2035318609377,780
-691.4324084801367,788
-688.6624591765578,768
-685.8936827725265,791
-683.1260780913001,836
-680.3596439570675,866
-677.5943791949499,852
-674.8302826309991,787
-672.0673530922,754
-669.3055894064685,815
-666.5449904026519,930
-663.78555491053,851
-661.0272817608139,861
-658.2701697851465,908
-655.5142178161026,917
-652.7594246871884,889
-650.0057892328422,820
-647.2533102884337,805
-644.5019866902646,842
-641.7518172755683,844
-639.0028008825099,874
-636.254936350186,891
-633.5082225186254,910
-630.7626582287882,843
-628.0182423225665,852
-625.2749736427841,869
-622.5328510331965,948
-619.7918733384909,930
-617.0520394042862,915
-614.3133480771331,890
-611.5757982045143,891
-608.8393886348437,1077
-606.1041182174672,1023
-603.3699858026625,1095
-600.6369902416393,1015
-597.9051303865383,955
-595.1744050904326,1032
-592.4448132073267,1098
-589.7163535921568,1227
-586.9890251007912,1023
-584.2628265900296,984
-581.5377569176036,1017
-578.8138149421764,991
-576.090999523343,997
-573.3693095216302,970
-570.6487437984965,958
-567.9293012163321,1086
-565.210980638459,1144
-562.4937809291307,1028
-559.7777009535329,996
-557.0627395777825,1018
-554.3488956689287,981
-551.6361680949519,1086
-548.9245557247644,1095
-546.2140574282107,1149
-543.5046720760662,1249
-540.7963985400388,1252
-538.0892356927677,1229
-535.3831824078238,1223
-532.6782375597103,1289
-529.9744000238613,1439
-527.2716686766433,1509
-524.5700423953542,1681
-521.8695200582238,1551
-519.1701005444136,1465
-516.4717827340166,1540
-513.7745655080581,1750
-511.0784477484944,1935
-508.38342833821423,1933
-505.68950616103757,2089
-502.9966801017163,2245
-500.3049490459341,2421
-497.61431188030633,2252
-494.9247674923801,1893
-492.2363147706342,1719
-489.54895260447927,1490
-486.86267988425755,1506
-484.1774955012431,1571
-481.4933983476417,1653
-478.8103873165908,1519
-476.1284613021596,1273
-473.44761919934945,1241
-470.7678599040928,1300
-468.089182313254,1319
-465.4115853246294,1353
-462.735067836947,1522
-460.0596287498663,1456
-457.3852669639789,1237
-454.71198138080774,1102
-452.03977090280773,1097
-449.3686344333656,1122
-446.69857087679964,1222
-444.02957913835996,1335
-441.36165812422837,1281
-438.6948067415183,1293
-436.0290238982752,1189
-433.36430850347597,1202
-430.7006594670296,1259
-428.0380756997763,1301
-425.3765561134885,1344
-422.7160996208702,1338
-420.0567051355571,1452
-417.3983715721164,1356
-414.7410978460475,1378
-412.08488287378145,1389
-409.4297255726806,1314
-406.77562486103955,1198
-404.1225796580843,1181
-401.4705888839728,1068
-398.8196514597947,980
-396.1697663075713,1018
-393.5209323502555,1053
-390.8731485117323,898
-388.22641371681823,893
-385.5807268912615,1176
-382.93608696174226,1078
-380.29249285587207,855
-377.64994350219456,837
-375.0084378301849,966
-372.36797477025016,921
-369.7285532537287,911
-367.0901722128914,925
-364.45283058094014,829
-361.8165272920089,952
-359.1812612811634,899
-356.54703148440103,662
-353.9138368386507,674
-351.28167628177346,816
-348.6505487525617,1008
-346.02045319074,923
-343.3913885369643,859
-340.76335373282245,909
-338.1363477208339,921
-335.5103694444499,983
-332.8854178480535,886
-330.26149187695944,989
-327.63859047741425,926
-325.016712596596,774
-322.3958571826148,762
-319.77602318451227,843
-317.15720955226186,889
-314.5394152367686,951
-311.9226391898695,849
-309.3068803643333,876
-306.69213771386023,1046
-304.0784101930824,1285
-301.4656967575635,1185
-298.8539963637994,1115
-296.2433079692172,1158
-293.6336305321761,1120
-291.02496301196675,979
-288.41730436881176,1156
-285.81065356386534,1056
-283.2050095592135,969
-280.60037131787396,1368
-277.9967378037961,1737
-275.39410798186134,1476
-272.7924808178824,1465
-270.19185527860407,1419
-267.5922303317028,1295
-264.9936049457866,1445
-262.3959780903955,1409
-259.79934873600087,1419
-257.2037158540064,1379
-254.6090784167469,1444
-252.01543539748934,1678
-249.42278577043237,1275
-246.8311285107061,1185
-244.24046259437262,1347
-241.6507869984256,1348
-239.0621007007909,1406
-236.4744026803254,1488
-233.88769191681808,1522
-231.30196739098994,1619
-228.7172280844934,1329
-226.13347297991243,1358
-223.550701060763,1600
-220.9689113114929,1401
-218.3881027174814,1212
-215.8082742650397,1415
-213.22942494141068,1816
-210.65155373476898,2297
-208.07465963422078,2090
-205.49874162980439,2079
-202.92379871248932,2123
-200.34982987417743,2104
-197.7768341077018,1677
-195.20481040682762,1239
-192.63375776625162,1235
-190.0636751816021,1471
-187.49456164943945,1501
-184.92641616725564,1683
-182.3592377334743,1830
-179.79302534745102,1886
-177.2277780094729,2202
-174.66349472075865,2098
-172.10017448345923,2109
-169.5378163006569,2003
-166.97641917636565,1817
-164.41598211553162,2175
-161.8565041240322,2495
-159.29798420867678,2485
-156.74042137720642,2446
-154.18381463829382,2301
-151.6281630015436,2165
-149.07346547749228,1912
-146.51972107760753,1617
-143.96692881428908,1889
-141.41508770086864,2190
-138.86419675160937,2177
-136.31425498170609,2267
-133.7652614072856,2243
-131.21721504540642,2163
-128.67011491405844,2477
-126.12396003216395,3105
-123.57874941957618,3693
-121.03448209708074,3340
-118.49115708639465,3022
-115.94877341016684,3308
-113.40733009197788,3533
-110.86682615633993,3321
-108.32726062869733,3166
-105.78863253542556,3956
-103.25094090383243,5383
-100.71418476215695,5150
-98.17836313957025,4501
-95.64347506617503,3684
-93.10951957300585,3350
-90.57649569202886,3718
-88.04440245614194,3910
-85.51323889917478,4615
-82.98300405588896,5060
-80.45369696197747,6638
-77.925316654065,8166
-75.39786216970867,10274
-72.87133254739649,13176
-70.34572682654857,15360
-67.82104404751692,17903
-65.29728325158499,24834
-62.774443480968216,31582
-60.252523778813384,37383
-57.73152318919938,43829
-55.21144075713676,42431
-52.69227552856796,35618
-50.17402655036665,35985
-47.65669287033859,29278
-45.14027353722133,23347
-42.624767600684095,31896
-40.11017411132775,40500
-37.59649212068507,46357
-35.08372068122037,50716
-32.57185884632963,55618
-30.06090567034107,50872
-27.550860208513996,52244
-25.04172151704006,65043
-22.533488653042014,65043
-20.02616067457484,65043
-17.51973664062507,65043
-15.014215611111126,65043
-12.509596646882983,65043
-10.005878809722162,65043
-7.503061162342419,65043
-5.001142768389059,65043
-2.5001226924387083,65043
-3.410605131648481E-13,65043
2.49922624248552,65043
4.997556967646801,65043
7.494993107179766,65043
9.99153559184856,65043
12.487185351485778,65043
14.98194331499235,65043
17.475810410337544,65043
19.96878756455851,65043
22.46087570376085,65043
24.952075753118834,37491
27.442388636874625,12326
29.93181527833849,8756
32.42035659988892,8775
34.90801352297353,12917
37.39478696810693,12145
39.880677854873056,12142
42.36568710192364,9928
44.8498156269784,9734
47.33306434682618,10457
49.815434177322686,9528
52.296926033393675,9124
54.77754082903198,8889
57.25727947729865,10743
59.736142890323435,10732
62.214131979304284,6753
64.6912476545076,4900
67.16749082526735,4033
69.64286239998614,3481
72.11736328613551,4072
74.59099439025431,4772
77.06375661794982,5796
79.53565087389825,5268
82.0066780618431,4717
84.4768390845968,3739
86.94613484403999,3794
89.41456624112152,6349
91.88213417585825,6176
94.34883954733527,3972
96.81468325370679,3510
99.2796661921941,2797
101.74378925908763,3485
104.20705334974559,3806
106.66945935859462,4484
109.1310081791296,4515
111.59170070391383,5427
114.05153782457865,4721
116.5105204318238,3291
118.96864941541708,3570
121.42592566419489,4967
123.88235006606146,4937
126.3379235079899,3992
128.79264687602085,3230
131.2465210552641,3081
133.69954692989631,3414
136.15172538316415,4002
138.60305729738116,3347
141.05354355393,2988
143.50318503326116,2963
145.95198261489327,2899
148.39993717741368,2867
150.84704959847772,3517
153.29332075480897,4038
155.73875152219944,4478
158.18334277550935,4078
160.62709538866693,3679
163.0700102346691,3450
165.51208818558075,3461
167.953330112535,3443
170.39373688573346,3131
172.8333093744459,3496
175.2720484470101,3476
177.70995497083277,3692
180.14702981238815,4411
182.58327383721917,4033
185.01868790993672,3826
187.45327289422062,3737
189.88702965281777,3280
192.31995904754444,3260
194.75206193928489,3682
197.18333918799135,3722
199.61379165268454,3635
202.04342019145315,3564
204.4722256614548,3636
206.90020891891436,3868
209.32737081912592,3827
211.7537122164515,3535
214.17923396432116,3350
216.6039369152336,3460
219.0278219207553,3584
221.45088983152186,3654
223.8731414972358,3739
226.29457776666914,3568
228.71519948766172,3437
231.1350075071216,3487
233.55400267102482,3633
235.97218582441633,3915
238.38955781140908,3509
240.806119475184,3629
243.2218716579905,3787
245.6368152011462,3740
248.05095094503736,3709
250.46427972911806,3660
252.87680239191036,3658
255.28851977100544,3812
257.69943270306203,3750
260.10954202380753,3392
262.5188485680378,3311
264.92735316961557,3611
267.33505666147425,3687
269.7419598756128,3582
272.14806364310084,3760
274.5533687940747,3485
276.95787615773975,3382
279.361586562369,3349
281.7645008353045,3283
284.1666198029559,3386
286.5679442908013,3412
288.96847512338695,3496
291.3682131243279,3436
293.7671591163071,3561
296.1653139210757,3557
298.562678359453,3329
300.9592532513268,3351
303.3550394156532,3357
305.75003767045655,3286
308.14424883282936,3436
310.53767371893196,3472
312.93031314399377,3270
315.3221679223125,3025
317.71323886725304,3046
320.1035267912496,3051
322.49303250580397,2963
324.881756821487,2942
327.2697005479374,2973
329.65686449386135,2988
332.0432494670347,2971
334.4288562743004,3056
336.81368572157066,3040
339.19773861382487,2938
341.58101575511205,2823
343.96351794854786,2846
346.3452459963173,2827
348.72620069967365,2713
351.1063828589379,2963
353.48579327349967,3169
355.8644327418169,3031
358.24230206141533,2893
360.6194020288899,2790
362.99573343990255,2629
365.3712970891845,2665
367.7460937705348,2762
370.12012427682066,2740
372.493389399978,2721
374.86588993101077,2709
377.23762665999084,2635
379.6086003760588,2712
381.9788118674235,2582
384.34826192136165,2692
386.7169513242188,2582
389.08488086140824,2583
391.4520513174118,2580
393.8184634757795,2705
396.1841181191296,2812
398.54901602914856,2987
400.9131579865916,2895
403.2765447712811,2705
405.63917716210926,2701
408.00105593703483,2723
410.36218187308646,2631
412.7225557463596,2633
415.0821783320191,2383
417.4410504042976,2459
419.79917273649585,2459
422.1565461009834,2493
424.5131712691973,2603
426.869049011643,2671
429.22418009789544,2671
431.578565296596,2555
433.9322053754556,2468
436.28510110125285,2481
438.6372532398352,2486
440.98866255611733,2409
443.33932981408293,2433
445.6892557767842,2476
448.0384412063411,2531
450.38688686394175,2660
452.7345935098431,2583
455.0815619033697,2554
457.42779280291506,2684
459.7732869659403,2787
462.1180451489754,2770
464.4620681076178,2650
466.80535659653424,2580
469.1479113694588,2639
471.48973317919445,2789
473.8308227776122,2837
476.17118091565135,2791
478.51080834331924,2920
480.8497058096914,2948
483.1878740629122,3268
485.5253138501944,3392
487.8620259178176,3428
490.1980110111317,3988
492.53326987455307,4102
494.86780325156724,4159
497.201611884728,4214
499.53469651565683,4211
501.8670578850447,4074
504.1986967326493,4044
506.52961379729754,3842
508.85980981688454,3717
511.18928552837315,3522
513.5180416677952,3370
515.8460789702503,3477
518.1733981699067,4180
520.5,5103
522.8258851928354,5462
525.1510544797857,5237
527.4755085912916,4591
529.7992482568625,4147
532.1222742050759,3470
534.4445871635783,2980
536.766187859083,2517
539.0870770173726,2553
541.4072553632982,2499
543.7267236207783,2375
546.0454825128002,2331
548.363532761419,2386
550.6808750877592,2447
552.9975102120118,2492
555.3134388534377,2484
557.6286617303654,2476
559.9431795601911,2395
562.2569930593802,2397
564.570102943466,2499
566.88250992705,2506
569.1942147238021,2328
571.5052180464602,2255
573.8155206068309,2367
576.1251231157885,2499
578.4340262832759,2445
580.7422308183045,2291
583.0497374289534,2234
585.3565468223703,2362
587.6626597047714,2407
589.9680767814409,2248
592.2727987567309,2235
594.5768263340624,2235
596.8801602159238,2298
599.1828011038731,2371
601.4847496985356,2360
603.7860066996047,2311
606.0865728058427,2232
608.3864487150802,2297
610.6856351242152,2248
612.9841327292149,2286
615.2819422251141,2291
617.5790643060163,2290
619.8754996650935,2221
622.1712489945849,2221
624.466312985799,2251
626.7606923291121,2315
629.0543877139692,2362
631.347399828883,2347
633.6397293614343,2286
635.9313769982732,2399
638.2223434251173,2305
640.5126293267522,2266
642.8022353870326,2253
645.0911622888809,2201
647.3794107142876,2265
649.666981344312,2305
651.9538748590815,2276
654.2400919377915,2311
656.525633258706,2323
658.8104994991568,2307
661.0946913355442,2383
663.3782094433375,2277
665.6610544970729,2411
667.9432271703561,2345
670.22472813586,2271
672.5055580653268,2414
674.7857176295659,2451
677.065207498456,2337
679.3440283409432,2331
681.6221808250425,2252
683.899665617837,2247
686.1764833854772,2311
688.4526347931837,2418
690.7281205052436,2368
693.0029411850135,2396
695.2770974949171,2345
697.5505900964474,2425
699.8234196501651,2399
702.0955868156989,2267
704.3670922517472,2269
706.6379366160747,2340
708.9081205655159,2407
711.1776447559728,2458
713.4465098424155,2315
715.714716478883,2388
717.9822653184822,2372
720.2491570133882,2466
722.5153922148452,2326
724.7809715731639,2313
727.0458957377248,2253
729.3101653569763,2246
731.5737810784346,2260
733.8367435486853,2373
736.0990534133803,2274
738.3607113172418,2358
740.6217179040591,2355
742.8820738166899,2359
745.1417796970607,2359
747.4008361861659,2372
749.6592439240678,2305
751.9170035498973,2455
754.1741157018539,2473
756.4305810172048,2383
758.686400132286,2379
760.9415736825013,2379
763.196102302323,2304
765.4499866252911,2465
767.7032272840152,2591
769.9558249101717,2467
772.207780134506,2499
774.4590935868323,2486
776.7097658960313,2593
778.9597976900541,2511
781.2091895959184,2390
783.457942239711,2351
785.7060562465867,2368
787.9535322407687,2481
790.2003708455488,2379
792.4465726832861,2532
794.6921383754088,2577
796.9370685424128,2505
799.1813638038632,2430
801.4250247783918,2607
803.6680520837006,2514
805.9104463365579,2407
808.1522081528019,2500
810.393338147338,2397
812.6338369341406,2375
814.8737051262517,2469
817.1129433357819,2458
819.35155217391,2377
821.5895322508834,2351
823.8268841760168,2439
826.0636085576946,2464
828.2997060033681,2422
830.535177119558,2386
832.7700225118522,2313
835.0042427849078,2374
837.2378385424493,2392
839.4708103872701,2348
841.7031589212318,2304
843.9348847452643,2362
846.1659884593648,2443
848.3964706626004,2472
850.6263319531054,2441
852.8555729280824,2314
855.0841941838025,2351
857.3121963156052,2477
859.5395799178978,2411
861.7663455841566,2471
863.9924939069251,2534
866.2180254778159,2567
868.4429408875103,2518
870.6672407257561,2468
872.890925581371,2513
875.1139960422404,2494
877.336452695318,2489
879.5582961266261,2439
881.7795269212543,2586
884.0001456633613,2509
886.2201529361741,2586
888.4395493219874,2636
890.6583354021648,2591
892.8765117571375,2586
895.094078966405,2535
897.3110376085365,2506
899.5273882611671,2564
901.7431315010019,2442
903.958267903814,2402
906.1727980444443,2452
908.3867224968019,2393
910.6000418338647,2371
912.8127566276792,2395
915.0248674493587,2404
917.2363748690857,2504
919.4472794561113,2485
921.6575817787543,2415
923.867282404402,2389
926.0763818995099,2342
928.2848808296014,2284
930.4927797592693,2373
932.700079252173,2351
934.9067798710416,2401
937.112882177672,2252
939.3183867329287,2285
941.5232940967453,2325
943.727604828124,2330
945.9313194851336,2276
948.1344386249132,2277
950.3369628036685,2401
952.5388925766747,2376
954.7402284982745,2285
956.9409711218789,2309
959.1411209999676,2280
961.3406786840883,2257
963.5396447248565,2183
965.7380196719573,2314
967.9358040741427,2389
970.1329984792335,2352
972.3296034341188,2266
974.5256194847555,2223
976.72104717617,2144
978.9158870524552,2175
981.1101396567742,2260
983.3038055313566,2235
985.4968852175009,2187
987.6893792555747,2196
989.8812881850124,2216
992.072612544318,2210
994.263352871063,2266
996.453509701887,2218
998.6430835724984,2241
1000.832075017674,2127
1003.0204845712583,2101
1005.208312766164,2063
1007.3955601343728,2060
1009.5822272069338,2080
1011.7683145139652,2026
1013.9538225846525,2041
1016.1387519472505,2017
1018.3231031290818,2006
1020.5068766565371,2033
1022.6900730550753,2141
1024.872692849224,2189
1027.054736562579,2043
1029.2362047178037,1990
1031.4170978366305,1938
1033.5974164398597,1958
1035.7771610473603,1971
1037.9563321780693,1990
1040.1349303499917,1959
1042.3129560802006,1852
1044.490409884838,1853
1046.667292279115,1850
1048.8436037773079,1877
1051.0193448927644,1922
1053.1945161378994,1993
1055.3691180241954,1931
1057.5431510622038,1995
1059.7166157615447,1996
1061.8895126309053,1918
1064.0618421780423,1933
1066.2336049097798,1951
1068.4048013320107,1930
1070.5754319496955,1920
1072.745497266863,1835
1074.9149977866118,1845
1077.0839340111065,1919
1079.2523064415818,1895
1081.4201155783398,1845
1083.587361920751,1832
1085.7540459672537,1837
1087.9201682153553,1907
1090.0857291616308,1843
1092.2507293017238,1799
1094.4151691303464,1779
1096.579049141279,1845
1098.7423698273687,1765
1100.9051316805335,1785
1103.0673351917571,1783
1105.2289808510936,1874
1107.3900691476633,1792
1109.550600569657,1739
1111.710575604332,1868
1113.8699947380146,1871
1116.028858456099,1855
1118.1871672430489,1757
1120.344921582394,1874
1122.5021219567334,1836
1124.6587688477362,1820
1126.8148627361365,1860
1128.9704041017399,1874
1131.1253934234173,1926
1133.2798311791098,1865
1135.4337178458263,1800
1137.5870538996437,1825
1139.7398398157075,1840
1141.8920760682313,1758
1144.0437631304972,1811
1146.1949014748543,1835
1148.3454915727225,1802
1150.4955338945874,1756
1152.6450289100044,1811
1154.7939770875969,1878
1156.9423788950558,1886
1159.0902347991405,1839
1161.2375452656802,1884
1163.3843107595703,1860
1165.530531744775,1785
1167.6762086843282,1814
1169.8213420403304,1746
1171.9659322739503,1783
1174.1099798454266,1831
1176.2534852140639,1817
1178.3964488382376,1781
1180.538871175389,1859
1182.680752682029,1863
1184.8220938137365,1810
1186.9628950251595,1819
1189.103156770012,1810
1191.2428795010783,1743
1193.3820636702108,1776
1195.5207097283287,1795
1197.6588181254215,1741
1199.7963893105457,1723
1201.9334237318253,1777
1204.0699218364548,1816
1206.2058840706954,1855
1208.3413108798773,1835
1210.476202708397,1863
1212.6105599997222,1785
1214.7443831963874,1828
1216.877672739995,1747
1219.0104290712165,1772
1221.1426526297905,1839
1223.2743438545253,1877
1225.4055031832972,1799
1227.5361310530493,1761
1229.6662278997946,1828
1231.7957941586142,1816
1233.9248302636565,1784
1236.053336648139,1801
1238.1813137443464,1771
1240.3087619836338,1871
1242.4356817964222,1756
1244.5620736122019,1813
1246.6879378595318,1823
1248.813274966039,1777
1250.938085358418,1788
1253.062369462432,1784
1255.186127702913,1806
1257.3093605037611,1811
1259.4320682879434,1791
1261.554251477498,1815
1263.6759104935277,1787
1265.797045756206,1774
1267.9176576847744,1858
1270.0377466975428,1891
1272.1573132118879,1841
1274.2763576442567,1853
1276.394880410162,1900
1278.5128819241877,1925
1280.6303625999835,1919
1282.7473228502695,1812
1284.8637630868325,1838
1286.9796837205272,1907
1289.0950851612783,1930
1291.209967818078,1860
1293.3243320989864,1865
1295.4381784111324,1948
1297.551507160712,1987
1299.6643187529912,2007
1301.776613592303,1845
1303.888392082049,1892
1305.9996546246998,1884
1308.1104016217923,1973
1310.220633473934,1917
1312.3303505807999,1942
1314.4395533411316,1936
1316.5482421527418,1925
1318.6564174125092,1879
1320.7640795163816,1936
1322.8712288593752,1921
1324.9778658355744,1913
1327.0839908381313,1916
1329.1896042592675,1898
1331.2947064902714,1902
1333.3992979215009,1866
1335.503378942381,1959
1337.6069499414057,1906
1339.7100113061383,1933
1341.8125634232074,1871
1343.9146066783128,1870
1346.0161414562212,1866
1348.1171681407677,1922
1350.2176871148563,1936
1352.3176987604575,1920
1354.4172034586127,1973
1356.5162015894289,1918
1358.6146935320835,1966
1360.7126796648213,1879
1362.8101603649548,1920
1364.9071360088656,1876
1367.0036069720036,1846
1369.099573628886,1925
1371.195036353099,1900
1373.2899955172975,1863
1375.3844514932039,1843
1377.4784046516088,1900
1379.5718553623715,1885
1381.6648039944193,1852
1383.7572509157485,1896
1385.8491964934224,1932
1387.9406410935735,1826
1390.0315850814022,1909
1392.122028821177,1908
1394.2119726762357,1980
1396.3014170089828,1952
1398.3903621808918,1841
1400.4788085525051,1953
1402.566756483432,1866
1404.6542063323514,1825
1406.7411584570095,1906
1408.8276132142219,1889
1410.9135709598704,1879
1412.9990320489078,1940
1415.083996835353,1907
1417.1684656722937,1913
1419.2524389118867,1801
1421.3359169053565,1825
1423.4189000029946,1803
1425.5013885541634,1892
1427.5833829072913,1905
1429.664883409876,1908
1431.7458904084833,1822
1433.8264042487467,1899
1435.9064252753697,1806
1437.9859538321216,1884
1440.0649902618416,1867
1442.1435349064373,1920
1444.2215881068837,1907
1446.2991502032237,1938
1448.37622153457,1859
1450.452802439103,1923
1452.5288932540698,1939
1454.604494315788,2002
1456.6796059596427,1898
1458.7542285200866,1914
1460.8283623306415,1887
1462.902007723897,1889
1464.9751650315106,1908
1467.0478345842089,1896
1469.1200167117868,1907
1471.1917117431062,1915
1473.2629200060992,1901
1475.333641827764,1926
1477.4038775341692,1891
1479.4736274504498,1999
1481.5428919008104,1867
1483.6116712085222,1893
1485.6799656959279,1981
1487.7477756844346,1881
1489.8151014945201,1921
1491.88194344573,1902
1493.9483018566775,1888
1496.0141770450455,1923
1498.0795693275822,1855
1500.1444790201076,1902
1502.2089064375086,1967
1504.2728518937402,1961
1506.3363157018239,1904
1508.3992981738534,1895
1510.4617996209872,1983
1512.5238203534536,1920
1514.5853606805495,1930
1516.6464209106384,1962
1518.7070013511543,1947
1520.7671023085973,1958
1522.8267240885375,1940
1524.885866995612,1932
1526.9445313335268,1974
1529.002717405056,1983
1531.0604255120425,2017
1533.1176559553965,1940
1535.1744090350971,2053
1537.2306850501914,2047
1539.2864842987956,2069
1541.3418070780922,2023
1543.396653684334,1988
1545.4510244128405,2019
1547.5049195580013,2088
1549.5583394132727,2071
1551.61128427118,2094
1553.6637544233158,2034
1555.7157501603415,2013
1557.7672717719888,2044
1559.8183195470538,2138
1561.8688937734037,2074
1563.9189947379737,2121
1565.9686227267657,2065
1568.0177780248514,2040
1570.0664609163696,2069
1572.1146716845292,2064
1574.162410611605,2075
1576.2096779789413,2092
1578.2564740669518,2054
1580.3027991551157,2005
1582.3486535219831,1946
1584.3940374451709,2024
1586.4389512013645,2018
1588.4833950663178,1939
1590.5273693148533,1966
1592.5708742208603,1984
1594.6139100572982,1919
1596.6564770961936,1920
1598.698575608642,1919
1600.7402058648063,1955
1602.7813681339185,1966
1604.8220626842776,1921
1606.8622897832533,1915
1608.9020496972812,1938
1610.9413426918663,1915
1612.9801690315808,1870
1615.018528980066,1927
1617.056422800033,1994
1619.0938507532578,1998
1621.1308131005876,1915
1623.1673101019355,1863
1625.2033420162848,1969
1627.2389091016862,1967
1629.274011615259,1917
1631.3086498131897,1825
1633.3428239507352,1890
1635.376534282219,1894
1637.4097810610324,1891
1639.4425645396364,1938
1641.4748849695593,1906
1643.5067426013989,1925
1645.53813768482,1874
1647.5690704685549,1909
1649.5995412004067,1975
1651.6295501272452,2022
1653.6590974950086,1943
1655.6881835487025,1859
1657.7168085324029,1954
1659.7449726892523,1960
1661.772676261462,1904
1663.7999194903114,1873
1665.8267026161484,1840
1667.8530258783894,1935
1669.8788895155185,1948
1671.9042937650888,1910
1673.9292388637205,1854
1675.953725047103,1906
1677.977752549994,1884
1680.0013216062184,1877
1682.0244324486712,1864
1684.0470853093134,1950
1686.0692804191767,1953
1688.0910180083588,1903
1690.1122983060268,1899
1692.1331215404175,1948
1694.1534879388319,1923
1696.173397727644,1924
1698.1928511322926,1904
1700.211848377286,1975
1702.2303896862018,1995
1704.248475281684,2043
1706.2661053854458,2007
1708.2832802182684,1959
1710.300000000002,2023
1712.3162649495644,1960
1714.3320752849409,1943
1716.3474312231865,1861
1718.362332980424,1936
1720.376780771845,1900
1722.3907748117072,1906
1724.4043153133393,1960
1726.4174024891367,1895
1728.4300365505628,1936
1730.442217708151,1929
1732.4539461715008,1929
1734.465222149282,1887
1736.4760458492306,1897
1738.4864174781524,1895
1740.496337241921,1929
1742.5058053454786,1892
1744.5148219928346,1817
1746.523387387068,1878
1748.531501730325,1903
1750.5391652238209,1864
1752.5463780678388,1938
1754.55314046173,1937
1756.5594526039135,2001
1758.565314691879,1958
1760.5707269221812,1863
1762.5756894904443,2020
1764.580202591363,1975
1766.5842664186966,1907
1768.5878811652751,1983
1770.591047022996,1967
1772.593764182825,1968
1774.5960328347965,1918
1776.5978531680116,1910
1778.5992253706427,2007
1780.6001496299273,1951
1782.6006261321731,1952
1784.6006550627553,1953
1786.6002366061175,1945
1788.5993709457725,2021
1790.5980582642992,2039
1792.5962987433468,2036
1794.5940925636314,1967
1796.5914399049389,1977
1798.5883409461221,2001
1800.584795865102,1951
1802.580804838869,1954
1804.5763680434807,1897
1806.571485654064,1999
1808.566157844813,1860
1810.5603847889902,1949
1812.5541666589274,1985
1814.5475036260236,1901
1816.5403958607467,1930
1818.5328435326323,2000
1820.5248468102845,1857
1822.5164058613755,1965
1824.5075208526468,1951
1826.4981919499064,1953
1828.488419318032,1984
1830.4782031209684,1961
1832.4675435217305,1908
1834.4564406823993,1934
1836.4448947641258,1959
1838.432905927128,1949
1840.4204743306927,1953
1842.4076001331746,1981
1844.3942834919985,1959
1846.380524563654,1986
1848.366323503702,1956
1850.351680466771,1950
1852.3365956065563,1996
1854.3210690758228,2034
1856.3051010264044,1971
1858.2886916092007,1949
1860.271840974182,1972
1862.2545492703862,2029
1864.2368166459191,2034
1866.2186432479543,1966
1868.2000292227349,1972
1870.1809747155717,1982
1872.1614798708429,2009
1874.1415448319963,2008
1876.1211697415474,1987
1878.1003547410805,1996
1880.0790999712472,1971
1882.0574055717675,1920
1884.0352716814305,2030
1886.0126984380927,2022
1887.989685978679,1975
1889.9662344391836,1982
1891.9423439546672,2018
1893.9180146592607,1954
1895.893246686161,1942
1897.868040167636,2030
1899.8423952350195,1976
1901.8163120187137,2011
1903.7897906481917,1965
1905.7628312519923,2013
1907.7354339577219,2032
1909.7075988920578,2003
1911.6793261807447,2076
1913.6506159485943,2075
1915.6214683194871,2117
1917.5918834163726,2014
1919.5618613612687,2050
1921.5314022752605,1969
1923.5005062785012,2041
1925.4691734902144,2007
1927.4374040286893,1928
1929.4051980112845,2069
1931.3725555544274,2144
1933.3394767736136,2119
1935.305961783406,2100
1937.2720106974361,2083
1939.237623628404,2075
1941.2028006880778,2007
1943.167541987295,2063
1945.1318476359588,1997
1947.0957177430432,1998
1949.0591524165898,2089
1951.0221517637078,2075
1952.984715890574,2113
1954.9468449024357,2040
1956.9085389036072,1909
1958.8697979974704,1969
1960.8306222864767,1998
1962.7910118721456,2035
1964.7509668550638,1966
1966.7104873348871,2021
1968.6695734103387,1980
1970.6282251792127,2034
1972.586442738368,1962
1974.5442261837343,2038
1976.501575610307,1972
1978.4584911121533,2002
1980.4149727824056,2058
1982.3710207132658,2010
1984.326634996004,2059
1986.2818157209585,2101
1988.2365629775359,2074
1990.1908768542116,2071
1992.144757438527,2075
1994.0982048170954,2113
1996.0512190755953,2033
1998.0038002987749,2018
1999.95594857045,1946
2001.9076639735054,2071
2003.8589465898945,2005
2005.8097965006368,2062
2007.760213785822,2010
2009.7101985246077,2005
2011.6597507952201,1990
2013.6088706749524,2027
2015.5575582401675,2028
2017.5058135662953,2036
2019.4536367278351,2000
2021.4010277983534,2039
2023.347986850486,2098
2025.2945139559365,2072
2027.2406091854768,2085
2029.1862726089462,2003
2031.1315042952538,2085
2033.0763043123766,2050
2035.0206727273585,1998
2036.964609606313,2005
2038.908115014422,1998
2040.8511890159348,2050
2042.7938316741693,2030
2044.7360430515123,2135
2046.677823209417,2061
2048.6191722084077,2010
2050.5600901080743,2017
2052.5005769670765,2059
2054.440632843142,2093
2056.380257793066,2043
2058.3194518727128,1968
2060.258215137015,2020
2062.1965476399732,2045
2064.1344494346554,2007
2066.0719205732,2075
2068.008961106812,2051
2069.945571085764,2038
2071.8817505593997,2078
2073.817499576128,2107
2075.7528181834273,2017
2077.6877064278447,2056
2079.622164354995,2061
2081.556192009562,2046
2083.4897894352966,2095
2085.4229566750187,2095
2087.355693770616,2009
2089.2880007630456,2090
2091.219877692331,2026
2093.151324597566,2025
2095.0823415169107,2033
2097.012928487595,2072
2098.9430855459173,2041
2100.872812727242,2006
2102.8021100660035,2095
2104.730977595705,2147
2106.659415348917,2072
2108.5874233572777,2078
2110.5150016514945,2107
2112.442150261343,2082
2114.3688692156675,2054
2116.2951585423793,2107
2118.2210182684585,2037
2120.146448419954,2123
2122.0714490219825,2064
2123.9960200987293,2078
2125.920161673447,2078
2127.843873768458,2087
2129.767156405151,2137
2131.690009603985,2007
2133.612433384486,2097
2135.534427765249,2063
2137.4559927639366,2060
2139.37712839728,2076
2141.2978346810783,2081
2143.2181116301995,2095
2145.1379592585795,2141
2147.057377579222,2119
2148.9763666042,2005
2150.894926344655,2042
2152.813056810794,2094
2154.730758011896,2151
2156.648029956306,2037
2158.564872651437,1975
2160.481286103772,2149
2162.397270318861,2011
2164.312825301323,1965
2166.227951054844,2020
2168.14264758218,2047
2170.056914885153,2077
2171.9707529646566,2065
2173.8841618206484,2092
2175.7971414521585,2025
2177.7096918572825,2099
2179.621813033186,2059
2181.5335049761,2072
2183.444767681327,2112
2185.355601143236,2118
2187.2660053552654,2123
2189.1759803099208,2046
2191.085525998777,2079
2192.994642412475,2110
2194.903329540727,2096
2196.811587372312,2075
2198.7194158950765,2030
2200.626815095937,2083
2202.5337849608763,2136
2204.440325474948,2122
2206.346436622271,2137
2208.2521183860345,2052
2210.157370748496,2078
2212.0621936909793,2065
2213.966587193879,2057
2215.8705512366573,2107
2217.774085797842,2163
2219.677190855033,2108
2221.579866384897,2040
2223.4821123631677,2085
2225.3839287646483,2097
2227.2853155632106,2089
2229.186272731794,2057
2231.0868002424063,2066
2232.986898066123,2132
2234.8865661730892,2135
2236.785804532517,2129
2238.6846131126877,2149
2240.5829918809495,2077
2242.4809408037213,1991
2244.3784598464877,2106
2246.275548973803,2064
2248.172208149288,2225
2250.0684373356357,2092
2251.964236494603,2080
2253.859605587017,2068
2255.7545445727733,2048
2257.6490534108357,2102
2259.5431320592356,2125
2261.436780475073,2131
2263.329998614516,2109
2265.222786432802,2160
2267.1151438842344,2085
2269.0070709221877,2174
2270.8985674991022,2095
2272.789633566488,2163
2274.6802690749237,2128
2276.570473974053,2118
2278.4602482125933,2088
2280.3495917383257,2104
2282.238504498101,2134
2284.1269864378387,2121
2286.0150375025264,2120
2287.9026576362203,2147
2289.789846782043,2096
2291.6766048821873,2213
2293.5629318779147,2122
2295.4488277095534,2142
2297.3342923164996,2171
2299.2193256372193,2180
2301.1039276092465,2174
2302.9880981691817,2133
2304.871837252696,2179
2306.755144794528,2088
2308.6380207284838,2132
2310.5204649874386,2245
2312.4024775033354,2172
2314.2840582071854,2021
2316.165207029068,2179
2318.0459238981325,2163
2319.926208742594,2088
2321.8060614897363,2158
2323.6854820659137,2129
2325.5644703965463,2164
2327.443026406124,2171
2329.321150018203,2101
2331.1988411554107,2162
2333.0760997394395,2149
2334.952925691053,2197
2336.829318930082,2072
2338.705279375424,2104
2340.5808069450477,2080
2342.4559015559867,2244
2344.3305631243456,2154
2346.204791565297,2168
2348.07858679308,2123
2349.9519487210027,2148
2351.824877261443,2099
2353.6973723258448,2169
2355.5694338247226,2131
2357.4410616676564,2125
2359.312255763297,2116
2361.1830160193617,2226
2363.053342342637,2179
2364.9232346389776,2087
2366.792692813306,2181
2368.6617167696145,2170
2370.5303064109603,2201
2372.3984616394723,2178
2374.2661823563467,2134
2376.1334684618464,2171
2378.0003198553054,2245
2379.8667364351227,2216
2381.7327180987672,2097
2383.5982647427777,2151
2385.4633762627586,2148
2387.3280525533837,2231
2389.192293508395,2087
2391.0560990206027,2144
2392.919468981885,2171
2394.782403283189,2169
2396.644901814531,2167
2398.5069644649916,2145
2400.3685911227235,2176
2402.2297816749474,2221
2404.0905360079505,2230
2405.950854007089,2233
2407.8107355567886,2169
2409.670180540541,2164
2411.529188840908,2140
2413.387760339518,2167
2415.2458949170705,2095
2417.1035924533294,2160
2418.96085282713,2180
2420.8176759163744,2137
2422.6740615980334,2197
2424.5300097481468,2135
2426.38552024182,2117
2428.24059295323,2136
2430.0952277556207,2239
2431.949424521303,2193
2433.803183121658,2215
2435.6565034271343,2185
2437.5093853072485,2210
2439.361828630585,2165
2441.213833264798,2162
2443.0653990766095,2162
2444.916525931808,2167
2446.7672136952524,2092
2448.6174622308695,2182
2450.4672714016538,2151
2452.3166410696676,2191
2454.165571096043,2223
2456.0140613409794,2205
2457.8621116637432,2245
2459.709721922672,2120
2461.556891975169,2195
2463.403621677707,2189
2465.249910885827,2201
2467.0957594541383,2114
2468.9411672363167,2195
2470.78613408511,2146
2472.630659852331,2132
2474.4747443888614,2195
2476.3183875446516,2179
2478.161589168721,2196
2480.0043491091556,2196
2481.8466672131112,2198
2483.6885433268108,2212
2485.529977295547,2181
2487.370968963678,2214
2489.2115181746335,2116
2491.0516247709097,2172
2492.891288594071,2232
2494.7305094847497,2174
2496.569287282649,2195
2498.407621826537,2149
2500.2455129542523,2143
2502.0829605027,2188
2503.919964307855,2163
2505.7565242047594,2223
2507.5926400275252,2206
2509.42831160933,2230
2511.263538782423,2250
2513.0983213781174,2175
2514.9326592267994,2132
2516.76655215792,2203
2518.5999999999995,2197
2520.4330025806275,2106
2522.2655597264607,2133
2524.0976712632237,2152
2525.9293370157097,2163
2527.760556807782,2185
2529.591330462369,2154
2531.4216578014702,2175
2533.2515386461523,2152
2535.080972816548,2209
2536.9099601318626,2197
2538.738500410366,2290
2540.5665934693993,2209
2542.3942391253695,2167
2544.221437193752,2242
2546.0481874890925,2261
2547.874489825003,2067
2549.700344014164,2201
2551.5257498683245,2208
2553.350707198304,2121
2555.175215813986,2142
2556.9992755243256,2250
2558.8228861373454,2183
2560.646047460134,2199
2562.468759298852,2274
2564.2910214587255,2165
2566.1128337440496,2185
2567.93419595819,2206
2569.7551079035757,2195
2571.5755693817077,2245
2573.395580193155,2167
2575.2151401375536,2159
2577.034249013609,2207
2578.8529066190936,2168
2580.6711127508493,2199
2582.488867204785,2220
2584.3061697758794,2253
2586.1230202581787,2207
2587.939418444797,2178
2589.7553641279183,2195
2591.570857098791,2141
2593.385897147736,2229
2595.200484064141,2242
2597.014617636461,2262
2598.8282976522214,2227
2600.6415238980126,2236
2602.454296159496,2139
2604.266614221401,2233
2606.0784778675243,2269
2607.8898868807305,2241
2609.700841042955,2239
2611.5113401351973,2292
2613.32138393753,2205
2615.13097222909,2218
2616.940104788084,2212
2618.748781391788,2210
2620.557001816543,2277
2622.364765837763,2214
2624.1720732299264,2203
2625.9789237665814,2185
2627.7853172203445,2215
2629.5912533629,2235
2631.396731965001,2225
2633.2017527964676,2149
2635.0063156261904,2308
2636.810420222126,2186
2638.614066351301,2235
2640.417253779809,2253
2642.219982272813,2133
2644.022251594542,2279
2645.8240615082973,2238
2647.625411776444,2273
2649.4263021604183,2195
2651.226732420724,2217
2653.026702316933,2187
2654.8262116076858,2215
2656.625260050691,2238
2658.423847402724,2246
2660.221973419631,2256
2662.0196378563246,2242
2663.8168404667867,2253
2665.613581004068,2227
2667.4098592202854,2212
2669.2056748666246,2192
2671.0010276933417,2164
2672.7959174497596,2147
2674.5903438842674,2179
2676.384306744327,2215
2678.177805776465,2238
2679.9708407262765,2242
2681.7634113384274,2266
2683.555517356648,2173
2685.3471585237403,2260
2687.138334581574,2263
2688.9290452710843,2215
2690.7192903322784,2301
2692.50906950423,2161
2694.2983825250794,2292
2696.087229132039,2220
2697.875609061386,2268
2699.6635220484677,2309
2701.450967827699,2280
2703.237946132564,2205
2705.0244566956126,2302
2706.8104992484664,2255
2708.596073521813,2319
2710.381179245408,2280
2712.1658161480777,2303
2713.949983957714,2206
2715.7336824012773,2202
2717.516911204798,2219
2719.299670093374,2239
2721.0819587911706,2266
2722.8637770214223,2215
2724.6451245064322,2252
2726.426000967571,2198
2728.2064061252763,2104
2729.986339699057,2282
2731.765801407488,2211
2733.5447909682134,2241
2735.323308097945,2215
2737.101352512463,2108
2738.8789239266166,2204
2740.6560220543215,2199
2742.4326466085645,2192
2744.2087973013977,2262
2745.984473843944,2276
2747.7596759463922,2285
2749.534403318001,2245
2751.308655667096,2205
2753.0824327010737,2163
2754.8557341263954,2256
2756.628559648593,2203
2758.4009089722667,2210
2760.172781801083,2241
2761.944177837779,2220
2763.715096784159,2164
2765.4855383410945,2144
2767.2555022085267,2247
2769.024988085465,2184
2770.793995669988,2250
2772.5625246592385,2215
2774.3305747494323,2316
2776.098145635852,2280
2777.865237012847,2236
2779.6318485738357,2280
2781.397980011306,2167
2783.163631016813,2187
2784.928801280979,2206
2786.6934904934974,2256
2788.457698343127,2259
2790.221424517697,2247
2791.9846687041027,2281
2793.74743058831,2316
2795.5097098553515,2222
2797.2715061893286,2235
2799.0328192734105,2220
2800.793648789836,2247
2802.553994419911,2274
2804.3138558440087,2276
2806.073232741573,2265
2807.8321247911135,2290
2809.590531670211,2289
2811.3484530555115,2232
2813.105888622732,2317
2814.8628380466557,2199
2816.6193010011348,2188
2818.3752771590903,2224
2820.13076619251,2273
2821.885767772452,2273
2823.640281569041,2288
2825.3943072514703,2296
2827.147844488002,2282
2828.9008929459665,2263
2830.6534522917614,2169
2832.405522190854,2240
2834.1571023077786,2318
2835.9081923061394,2253
2837.658791848606,2321
2839.40890059692,2279
2841.1585182118874,2223
2842.907644353386,2274
2844.6562786803593,2254
2846.4044208508203,2235
2848.15207052185,2223
2849.899227349598,2235
2851.6458909892804,2261
2853.392061095185,2260
2855.137737320664,2169
2856.882919318142,2283
2858.6276067391063,2253
2860.371799234118,2352
2862.1154964528037,2282
2863.8586980438586,2230
2865.6014036550464,2238
2867.343612933199,2246
2869.0853255242173,2275
2870.826541073068,2293
2872.567259223789,2279
2874.307479619485,2342
2876.0472019023287,2217
2877.7864257135625,2226
2879.525150693495,2195
2881.263376481505,2228
2883.0011027160385,2237
2884.73832903461,2207
2886.4750550738027,2299
2888.2112804692665,2328
2889.9470048557223,2263
2891.682227866956,2299
2893.416949135825,2291
2895.151168294252,2336
2896.88488497323,2383
2898.6180988028204,2324
2900.3508094121503,2229
2902.083016429419,2302
2903.81471948189,2249
2905.5459181958972,2238
2907.276612196844,2282
2909.0068011091994,2256
2910.736484556502,2295
2912.465662161359,2233
2914.194333545445,2295
2915.922498329504,2346
2917.650156133346,2227
2919.377306575852,2325
2921.103949274969,2270
2922.830083847715,2257
2924.555709910173,2301
2926.2808270774967,2245
2928.005434963907,2324
2929.7295331826936,2244
2931.4531213462133,2219
2933.1761990658924,2283
2934.8987659522254,2350
2936.6208216147747,2326
2938.3423656621694,2304
2940.0633977021116,2339
2941.783917341366,2311
2943.503924185768,2249
2945.223417840223,2289
2946.9423979087023,2321
2948.6608639942456,2281
2950.378815698962,2317
2952.096252624029,2273
2953.81317436969,2306
2955.529580535259,2298
2957.2454707191177,2295
2958.9608445187164,2362
2960.6757015305734,2255
2962.3900413502733,2248
2964.103863572472,2366
2965.817167790894,2406
2967.529953598327,2369
2969.2422205866337,2355
2970.953968346739,2311
2972.6651964686407,2320
2974.3759045414035,2304
2976.0860921531585,2282
2977.7957588911067,2353
2979.504904341517,2373
2981.2135280897273,2363
2982.9216297201433,2342
2984.629208816238,2352
2986.336264960554,2366
2988.0427977347017,2238
2989.7488067193594,2306
2991.454291494274,2282
2993.1592516382607,2335
2994.8636867292034,2344
2996.567596344053,2277
2998.2709800588295,2380
2999.973837448621,2352
3001.6761680875857,2370
3003.377971548946,2360
3005.0792474049954,2271
3006.7799952270957,2267
3008.480214585676,2294
3010.1799050502345,2383
3011.8790661893368,2317
3013.5776975706176,2279
3015.2757987607793,2261
3016.973369325592,2243
3018.6704088298966,2323
3020.366916837598,2221
3022.0628929116747,2324
3023.7583366141675,2304
3025.4532475061915,2363
3027.147625147925,2384
3028.841469098617,2389
3030.534778916585,2337
3032.2275541592144,2347
3033.9197943829577,2328
3035.611499143338,2327
3037.302667994943,2288
3038.9933004914333,2313
3040.683396185535,2230
3042.372954629042,2289
3044.061975372817,2311
3045.7504579667934,2305
3047.4384019599684,2398
3049.1258069004116,2295
3050.812672335258,2266
3052.4989978107124,2211
3054.184782872047,2283
3055.870027063603,2274
3057.554729928791,2322
3059.238891010086,2322
3060.9225098490347,2274
3062.6055859862518,2307
3064.2881189614177,2319
3065.970108313285,2279
3067.651553579671,2346
3069.3324542974633,2364
3071.012810002616,2226
3072.6926202301543,2240
3074.3718845141702,2243
3076.050602387822,2306
3077.728773383339,2326
3079.406397032018,2257
3081.083472864223,2310
3082.7600004093874,2268
3084.4359791960137,2328
3086.11140875167,2336
3087.7862886029952,2275
3089.4606182756943,2372
3091.134397294544,2282
3092.807625183385,2343
3094.4803014651284,2348
3096.152425661755,2329
3097.8239972943097,2292
3099.49501588291,2364
3101.165480946741,2286
3102.8353920040518,2309
3104.504748572165,2342
3106.1735501674693,2308
3107.8417963054226,2386
3109.5094865005485,2334
3111.176620266441,2371
3112.8431971157625,2365
3114.5092165602427,2314
3116.1746781106813,2333
3117.839581276943,2322
3119.503925567965,2354
3121.167710491747,2375
3122.830935555364,2331
3124.493600264954,2345
3126.1557041257247,2312
3127.817246641952,2276
3129.478227316982,2359
3131.1386456532273,2357
3132.798501152168,2342
3134.4577933143537,2272
3136.116521639402,2305
3137.7746856259982,2370
3139.4322847718977,2353
3141.0893185739224,2296
3142.745786527962,2402
3144.4016881289754,2338
3146.0570228709903,2374
3147.711790247102,2346
3149.3659897494754,2323
3151.0196208693396,2294
3152.6726830969974,2375
3154.3251759218165,2302
3155.9770988322334,2362
3157.6284513157534,2290
3159.2792328589485,2371
3160.929442947461,2357
3162.579081066002,2398
3164.2281466983477,2352
3165.8766393273454,2323
3167.5245584349086,2295
3169.1719035020224,2352
3170.818674008735,2337
3172.4648694341677,2363
3174.110489256508,2442
3175.7555329530105,2357
3177.4000000000005,2425
3179.0438898728707,2328
3180.6872020460805,2407
3182.32993599316,2421
3183.972091186706,2330
3185.613667098384,2384
3187.254663198927,2369
3188.8950789581386,2255
3190.5349138448873,2367
3192.1741673271126,2290
3193.8128388718224,2329
3195.4509279450886,2378
3197.0884340120574,2380
3198.725356536939,2359
3200.361694983014,2357
3201.997448812629,2338
3203.632617487203,2342
3205.2672004672195,2389
3206.901197212229,2395
3208.5346071808563,2345
3210.167429830789,2372
3211.799664618785,2360
3213.4313110006706,2310
3215.0623684313387,2335
3216.692836364753,2284
3218.3227142539445,2322
3219.9520015510125,2330
3221.5806977071215,2337
3223.2088021725103,2356
3224.8363143964816,2283
3226.4632338274077,2346
3228.089559912728,2323
3229.715292098951,2266
3231.3404298316545,2279
3232.9649725554846,2324
3234.5889197141523,2379
3236.2122707504395,2305
3237.8350251061984,2278
3239.457182222345,2407
3241.0787415388677,2412
3242.6997024948187,2335
3244.3200645283223,2370
3245.9398270765696,2328
3247.558989575821,2414
3249.177551461403,2367
3250.7955121677123,2327
3252.412871128213,2320
3254.029627775437,2311
3255.6457815409867,2319
3257.2613318555286,2254
3258.876278148802,2280
3260.490619849613,2294
3262.1043563858348,2302
3263.717487184408,2268
3265.3300116713453,2341
3266.941929271725,2302
3268.5532394096917,2351
3270.1639415084646,2401
3271.7740349903233,2402
3273.383519276621,2364
3274.9923937877775,2446
3276.6006579432833,2341
3278.2083111616903,2417
3279.815352860627,2410
3281.421782456786,2416
3283.027599365927,2382
3284.632803002881,2338
3286.237392781545,2370
3287.841368114885,2355
3289.4447284149373,2273
3291.047473092801,2356
3292.649601558651,2373
3294.2511132217223,2292
3295.8520074903254,2332
3297.452283771835,2316
3299.051941472695,2397
3300.650979998417,2370
3302.2493987535827,2343
3303.8471971418403,2394
3305.4443745659064,2438
3307.0409304275654,2435
3308.636864127674,2309
3310.2321750661513,2337
3311.8268626419876,2323
3313.420926253242,2347
3315.01436529704,2335
3316.6071791695776,2361
3318.1993672661183,2302
3319.7909289809913,2322
3321.3818637075983,2471
3322.972170838406,2342
3324.561849764951,2309
3326.150899877838,2486
3327.7393205667386,2370
3329.3271112203956,2412
3330.9142712266166,2365
3332.5007999722793,2357
3334.08669684333,2384
3335.6719612247834,2415
3337.2565925007193,2385
3338.840590054291,2424
3340.4239532677157,2497
3342.006681522281,2462
3343.5887741983406,2358
3345.1702306753214,2377
3346.7510503317126,2368
3348.3312325450743,2433
3349.910776692037,2395
3351.4896821482953,2376
3353.0679482886153,2405
3354.645574486829,2349
3356.2225601158398,2410
3357.798904547615,2424
