CollectionTime,4/2/2024 11:34:25 AM
ExposureUsed,3
CalibratedSpectrum
-994.8464149364308,603
-991.9439705588344,636
-989.042830375826,634
-986.1429931109675,646
-983.2444574887519,718
-980.3472222346043,748
-977.4512860748813,662
-974.5566477368716,609
-971.6633059487953,607
-968.7712594398042,649
-965.8805069399822,611
-962.9910471803447,635
-960.1028788928387,666
-957.2160008103432,696
-954.3304116666687,664
-951.4461101965578,649
-948.5630951356844,668
-945.6813652206545,730
-942.8009191890055,773
-939.9217557792067,708
-937.0438737306594,756
-934.167271783696,682
-931.2919486795813,673
-928.4179031605115,696
-925.5451339696144,704
-922.67363985095,735
-919.8034195495097,736
-916.9344718112166,723
-914.0667953829256,756
-911.2003890124234,748
-908.3352514484286,745
-905.471381440591,757
-902.6087777394928,703
-899.7474390966474,715
-896.8873642645002,787
-894.0285519964284,707
-891.1710010467407,698
-888.3147101706776,715
-885.4596781244115,718
-882.6059036650465,657
-879.7533855506183,656
-876.9021225400943,661
-874.0521133933738,691
-871.2033568712878,685
-868.3558517355991,691
-865.509596749002,768
-862.6645906751228,769
-859.8208322785192,853
-856.9783203246812,853
-854.1370535800299,711
-851.2970308119186,689
-848.4582507886321,710
-845.620712279387,714
-842.7844140543316,678
-839.9493548845461,725
-837.1155335420422,773
-834.2829487997635,717
-831.4515994315852,738
-828.6214842123144,742
-825.7926019176898,750
-822.9649513243819,734
-820.138531209993,720
-817.3133403530569,761
-814.4893775330396,776
-811.6666415303382,760
-808.845131126282,679
-806.0248451031321,726
-803.2057822440808,681
-800.3879413332527,708
-797.5713211557038,729
-794.755920497422,771
-791.941738145327,712
-789.1287728872701,738
-786.3170235120342,837
-783.5064888093341,735
-780.6971675698165,694
-777.8890585850597,728
-775.0821606475735,753
-772.2764725507997,752
-769.4719930891118,760
-766.6687210578151,786
-763.8666552531465,843
-761.0657944722747,1013
-758.2661375133,892
-755.4676831752547,808
-752.6704302581027,752
-749.8743775627395,693
-747.0795238909925,748
-744.285868045621,762
-741.4934088303156,755
-738.702145049699,745
-735.9120755093254,788
-733.123199015681,923
-730.3355143761836,987
-727.5490203991826,802
-724.7637158939592,784
-721.9795996707265,787
-719.1966705406293,730
-716.4149273157439,729
-713.6343688090786,729
-710.8549938345734,701
-708.0768012070998,721
-705.2997897424614,748
-702.5239582573931,785
-699.7493055695622,842
-696.9758304975669,855
-694.2035318609377,784
-691.4324084801367,831
-688.6624591765578,822
-685.8936827725265,762
-683.1260780913001,802
-680.3596439570675,803
-677.5943791949499,793
-674.8302826309991,732
-672.0673530922,731
-669.3055894064685,815
-666.5449904026519,858
-663.78555491053,796
-661.0272817608139,850
-658.2701697851465,833
-655.5142178161026,897
-652.7594246871884,895
-650.0057892328422,835
-647.2533102884337,775
-644.5019866902646,858
-641.7518172755683,784
-639.0028008825099,759
-636.254936350186,859
-633.5082225186254,892
-630.7626582287882,822
-628.0182423225665,791
-625.2749736427841,799
-622.5328510331965,918
-619.7918733384909,883
-617.0520394042862,875
-614.3133480771331,870
-611.5757982045143,878
-608.8393886348437,927
-606.1041182174672,950
-603.3699858026625,946
-600.6369902416393,1007
-597.9051303865383,1064
-595.1744050904326,1054
-592.4448132073267,1074
-589.7163535921568,1060
-586.9890251007912,973
-584.2628265900296,883
-581.5377569176036,907
-578.8138149421764,966
-576.090999523343,991
-573.3693095216302,890
-570.6487437984965,912
-567.9293012163321,1028
-565.210980638459,1052
-562.4937809291307,969
-559.7777009535329,1005
-557.0627395777825,1021
-554.3488956689287,955
-551.6361680949519,997
-548.9245557247644,1045
-546.2140574282107,1056
-543.5046720760662,1204
-540.7963985400388,1137
-538.0892356927677,1108
-535.3831824078238,1239
-532.6782375597103,1296
-529.9744000238613,1329
-527.2716686766433,1422
-524.5700423953542,1559
-521.8695200582238,1504
-519.1701005444136,1382
-516.4717827340166,1470
-513.7745655080581,1708
-511.0784477484944,1805
-508.38342833821423,1993
-505.68950616103757,2106
-502.9966801017163,2159
-500.3049490459341,2292
-497.61431188030633,2095
-494.9247674923801,1790
-492.2363147706342,1559
-489.54895260447927,1485
-486.86267988425755,1504
-484.1774955012431,1485
-481.4933983476417,1529
-478.8103873165908,1381
-476.1284613021596,1217
-473.44761919934945,1266
-470.7678599040928,1261
-468.089182313254,1284
-465.4115853246294,1310
-462.735067836947,1400
-460.0596287498663,1333
-457.3852669639789,1161
-454.71198138080774,1074
-452.03977090280773,1073
-449.3686344333656,1114
-446.69857087679964,1230
-444.02957913835996,1309
-441.36165812422837,1272
-438.6948067415183,1280
-436.0290238982752,1191
-433.36430850347597,1196
-430.7006594670296,1160
-428.0380756997763,1215
-425.3765561134885,1238
-422.7160996208702,1291
-420.0567051355571,1410
-417.3983715721164,1300
-414.7410978460475,1255
-412.08488287378145,1382
-409.4297255726806,1328
-406.77562486103955,1169
-404.1225796580843,1206
-401.4705888839728,1099
-398.8196514597947,1066
-396.1697663075713,1117
-393.5209323502555,1033
-390.8731485117323,834
-388.22641371681823,907
-385.5807268912615,1054
-382.93608696174226,974
-380.29249285587207,924
-377.64994350219456,865
-375.0084378301849,835
-372.36797477025016,864
-369.7285532537287,897
-367.0901722128914,883
-364.45283058094014,786
-361.8165272920089,861
-359.1812612811634,817
-356.54703148440103,672
-353.9138368386507,622
-351.28167628177346,773
-348.6505487525617,937
-346.02045319074,860
-343.3913885369643,849
-340.76335373282245,856
-338.1363477208339,846
-335.5103694444499,850
-332.8854178480535,921
-330.26149187695944,889
-327.63859047741425,822
-325.016712596596,741
-322.3958571826148,723
-319.77602318451227,772
-317.15720955226186,759
-314.5394152367686,802
-311.9226391898695,793
-309.3068803643333,804
-306.69213771386023,1076
-304.0784101930824,1233
-301.4656967575635,1069
-298.8539963637994,961
-296.2433079692172,1059
-293.6336305321761,1117
-291.02496301196675,965
-288.41730436881176,1023
-285.81065356386534,976
-283.2050095592135,990
-280.60037131787396,1499
-277.9967378037961,1823
-275.39410798186134,1425
-272.7924808178824,1308
-270.19185527860407,1292
-267.5922303317028,1320
-264.9936049457866,1486
-262.3959780903955,1472
-259.79934873600087,1337
-257.2037158540064,1291
-254.6090784167469,1340
-252.01543539748934,1520
-249.42278577043237,1169
-246.8311285107061,1140
-244.24046259437262,1281
-241.6507869984256,1343
-239.0621007007909,1238
-236.4744026803254,1387
-233.88769191681808,1288
-231.30196739098994,1275
-228.7172280844934,1154
-226.13347297991243,1287
-223.550701060763,1373
-220.9689113114929,1276
-218.3881027174814,1215
-215.8082742650397,1453
-213.22942494141068,1837
-210.65155373476898,2032
-208.07465963422078,1755
-205.49874162980439,1733
-202.92379871248932,1890
-200.34982987417743,1788
-197.7768341077018,1542
-195.20481040682762,1255
-192.63375776625162,1197
-190.0636751816021,1469
-187.49456164943945,1507
-184.92641616725564,1621
-182.3592377334743,1749
-179.79302534745102,1812
-177.2277780094729,1893
-174.66349472075865,1803
-172.10017448345923,1896
-169.5378163006569,1803
-166.97641917636565,1730
-164.41598211553162,2036
-161.8565041240322,2288
-159.29798420867678,2171
-156.74042137720642,2191
-154.18381463829382,2488
-151.6281630015436,2170
-149.07346547749228,2029
-146.51972107760753,1778
-143.96692881428908,2099
-141.41508770086864,2670
-138.86419675160937,2217
-136.31425498170609,1882
-133.7652614072856,1906
-131.21721504540642,1961
-128.67011491405844,2388
-126.12396003216395,3244
-123.57874941957618,3850
-121.03448209708074,3275
-118.49115708639465,2779
-115.94877341016684,2770
-113.40733009197788,3243
-110.86682615633993,3016
-108.32726062869733,3051
-105.78863253542556,3795
-103.25094090383243,5145
-100.71418476215695,4871
-98.17836313957025,4219
-95.64347506617503,3723
-93.10951957300585,3368
-90.57649569202886,3955
-88.04440245614194,4081
-85.51323889917478,4739
-82.98300405588896,4992
-80.45369696197747,6445
-77.925316654065,8317
-75.39786216970867,10610
-72.87133254739649,13634
-70.34572682654857,16632
-67.82104404751692,18393
-65.29728325158499,24655
-62.774443480968216,30777
-60.252523778813384,34682
-57.73152318919938,40860
-55.21144075713676,40427
-52.69227552856796,35128
-50.17402655036665,35445
-47.65669287033859,31224
-45.14027353722133,24717
-42.624767600684095,31857
-40.11017411132775,39718
-37.59649212068507,47653
-35.08372068122037,56977
-32.57185884632963,62982
-30.06090567034107,57079
-27.550860208513996,57218
-25.04172151704006,65044
-22.533488653042014,65044
-20.02616067457484,65044
-17.51973664062507,65044
-15.014215611111126,65044
-12.509596646882983,65044
-10.005878809722162,65044
-7.503061162342419,65044
-5.001142768389059,65044
-2.5001226924387083,65044
-3.410605131648481E-13,65044
2.49922624248552,65044
4.997556967646801,65044
7.494993107179766,65044
9.99153559184856,65044
12.487185351485778,65044
14.98194331499235,65044
17.475810410337544,65044
19.96878756455851,65044
22.46087570376085,65044
24.952075753118834,65044
27.442388636874625,28909
29.93181527833849,9306
32.42035659988892,7514
34.90801352297353,10667
37.39478696810693,11012
39.880677854873056,12363
42.36568710192364,10472
44.8498156269784,9375
47.33306434682618,9503
49.815434177322686,9026
52.296926033393675,9976
54.77754082903198,9197
57.25727947729865,9104
59.736142890323435,8542
62.214131979304284,5858
64.6912476545076,4647
67.16749082526735,3940
69.64286239998614,3385
72.11736328613551,3222
74.59099439025431,3402
77.06375661794982,4693
79.53565087389825,5031
82.0066780618431,4349
84.4768390845968,3894
86.94613484403999,4075
89.41456624112152,5581
91.88213417585825,5605
94.34883954733527,3909
96.81468325370679,3828
99.2796661921941,2955
101.74378925908763,3364
104.20705334974559,3675
106.66945935859462,4289
109.1310081791296,4207
111.59170070391383,4449
114.05153782457865,3975
116.5105204318238,2946
118.96864941541708,3068
121.42592566419489,4212
123.88235006606146,4447
126.3379235079899,3569
128.79264687602085,2934
131.2465210552641,3180
133.69954692989631,3058
136.15172538316415,3529
138.60305729738116,3330
141.05354355393,3044
143.50318503326116,2909
145.95198261489327,2637
148.39993717741368,2789
150.84704959847772,3420
153.29332075480897,4143
155.73875152219944,4092
158.18334277550935,3443
160.62709538866693,2982
163.0700102346691,2922
165.51208818558075,3192
167.953330112535,3419
170.39373688573346,3313
172.8333093744459,3292
175.2720484470101,3364
177.70995497083277,3478
180.14702981238815,4024
182.58327383721917,3705
185.01868790993672,3362
187.45327289422062,3377
189.88702965281777,3219
192.31995904754444,3127
194.75206193928489,3274
197.18333918799135,3166
199.61379165268454,2969
202.04342019145315,3086
204.4722256614548,3226
206.90020891891436,3530
209.32737081912592,3585
211.7537122164515,3495
214.17923396432116,3361
216.6039369152336,3359
219.0278219207553,3402
221.45088983152186,3442
223.8731414972358,3546
226.29457776666914,3272
228.71519948766172,3313
231.1350075071216,3463
233.55400267102482,3473
235.97218582441633,3630
238.38955781140908,3475
240.806119475184,3556
243.2218716579905,3587
245.6368152011462,3369
248.05095094503736,3372
250.46427972911806,3455
252.87680239191036,3572
255.28851977100544,3623
257.69943270306203,3576
260.10954202380753,3120
262.5188485680378,3135
264.92735316961557,3349
267.33505666147425,3323
269.7419598756128,3471
272.14806364310084,3641
274.5533687940747,3409
276.95787615773975,3143
279.361586562369,3226
281.7645008353045,3263
284.1666198029559,3246
286.5679442908013,3181
288.96847512338695,3292
291.3682131243279,3259
293.7671591163071,3325
296.1653139210757,3414
298.562678359453,3156
300.9592532513268,3248
303.3550394156532,3255
305.75003767045655,3128
308.14424883282936,3169
310.53767371893196,3197
312.93031314399377,3100
315.3221679223125,2979
317.71323886725304,3024
320.1035267912496,2957
322.49303250580397,2796
324.881756821487,2943
327.2697005479374,2829
329.65686449386135,2786
332.0432494670347,2906
334.4288562743004,2903
336.81368572157066,2870
339.19773861382487,2768
341.58101575511205,2706
343.96351794854786,2673
346.3452459963173,2689
348.72620069967365,2656
351.1063828589379,2806
353.48579327349967,2835
355.8644327418169,2944
358.24230206141533,2826
360.6194020288899,2759
362.99573343990255,2610
365.3712970891845,2587
367.7460937705348,2678
370.12012427682066,2651
372.493389399978,2621
374.86588993101077,2601
377.23762665999084,2507
379.6086003760588,2592
381.9788118674235,2529
384.34826192136165,2559
386.7169513242188,2464
389.08488086140824,2529
391.4520513174118,2584
393.8184634757795,2615
396.1841181191296,2631
398.54901602914856,2754
400.9131579865916,2716
403.2765447712811,2765
405.63917716210926,2772
408.00105593703483,2663
410.36218187308646,2554
412.7225557463596,2487
415.0821783320191,2496
417.4410504042976,2438
419.79917273649585,2466
422.1565461009834,2443
424.5131712691973,2428
426.869049011643,2480
429.22418009789544,2635
431.578565296596,2402
433.9322053754556,2349
436.28510110125285,2333
438.6372532398352,2392
440.98866255611733,2380
443.33932981408293,2343
445.6892557767842,2434
448.0384412063411,2408
450.38688686394175,2445
452.7345935098431,2541
455.0815619033697,2472
457.42779280291506,2512
459.7732869659403,2562
462.1180451489754,2473
464.4620681076178,2464
466.80535659653424,2496
469.1479113694588,2461
471.48973317919445,2532
473.8308227776122,2519
476.17118091565135,2730
478.51080834331924,2769
480.8497058096914,2830
483.1878740629122,2996
485.5253138501944,3099
487.8620259178176,3214
490.1980110111317,3633
492.53326987455307,3840
494.86780325156724,3963
497.201611884728,4136
499.53469651565683,4367
501.8670578850447,4163
504.1986967326493,4208
506.52961379729754,3944
508.85980981688454,3586
511.18928552837315,3430
513.5180416677952,3380
515.8460789702503,3509
518.1733981699067,4124
520.5,5116
522.8258851928354,5576
525.1510544797857,5121
527.4755085912916,4626
529.7992482568625,3984
532.1222742050759,3327
534.4445871635783,2769
536.766187859083,2453
539.0870770173726,2365
541.4072553632982,2351
543.7267236207783,2352
546.0454825128002,2248
548.363532761419,2357
550.6808750877592,2349
552.9975102120118,2304
555.3134388534377,2236
557.6286617303654,2280
559.9431795601911,2329
562.2569930593802,2234
564.570102943466,2312
566.88250992705,2340
569.1942147238021,2203
571.5052180464602,2245
573.8155206068309,2287
576.1251231157885,2387
578.4340262832759,2282
580.7422308183045,2278
583.0497374289534,2197
585.3565468223703,2172
587.6626597047714,2178
589.9680767814409,2197
592.2727987567309,2147
594.5768263340624,2174
596.8801602159238,2223
599.1828011038731,2129
601.4847496985356,2178
603.7860066996047,2184
606.0865728058427,2144
608.3864487150802,2260
610.6856351242152,2160
612.9841327292149,2111
615.2819422251141,2133
617.5790643060163,2114
619.8754996650935,2133
622.1712489945849,2188
624.466312985799,2128
626.7606923291121,2166
629.0543877139692,2273
631.347399828883,2249
633.6397293614343,2196
635.9313769982732,2209
638.2223434251173,2236
640.5126293267522,2264
642.8022353870326,2146
645.0911622888809,2165
647.3794107142876,2163
649.666981344312,2153
651.9538748590815,2283
654.2400919377915,2235
656.525633258706,2296
658.8104994991568,2267
661.0946913355442,2254
663.3782094433375,2225
665.6610544970729,2236
667.9432271703561,2221
670.22472813586,2238
672.5055580653268,2256
674.7857176295659,2303
677.065207498456,2186
679.3440283409432,2209
681.6221808250425,2217
683.899665617837,2168
686.1764833854772,2193
688.4526347931837,2242
690.7281205052436,2295
693.0029411850135,2293
695.2770974949171,2331
697.5505900964474,2242
699.8234196501651,2277
702.0955868156989,2307
704.3670922517472,2180
706.6379366160747,2217
708.9081205655159,2272
711.1776447559728,2233
713.4465098424155,2183
715.714716478883,2206
717.9822653184822,2280
720.2491570133882,2282
722.5153922148452,2259
724.7809715731639,2226
727.0458957377248,2182
729.3101653569763,2165
731.5737810784346,2234
733.8367435486853,2184
736.0990534133803,2235
738.3607113172418,2308
740.6217179040591,2225
742.8820738166899,2243
745.1417796970607,2315
747.4008361861659,2270
749.6592439240678,2263
751.9170035498973,2280
754.1741157018539,2380
756.4305810172048,2242
758.686400132286,2284
760.9415736825013,2339
763.196102302323,2268
765.4499866252911,2339
767.7032272840152,2338
769.9558249101717,2392
772.207780134506,2359
774.4590935868323,2413
776.7097658960313,2619
778.9597976900541,2473
781.2091895959184,2290
783.457942239711,2302
785.7060562465867,2259
787.9535322407687,2337
790.2003708455488,2307
792.4465726832861,2385
794.6921383754088,2423
796.9370685424128,2416
799.1813638038632,2385
801.4250247783918,2405
803.6680520837006,2408
805.9104463365579,2346
808.1522081528019,2414
810.393338147338,2264
812.6338369341406,2343
814.8737051262517,2262
817.1129433357819,2293
819.35155217391,2298
821.5895322508834,2287
823.8268841760168,2292
826.0636085576946,2331
828.2997060033681,2279
830.535177119558,2303
832.7700225118522,2277
835.0042427849078,2329
837.2378385424493,2385
839.4708103872701,2255
841.7031589212318,2246
843.9348847452643,2325
846.1659884593648,2342
848.3964706626004,2376
850.6263319531054,2415
852.8555729280824,2273
855.0841941838025,2364
857.3121963156052,2325
859.5395799178978,2350
861.7663455841566,2345
863.9924939069251,2398
866.2180254778159,2385
868.4429408875103,2350
870.6672407257561,2411
872.890925581371,2373
875.1139960422404,2340
877.336452695318,2392
879.5582961266261,2458
881.7795269212543,2426
884.0001456633613,2349
886.2201529361741,2386
888.4395493219874,2600
890.6583354021648,2552
892.8765117571375,2388
895.094078966405,2420
897.3110376085365,2394
899.5273882611671,2439
901.7431315010019,2356
903.958267903814,2420
906.1727980444443,2393
908.3867224968019,2366
910.6000418338647,2283
912.8127566276792,2393
915.0248674493587,2412
917.2363748690857,2450
919.4472794561113,2349
921.6575817787543,2408
923.867282404402,2244
926.0763818995099,2192
928.2848808296014,2172
930.4927797592693,2192
932.700079252173,2335
934.9067798710416,2282
937.112882177672,2191
939.3183867329287,2269
941.5232940967453,2270
943.727604828124,2208
945.9313194851336,2228
948.1344386249132,2250
950.3369628036685,2328
952.5388925766747,2254
954.7402284982745,2114
956.9409711218789,2135
959.1411209999676,2183
961.3406786840883,2170
963.5396447248565,2164
965.7380196719573,2196
967.9358040741427,2214
970.1329984792335,2204
972.3296034341188,2148
974.5256194847555,2157
976.72104717617,2149
978.9158870524552,2142
981.1101396567742,2072
983.3038055313566,2137
985.4968852175009,2120
987.6893792555747,2157
989.8812881850124,2084
992.072612544318,2113
994.263352871063,2029
996.453509701887,2088
998.6430835724984,2065
1000.832075017674,2026
1003.0204845712583,2063
1005.208312766164,1997
1007.3955601343728,2005
1009.5822272069338,1937
1011.7683145139652,1941
1013.9538225846525,1952
1016.1387519472505,1926
1018.3231031290818,1937
1020.5068766565371,1936
1022.6900730550753,1918
1024.872692849224,1969
1027.054736562579,1884
1029.2362047178037,1897
1031.4170978366305,1867
1033.5974164398597,1852
1035.7771610473603,1872
1037.9563321780693,1839
1040.1349303499917,1804
1042.3129560802006,1836
1044.490409884838,1849
1046.667292279115,1800
1048.8436037773079,1812
1051.0193448927644,1873
1053.1945161378994,1825
1055.3691180241954,1851
1057.5431510622038,1773
1059.7166157615447,1845
1061.8895126309053,1915
1064.0618421780423,1937
1066.2336049097798,1885
1068.4048013320107,1868
1070.5754319496955,1736
1072.745497266863,1823
1074.9149977866118,1775
1077.0839340111065,1850
1079.2523064415818,1815
1081.4201155783398,1741
1083.587361920751,1737
1085.7540459672537,1750
1087.9201682153553,1748
1090.0857291616308,1726
1092.2507293017238,1709
1094.4151691303464,1779
1096.579049141279,1684
1098.7423698273687,1782
1100.9051316805335,1686
1103.0673351917571,1706
1105.2289808510936,1735
1107.3900691476633,1776
1109.550600569657,1780
1111.710575604332,1720
1113.8699947380146,1700
1116.028858456099,1725
1118.1871672430489,1744
1120.344921582394,1713
1122.5021219567334,1747
1124.6587688477362,1711
1126.8148627361365,1756
1128.9704041017399,1739
1131.1253934234173,1778
1133.2798311791098,1788
1135.4337178458263,1774
1137.5870538996437,1697
1139.7398398157075,1756
1141.8920760682313,1620
1144.0437631304972,1710
1146.1949014748543,1726
1148.3454915727225,1773
1150.4955338945874,1775
1152.6450289100044,1709
1154.7939770875969,1781
1156.9423788950558,1792
1159.0902347991405,1804
1161.2375452656802,1711
1163.3843107595703,1742
1165.530531744775,1690
1167.6762086843282,1654
1169.8213420403304,1676
1171.9659322739503,1679
1174.1099798454266,1705
1176.2534852140639,1684
1178.3964488382376,1652
1180.538871175389,1726
1182.680752682029,1804
1184.8220938137365,1701
1186.9628950251595,1693
1189.103156770012,1719
1191.2428795010783,1661
1193.3820636702108,1703
1195.5207097283287,1707
1197.6588181254215,1630
1199.7963893105457,1645
1201.9334237318253,1723
1204.0699218364548,1636
1206.2058840706954,1720
1208.3413108798773,1619
1210.476202708397,1676
1212.6105599997222,1720
1214.7443831963874,1703
1216.877672739995,1727
1219.0104290712165,1699
1221.1426526297905,1731
1223.2743438545253,1753
1225.4055031832972,1756
1227.5361310530493,1699
1229.6662278997946,1780
1231.7957941586142,1695
1233.9248302636565,1791
1236.053336648139,1724
1238.1813137443464,1725
1240.3087619836338,1714
1242.4356817964222,1811
1244.5620736122019,1714
1246.6879378595318,1651
1248.813274966039,1674
1250.938085358418,1680
1253.062369462432,1662
1255.186127702913,1686
1257.3093605037611,1695
1259.4320682879434,1699
1261.554251477498,1682
1263.6759104935277,1648
1265.797045756206,1670
1267.9176576847744,1725
1270.0377466975428,1784
1272.1573132118879,1741
1274.2763576442567,1784
1276.394880410162,1795
1278.5128819241877,1811
1280.6303625999835,1736
1282.7473228502695,1731
1284.8637630868325,1675
1286.9796837205272,1777
1289.0950851612783,1691
1291.209967818078,1754
1293.3243320989864,1813
1295.4381784111324,1834
1297.551507160712,1835
1299.6643187529912,1768
1301.776613592303,1790
1303.888392082049,1739
1305.9996546246998,1835
1308.1104016217923,1746
1310.220633473934,1808
1312.3303505807999,1802
1314.4395533411316,1740
1316.5482421527418,1827
1318.6564174125092,1836
1320.7640795163816,1816
1322.8712288593752,1786
1324.9778658355744,1779
1327.0839908381313,1858
1329.1896042592675,1755
1331.2947064902714,1746
1333.3992979215009,1801
1335.503378942381,1772
1337.6069499414057,1747
1339.7100113061383,1751
1341.8125634232074,1756
1343.9146066783128,1768
1346.0161414562212,1798
1348.1171681407677,1755
1350.2176871148563,1736
1352.3176987604575,1766
1354.4172034586127,1752
1356.5162015894289,1836
1358.6146935320835,1804
1360.7126796648213,1735
1362.8101603649548,1795
1364.9071360088656,1781
1367.0036069720036,1763
1369.099573628886,1819
1371.195036353099,1818
1373.2899955172975,1769
1375.3844514932039,1785
1377.4784046516088,1776
1379.5718553623715,1735
1381.6648039944193,1728
1383.7572509157485,1768
1385.8491964934224,1729
1387.9406410935735,1752
1390.0315850814022,1669
1392.122028821177,1766
1394.2119726762357,1791
1396.3014170089828,1823
1398.3903621808918,1765
1400.4788085525051,1690
1402.566756483432,1772
1404.6542063323514,1750
1406.7411584570095,1765
1408.8276132142219,1783
1410.9135709598704,1811
1412.9990320489078,1816
1415.083996835353,1845
1417.1684656722937,1740
1419.2524389118867,1766
1421.3359169053565,1752
1423.4189000029946,1728
1425.5013885541634,1777
1427.5833829072913,1753
1429.664883409876,1773
1431.7458904084833,1812
1433.8264042487467,1775
1435.9064252753697,1740
1437.9859538321216,1775
1440.0649902618416,1744
1442.1435349064373,1807
1444.2215881068837,1816
1446.2991502032237,1811
1448.37622153457,1825
1450.452802439103,1882
1452.5288932540698,1833
1454.604494315788,1787
1456.6796059596427,1810
1458.7542285200866,1770
1460.8283623306415,1754
1462.902007723897,1772
1464.9751650315106,1851
1467.0478345842089,1790
1469.1200167117868,1761
1471.1917117431062,1759
1473.2629200060992,1765
1475.333641827764,1832
1477.4038775341692,1814
1479.4736274504498,1809
1481.5428919008104,1763
1483.6116712085222,1759
1485.6799656959279,1820
1487.7477756844346,1742
1489.8151014945201,1742
1491.88194344573,1765
1493.9483018566775,1824
1496.0141770450455,1782
1498.0795693275822,1789
1500.1444790201076,1859
1502.2089064375086,1754
1504.2728518937402,1734
1506.3363157018239,1772
1508.3992981738534,1811
1510.4617996209872,1776
1512.5238203534536,1850
1514.5853606805495,1839
1516.6464209106384,1782
1518.7070013511543,1821
1520.7671023085973,1762
1522.8267240885375,1817
1524.885866995612,1818
1526.9445313335268,1807
1529.002717405056,1843
1531.0604255120425,1853
1533.1176559553965,1905
1535.1744090350971,1838
1537.2306850501914,1905
1539.2864842987956,1900
1541.3418070780922,1940
1543.396653684334,1894
1545.4510244128405,1857
1547.5049195580013,1918
1549.5583394132727,1861
1551.61128427118,1951
1553.6637544233158,1942
1555.7157501603415,1968
1557.7672717719888,1917
1559.8183195470538,1979
1561.8688937734037,1978
1563.9189947379737,1971
1565.9686227267657,1991
1568.0177780248514,1871
1570.0664609163696,1963
1572.1146716845292,1983
1574.162410611605,1893
1576.2096779789413,1974
1578.2564740669518,1858
1580.3027991551157,1845
1582.3486535219831,1860
1584.3940374451709,1876
1586.4389512013645,1879
1588.4833950663178,1819
1590.5273693148533,1866
1592.5708742208603,1805
1594.6139100572982,1779
1596.6564770961936,1835
1598.698575608642,1890
1600.7402058648063,1866
1602.7813681339185,1824
1604.8220626842776,1854
1606.8622897832533,1738
1608.9020496972812,1816
1610.9413426918663,1824
1612.9801690315808,1903
1615.018528980066,1842
1617.056422800033,1787
1619.0938507532578,1883
1621.1308131005876,1809
1623.1673101019355,1793
1625.2033420162848,1776
1627.2389091016862,1767
1629.274011615259,1819
1631.3086498131897,1803
1633.3428239507352,1832
1635.376534282219,1822
1637.4097810610324,1822
1639.4425645396364,1812
1641.4748849695593,1835
1643.5067426013989,1810
1645.53813768482,1802
1647.5690704685549,1793
1649.5995412004067,1769
1651.6295501272452,1858
1653.6590974950086,1781
1655.6881835487025,1836
1657.7168085324029,1778
1659.7449726892523,1843
1661.772676261462,1767
1663.7999194903114,1800
1665.8267026161484,1792
1667.8530258783894,1830
1669.8788895155185,1806
1671.9042937650888,1780
1673.9292388637205,1777
1675.953725047103,1761
1677.977752549994,1834
1680.0013216062184,1771
1682.0244324486712,1767
1684.0470853093134,1846
1686.0692804191767,1829
1688.0910180083588,1800
1690.1122983060268,1781
1692.1331215404175,1787
1694.1534879388319,1750
1696.173397727644,1751
1698.1928511322926,1798
1700.211848377286,1805
1702.2303896862018,1883
1704.248475281684,1932
1706.2661053854458,1855
1708.2832802182684,1853
1710.300000000002,1906
1712.3162649495644,1833
1714.3320752849409,1792
1716.3474312231865,1797
1718.362332980424,1828
1720.376780771845,1790
1722.3907748117072,1806
1724.4043153133393,1833
1726.4174024891367,1834
1728.4300365505628,1879
1730.442217708151,1817
1732.4539461715008,1830
1734.465222149282,1759
1736.4760458492306,1776
1738.4864174781524,1867
1740.496337241921,1733
1742.5058053454786,1849
1744.5148219928346,1759
1746.523387387068,1779
1748.531501730325,1777
1750.5391652238209,1810
1752.5463780678388,1808
1754.55314046173,1790
1756.5594526039135,1835
1758.565314691879,1812
1760.5707269221812,1727
1762.5756894904443,1793
1764.580202591363,1783
1766.5842664186966,1875
1768.5878811652751,1762
1770.591047022996,1863
1772.593764182825,1816
1774.5960328347965,1845
1776.5978531680116,1834
1778.5992253706427,1758
1780.6001496299273,1804
1782.6006261321731,1813
1784.6006550627553,1943
1786.6002366061175,1840
1788.5993709457725,1778
1790.5980582642992,1917
1792.5962987433468,1814
1794.5940925636314,1843
1796.5914399049389,1781
1798.5883409461221,1789
1800.584795865102,1838
1802.580804838869,1736
1804.5763680434807,1790
1806.571485654064,1847
1808.566157844813,1903
1810.5603847889902,1868
1812.5541666589274,1921
1814.5475036260236,1824
1816.5403958607467,1815
1818.5328435326323,1797
1820.5248468102845,1910
1822.5164058613755,1831
1824.5075208526468,1864
1826.4981919499064,1814
1828.488419318032,1852
1830.4782031209684,1762
1832.4675435217305,1810
1834.4564406823993,1798
1836.4448947641258,1869
1838.432905927128,1865
1840.4204743306927,1918
1842.4076001331746,1930
1844.3942834919985,1862
1846.380524563654,1833
1848.366323503702,1837
1850.351680466771,1832
1852.3365956065563,1856
1854.3210690758228,1892
1856.3051010264044,1883
1858.2886916092007,1824
1860.271840974182,1869
1862.2545492703862,1835
1864.2368166459191,1904
1866.2186432479543,1847
1868.2000292227349,1910
1870.1809747155717,1868
1872.1614798708429,1911
1874.1415448319963,1924
1876.1211697415474,1898
1878.1003547410805,1882
1880.0790999712472,1883
1882.0574055717675,1869
1884.0352716814305,1878
1886.0126984380927,1796
1887.989685978679,1826
1889.9662344391836,1938
1891.9423439546672,1894
1893.9180146592607,1845
1895.893246686161,1801
1897.868040167636,1823
1899.8423952350195,1873
1901.8163120187137,1870
1903.7897906481917,1869
1905.7628312519923,1873
1907.7354339577219,1840
1909.7075988920578,1845
1911.6793261807447,1813
1913.6506159485943,1908
1915.6214683194871,1870
1917.5918834163726,1837
1919.5618613612687,1904
1921.5314022752605,1926
1923.5005062785012,1830
1925.4691734902144,1835
1927.4374040286893,1840
1929.4051980112845,1907
1931.3725555544274,1785
1933.3394767736136,1816
1935.305961783406,1897
1937.2720106974361,1924
1939.237623628404,1884
1941.2028006880778,1906
1943.167541987295,1940
1945.1318476359588,1910
1947.0957177430432,1935
1949.0591524165898,1881
1951.0221517637078,1925
1952.984715890574,1834
1954.9468449024357,1892
1956.9085389036072,1849
1958.8697979974704,1882
1960.8306222864767,1822
1962.7910118721456,1906
1964.7509668550638,1856
1966.7104873348871,1879
1968.6695734103387,1888
1970.6282251792127,1902
1972.586442738368,1871
1974.5442261837343,1920
1976.501575610307,1915
1978.4584911121533,1918
1980.4149727824056,1902
1982.3710207132658,1821
1984.326634996004,1885
1986.2818157209585,1876
1988.2365629775359,1852
1990.1908768542116,1972
1992.144757438527,1980
1994.0982048170954,1898
1996.0512190755953,1910
1998.0038002987749,1874
1999.95594857045,1914
2001.9076639735054,1897
2003.8589465898945,1878
2005.8097965006368,1855
2007.760213785822,1855
2009.7101985246077,1909
2011.6597507952201,1878
2013.6088706749524,1930
2015.5575582401675,1925
2017.5058135662953,1904
2019.4536367278351,1890
2021.4010277983534,1853
2023.347986850486,1912
2025.2945139559365,1973
2027.2406091854768,1945
2029.1862726089462,1954
2031.1315042952538,1943
2033.0763043123766,1897
2035.0206727273585,1855
2036.964609606313,1915
2038.908115014422,1835
2040.8511890159348,1887
2042.7938316741693,2000
2044.7360430515123,1909
2046.677823209417,1889
2048.6191722084077,1914
2050.5600901080743,1886
2052.5005769670765,1897
2054.440632843142,1845
2056.380257793066,1847
2058.3194518727128,1876
2060.258215137015,1964
2062.1965476399732,1961
2064.1344494346554,1911
2066.0719205732,1872
2068.008961106812,1794
2069.945571085764,1905
2071.8817505593997,1898
2073.817499576128,1946
2075.7528181834273,1938
2077.6877064278447,1898
2079.622164354995,1912
2081.556192009562,1895
2083.4897894352966,1940
2085.4229566750187,1889
2087.355693770616,1894
2089.2880007630456,1920
2091.219877692331,1898
2093.151324597566,1925
2095.0823415169107,1916
2097.012928487595,1949
2098.9430855459173,1977
2100.872812727242,1948
2102.8021100660035,1883
2104.730977595705,1870
2106.659415348917,1868
2108.5874233572777,1906
2110.5150016514945,1941
2112.442150261343,1994
2114.3688692156675,1976
2116.2951585423793,1849
2118.2210182684585,1917
2120.146448419954,1925
2122.0714490219825,1937
2123.9960200987293,1873
2125.920161673447,1942
2127.843873768458,1941
2129.767156405151,1892
2131.690009603985,1917
2133.612433384486,1904
2135.534427765249,1853
2137.4559927639366,1952
2139.37712839728,1899
2141.2978346810783,1921
2143.2181116301995,1927
2145.1379592585795,1951
2147.057377579222,1902
2148.9763666042,1930
2150.894926344655,1969
2152.813056810794,1926
2154.730758011896,1907
2156.648029956306,1972
2158.564872651437,1894
2160.481286103772,1851
2162.397270318861,1901
2164.312825301323,1902
2166.227951054844,1950
2168.14264758218,1924
2170.056914885153,1929
2171.9707529646566,1966
2173.8841618206484,1926
2175.7971414521585,1907
2177.7096918572825,1943
2179.621813033186,1942
2181.5335049761,1886
2183.444767681327,1912
2185.355601143236,1919
2187.2660053552654,1960
2189.1759803099208,1904
2191.085525998777,1935
2192.994642412475,1959
2194.903329540727,1972
2196.811587372312,1967
2198.7194158950765,1920
2200.626815095937,1943
2202.5337849608763,1976
2204.440325474948,1961
2206.346436622271,1935
2208.2521183860345,1943
2210.157370748496,1933
2212.0621936909793,1951
2213.966587193879,1972
2215.8705512366573,1922
2217.774085797842,1894
2219.677190855033,1860
2221.579866384897,1949
2223.4821123631677,1875
2225.3839287646483,1898
2227.2853155632106,1943
2229.186272731794,1987
2231.0868002424063,1991
2232.986898066123,1982
2234.8865661730892,1920
2236.785804532517,1979
2238.6846131126877,1925
2240.5829918809495,2008
2242.4809408037213,1921
2244.3784598464877,1899
2246.275548973803,1928
2248.172208149288,1976
2250.0684373356357,2075
2251.964236494603,2029
2253.859605587017,1912
2255.7545445727733,1941
2257.6490534108357,1973
2259.5431320592356,1967
2261.436780475073,1905
2263.329998614516,1922
2265.222786432802,1934
2267.1151438842344,1915
2269.0070709221877,1934
2270.8985674991022,1949
2272.789633566488,1972
2274.6802690749237,1899
2276.570473974053,1948
2278.4602482125933,1959
2280.3495917383257,1971
2282.238504498101,1971
2284.1269864378387,1959
2286.0150375025264,1973
2287.9026576362203,1843
2289.789846782043,1914
2291.6766048821873,2047
2293.5629318779147,1907
2295.4488277095534,2009
2297.3342923164996,1966
2299.2193256372193,1953
2301.1039276092465,1997
2302.9880981691817,2012
2304.871837252696,1999
2306.755144794528,1939
2308.6380207284838,2023
2310.5204649874386,1981
2312.4024775033354,1946
2314.2840582071854,1969
2316.165207029068,1943
2318.0459238981325,1951
2319.926208742594,1902
2321.8060614897363,1960
2323.6854820659137,1956
2325.5644703965463,1942
2327.443026406124,1960
2329.321150018203,1964
2331.1988411554107,1993
2333.0760997394395,1894
2334.952925691053,1968
2336.829318930082,1952
2338.705279375424,1929
2340.5808069450477,1953
2342.4559015559867,2025
2344.3305631243456,1951
2346.204791565297,1899
2348.07858679308,1982
2349.9519487210027,1983
2351.824877261443,1998
2353.6973723258448,1984
2355.5694338247226,1979
2357.4410616676564,2020
2359.312255763297,2028
2361.1830160193617,1984
2363.053342342637,2002
2364.9232346389776,1999
2366.792692813306,1974
2368.6617167696145,1925
2370.5303064109603,2006
2372.3984616394723,2001
2374.2661823563467,2012
2376.1334684618464,1988
2378.0003198553054,1965
2379.8667364351227,1957
2381.7327180987672,2012
2383.5982647427777,1969
2385.4633762627586,1991
2387.3280525533837,1961
2389.192293508395,1918
2391.0560990206027,1991
2392.919468981885,1975
2394.782403283189,1971
2396.644901814531,2072
2398.5069644649916,2008
2400.3685911227235,2009
2402.2297816749474,1949
2404.0905360079505,1998
2405.950854007089,1949
2407.8107355567886,2005
2409.670180540541,2023
2411.529188840908,1980
2413.387760339518,2024
2415.2458949170705,1893
2417.1035924533294,1942
2418.96085282713,2007
2420.8176759163744,1919
2422.6740615980334,2004
2424.5300097481468,1963
2426.38552024182,1995
2428.24059295323,1975
2430.0952277556207,2044
2431.949424521303,2024
2433.803183121658,2046
2435.6565034271343,1979
2437.5093853072485,1995
2439.361828630585,2040
2441.213833264798,2045
2443.0653990766095,2067
2444.916525931808,1997
2446.7672136952524,1959
2448.6174622308695,1962
2450.4672714016538,2022
2452.3166410696676,1986
2454.165571096043,2008
2456.0140613409794,1990
2457.8621116637432,2015
2459.709721922672,2063
2461.556891975169,2053
2463.403621677707,2107
2465.249910885827,1957
2467.0957594541383,2027
2468.9411672363167,1964
2470.78613408511,1982
2472.630659852331,1960
2474.4747443888614,2033
2476.3183875446516,2018
2478.161589168721,2023
2480.0043491091556,1977
2481.8466672131112,2003
2483.6885433268108,1939
2485.529977295547,2018
2487.370968963678,2012
2489.2115181746335,2021
2491.0516247709097,1971
2492.891288594071,2007
2494.7305094847497,2045
2496.569287282649,2026
2498.407621826537,2065
2500.2455129542523,2057
2502.0829605027,1974
2503.919964307855,2022
2505.7565242047594,2002
2507.5926400275252,2053
2509.42831160933,2005
2511.263538782423,2037
2513.0983213781174,2017
2514.9326592267994,2022
2516.76655215792,1999
2518.5999999999995,2047
2520.4330025806275,1969
2522.2655597264607,1972
2524.0976712632237,1980
2525.9293370157097,1998
2527.760556807782,1965
2529.591330462369,2051
2531.4216578014702,1973
2533.2515386461523,2018
2535.080972816548,2063
2536.9099601318626,2065
2538.738500410366,2045
2540.5665934693993,2033
2542.3942391253695,2010
2544.221437193752,2111
2546.0481874890925,2058
2547.874489825003,2005
2549.700344014164,1997
2551.5257498683245,1982
2553.350707198304,2002
2555.175215813986,2049
2556.9992755243256,1970
2558.8228861373454,2039
2560.646047460134,2069
2562.468759298852,2063
2564.2910214587255,2031
2566.1128337440496,1975
2567.93419595819,2008
2569.7551079035757,1997
2571.5755693817077,1980
2573.395580193155,2007
2575.2151401375536,2032
2577.034249013609,2006
2578.8529066190936,2035
2580.6711127508493,2042
2582.488867204785,1999
2584.3061697758794,1993
2586.1230202581787,1967
2587.939418444797,2033
2589.7553641279183,2068
2591.570857098791,2037
2593.385897147736,2076
2595.200484064141,2064
2597.014617636461,2071
2598.8282976522214,2029
2600.6415238980126,2088
2602.454296159496,2084
2604.266614221401,2070
2606.0784778675243,2006
2607.8898868807305,2040
2609.700841042955,2059
2611.5113401351973,1996
2613.32138393753,2091
2615.13097222909,1998
2616.940104788084,2108
2618.748781391788,2063
2620.557001816543,2049
2622.364765837763,1972
2624.1720732299264,2025
2625.9789237665814,1975
2627.7853172203445,1999
2629.5912533629,2043
2631.396731965001,2043
2633.2017527964676,2113
2635.0063156261904,2090
2636.810420222126,2048
2638.614066351301,2034
2640.417253779809,1956
2642.219982272813,1921
2644.022251594542,2068
2645.8240615082973,2036
2647.625411776444,2027
2649.4263021604183,2018
2651.226732420724,2061
2653.026702316933,2048
2654.8262116076858,2029
2656.625260050691,2037
2658.423847402724,2076
2660.221973419631,2059
2662.0196378563246,2055
2663.8168404667867,2044
2665.613581004068,2092
2667.4098592202854,2088
2669.2056748666246,1984
2671.0010276933417,2025
2672.7959174497596,2096
2674.5903438842674,1997
2676.384306744327,1988
2678.177805776465,2070
2679.9708407262765,2081
2681.7634113384274,1997
2683.555517356648,1976
2685.3471585237403,2093
2687.138334581574,2060
2688.9290452710843,2057
2690.7192903322784,2034
2692.50906950423,2013
2694.2983825250794,2059
2696.087229132039,2019
2697.875609061386,1992
2699.6635220484677,1968
2701.450967827699,2096
2703.237946132564,2070
2705.0244566956126,2116
2706.8104992484664,2080
2708.596073521813,2104
2710.381179245408,2148
2712.1658161480777,2000
2713.949983957714,2061
2715.7336824012773,2082
2717.516911204798,2071
2719.299670093374,1978
2721.0819587911706,2085
2722.8637770214223,2054
2724.6451245064322,2016
2726.426000967571,2004
2728.2064061252763,2067
2729.986339699057,2057
2731.765801407488,1926
2733.5447909682134,2046
2735.323308097945,1990
2737.101352512463,2017
2738.8789239266166,2039
2740.6560220543215,2020
2742.4326466085645,2029
2744.2087973013977,1961
2745.984473843944,2064
2747.7596759463922,2055
2749.534403318001,2040
2751.308655667096,2078
2753.0824327010737,2074
2754.8557341263954,2012
2756.628559648593,2058
2758.4009089722667,2077
2760.172781801083,2046
2761.944177837779,1981
2763.715096784159,2039
2765.4855383410945,2017
2767.2555022085267,2016
2769.024988085465,2015
2770.793995669988,1993
2772.5625246592385,2012
2774.3305747494323,2096
2776.098145635852,2106
2777.865237012847,2020
2779.6318485738357,2058
2781.397980011306,2078
2783.163631016813,1960
2784.928801280979,2038
2786.6934904934974,2008
2788.457698343127,2027
2790.221424517697,2031
2791.9846687041027,2093
2793.74743058831,2017
2795.5097098553515,2119
2797.2715061893286,2069
2799.0328192734105,2061
2800.793648789836,2057
2802.553994419911,2091
2804.3138558440087,2046
2806.073232741573,2038
2807.8321247911135,2015
2809.590531670211,2043
2811.3484530555115,2095
2813.105888622732,2110
2814.8628380466557,2084
2816.6193010011348,2017
2818.3752771590903,2053
2820.13076619251,2085
2821.885767772452,2036
2823.640281569041,2122
2825.3943072514703,2071
2827.147844488002,2107
2828.9008929459665,2075
2830.6534522917614,2064
2832.405522190854,2040
2834.1571023077786,2038
2835.9081923061394,2079
2837.658791848606,1978
2839.40890059692,2039
2841.1585182118874,2072
2842.907644353386,2111
2844.6562786803593,2060
2846.4044208508203,2113
2848.15207052185,2026
2849.899227349598,2072
2851.6458909892804,2118
2853.392061095185,2121
2855.137737320664,1999
2856.882919318142,2014
2858.6276067391063,2062
2860.371799234118,2047
2862.1154964528037,2022
2863.8586980438586,2027
2865.6014036550464,2076
2867.343612933199,2080
2869.0853255242173,2142
2870.826541073068,2059
2872.567259223789,2106
2874.307479619485,2009
2876.0472019023287,2120
2877.7864257135625,2018
2879.525150693495,2092
2881.263376481505,2072
2883.0011027160385,1974
2884.73832903461,2126
2886.4750550738027,2107
2888.2112804692665,2076
2889.9470048557223,2090
2891.682227866956,2076
2893.416949135825,2130
2895.151168294252,2163
2896.88488497323,2066
2898.6180988028204,2067
2900.3508094121503,2124
2902.083016429419,2054
2903.81471948189,2053
2905.5459181958972,2056
2907.276612196844,2097
2909.0068011091994,2090
2910.736484556502,2071
2912.465662161359,2069
2914.194333545445,2106
2915.922498329504,2093
2917.650156133346,2066
2919.377306575852,2071
2921.103949274969,2074
2922.830083847715,2112
2924.555709910173,2023
2926.2808270774967,2027
2928.005434963907,2069
2929.7295331826936,2087
2931.4531213462133,2083
2933.1761990658924,2075
2934.8987659522254,2074
2936.6208216147747,2085
2938.3423656621694,2113
2940.0633977021116,2119
2941.783917341366,2171
2943.503924185768,2064
2945.223417840223,2123
2946.9423979087023,2014
2948.6608639942456,2192
2950.378815698962,2155
2952.096252624029,2133
2953.81317436969,2063
2955.529580535259,2114
2957.2454707191177,2101
2958.9608445187164,2118
2960.6757015305734,2145
2962.3900413502733,2048
2964.103863572472,2104
2965.817167790894,2143
2967.529953598327,2072
2969.2422205866337,2095
2970.953968346739,2106
2972.6651964686407,2151
2974.3759045414035,2066
2976.0860921531585,2204
2977.7957588911067,2144
2979.504904341517,2167
2981.2135280897273,2071
2982.9216297201433,2106
2984.629208816238,2176
2986.336264960554,2104
2988.0427977347017,2016
2989.7488067193594,2124
2991.454291494274,2127
2993.1592516382607,2120
2994.8636867292034,2155
2996.567596344053,2182
2998.2709800588295,2102
2999.973837448621,2182
3001.6761680875857,2114
3003.377971548946,2150
3005.0792474049954,2117
3006.7799952270957,2160
3008.480214585676,2078
3010.1799050502345,2094
3011.8790661893368,2010
3013.5776975706176,2063
3015.2757987607793,2110
3016.973369325592,2064
3018.6704088298966,2031
3020.366916837598,2103
3022.0628929116747,2135
3023.7583366141675,2133
3025.4532475061915,2076
3027.147625147925,2093
3028.841469098617,2158
3030.534778916585,2100
3032.2275541592144,2125
3033.9197943829577,2103
3035.611499143338,2125
3037.302667994943,2044
3038.9933004914333,2084
3040.683396185535,2121
3042.372954629042,2150
3044.061975372817,2086
3045.7504579667934,2101
3047.4384019599684,2083
3049.1258069004116,2137
3050.812672335258,2039
3052.4989978107124,2097
3054.184782872047,2104
3055.870027063603,2113
3057.554729928791,2115
3059.238891010086,2115
3060.9225098490347,2167
3062.6055859862518,2024
3064.2881189614177,2173
3065.970108313285,2101
3067.651553579671,2115
3069.3324542974633,2087
3071.012810002616,2129
3072.6926202301543,2151
3074.3718845141702,2051
3076.050602387822,2059
3077.728773383339,2082
3079.406397032018,2108
3081.083472864223,2092
3082.7600004093874,2133
3084.4359791960137,2101
3086.11140875167,2158
3087.7862886029952,2148
3089.4606182756943,2065
3091.134397294544,2077
3092.807625183385,2107
3094.4803014651284,2018
3096.152425661755,2075
3097.8239972943097,2123
3099.49501588291,2004
3101.165480946741,2076
3102.8353920040518,2204
3104.504748572165,2185
3106.1735501674693,2068
3107.8417963054226,2097
3109.5094865005485,2102
3111.176620266441,2121
3112.8431971157625,2136
3114.5092165602427,2156
3116.1746781106813,2186
3117.839581276943,2098
3119.503925567965,2128
3121.167710491747,2162
3122.830935555364,2128
3124.493600264954,2038
3126.1557041257247,2087
3127.817246641952,2165
3129.478227316982,2128
3131.1386456532273,2121
3132.798501152168,2111
3134.4577933143537,2177
3136.116521639402,2129
3137.7746856259982,2176
3139.4322847718977,2208
3141.0893185739224,2056
3142.745786527962,2134
3144.4016881289754,2164
3146.0570228709903,2123
3147.711790247102,2156
3149.3659897494754,2051
3151.0196208693396,2101
3152.6726830969974,2068
3154.3251759218165,2081
3155.9770988322334,2134
3157.6284513157534,2109
3159.2792328589485,2144
3160.929442947461,2075
3162.579081066002,2144
3164.2281466983477,2067
3165.8766393273454,2076
3167.5245584349086,2104
3169.1719035020224,2112
3170.818674008735,2105
3172.4648694341677,2064
3174.110489256508,2244
3175.7555329530105,2145
3177.4000000000005,2168
3179.0438898728707,2206
3180.6872020460805,2130
3182.32993599316,2159
3183.972091186706,2119
3185.613667098384,2124
3187.254663198927,2207
3188.8950789581386,2138
3190.5349138448873,2160
3192.1741673271126,2095
3193.8128388718224,2115
3195.4509279450886,2126
3197.0884340120574,2188
3198.725356536939,2147
3200.361694983014,2165
3201.997448812629,2119
3203.632617487203,2099
3205.2672004672195,2111
3206.901197212229,2122
3208.5346071808563,2091
3210.167429830789,2161
3211.799664618785,2101
3213.4313110006706,2125
3215.0623684313387,2028
3216.692836364753,2083
3218.3227142539445,2119
3219.9520015510125,2096
3221.5806977071215,2126
3223.2088021725103,2116
3224.8363143964816,2072
3226.4632338274077,2091
3228.089559912728,2121
3229.715292098951,2070
3231.3404298316545,2125
3232.9649725554846,2125
3234.5889197141523,2178
3236.2122707504395,2097
3237.8350251061984,2215
3239.457182222345,2134
3241.0787415388677,2103
3242.6997024948187,2197
3244.3200645283223,2177
3245.9398270765696,2154
3247.558989575821,2099
3249.177551461403,2171
3250.7955121677123,2132
3252.412871128213,2173
3254.029627775437,2164
3255.6457815409867,2164
3257.2613318555286,2054
3258.876278148802,2113
3260.490619849613,2083
3262.1043563858348,2019
3263.717487184408,2092
3265.3300116713453,2073
3266.941929271725,2138
3268.5532394096917,2109
3270.1639415084646,2067
3271.7740349903233,2207
3273.383519276621,2130
3274.9923937877775,2160
3276.6006579432833,2177
3278.2083111616903,2181
3279.815352860627,2172
3281.421782456786,2083
3283.027599365927,2193
3284.632803002881,2122
3286.237392781545,2097
3287.841368114885,2126
3289.4447284149373,2170
3291.047473092801,2062
3292.649601558651,2164
3294.2511132217223,2095
3295.8520074903254,2116
3297.452283771835,2192
3299.051941472695,2167
3300.650979998417,2241
3302.2493987535827,2119
3303.8471971418403,2175
3305.4443745659064,2167
3307.0409304275654,2112
3308.636864127674,2212
3310.2321750661513,2111
3311.8268626419876,2186
3313.420926253242,2121
3315.01436529704,2127
3316.6071791695776,2103
3318.1993672661183,2146
3319.7909289809913,2077
3321.3818637075983,2176
3322.972170838406,2132
3324.561849764951,2085
3326.150899877838,2155
3327.7393205667386,2103
3329.3271112203956,2180
3330.9142712266166,2109
3332.5007999722793,2118
3334.08669684333,2202
3335.6719612247834,2161
3337.2565925007193,2150
3338.840590054291,2198
3340.4239532677157,2225
3342.006681522281,2124
3343.5887741983406,2263
3345.1702306753214,2186
3346.7510503317126,2182
3348.3312325450743,2159
3349.910776692037,2235
3351.4896821482953,2192
3353.0679482886153,2194
3354.645574486829,2077
3356.2225601158398,2165
3357.798904547615,2136
