CollectionTime,4/2/2024 11:37:36 AM
ExposureUsed,3
CalibratedSpectrum
-994.8464149364308,683
-991.9439705588344,674
-989.042830375826,651
-986.1429931109675,704
-983.2444574887519,754
-980.3472222346043,794
-977.4512860748813,716
-974.5566477368716,652
-971.6633059487953,639
-968.7712594398042,655
-965.8805069399822,652
-962.9910471803447,636
-960.1028788928387,667
-957.2160008103432,724
-954.3304116666687,722
-951.4461101965578,740
-948.5630951356844,729
-945.6813652206545,803
-942.8009191890055,898
-939.9217557792067,846
-937.0438737306594,736
-934.167271783696,716
-931.2919486795813,714
-928.4179031605115,676
-925.5451339696144,704
-922.67363985095,748
-919.8034195495097,757
-916.9344718112166,799
-914.0667953829256,768
-911.2003890124234,772
-908.3352514484286,769
-905.471381440591,742
-902.6087777394928,704
-899.7474390966474,721
-896.8873642645002,814
-894.0285519964284,757
-891.1710010467407,760
-888.3147101706776,697
-885.4596781244115,709
-882.6059036650465,653
-879.7533855506183,639
-876.9021225400943,627
-874.0521133933738,646
-871.2033568712878,693
-868.3558517355991,734
-865.509596749002,851
-862.6645906751228,869
-859.8208322785192,844
-856.9783203246812,807
-854.1370535800299,709
-851.2970308119186,759
-848.4582507886321,817
-845.620712279387,744
-842.7844140543316,681
-839.9493548845461,694
-837.1155335420422,708
-834.2829487997635,720
-831.4515994315852,745
-828.6214842123144,814
-825.7926019176898,823
-822.9649513243819,793
-820.138531209993,778
-817.3133403530569,771
-814.4893775330396,739
-811.6666415303382,758
-808.845131126282,766
-806.0248451031321,770
-803.2057822440808,709
-800.3879413332527,714
-797.5713211557038,838
-794.755920497422,892
-791.941738145327,797
-789.1287728872701,793
-786.3170235120342,871
-783.5064888093341,816
-780.6971675698165,695
-777.8890585850597,764
-775.0821606475735,870
-772.2764725507997,824
-769.4719930891118,746
-766.6687210578151,798
-763.8666552531465,935
-761.0657944722747,1158
-758.2661375133,1031
-755.4676831752547,875
-752.6704302581027,812
-749.8743775627395,765
-747.0795238909925,783
-744.285868045621,771
-741.4934088303156,756
-738.702145049699,752
-735.9120755093254,831
-733.123199015681,1009
-730.3355143761836,1120
-727.5490203991826,907
-724.7637158939592,810
-721.9795996707265,858
-719.1966705406293,791
-716.4149273157439,725
-713.6343688090786,709
-710.8549938345734,699
-708.0768012070998,762
-705.2997897424614,836
-702.5239582573931,818
-699.7493055695622,851
-696.9758304975669,854
-694.2035318609377,800
-691.4324084801367,825
-688.6624591765578,863
-685.8936827725265,784
-683.1260780913001,772
-680.3596439570675,840
-677.5943791949499,850
-674.8302826309991,789
-672.0673530922,741
-669.3055894064685,809
-666.5449904026519,903
-663.78555491053,879
-661.0272817608139,840
-658.2701697851465,863
-655.5142178161026,908
-652.7594246871884,867
-650.0057892328422,786
-647.2533102884337,804
-644.5019866902646,800
-641.7518172755683,797
-639.0028008825099,812
-636.254936350186,849
-633.5082225186254,819
-630.7626582287882,839
-628.0182423225665,835
-625.2749736427841,804
-622.5328510331965,910
-619.7918733384909,870
-617.0520394042862,983
-614.3133480771331,917
-611.5757982045143,864
-608.8393886348437,1002
-606.1041182174672,1095
-603.3699858026625,1084
-600.6369902416393,1019
-597.9051303865383,988
-595.1744050904326,1025
-592.4448132073267,1161
-589.7163535921568,1272
-586.9890251007912,1028
-584.2628265900296,946
-581.5377569176036,922
-578.8138149421764,974
-576.090999523343,1003
-573.3693095216302,927
-570.6487437984965,946
-567.9293012163321,1070
-565.210980638459,1040
-562.4937809291307,1019
-559.7777009535329,961
-557.0627395777825,968
-554.3488956689287,1062
-551.6361680949519,1092
-548.9245557247644,1114
-546.2140574282107,1177
-543.5046720760662,1236
-540.7963985400388,1158
-538.0892356927677,1171
-535.3831824078238,1201
-532.6782375597103,1315
-529.9744000238613,1398
-527.2716686766433,1590
-524.5700423953542,1854
-521.8695200582238,1694
-519.1701005444136,1564
-516.4717827340166,1589
-513.7745655080581,1747
-511.0784477484944,1924
-508.38342833821423,1975
-505.68950616103757,2065
-502.9966801017163,2210
-500.3049490459341,2410
-497.61431188030633,2153
-494.9247674923801,1860
-492.2363147706342,1615
-489.54895260447927,1491
-486.86267988425755,1421
-484.1774955012431,1520
-481.4933983476417,1649
-478.8103873165908,1466
-476.1284613021596,1316
-473.44761919934945,1241
-470.7678599040928,1212
-468.089182313254,1314
-465.4115853246294,1386
-462.735067836947,1509
-460.0596287498663,1464
-457.3852669639789,1253
-454.71198138080774,1118
-452.03977090280773,1063
-449.3686344333656,1138
-446.69857087679964,1219
-444.02957913835996,1346
-441.36165812422837,1304
-438.6948067415183,1221
-436.0290238982752,1224
-433.36430850347597,1183
-430.7006594670296,1227
-428.0380756997763,1284
-425.3765561134885,1343
-422.7160996208702,1333
-420.0567051355571,1503
-417.3983715721164,1477
-414.7410978460475,1347
-412.08488287378145,1311
-409.4297255726806,1305
-406.77562486103955,1159
-404.1225796580843,1201
-401.4705888839728,1100
-398.8196514597947,1093
-396.1697663075713,1028
-393.5209323502555,1061
-390.8731485117323,929
-388.22641371681823,970
-385.5807268912615,1173
-382.93608696174226,1150
-380.29249285587207,923
-377.64994350219456,893
-375.0084378301849,954
-372.36797477025016,917
-369.7285532537287,962
-367.0901722128914,1042
-364.45283058094014,1027
-361.8165272920089,1034
-359.1812612811634,923
-356.54703148440103,677
-353.9138368386507,705
-351.28167628177346,921
-348.6505487525617,1150
-346.02045319074,990
-343.3913885369643,892
-340.76335373282245,928
-338.1363477208339,886
-335.5103694444499,991
-332.8854178480535,1024
-330.26149187695944,959
-327.63859047741425,876
-325.016712596596,778
-322.3958571826148,769
-319.77602318451227,844
-317.15720955226186,832
-314.5394152367686,869
-311.9226391898695,823
-309.3068803643333,866
-306.69213771386023,1092
-304.0784101930824,1396
-301.4656967575635,1240
-298.8539963637994,1214
-296.2433079692172,1186
-293.6336305321761,1038
-291.02496301196675,1001
-288.41730436881176,1191
-285.81065356386534,1054
-283.2050095592135,1026
-280.60037131787396,1365
-277.9967378037961,1706
-275.39410798186134,1366
-272.7924808178824,1399
-270.19185527860407,1453
-267.5922303317028,1293
-264.9936049457866,1474
-262.3959780903955,1582
-259.79934873600087,1583
-257.2037158540064,1538
-254.6090784167469,1623
-252.01543539748934,1687
-249.42278577043237,1282
-246.8311285107061,1215
-244.24046259437262,1267
-241.6507869984256,1266
-239.0621007007909,1434
-236.4744026803254,1517
-233.88769191681808,1585
-231.30196739098994,1482
-228.7172280844934,1240
-226.13347297991243,1426
-223.550701060763,1700
-220.9689113114929,1558
-218.3881027174814,1379
-215.8082742650397,1677
-213.22942494141068,2137
-210.65155373476898,2595
-208.07465963422078,2388
-205.49874162980439,2086
-202.92379871248932,2230
-200.34982987417743,2242
-197.7768341077018,1813
-195.20481040682762,1339
-192.63375776625162,1335
-190.0636751816021,1517
-187.49456164943945,1598
-184.92641616725564,2033
-182.3592377334743,2059
-179.79302534745102,1891
-177.2277780094729,1975
-174.66349472075865,2021
-172.10017448345923,2169
-169.5378163006569,2038
-166.97641917636565,1907
-164.41598211553162,2187
-161.8565041240322,2646
-159.29798420867678,2604
-156.74042137720642,2305
-154.18381463829382,2122
-151.6281630015436,2056
-149.07346547749228,1967
-146.51972107760753,1734
-143.96692881428908,1860
-141.41508770086864,2279
-138.86419675160937,2251
-136.31425498170609,2188
-133.7652614072856,2175
-131.21721504540642,2144
-128.67011491405844,2523
-126.12396003216395,3368
-123.57874941957618,4192
-121.03448209708074,3689
-118.49115708639465,3244
-115.94877341016684,3483
-113.40733009197788,3758
-110.86682615633993,3483
-108.32726062869733,3220
-105.78863253542556,3778
-103.25094090383243,5333
-100.71418476215695,5151
-98.17836313957025,4844
-95.64347506617503,4231
-93.10951957300585,3837
-90.57649569202886,4162
-88.04440245614194,4036
-85.51323889917478,4526
-82.98300405588896,4894
-80.45369696197747,6522
-77.925316654065,8522
-75.39786216970867,10472
-72.87133254739649,12672
-70.34572682654857,15237
-67.82104404751692,16810
-65.29728325158499,23754
-62.774443480968216,30725
-60.252523778813384,37439
-57.73152318919938,44372
-55.21144075713676,44177
-52.69227552856796,38930
-50.17402655036665,38518
-47.65669287033859,30365
-45.14027353722133,24267
-42.624767600684095,33252
-40.11017411132775,41373
-37.59649212068507,48655
-35.08372068122037,62052
-32.57185884632963,65043
-30.06090567034107,57737
-27.550860208513996,59083
-25.04172151704006,65043
-22.533488653042014,65043
-20.02616067457484,65043
-17.51973664062507,65043
-15.014215611111126,65043
-12.509596646882983,65043
-10.005878809722162,65043
-7.503061162342419,65043
-5.001142768389059,65043
-2.5001226924387083,65043
-3.410605131648481E-13,65043
2.49922624248552,65043
4.997556967646801,65043
7.494993107179766,65043
9.99153559184856,65043
12.487185351485778,65043
14.98194331499235,65043
17.475810410337544,65043
19.96878756455851,65043
22.46087570376085,65043
24.952075753118834,65043
27.442388636874625,32797
29.93181527833849,12563
32.42035659988892,10638
34.90801352297353,14357
37.39478696810693,13675
39.880677854873056,14775
42.36568710192364,12205
44.8498156269784,9954
47.33306434682618,10557
49.815434177322686,10407
52.296926033393675,10045
54.77754082903198,8669
57.25727947729865,10190
59.736142890323435,10797
62.214131979304284,6977
64.6912476545076,5275
67.16749082526735,4465
69.64286239998614,3671
72.11736328613551,4041
74.59099439025431,4889
77.06375661794982,6294
79.53565087389825,6063
82.0066780618431,5181
84.4768390845968,4270
86.94613484403999,3835
89.41456624112152,5746
91.88213417585825,6161
94.34883954733527,4372
96.81468325370679,4030
99.2796661921941,3151
101.74378925908763,3544
104.20705334974559,3686
106.66945935859462,4252
109.1310081791296,4473
111.59170070391383,6080
114.05153782457865,5234
116.5105204318238,3395
118.96864941541708,3180
121.42592566419489,4469
123.88235006606146,4445
126.3379235079899,3927
128.79264687602085,3083
131.2465210552641,3032
133.69954692989631,3089
136.15172538316415,4265
138.60305729738116,4020
141.05354355393,3399
143.50318503326116,3318
145.95198261489327,3049
148.39993717741368,3166
150.84704959847772,3810
153.29332075480897,4382
155.73875152219944,4469
158.18334277550935,4128
160.62709538866693,3749
163.0700102346691,3636
165.51208818558075,3671
167.953330112535,3698
170.39373688573346,3190
172.8333093744459,3317
175.2720484470101,3424
177.70995497083277,3718
180.14702981238815,4378
182.58327383721917,4248
185.01868790993672,3814
187.45327289422062,3575
189.88702965281777,3245
192.31995904754444,3351
194.75206193928489,3687
197.18333918799135,3576
199.61379165268454,3515
202.04342019145315,3433
204.4722256614548,3621
206.90020891891436,3668
209.32737081912592,3633
211.7537122164515,3573
214.17923396432116,3405
216.6039369152336,3617
219.0278219207553,3539
221.45088983152186,3524
223.8731414972358,3570
226.29457776666914,3396
228.71519948766172,3427
231.1350075071216,3478
233.55400267102482,3500
235.97218582441633,3652
238.38955781140908,3332
240.806119475184,3548
243.2218716579905,3585
245.6368152011462,3607
248.05095094503736,3621
250.46427972911806,3581
252.87680239191036,3520
255.28851977100544,3569
257.69943270306203,3665
260.10954202380753,3238
262.5188485680378,3340
264.92735316961557,3805
267.33505666147425,3836
269.7419598756128,3485
272.14806364310084,3439
274.5533687940747,3280
276.95787615773975,3438
279.361586562369,3379
281.7645008353045,3143
284.1666198029559,3159
286.5679442908013,3219
288.96847512338695,3347
291.3682131243279,3414
293.7671591163071,3434
296.1653139210757,3425
298.562678359453,3361
300.9592532513268,3340
303.3550394156532,3490
305.75003767045655,3320
308.14424883282936,3304
310.53767371893196,3291
312.93031314399377,3159
315.3221679223125,2948
317.71323886725304,3070
320.1035267912496,2896
322.49303250580397,2839
324.881756821487,2904
327.2697005479374,2821
329.65686449386135,2842
332.0432494670347,2982
334.4288562743004,2963
336.81368572157066,2964
339.19773861382487,2891
341.58101575511205,2753
343.96351794854786,2715
346.3452459963173,2670
348.72620069967365,2745
351.1063828589379,2892
353.48579327349967,3027
355.8644327418169,2916
358.24230206141533,2673
360.6194020288899,2710
362.99573343990255,2616
365.3712970891845,2670
367.7460937705348,2678
370.12012427682066,2676
372.493389399978,2614
374.86588993101077,2745
377.23762665999084,2655
379.6086003760588,2551
381.9788118674235,2570
384.34826192136165,2598
386.7169513242188,2557
389.08488086140824,2493
391.4520513174118,2552
393.8184634757795,2579
396.1841181191296,2801
398.54901602914856,2889
400.9131579865916,2781
403.2765447712811,2713
405.63917716210926,2677
408.00105593703483,2749
410.36218187308646,2516
412.7225557463596,2444
415.0821783320191,2399
417.4410504042976,2453
419.79917273649585,2471
422.1565461009834,2493
424.5131712691973,2498
426.869049011643,2449
429.22418009789544,2519
431.578565296596,2379
433.9322053754556,2299
436.28510110125285,2367
438.6372532398352,2279
440.98866255611733,2353
443.33932981408293,2474
445.6892557767842,2451
448.0384412063411,2367
450.38688686394175,2467
452.7345935098431,2604
455.0815619033697,2445
457.42779280291506,2446
459.7732869659403,2676
462.1180451489754,2569
464.4620681076178,2567
466.80535659653424,2442
469.1479113694588,2456
471.48973317919445,2614
473.8308227776122,2707
476.17118091565135,2734
478.51080834331924,2728
480.8497058096914,2858
483.1878740629122,3258
485.5253138501944,3249
487.8620259178176,3163
490.1980110111317,3547
492.53326987455307,3773
494.86780325156724,4052
497.201611884728,4042
499.53469651565683,4272
501.8670578850447,4232
504.1986967326493,4051
506.52961379729754,3906
508.85980981688454,3533
511.18928552837315,3461
513.5180416677952,3310
515.8460789702503,3451
518.1733981699067,4194
520.5,5040
522.8258851928354,5358
525.1510544797857,5118
527.4755085912916,4502
529.7992482568625,3942
532.1222742050759,3357
534.4445871635783,2777
536.766187859083,2475
539.0870770173726,2359
541.4072553632982,2405
543.7267236207783,2278
546.0454825128002,2294
548.363532761419,2319
550.6808750877592,2381
552.9975102120118,2395
555.3134388534377,2296
557.6286617303654,2323
559.9431795601911,2378
562.2569930593802,2351
564.570102943466,2430
566.88250992705,2431
569.1942147238021,2229
571.5052180464602,2188
573.8155206068309,2264
576.1251231157885,2389
578.4340262832759,2367
580.7422308183045,2300
583.0497374289534,2164
585.3565468223703,2244
587.6626597047714,2297
589.9680767814409,2264
592.2727987567309,2209
594.5768263340624,2161
596.8801602159238,2203
599.1828011038731,2271
601.4847496985356,2260
603.7860066996047,2208
606.0865728058427,2198
608.3864487150802,2148
610.6856351242152,2153
612.9841327292149,2315
615.2819422251141,2228
617.5790643060163,2194
619.8754996650935,2126
622.1712489945849,2094
624.466312985799,2198
626.7606923291121,2171
629.0543877139692,2278
631.347399828883,2299
633.6397293614343,2240
635.9313769982732,2331
638.2223434251173,2258
640.5126293267522,2200
642.8022353870326,2136
645.0911622888809,2176
647.3794107142876,2151
649.666981344312,2193
651.9538748590815,2229
654.2400919377915,2272
656.525633258706,2306
658.8104994991568,2345
661.0946913355442,2363
663.3782094433375,2340
665.6610544970729,2263
667.9432271703561,2221
670.22472813586,2187
672.5055580653268,2284
674.7857176295659,2337
677.065207498456,2228
679.3440283409432,2296
681.6221808250425,2215
683.899665617837,2229
686.1764833854772,2259
688.4526347931837,2274
690.7281205052436,2259
693.0029411850135,2292
695.2770974949171,2208
697.5505900964474,2288
699.8234196501651,2232
702.0955868156989,2201
704.3670922517472,2213
706.6379366160747,2173
708.9081205655159,2231
711.1776447559728,2252
713.4465098424155,2278
715.714716478883,2266
717.9822653184822,2299
720.2491570133882,2308
722.5153922148452,2228
724.7809715731639,2236
727.0458957377248,2150
729.3101653569763,2176
731.5737810784346,2230
733.8367435486853,2312
736.0990534133803,2292
738.3607113172418,2310
740.6217179040591,2347
742.8820738166899,2345
745.1417796970607,2266
747.4008361861659,2248
749.6592439240678,2272
751.9170035498973,2369
754.1741157018539,2408
756.4305810172048,2336
758.686400132286,2258
760.9415736825013,2305
763.196102302323,2255
765.4499866252911,2364
767.7032272840152,2331
769.9558249101717,2309
772.207780134506,2279
774.4590935868323,2409
776.7097658960313,2460
778.9597976900541,2416
781.2091895959184,2294
783.457942239711,2263
785.7060562465867,2308
787.9535322407687,2447
790.2003708455488,2294
792.4465726832861,2430
794.6921383754088,2454
796.9370685424128,2404
799.1813638038632,2484
801.4250247783918,2447
803.6680520837006,2353
805.9104463365579,2329
808.1522081528019,2353
810.393338147338,2336
812.6338369341406,2361
814.8737051262517,2231
817.1129433357819,2362
819.35155217391,2340
821.5895322508834,2275
823.8268841760168,2322
826.0636085576946,2319
828.2997060033681,2261
830.535177119558,2247
832.7700225118522,2188
835.0042427849078,2278
837.2378385424493,2317
839.4708103872701,2336
841.7031589212318,2322
843.9348847452643,2279
846.1659884593648,2389
848.3964706626004,2288
850.6263319531054,2327
852.8555729280824,2194
855.0841941838025,2264
857.3121963156052,2241
859.5395799178978,2367
861.7663455841566,2372
863.9924939069251,2400
866.2180254778159,2464
868.4429408875103,2394
870.6672407257561,2341
872.890925581371,2323
875.1139960422404,2362
877.336452695318,2392
879.5582961266261,2478
881.7795269212543,2314
884.0001456633613,2435
886.2201529361741,2525
888.4395493219874,2561
890.6583354021648,2466
892.8765117571375,2421
895.094078966405,2324
897.3110376085365,2389
899.5273882611671,2349
901.7431315010019,2326
903.958267903814,2219
906.1727980444443,2215
908.3867224968019,2297
910.6000418338647,2254
912.8127566276792,2306
915.0248674493587,2438
917.2363748690857,2416
919.4472794561113,2346
921.6575817787543,2369
923.867282404402,2264
926.0763818995099,2167
928.2848808296014,2185
930.4927797592693,2224
932.700079252173,2247
934.9067798710416,2232
937.112882177672,2171
939.3183867329287,2148
941.5232940967453,2186
943.727604828124,2108
945.9313194851336,2134
948.1344386249132,2222
950.3369628036685,2334
952.5388925766747,2261
954.7402284982745,2262
956.9409711218789,2210
959.1411209999676,2187
961.3406786840883,2188
963.5396447248565,2148
965.7380196719573,2219
967.9358040741427,2239
970.1329984792335,2246
972.3296034341188,2133
974.5256194847555,2149
976.72104717617,2050
978.9158870524552,2129
981.1101396567742,2049
983.3038055313566,2034
985.4968852175009,2077
987.6893792555747,2107
989.8812881850124,2156
992.072612544318,2068
994.263352871063,2148
996.453509701887,1991
998.6430835724984,2104
1000.832075017674,2024
1003.0204845712583,2101
1005.208312766164,1920
1007.3955601343728,1928
1009.5822272069338,1874
1011.7683145139652,1890
1013.9538225846525,1873
1016.1387519472505,1914
1018.3231031290818,1913
1020.5068766565371,1936
1022.6900730550753,1930
1024.872692849224,2023
1027.054736562579,1935
1029.2362047178037,1814
1031.4170978366305,1867
1033.5974164398597,1934
1035.7771610473603,1840
1037.9563321780693,1832
1040.1349303499917,1799
1042.3129560802006,1803
1044.490409884838,1775
1046.667292279115,1753
1048.8436037773079,1851
1051.0193448927644,1804
1053.1945161378994,1850
1055.3691180241954,1863
1057.5431510622038,1807
1059.7166157615447,1865
1061.8895126309053,1780
1064.0618421780423,1862
1066.2336049097798,1805
1068.4048013320107,1788
1070.5754319496955,1756
1072.745497266863,1855
1074.9149977866118,1790
1077.0839340111065,1801
1079.2523064415818,1821
1081.4201155783398,1812
1083.587361920751,1753
1085.7540459672537,1767
1087.9201682153553,1761
1090.0857291616308,1799
1092.2507293017238,1642
1094.4151691303464,1723
1096.579049141279,1759
1098.7423698273687,1725
1100.9051316805335,1772
1103.0673351917571,1779
1105.2289808510936,1698
1107.3900691476633,1782
1109.550600569657,1787
1111.710575604332,1758
1113.8699947380146,1765
1116.028858456099,1682
1118.1871672430489,1717
1120.344921582394,1725
1122.5021219567334,1783
1124.6587688477362,1767
1126.8148627361365,1774
1128.9704041017399,1704
1131.1253934234173,1768
1133.2798311791098,1745
1135.4337178458263,1734
1137.5870538996437,1767
1139.7398398157075,1649
1141.8920760682313,1689
1144.0437631304972,1744
1146.1949014748543,1757
1148.3454915727225,1794
1150.4955338945874,1746
1152.6450289100044,1763
1154.7939770875969,1742
1156.9423788950558,1708
1159.0902347991405,1794
1161.2375452656802,1750
1163.3843107595703,1679
1165.530531744775,1679
1167.6762086843282,1750
1169.8213420403304,1730
1171.9659322739503,1695
1174.1099798454266,1731
1176.2534852140639,1701
1178.3964488382376,1662
1180.538871175389,1671
1182.680752682029,1777
1184.8220938137365,1703
1186.9628950251595,1641
1189.103156770012,1662
1191.2428795010783,1686
1193.3820636702108,1690
1195.5207097283287,1686
1197.6588181254215,1674
1199.7963893105457,1719
1201.9334237318253,1615
1204.0699218364548,1638
1206.2058840706954,1760
1208.3413108798773,1661
1210.476202708397,1684
1212.6105599997222,1680
1214.7443831963874,1669
1216.877672739995,1626
1219.0104290712165,1688
1221.1426526297905,1794
1223.2743438545253,1832
1225.4055031832972,1706
1227.5361310530493,1703
1229.6662278997946,1736
1231.7957941586142,1700
1233.9248302636565,1775
1236.053336648139,1699
1238.1813137443464,1780
1240.3087619836338,1678
1242.4356817964222,1683
1244.5620736122019,1708
1246.6879378595318,1664
1248.813274966039,1669
1250.938085358418,1698
1253.062369462432,1734
1255.186127702913,1731
1257.3093605037611,1690
1259.4320682879434,1671
1261.554251477498,1667
1263.6759104935277,1718
1265.797045756206,1661
1267.9176576847744,1729
1270.0377466975428,1847
1272.1573132118879,1810
1274.2763576442567,1745
1276.394880410162,1777
1278.5128819241877,1800
1280.6303625999835,1772
1282.7473228502695,1729
1284.8637630868325,1830
1286.9796837205272,1807
1289.0950851612783,1758
1291.209967818078,1757
1293.3243320989864,1876
1295.4381784111324,1776
1297.551507160712,1839
1299.6643187529912,1823
1301.776613592303,1756
1303.888392082049,1779
1305.9996546246998,1801
1308.1104016217923,1798
1310.220633473934,1859
1312.3303505807999,1861
1314.4395533411316,1827
1316.5482421527418,1823
1318.6564174125092,1851
1320.7640795163816,1867
1322.8712288593752,1821
1324.9778658355744,1745
1327.0839908381313,1793
1329.1896042592675,1838
1331.2947064902714,1852
1333.3992979215009,1855
1335.503378942381,1854
1337.6069499414057,1809
1339.7100113061383,1769
1341.8125634232074,1811
1343.9146066783128,1795
1346.0161414562212,1801
1348.1171681407677,1741
1350.2176871148563,1839
1352.3176987604575,1845
1354.4172034586127,1804
1356.5162015894289,1833
1358.6146935320835,1824
1360.7126796648213,1822
1362.8101603649548,1784
1364.9071360088656,1802
1367.0036069720036,1835
1369.099573628886,1764
1371.195036353099,1725
1373.2899955172975,1816
1375.3844514932039,1802
1377.4784046516088,1761
1379.5718553623715,1756
1381.6648039944193,1779
1383.7572509157485,1812
1385.8491964934224,1779
1387.9406410935735,1826
1390.0315850814022,1776
1392.122028821177,1811
1394.2119726762357,1873
1396.3014170089828,1803
1398.3903621808918,1757
1400.4788085525051,1801
1402.566756483432,1724
1404.6542063323514,1719
1406.7411584570095,1769
1408.8276132142219,1728
1410.9135709598704,1740
1412.9990320489078,1817
1415.083996835353,1807
1417.1684656722937,1806
1419.2524389118867,1678
1421.3359169053565,1747
1423.4189000029946,1756
1425.5013885541634,1783
1427.5833829072913,1742
1429.664883409876,1726
1431.7458904084833,1795
1433.8264042487467,1721
1435.9064252753697,1708
1437.9859538321216,1785
1440.0649902618416,1831
1442.1435349064373,1812
1444.2215881068837,1796
1446.2991502032237,1709
1448.37622153457,1779
1450.452802439103,1792
1452.5288932540698,1851
1454.604494315788,1820
1456.6796059596427,1804
1458.7542285200866,1792
1460.8283623306415,1779
1462.902007723897,1752
1464.9751650315106,1730
1467.0478345842089,1819
1469.1200167117868,1735
1471.1917117431062,1813
1473.2629200060992,1755
1475.333641827764,1734
1477.4038775341692,1747
1479.4736274504498,1823
1481.5428919008104,1826
1483.6116712085222,1816
1485.6799656959279,1768
1487.7477756844346,1807
1489.8151014945201,1780
1491.88194344573,1742
1493.9483018566775,1772
1496.0141770450455,1729
1498.0795693275822,1830
1500.1444790201076,1722
1502.2089064375086,1731
1504.2728518937402,1804
1506.3363157018239,1793
1508.3992981738534,1792
1510.4617996209872,1845
1512.5238203534536,1812
1514.5853606805495,1856
1516.6464209106384,1818
1518.7070013511543,1755
1520.7671023085973,1808
1522.8267240885375,1873
1524.885866995612,1830
1526.9445313335268,1860
1529.002717405056,1916
1531.0604255120425,1860
1533.1176559553965,1872
1535.1744090350971,1876
1537.2306850501914,1920
1539.2864842987956,1853
1541.3418070780922,1965
1543.396653684334,1873
1545.4510244128405,1824
1547.5049195580013,1918
1549.5583394132727,1892
1551.61128427118,1976
1553.6637544233158,1894
1555.7157501603415,1903
1557.7672717719888,1885
1559.8183195470538,1981
1561.8688937734037,1994
1563.9189947379737,1983
1565.9686227267657,2033
1568.0177780248514,1989
1570.0664609163696,1911
1572.1146716845292,1868
1574.162410611605,1968
1576.2096779789413,1899
1578.2564740669518,1905
1580.3027991551157,1846
1582.3486535219831,1909
1584.3940374451709,1852
1586.4389512013645,1863
1588.4833950663178,1790
1590.5273693148533,1867
1592.5708742208603,1831
1594.6139100572982,1862
1596.6564770961936,1830
1598.698575608642,1859
1600.7402058648063,1860
1602.7813681339185,1820
1604.8220626842776,1833
1606.8622897832533,1772
1608.9020496972812,1767
1610.9413426918663,1837
1612.9801690315808,1827
1615.018528980066,1823
1617.056422800033,1753
1619.0938507532578,1796
1621.1308131005876,1793
1623.1673101019355,1830
1625.2033420162848,1826
1627.2389091016862,1796
1629.274011615259,1858
1631.3086498131897,1751
1633.3428239507352,1910
1635.376534282219,1818
1637.4097810610324,1783
1639.4425645396364,1869
1641.4748849695593,1853
1643.5067426013989,1732
1645.53813768482,1746
1647.5690704685549,1775
1649.5995412004067,1781
1651.6295501272452,1762
1653.6590974950086,1763
1655.6881835487025,1842
1657.7168085324029,1845
1659.7449726892523,1821
1661.772676261462,1747
1663.7999194903114,1745
1665.8267026161484,1735
1667.8530258783894,1827
1669.8788895155185,1801
1671.9042937650888,1759
1673.9292388637205,1780
1675.953725047103,1788
1677.977752549994,1784
1680.0013216062184,1770
1682.0244324486712,1770
1684.0470853093134,1839
1686.0692804191767,1791
1688.0910180083588,1740
1690.1122983060268,1731
1692.1331215404175,1777
1694.1534879388319,1751
1696.173397727644,1851
1698.1928511322926,1751
1700.211848377286,1873
1702.2303896862018,1904
1704.248475281684,1972
1706.2661053854458,1849
1708.2832802182684,1759
1710.300000000002,1823
1712.3162649495644,1818
1714.3320752849409,1792
1716.3474312231865,1817
1718.362332980424,1717
1720.376780771845,1752
1722.3907748117072,1758
1724.4043153133393,1730
1726.4174024891367,1771
1728.4300365505628,1812
1730.442217708151,1820
1732.4539461715008,1801
1734.465222149282,1824
1736.4760458492306,1818
1738.4864174781524,1791
1740.496337241921,1770
1742.5058053454786,1729
1744.5148219928346,1744
1746.523387387068,1799
1748.531501730325,1771
1750.5391652238209,1820
1752.5463780678388,1845
1754.55314046173,1773
1756.5594526039135,1771
1758.565314691879,1817
1760.5707269221812,1776
1762.5756894904443,1764
1764.580202591363,1855
1766.5842664186966,1824
1768.5878811652751,1823
1770.591047022996,1846
1772.593764182825,1831
1774.5960328347965,1815
1776.5978531680116,1835
1778.5992253706427,1859
1780.6001496299273,1873
1782.6006261321731,1854
1784.6006550627553,1772
1786.6002366061175,1821
1788.5993709457725,1864
1790.5980582642992,1802
1792.5962987433468,1850
1794.5940925636314,1810
1796.5914399049389,1796
1798.5883409461221,1814
1800.584795865102,1808
1802.580804838869,1804
1804.5763680434807,1818
1806.571485654064,1815
1808.566157844813,1792
1810.5603847889902,1774
1812.5541666589274,1878
1814.5475036260236,1806
1816.5403958607467,1861
1818.5328435326323,1827
1820.5248468102845,1824
1822.5164058613755,1739
1824.5075208526468,1853
1826.4981919499064,1837
1828.488419318032,1787
1830.4782031209684,1850
1832.4675435217305,1821
1834.4564406823993,1865
1836.4448947641258,1758
1838.432905927128,1840
1840.4204743306927,1867
1842.4076001331746,1831
1844.3942834919985,1828
1846.380524563654,1775
1848.366323503702,1834
1850.351680466771,1854
1852.3365956065563,1844
1854.3210690758228,1886
1856.3051010264044,1856
1858.2886916092007,1863
1860.271840974182,1798
1862.2545492703862,1915
1864.2368166459191,1909
1866.2186432479543,1926
1868.2000292227349,1851
1870.1809747155717,1845
1872.1614798708429,1805
1874.1415448319963,1847
1876.1211697415474,1884
1878.1003547410805,1830
1880.0790999712472,1828
1882.0574055717675,1805
1884.0352716814305,1869
1886.0126984380927,1918
1887.989685978679,1828
1889.9662344391836,1812
1891.9423439546672,1866
1893.9180146592607,1820
1895.893246686161,1805
1897.868040167636,1829
1899.8423952350195,1875
1901.8163120187137,1915
1903.7897906481917,1803
1905.7628312519923,1907
1907.7354339577219,1907
1909.7075988920578,1917
1911.6793261807447,1829
1913.6506159485943,1853
1915.6214683194871,1860
1917.5918834163726,1866
1919.5618613612687,1841
1921.5314022752605,1892
1923.5005062785012,1914
1925.4691734902144,1836
1927.4374040286893,1893
1929.4051980112845,1826
1931.3725555544274,1838
1933.3394767736136,1845
1935.305961783406,1860
1937.2720106974361,1838
1939.237623628404,1847
1941.2028006880778,1921
1943.167541987295,1844
1945.1318476359588,1892
1947.0957177430432,1872
1949.0591524165898,1906
1951.0221517637078,1917
1952.984715890574,1884
1954.9468449024357,1945
1956.9085389036072,1841
1958.8697979974704,1856
1960.8306222864767,1877
1962.7910118721456,1889
1964.7509668550638,1829
1966.7104873348871,1796
1968.6695734103387,1859
1970.6282251792127,1887
1972.586442738368,1901
1974.5442261837343,1859
1976.501575610307,1858
1978.4584911121533,1849
1980.4149727824056,1829
1982.3710207132658,1809
1984.326634996004,1895
1986.2818157209585,1871
1988.2365629775359,1855
1990.1908768542116,1913
1992.144757438527,1895
1994.0982048170954,1887
1996.0512190755953,1852
1998.0038002987749,1857
1999.95594857045,1835
2001.9076639735054,1800
2003.8589465898945,1865
2005.8097965006368,1903
2007.760213785822,1903
2009.7101985246077,1805
2011.6597507952201,1869
2013.6088706749524,1871
2015.5575582401675,1933
2017.5058135662953,1876
2019.4536367278351,1912
2021.4010277983534,1875
2023.347986850486,1866
2025.2945139559365,1862
2027.2406091854768,1876
2029.1862726089462,1899
2031.1315042952538,1996
2033.0763043123766,1869
2035.0206727273585,1805
2036.964609606313,1844
2038.908115014422,1890
2040.8511890159348,1868
2042.7938316741693,1870
2044.7360430515123,1869
2046.677823209417,1861
2048.6191722084077,1896
2050.5600901080743,1866
2052.5005769670765,1919
2054.440632843142,1861
2056.380257793066,1858
2058.3194518727128,1878
2060.258215137015,1867
2062.1965476399732,1899
2064.1344494346554,1907
2066.0719205732,1904
2068.008961106812,1877
2069.945571085764,1832
2071.8817505593997,1920
2073.817499576128,1848
2075.7528181834273,1821
2077.6877064278447,1931
2079.622164354995,1933
2081.556192009562,1876
2083.4897894352966,1920
2085.4229566750187,1887
2087.355693770616,1802
2089.2880007630456,1869
2091.219877692331,1898
2093.151324597566,1888
2095.0823415169107,1823
2097.012928487595,1863
2098.9430855459173,1853
2100.872812727242,1815
2102.8021100660035,1797
2104.730977595705,1905
2106.659415348917,1914
2108.5874233572777,1963
2110.5150016514945,1944
2112.442150261343,1897
2114.3688692156675,1839
2116.2951585423793,1896
2118.2210182684585,1881
2120.146448419954,1854
2122.0714490219825,1885
2123.9960200987293,1917
2125.920161673447,1901
2127.843873768458,1956
2129.767156405151,1883
2131.690009603985,1900
2133.612433384486,1832
2135.534427765249,1839
2137.4559927639366,1893
2139.37712839728,1932
2141.2978346810783,1958
2143.2181116301995,1879
2145.1379592585795,1914
2147.057377579222,1869
2148.9763666042,1940
2150.894926344655,1891
2152.813056810794,1859
2154.730758011896,1816
2156.648029956306,1903
2158.564872651437,1887
2160.481286103772,1871
2162.397270318861,1819
2164.312825301323,1906
2166.227951054844,1885
2168.14264758218,1838
2170.056914885153,1867
2171.9707529646566,1897
2173.8841618206484,1938
2175.7971414521585,1905
2177.7096918572825,1944
2179.621813033186,1906
2181.5335049761,1883
2183.444767681327,1825
2185.355601143236,1944
2187.2660053552654,1903
2189.1759803099208,1933
2191.085525998777,1901
2192.994642412475,1888
2194.903329540727,1873
2196.811587372312,1891
2198.7194158950765,1879
2200.626815095937,1849
2202.5337849608763,1892
2204.440325474948,1918
2206.346436622271,1898
2208.2521183860345,1864
2210.157370748496,1911
2212.0621936909793,1892
2213.966587193879,1902
2215.8705512366573,1911
2217.774085797842,1881
2219.677190855033,1971
2221.579866384897,1901
2223.4821123631677,1919
2225.3839287646483,1969
2227.2853155632106,1902
2229.186272731794,1901
2231.0868002424063,1903
2232.986898066123,1839
2234.8865661730892,1919
2236.785804532517,1932
2238.6846131126877,1911
2240.5829918809495,1917
2242.4809408037213,1850
2244.3784598464877,1887
2246.275548973803,1983
2248.172208149288,1972
2250.0684373356357,1947
2251.964236494603,1947
2253.859605587017,1975
2255.7545445727733,1915
2257.6490534108357,1985
2259.5431320592356,1955
2261.436780475073,1963
2263.329998614516,1931
2265.222786432802,1940
2267.1151438842344,1857
2269.0070709221877,1872
2270.8985674991022,1933
2272.789633566488,1897
2274.6802690749237,1964
2276.570473974053,1854
2278.4602482125933,1870
2280.3495917383257,1914
2282.238504498101,1850
2284.1269864378387,1892
2286.0150375025264,1992
2287.9026576362203,1939
2289.789846782043,1943
2291.6766048821873,1961
2293.5629318779147,2022
2295.4488277095534,1991
2297.3342923164996,1915
2299.2193256372193,1920
2301.1039276092465,1940
2302.9880981691817,1905
2304.871837252696,1971
2306.755144794528,1942
2308.6380207284838,1961
2310.5204649874386,2020
2312.4024775033354,1981
2314.2840582071854,1919
2316.165207029068,1986
2318.0459238981325,1960
2319.926208742594,1939
2321.8060614897363,1940
2323.6854820659137,2050
2325.5644703965463,1991
2327.443026406124,1865
2329.321150018203,1886
2331.1988411554107,1931
2333.0760997394395,1918
2334.952925691053,1958
2336.829318930082,1968
2338.705279375424,1981
2340.5808069450477,2002
2342.4559015559867,1966
2344.3305631243456,1960
2346.204791565297,1943
2348.07858679308,1943
2349.9519487210027,2002
2351.824877261443,1937
2353.6973723258448,1923
2355.5694338247226,1969
2357.4410616676564,1981
2359.312255763297,1937
2361.1830160193617,1919
2363.053342342637,1960
2364.9232346389776,1954
2366.792692813306,1945
2368.6617167696145,2002
2370.5303064109603,1994
2372.3984616394723,1973
2374.2661823563467,1916
2376.1334684618464,1978
2378.0003198553054,1949
2379.8667364351227,1963
2381.7327180987672,1974
2383.5982647427777,1965
2385.4633762627586,1930
2387.3280525533837,2028
2389.192293508395,2007
2391.0560990206027,1919
2392.919468981885,2073
2394.782403283189,1996
2396.644901814531,1992
2398.5069644649916,2007
2400.3685911227235,1803
2402.2297816749474,1913
2404.0905360079505,1942
2405.950854007089,1917
2407.8107355567886,2037
2409.670180540541,1954
2411.529188840908,1932
2413.387760339518,1939
2415.2458949170705,1946
2417.1035924533294,1949
2418.96085282713,1938
2420.8176759163744,2004
2422.6740615980334,2003
2424.5300097481468,1970
2426.38552024182,1969
2428.24059295323,1994
2430.0952277556207,1957
2431.949424521303,1977
2433.803183121658,1963
2435.6565034271343,2039
2437.5093853072485,2022
2439.361828630585,2026
2441.213833264798,1931
2443.0653990766095,2024
2444.916525931808,2049
2446.7672136952524,1995
2448.6174622308695,2020
2450.4672714016538,1995
2452.3166410696676,2019
2454.165571096043,1960
2456.0140613409794,1980
2457.8621116637432,2032
2459.709721922672,2011
2461.556891975169,1969
2463.403621677707,1943
2465.249910885827,1992
2467.0957594541383,2044
2468.9411672363167,2044
2470.78613408511,1956
2472.630659852331,1924
2474.4747443888614,1974
2476.3183875446516,1973
2478.161589168721,1949
2480.0043491091556,1946
2481.8466672131112,1938
2483.6885433268108,2000
2485.529977295547,1976
2487.370968963678,1947
2489.2115181746335,1894
2491.0516247709097,1996
2492.891288594071,1979
2494.7305094847497,1995
2496.569287282649,2005
2498.407621826537,1942
2500.2455129542523,1969
2502.0829605027,1996
2503.919964307855,1952
2505.7565242047594,1949
2507.5926400275252,1992
2509.42831160933,2082
2511.263538782423,1947
2513.0983213781174,1950
2514.9326592267994,1962
2516.76655215792,1937
2518.5999999999995,1954
2520.4330025806275,2017
2522.2655597264607,1973
2524.0976712632237,1932
2525.9293370157097,2011
2527.760556807782,1962
2529.591330462369,1958
2531.4216578014702,1989
2533.2515386461523,2004
2535.080972816548,1930
2536.9099601318626,1980
2538.738500410366,1999
2540.5665934693993,2003
2542.3942391253695,1981
2544.221437193752,2002
2546.0481874890925,2045
2547.874489825003,1954
2549.700344014164,2063
2551.5257498683245,2037
2553.350707198304,2062
2555.175215813986,2021
2556.9992755243256,1985
2558.8228861373454,2080
2560.646047460134,1991
2562.468759298852,1982
2564.2910214587255,2123
2566.1128337440496,2019
2567.93419595819,2063
2569.7551079035757,1968
2571.5755693817077,1993
2573.395580193155,2030
2575.2151401375536,1981
2577.034249013609,2016
2578.8529066190936,2025
2580.6711127508493,1992
2582.488867204785,1963
2584.3061697758794,2026
2586.1230202581787,2077
2587.939418444797,2038
2589.7553641279183,1967
2591.570857098791,2150
2593.385897147736,2107
2595.200484064141,1942
2597.014617636461,2049
2598.8282976522214,1932
2600.6415238980126,1975
2602.454296159496,1984
2604.266614221401,1970
2606.0784778675243,1994
2607.8898868807305,2050
2609.700841042955,2057
2611.5113401351973,1925
2613.32138393753,2041
2615.13097222909,2061
2616.940104788084,1959
2618.748781391788,2009
2620.557001816543,2061
2622.364765837763,2047
2624.1720732299264,1970
2625.9789237665814,1992
2627.7853172203445,2019
2629.5912533629,2090
2631.396731965001,2042
2633.2017527964676,2051
2635.0063156261904,2038
2636.810420222126,2066
2638.614066351301,2001
2640.417253779809,1971
2642.219982272813,2083
2644.022251594542,2015
2645.8240615082973,1980
2647.625411776444,2048
2649.4263021604183,1986
2651.226732420724,1978
2653.026702316933,1956
2654.8262116076858,2014
2656.625260050691,2030
2658.423847402724,2052
2660.221973419631,1965
2662.0196378563246,1959
2663.8168404667867,2098
2665.613581004068,2026
2667.4098592202854,2098
2669.2056748666246,2041
2671.0010276933417,2022
2672.7959174497596,2011
2674.5903438842674,1953
2676.384306744327,2075
2678.177805776465,1986
2679.9708407262765,2023
2681.7634113384274,2028
2683.555517356648,2058
2685.3471585237403,2046
2687.138334581574,2025
2688.9290452710843,2044
2690.7192903322784,2056
2692.50906950423,2129
2694.2983825250794,1946
2696.087229132039,2057
2697.875609061386,2005
2699.6635220484677,2042
2701.450967827699,2075
2703.237946132564,2039
2705.0244566956126,2082
2706.8104992484664,2048
2708.596073521813,2059
2710.381179245408,2075
2712.1658161480777,1999
2713.949983957714,2014
2715.7336824012773,2074
2717.516911204798,2036
2719.299670093374,1999
2721.0819587911706,2059
2722.8637770214223,1976
2724.6451245064322,1927
2726.426000967571,2020
2728.2064061252763,2023
2729.986339699057,2006
2731.765801407488,1978
2733.5447909682134,1952
2735.323308097945,2032
2737.101352512463,1973
2738.8789239266166,1969
2740.6560220543215,2011
2742.4326466085645,2026
2744.2087973013977,1973
2745.984473843944,2028
2747.7596759463922,2000
2749.534403318001,1971
2751.308655667096,2033
2753.0824327010737,2018
2754.8557341263954,2081
2756.628559648593,2000
2758.4009089722667,2039
2760.172781801083,1920
2761.944177837779,2042
2763.715096784159,2024
2765.4855383410945,2020
2767.2555022085267,2012
2769.024988085465,1946
2770.793995669988,2029
2772.5625246592385,1990
2774.3305747494323,1998
2776.098145635852,2038
2777.865237012847,1988
2779.6318485738357,1996
2781.397980011306,2031
2783.163631016813,2062
2784.928801280979,2027
2786.6934904934974,1983
2788.457698343127,1968
2790.221424517697,2059
2791.9846687041027,1990
2793.74743058831,2038
2795.5097098553515,1970
2797.2715061893286,2023
2799.0328192734105,2018
2800.793648789836,2065
2802.553994419911,2009
2804.3138558440087,2049
2806.073232741573,2075
2807.8321247911135,2142
2809.590531670211,2050
2811.3484530555115,2078
2813.105888622732,2104
2814.8628380466557,2060
2816.6193010011348,2010
2818.3752771590903,2056
2820.13076619251,1990
2821.885767772452,2039
2823.640281569041,2097
2825.3943072514703,2067
2827.147844488002,2037
2828.9008929459665,2112
2830.6534522917614,2056
2832.405522190854,1994
2834.1571023077786,2029
2835.9081923061394,2012
2837.658791848606,2050
2839.40890059692,1993
2841.1585182118874,2044
2842.907644353386,2024
2844.6562786803593,2013
2846.4044208508203,2027
2848.15207052185,2037
2849.899227349598,2017
2851.6458909892804,2032
2853.392061095185,2074
2855.137737320664,2001
2856.882919318142,2107
2858.6276067391063,2054
2860.371799234118,2058
2862.1154964528037,2047
2863.8586980438586,1995
2865.6014036550464,2032
2867.343612933199,2073
2869.0853255242173,2063
2870.826541073068,2003
2872.567259223789,2078
2874.307479619485,1964
2876.0472019023287,1982
2877.7864257135625,2015
2879.525150693495,1990
2881.263376481505,2091
2883.0011027160385,2087
2884.73832903461,2017
2886.4750550738027,2007
2888.2112804692665,2013
2889.9470048557223,2054
2891.682227866956,2125
2893.416949135825,2107
2895.151168294252,2065
2896.88488497323,2029
2898.6180988028204,2040
2900.3508094121503,2025
2902.083016429419,2056
2903.81471948189,2044
2905.5459181958972,1973
2907.276612196844,2019
2909.0068011091994,2014
2910.736484556502,2034
2912.465662161359,2009
2914.194333545445,2102
2915.922498329504,2079
2917.650156133346,2073
2919.377306575852,2098
2921.103949274969,2141
2922.830083847715,2123
2924.555709910173,2025
2926.2808270774967,1964
2928.005434963907,2051
2929.7295331826936,2027
2931.4531213462133,2019
2933.1761990658924,2009
2934.8987659522254,2043
2936.6208216147747,2118
2938.3423656621694,2071
2940.0633977021116,1999
2941.783917341366,2061
2943.503924185768,2104
2945.223417840223,2033
2946.9423979087023,2099
2948.6608639942456,2071
2950.378815698962,2092
2952.096252624029,2084
2953.81317436969,2095
2955.529580535259,1997
2957.2454707191177,2076
2958.9608445187164,2072
2960.6757015305734,2140
2962.3900413502733,2197
2964.103863572472,2026
2965.817167790894,2044
2967.529953598327,2062
2969.2422205866337,2029
2970.953968346739,2052
2972.6651964686407,2073
2974.3759045414035,2003
2976.0860921531585,2126
2977.7957588911067,2155
2979.504904341517,2087
2981.2135280897273,2071
2982.9216297201433,2161
2984.629208816238,2099
2986.336264960554,2113
2988.0427977347017,2071
2989.7488067193594,2094
2991.454291494274,2105
2993.1592516382607,2110
2994.8636867292034,2054
2996.567596344053,2139
2998.2709800588295,2112
2999.973837448621,1991
3001.6761680875857,2014
3003.377971548946,2114
3005.0792474049954,2082
3006.7799952270957,2117
3008.480214585676,2027
3010.1799050502345,2051
3011.8790661893368,2045
3013.5776975706176,2091
3015.2757987607793,2068
3016.973369325592,1996
3018.6704088298966,2020
3020.366916837598,2059
3022.0628929116747,2037
3023.7583366141675,2006
3025.4532475061915,2063
3027.147625147925,2042
3028.841469098617,1995
3030.534778916585,2159
3032.2275541592144,2041
3033.9197943829577,2094
3035.611499143338,2074
3037.302667994943,2061
3038.9933004914333,2047
3040.683396185535,2039
3042.372954629042,2085
3044.061975372817,2100
3045.7504579667934,2056
3047.4384019599684,2010
3049.1258069004116,2063
3050.812672335258,2030
3052.4989978107124,2040
3054.184782872047,2096
3055.870027063603,2070
3057.554729928791,2047
3059.238891010086,2096
3060.9225098490347,2122
3062.6055859862518,2087
3064.2881189614177,2106
3065.970108313285,2059
3067.651553579671,2079
3069.3324542974633,2077
3071.012810002616,2034
3072.6926202301543,2088
3074.3718845141702,2098
3076.050602387822,2019
3077.728773383339,2074
3079.406397032018,2053
3081.083472864223,2160
3082.7600004093874,2100
3084.4359791960137,2099
3086.11140875167,2135
3087.7862886029952,1993
3089.4606182756943,2071
3091.134397294544,2071
3092.807625183385,2046
3094.4803014651284,2107
3096.152425661755,2079
3097.8239972943097,2047
3099.49501588291,2020
3101.165480946741,2072
3102.8353920040518,2101
3104.504748572165,2109
3106.1735501674693,2078
3107.8417963054226,2058
3109.5094865005485,2071
3111.176620266441,2104
3112.8431971157625,2046
3114.5092165602427,2088
3116.1746781106813,2106
3117.839581276943,2184
3119.503925567965,2053
3121.167710491747,2040
3122.830935555364,2087
3124.493600264954,2136
3126.1557041257247,2048
3127.817246641952,2143
3129.478227316982,2024
3131.1386456532273,2063
3132.798501152168,2132
3134.4577933143537,2121
3136.116521639402,2095
3137.7746856259982,2074
3139.4322847718977,2049
3141.0893185739224,2012
3142.745786527962,2119
3144.4016881289754,2108
3146.0570228709903,2180
3147.711790247102,2055
3149.3659897494754,2102
3151.0196208693396,2090
3152.6726830969974,2123
3154.3251759218165,2087
3155.9770988322334,2049
3157.6284513157534,2075
3159.2792328589485,2133
3160.929442947461,2053
3162.579081066002,2031
3164.2281466983477,2040
3165.8766393273454,2075
3167.5245584349086,2038
3169.1719035020224,2081
3170.818674008735,2109
3172.4648694341677,2124
3174.110489256508,2099
3175.7555329530105,2134
3177.4000000000005,2064
3179.0438898728707,2140
3180.6872020460805,2127
3182.32993599316,2078
3183.972091186706,2142
3185.613667098384,2071
3187.254663198927,2156
3188.8950789581386,2052
3190.5349138448873,2211
3192.1741673271126,2084
3193.8128388718224,2098
3195.4509279450886,2099
3197.0884340120574,2083
3198.725356536939,2033
3200.361694983014,2030
3201.997448812629,1968
3203.632617487203,2072
3205.2672004672195,2109
3206.901197212229,2061
3208.5346071808563,2108
3210.167429830789,2064
3211.799664618785,2037
3213.4313110006706,2030
3215.0623684313387,2062
3216.692836364753,2117
3218.3227142539445,2104
3219.9520015510125,2135
3221.5806977071215,2092
3223.2088021725103,2122
3224.8363143964816,1986
3226.4632338274077,2061
3228.089559912728,2067
3229.715292098951,2063
3231.3404298316545,2082
3232.9649725554846,2087
3234.5889197141523,2105
3236.2122707504395,2093
3237.8350251061984,2117
3239.457182222345,2059
3241.0787415388677,2089
3242.6997024948187,1986
3244.3200645283223,2123
3245.9398270765696,2120
3247.558989575821,2169
3249.177551461403,2103
3250.7955121677123,2096
3252.412871128213,2064
3254.029627775437,2107
3255.6457815409867,2117
3257.2613318555286,2088
3258.876278148802,2122
3260.490619849613,2154
3262.1043563858348,2142
3263.717487184408,2093
3265.3300116713453,2093
3266.941929271725,2022
3268.5532394096917,2107
3270.1639415084646,2140
3271.7740349903233,2108
3273.383519276621,2090
3274.9923937877775,2036
3276.6006579432833,2134
3278.2083111616903,2134
3279.815352860627,2139
3281.421782456786,2126
3283.027599365927,2082
3284.632803002881,2087
3286.237392781545,2137
3287.841368114885,2092
3289.4447284149373,2114
3291.047473092801,2048
3292.649601558651,2028
3294.2511132217223,2174
3295.8520074903254,2073
3297.452283771835,2059
3299.051941472695,2051
3300.650979998417,2127
3302.2493987535827,2117
3303.8471971418403,2124
3305.4443745659064,2059
3307.0409304275654,2070
3308.636864127674,2098
3310.2321750661513,2106
3311.8268626419876,2062
3313.420926253242,2167
3315.01436529704,2138
3316.6071791695776,2132
3318.1993672661183,2112
3319.7909289809913,2113
3321.3818637075983,2001
3322.972170838406,2030
3324.561849764951,2099
3326.150899877838,2095
3327.7393205667386,2169
3329.3271112203956,2126
3330.9142712266166,2072
3332.5007999722793,2109
3334.08669684333,2098
3335.6719612247834,2143
3337.2565925007193,2089
3338.840590054291,2092
3340.4239532677157,2184
3342.006681522281,2173
3343.5887741983406,2174
3345.1702306753214,2111
3346.7510503317126,2146
3348.3312325450743,2123
3349.910776692037,2106
3351.4896821482953,2144
3353.0679482886153,2112
3354.645574486829,2156
3356.2225601158398,2118
3357.798904547615,2086
