CollectionTime,4/2/2024 11:34:35 AM
ExposureUsed,3
CalibratedSpectrum
-994.8464149364308,646
-991.9439705588344,688
-989.042830375826,707
-986.1429931109675,746
-983.2444574887519,804
-980.3472222346043,756
-977.4512860748813,676
-974.5566477368716,610
-971.6633059487953,640
-968.7712594398042,672
-965.8805069399822,661
-962.9910471803447,690
-960.1028788928387,666
-957.2160008103432,646
-954.3304116666687,720
-951.4461101965578,721
-948.5630951356844,714
-945.6813652206545,780
-942.8009191890055,821
-939.9217557792067,767
-937.0438737306594,772
-934.167271783696,712
-931.2919486795813,695
-928.4179031605115,691
-925.5451339696144,701
-922.67363985095,774
-919.8034195495097,756
-916.9344718112166,761
-914.0667953829256,793
-911.2003890124234,722
-908.3352514484286,750
-905.471381440591,751
-902.6087777394928,701
-899.7474390966474,719
-896.8873642645002,785
-894.0285519964284,734
-891.1710010467407,784
-888.3147101706776,744
-885.4596781244115,725
-882.6059036650465,671
-879.7533855506183,638
-876.9021225400943,664
-874.0521133933738,697
-871.2033568712878,751
-868.3558517355991,709
-865.509596749002,829
-862.6645906751228,851
-859.8208322785192,808
-856.9783203246812,816
-854.1370535800299,733
-851.2970308119186,724
-848.4582507886321,766
-845.620712279387,721
-842.7844140543316,710
-839.9493548845461,664
-837.1155335420422,698
-834.2829487997635,707
-831.4515994315852,703
-828.6214842123144,832
-825.7926019176898,812
-822.9649513243819,751
-820.138531209993,717
-817.3133403530569,774
-814.4893775330396,784
-811.6666415303382,775
-808.845131126282,707
-806.0248451031321,734
-803.2057822440808,694
-800.3879413332527,701
-797.5713211557038,785
-794.755920497422,800
-791.941738145327,760
-789.1287728872701,749
-786.3170235120342,783
-783.5064888093341,756
-780.6971675698165,684
-777.8890585850597,672
-775.0821606475735,870
-772.2764725507997,823
-769.4719930891118,758
-766.6687210578151,728
-763.8666552531465,901
-761.0657944722747,1106
-758.2661375133,940
-755.4676831752547,821
-752.6704302581027,743
-749.8743775627395,710
-747.0795238909925,739
-744.285868045621,771
-741.4934088303156,755
-738.702145049699,758
-735.9120755093254,800
-733.123199015681,1001
-730.3355143761836,1138
-727.5490203991826,918
-724.7637158939592,808
-721.9795996707265,773
-719.1966705406293,767
-716.4149273157439,732
-713.6343688090786,746
-710.8549938345734,706
-708.0768012070998,767
-705.2997897424614,767
-702.5239582573931,776
-699.7493055695622,890
-696.9758304975669,878
-694.2035318609377,874
-691.4324084801367,832
-688.6624591765578,798
-685.8936827725265,772
-683.1260780913001,803
-680.3596439570675,848
-677.5943791949499,799
-674.8302826309991,769
-672.0673530922,804
-669.3055894064685,816
-666.5449904026519,899
-663.78555491053,874
-661.0272817608139,839
-658.2701697851465,858
-655.5142178161026,888
-652.7594246871884,902
-650.0057892328422,803
-647.2533102884337,818
-644.5019866902646,879
-641.7518172755683,818
-639.0028008825099,799
-636.254936350186,868
-633.5082225186254,854
-630.7626582287882,845
-628.0182423225665,904
-625.2749736427841,865
-622.5328510331965,897
-619.7918733384909,872
-617.0520394042862,878
-614.3133480771331,903
-611.5757982045143,922
-608.8393886348437,967
-606.1041182174672,1078
-603.3699858026625,1086
-600.6369902416393,1127
-597.9051303865383,1060
-595.1744050904326,1006
-592.4448132073267,1104
-589.7163535921568,1147
-586.9890251007912,1039
-584.2628265900296,991
-581.5377569176036,993
-578.8138149421764,975
-576.090999523343,1019
-573.3693095216302,918
-570.6487437984965,939
-567.9293012163321,988
-565.210980638459,1022
-562.4937809291307,1028
-559.7777009535329,999
-557.0627395777825,1038
-554.3488956689287,999
-551.6361680949519,1078
-548.9245557247644,1131
-546.2140574282107,1180
-543.5046720760662,1198
-540.7963985400388,1139
-538.0892356927677,1125
-535.3831824078238,1166
-532.6782375597103,1280
-529.9744000238613,1400
-527.2716686766433,1509
-524.5700423953542,1665
-521.8695200582238,1637
-519.1701005444136,1501
-516.4717827340166,1518
-513.7745655080581,1822
-511.0784477484944,1815
-508.38342833821423,1878
-505.68950616103757,2095
-502.9966801017163,2219
-500.3049490459341,2442
-497.61431188030633,2210
-494.9247674923801,1871
-492.2363147706342,1635
-489.54895260447927,1596
-486.86267988425755,1518
-484.1774955012431,1393
-481.4933983476417,1532
-478.8103873165908,1396
-476.1284613021596,1214
-473.44761919934945,1211
-470.7678599040928,1284
-468.089182313254,1346
-465.4115853246294,1336
-462.735067836947,1392
-460.0596287498663,1398
-457.3852669639789,1250
-454.71198138080774,1187
-452.03977090280773,1142
-449.3686344333656,1115
-446.69857087679964,1229
-444.02957913835996,1323
-441.36165812422837,1272
-438.6948067415183,1262
-436.0290238982752,1210
-433.36430850347597,1131
-430.7006594670296,1185
-428.0380756997763,1316
-425.3765561134885,1266
-422.7160996208702,1343
-420.0567051355571,1450
-417.3983715721164,1494
-414.7410978460475,1390
-412.08488287378145,1393
-409.4297255726806,1268
-406.77562486103955,1168
-404.1225796580843,1179
-401.4705888839728,1099
-398.8196514597947,997
-396.1697663075713,1060
-393.5209323502555,1001
-390.8731485117323,892
-388.22641371681823,951
-385.5807268912615,1134
-382.93608696174226,1065
-380.29249285587207,893
-377.64994350219456,795
-375.0084378301849,890
-372.36797477025016,920
-369.7285532537287,932
-367.0901722128914,954
-364.45283058094014,932
-361.8165272920089,897
-359.1812612811634,850
-356.54703148440103,649
-353.9138368386507,658
-351.28167628177346,815
-348.6505487525617,946
-346.02045319074,1006
-343.3913885369643,860
-340.76335373282245,895
-338.1363477208339,911
-335.5103694444499,932
-332.8854178480535,949
-330.26149187695944,889
-327.63859047741425,808
-325.016712596596,701
-322.3958571826148,729
-319.77602318451227,787
-317.15720955226186,881
-314.5394152367686,980
-311.9226391898695,894
-309.3068803643333,822
-306.69213771386023,989
-304.0784101930824,1371
-301.4656967575635,1081
-298.8539963637994,967
-296.2433079692172,1020
-293.6336305321761,1030
-291.02496301196675,994
-288.41730436881176,1085
-285.81065356386534,1036
-283.2050095592135,1071
-280.60037131787396,1452
-277.9967378037961,1709
-275.39410798186134,1227
-272.7924808178824,1240
-270.19185527860407,1315
-267.5922303317028,1309
-264.9936049457866,1418
-262.3959780903955,1373
-259.79934873600087,1328
-257.2037158540064,1348
-254.6090784167469,1401
-252.01543539748934,1524
-249.42278577043237,1251
-246.8311285107061,1153
-244.24046259437262,1175
-241.6507869984256,1300
-239.0621007007909,1483
-236.4744026803254,1565
-233.88769191681808,1468
-231.30196739098994,1397
-228.7172280844934,1279
-226.13347297991243,1301
-223.550701060763,1370
-220.9689113114929,1333
-218.3881027174814,1374
-215.8082742650397,1602
-213.22942494141068,1918
-210.65155373476898,1919
-208.07465963422078,1749
-205.49874162980439,1676
-202.92379871248932,1995
-200.34982987417743,1974
-197.7768341077018,1602
-195.20481040682762,1272
-192.63375776625162,1255
-190.0636751816021,1425
-187.49456164943945,1459
-184.92641616725564,1642
-182.3592377334743,1892
-179.79302534745102,1836
-177.2277780094729,1861
-174.66349472075865,1890
-172.10017448345923,1974
-169.5378163006569,1778
-166.97641917636565,1617
-164.41598211553162,2018
-161.8565041240322,2526
-159.29798420867678,2548
-156.74042137720642,2195
-154.18381463829382,2105
-151.6281630015436,1974
-149.07346547749228,2032
-146.51972107760753,2055
-143.96692881428908,2211
-141.41508770086864,2571
-138.86419675160937,2114
-136.31425498170609,1936
-133.7652614072856,2189
-131.21721504540642,2454
-128.67011491405844,2459
-126.12396003216395,3042
-123.57874941957618,3878
-121.03448209708074,3309
-118.49115708639465,2629
-115.94877341016684,2636
-113.40733009197788,3336
-110.86682615633993,3225
-108.32726062869733,3181
-105.78863253542556,3730
-103.25094090383243,5447
-100.71418476215695,4990
-98.17836313957025,4358
-95.64347506617503,3854
-93.10951957300585,3399
-90.57649569202886,3521
-88.04440245614194,3909
-85.51323889917478,5021
-82.98300405588896,5593
-80.45369696197747,6984
-77.925316654065,8791
-75.39786216970867,11145
-72.87133254739649,13657
-70.34572682654857,16632
-67.82104404751692,18376
-65.29728325158499,24286
-62.774443480968216,30580
-60.252523778813384,35312
-57.73152318919938,40589
-55.21144075713676,39500
-52.69227552856796,32828
-50.17402655036665,33082
-47.65669287033859,28353
-45.14027353722133,23125
-42.624767600684095,32236
-40.11017411132775,41437
-37.59649212068507,47554
-35.08372068122037,57895
-32.57185884632963,65043
-30.06090567034107,65043
-27.550860208513996,65043
-25.04172151704006,65043
-22.533488653042014,65043
-20.02616067457484,65043
-17.51973664062507,65043
-15.014215611111126,65043
-12.509596646882983,65043
-10.005878809722162,65043
-7.503061162342419,65043
-5.001142768389059,65043
-2.5001226924387083,65043
-3.410605131648481E-13,65043
2.49922624248552,65043
4.997556967646801,65043
7.494993107179766,65043
9.99153559184856,65043
12.487185351485778,65043
14.98194331499235,65043
17.475810410337544,65043
19.96878756455851,65043
22.46087570376085,65043
24.952075753118834,36830
27.442388636874625,13957
29.93181527833849,9441
32.42035659988892,6904
34.90801352297353,8570
37.39478696810693,9005
39.880677854873056,10913
42.36568710192364,9988
44.8498156269784,9757
47.33306434682618,9903
49.815434177322686,8965
52.296926033393675,9545
54.77754082903198,8349
57.25727947729865,9019
59.736142890323435,9480
62.214131979304284,6308
64.6912476545076,4892
67.16749082526735,4066
69.64286239998614,3600
72.11736328613551,3572
74.59099439025431,3888
77.06375661794982,4556
79.53565087389825,4565
82.0066780618431,4912
84.4768390845968,4908
86.94613484403999,3654
89.41456624112152,4484
91.88213417585825,5050
94.34883954733527,3687
96.81468325370679,3637
99.2796661921941,2963
101.74378925908763,3121
104.20705334974559,3375
106.66945935859462,3766
109.1310081791296,3982
111.59170070391383,5189
114.05153782457865,4756
116.5105204318238,3374
118.96864941541708,2838
121.42592566419489,3634
123.88235006606146,3827
126.3379235079899,3594
128.79264687602085,3271
131.2465210552641,3225
133.69954692989631,2991
136.15172538316415,3549
138.60305729738116,3443
141.05354355393,2946
143.50318503326116,2777
145.95198261489327,2757
148.39993717741368,3001
150.84704959847772,3639
153.29332075480897,4105
155.73875152219944,4258
158.18334277550935,3710
160.62709538866693,3447
163.0700102346691,3465
165.51208818558075,3509
167.953330112535,3487
170.39373688573346,3115
172.8333093744459,3082
175.2720484470101,3279
177.70995497083277,3616
180.14702981238815,4146
182.58327383721917,3751
185.01868790993672,3408
187.45327289422062,3445
189.88702965281777,3177
192.31995904754444,3112
194.75206193928489,3340
197.18333918799135,3364
199.61379165268454,3333
202.04342019145315,3247
204.4722256614548,3429
206.90020891891436,3680
209.32737081912592,3793
211.7537122164515,3519
214.17923396432116,3296
216.6039369152336,3456
219.0278219207553,3577
221.45088983152186,3616
223.8731414972358,3505
226.29457776666914,3267
228.71519948766172,3263
231.1350075071216,3520
233.55400267102482,3602
235.97218582441633,3690
238.38955781140908,3645
240.806119475184,3560
243.2218716579905,3561
245.6368152011462,3574
248.05095094503736,3392
250.46427972911806,3419
252.87680239191036,3562
255.28851977100544,3553
257.69943270306203,3631
260.10954202380753,3275
262.5188485680378,3230
264.92735316961557,3471
267.33505666147425,3579
269.7419598756128,3403
272.14806364310084,3463
274.5533687940747,3414
276.95787615773975,3297
279.361586562369,3330
281.7645008353045,3227
284.1666198029559,3289
286.5679442908013,3194
288.96847512338695,3244
291.3682131243279,3321
293.7671591163071,3423
296.1653139210757,3642
298.562678359453,3510
300.9592532513268,3319
303.3550394156532,3464
305.75003767045655,3303
308.14424883282936,3247
310.53767371893196,3219
312.93031314399377,3265
315.3221679223125,3066
317.71323886725304,3016
320.1035267912496,2952
322.49303250580397,2994
324.881756821487,3030
327.2697005479374,2833
329.65686449386135,2870
332.0432494670347,2912
334.4288562743004,2925
336.81368572157066,2881
339.19773861382487,2809
341.58101575511205,2787
343.96351794854786,2670
346.3452459963173,2695
348.72620069967365,2747
351.1063828589379,2925
353.48579327349967,3030
355.8644327418169,2813
358.24230206141533,2675
360.6194020288899,2805
362.99573343990255,2720
365.3712970891845,2688
367.7460937705348,2599
370.12012427682066,2667
372.493389399978,2673
374.86588993101077,2704
377.23762665999084,2621
379.6086003760588,2508
381.9788118674235,2544
384.34826192136165,2593
386.7169513242188,2661
389.08488086140824,2604
391.4520513174118,2613
393.8184634757795,2610
396.1841181191296,2754
398.54901602914856,2730
400.9131579865916,2848
403.2765447712811,2743
405.63917716210926,2731
408.00105593703483,2764
410.36218187308646,2503
412.7225557463596,2564
415.0821783320191,2591
417.4410504042976,2409
419.79917273649585,2512
422.1565461009834,2631
424.5131712691973,2591
426.869049011643,2592
429.22418009789544,2582
431.578565296596,2566
433.9322053754556,2391
436.28510110125285,2406
438.6372532398352,2503
440.98866255611733,2414
443.33932981408293,2463
445.6892557767842,2469
448.0384412063411,2467
450.38688686394175,2644
452.7345935098431,2702
455.0815619033697,2565
457.42779280291506,2549
459.7732869659403,2552
462.1180451489754,2618
464.4620681076178,2585
466.80535659653424,2562
469.1479113694588,2688
471.48973317919445,2688
473.8308227776122,2691
476.17118091565135,2793
478.51080834331924,2822
480.8497058096914,2883
483.1878740629122,3187
485.5253138501944,3345
487.8620259178176,3307
490.1980110111317,3604
492.53326987455307,3866
494.86780325156724,4066
497.201611884728,4178
499.53469651565683,4192
501.8670578850447,4288
504.1986967326493,3973
506.52961379729754,3839
508.85980981688454,3576
511.18928552837315,3399
513.5180416677952,3291
515.8460789702503,3409
518.1733981699067,4172
520.5,5172
522.8258851928354,5542
525.1510544797857,5215
527.4755085912916,4737
529.7992482568625,4056
532.1222742050759,3425
534.4445871635783,2844
536.766187859083,2612
539.0870770173726,2419
541.4072553632982,2498
543.7267236207783,2457
546.0454825128002,2424
548.363532761419,2515
550.6808750877592,2468
552.9975102120118,2294
555.3134388534377,2414
557.6286617303654,2296
559.9431795601911,2321
562.2569930593802,2313
564.570102943466,2309
566.88250992705,2430
569.1942147238021,2344
571.5052180464602,2186
573.8155206068309,2254
576.1251231157885,2423
578.4340262832759,2431
580.7422308183045,2303
583.0497374289534,2249
585.3565468223703,2240
587.6626597047714,2282
589.9680767814409,2271
592.2727987567309,2262
594.5768263340624,2321
596.8801602159238,2264
599.1828011038731,2228
601.4847496985356,2277
603.7860066996047,2257
606.0865728058427,2295
608.3864487150802,2265
610.6856351242152,2208
612.9841327292149,2234
615.2819422251141,2210
617.5790643060163,2288
619.8754996650935,2229
622.1712489945849,2137
624.466312985799,2159
626.7606923291121,2183
629.0543877139692,2283
631.347399828883,2337
633.6397293614343,2218
635.9313769982732,2274
638.2223434251173,2287
640.5126293267522,2313
642.8022353870326,2283
645.0911622888809,2236
647.3794107142876,2279
649.666981344312,2254
651.9538748590815,2243
654.2400919377915,2275
656.525633258706,2337
658.8104994991568,2308
661.0946913355442,2331
663.3782094433375,2332
665.6610544970729,2376
667.9432271703561,2244
670.22472813586,2161
672.5055580653268,2339
674.7857176295659,2405
677.065207498456,2274
679.3440283409432,2253
681.6221808250425,2247
683.899665617837,2222
686.1764833854772,2245
688.4526347931837,2308
690.7281205052436,2277
693.0029411850135,2409
695.2770974949171,2371
697.5505900964474,2365
699.8234196501651,2354
702.0955868156989,2281
704.3670922517472,2214
706.6379366160747,2259
708.9081205655159,2232
711.1776447559728,2260
713.4465098424155,2309
715.714716478883,2295
717.9822653184822,2332
720.2491570133882,2382
722.5153922148452,2273
724.7809715731639,2344
727.0458957377248,2239
729.3101653569763,2255
731.5737810784346,2218
733.8367435486853,2248
736.0990534133803,2257
738.3607113172418,2336
740.6217179040591,2311
742.8820738166899,2395
745.1417796970607,2294
747.4008361861659,2306
749.6592439240678,2324
751.9170035498973,2366
754.1741157018539,2358
756.4305810172048,2427
758.686400132286,2354
760.9415736825013,2297
763.196102302323,2451
765.4499866252911,2416
767.7032272840152,2447
769.9558249101717,2450
772.207780134506,2444
774.4590935868323,2495
776.7097658960313,2619
778.9597976900541,2553
781.2091895959184,2439
783.457942239711,2440
785.7060562465867,2393
787.9535322407687,2464
790.2003708455488,2359
792.4465726832861,2398
794.6921383754088,2469
796.9370685424128,2513
799.1813638038632,2296
801.4250247783918,2426
803.6680520837006,2410
805.9104463365579,2394
808.1522081528019,2410
810.393338147338,2423
812.6338369341406,2336
814.8737051262517,2414
817.1129433357819,2345
819.35155217391,2425
821.5895322508834,2382
823.8268841760168,2321
826.0636085576946,2207
828.2997060033681,2359
830.535177119558,2272
832.7700225118522,2360
835.0042427849078,2285
837.2378385424493,2377
839.4708103872701,2371
841.7031589212318,2435
843.9348847452643,2343
846.1659884593648,2393
848.3964706626004,2444
850.6263319531054,2388
852.8555729280824,2384
855.0841941838025,2378
857.3121963156052,2356
859.5395799178978,2381
861.7663455841566,2377
863.9924939069251,2496
866.2180254778159,2488
868.4429408875103,2466
870.6672407257561,2427
872.890925581371,2558
875.1139960422404,2465
877.336452695318,2519
879.5582961266261,2484
881.7795269212543,2531
884.0001456633613,2491
886.2201529361741,2561
888.4395493219874,2569
890.6583354021648,2557
892.8765117571375,2473
895.094078966405,2469
897.3110376085365,2453
899.5273882611671,2431
901.7431315010019,2394
903.958267903814,2401
906.1727980444443,2361
908.3867224968019,2395
910.6000418338647,2372
912.8127566276792,2398
915.0248674493587,2401
917.2363748690857,2433
919.4472794561113,2401
921.6575817787543,2401
923.867282404402,2365
926.0763818995099,2230
928.2848808296014,2357
930.4927797592693,2292
932.700079252173,2281
934.9067798710416,2294
937.112882177672,2262
939.3183867329287,2272
941.5232940967453,2274
943.727604828124,2238
945.9313194851336,2212
948.1344386249132,2265
950.3369628036685,2276
952.5388925766747,2289
954.7402284982745,2292
956.9409711218789,2261
959.1411209999676,2235
961.3406786840883,2222
963.5396447248565,2237
965.7380196719573,2305
967.9358040741427,2256
970.1329984792335,2200
972.3296034341188,2199
974.5256194847555,2156
976.72104717617,2184
978.9158870524552,2208
981.1101396567742,2279
983.3038055313566,2249
985.4968852175009,2238
987.6893792555747,2237
989.8812881850124,2064
992.072612544318,2151
994.263352871063,2170
996.453509701887,2139
998.6430835724984,2114
1000.832075017674,2100
1003.0204845712583,2069
1005.208312766164,2017
1007.3955601343728,2027
1009.5822272069338,1972
1011.7683145139652,2005
1013.9538225846525,2007
1016.1387519472505,2011
1018.3231031290818,2027
1020.5068766565371,1932
1022.6900730550753,1985
1024.872692849224,1980
1027.054736562579,2027
1029.2362047178037,1945
1031.4170978366305,1935
1033.5974164398597,1925
1035.7771610473603,1926
1037.9563321780693,1914
1040.1349303499917,1893
1042.3129560802006,1890
1044.490409884838,1855
1046.667292279115,1853
1048.8436037773079,1916
1051.0193448927644,1913
1053.1945161378994,1932
1055.3691180241954,1870
1057.5431510622038,1857
1059.7166157615447,1902
1061.8895126309053,1955
1064.0618421780423,1906
1066.2336049097798,1850
1068.4048013320107,1851
1070.5754319496955,1876
1072.745497266863,1799
1074.9149977866118,1839
1077.0839340111065,1923
1079.2523064415818,1828
1081.4201155783398,1766
1083.587361920751,1800
1085.7540459672537,1829
1087.9201682153553,1752
1090.0857291616308,1824
1092.2507293017238,1826
1094.4151691303464,1738
1096.579049141279,1772
1098.7423698273687,1800
1100.9051316805335,1767
1103.0673351917571,1804
1105.2289808510936,1855
1107.3900691476633,1815
1109.550600569657,1876
1111.710575604332,1902
1113.8699947380146,1817
1116.028858456099,1825
1118.1871672430489,1802
1120.344921582394,1858
1122.5021219567334,1845
1124.6587688477362,1798
1126.8148627361365,1783
1128.9704041017399,1826
1131.1253934234173,1784
1133.2798311791098,1813
1135.4337178458263,1765
1137.5870538996437,1878
1139.7398398157075,1807
1141.8920760682313,1758
1144.0437631304972,1801
1146.1949014748543,1787
1148.3454915727225,1731
1150.4955338945874,1779
1152.6450289100044,1820
1154.7939770875969,1766
1156.9423788950558,1850
1159.0902347991405,1751
1161.2375452656802,1757
1163.3843107595703,1813
1165.530531744775,1729
1167.6762086843282,1759
1169.8213420403304,1729
1171.9659322739503,1728
1174.1099798454266,1753
1176.2534852140639,1731
1178.3964488382376,1796
1180.538871175389,1795
1182.680752682029,1821
1184.8220938137365,1752
1186.9628950251595,1750
1189.103156770012,1746
1191.2428795010783,1773
1193.3820636702108,1731
1195.5207097283287,1733
1197.6588181254215,1778
1199.7963893105457,1724
1201.9334237318253,1756
1204.0699218364548,1746
1206.2058840706954,1731
1208.3413108798773,1779
1210.476202708397,1773
1212.6105599997222,1779
1214.7443831963874,1781
1216.877672739995,1708
1219.0104290712165,1758
1221.1426526297905,1842
1223.2743438545253,1778
1225.4055031832972,1720
1227.5361310530493,1710
1229.6662278997946,1819
1231.7957941586142,1791
1233.9248302636565,1728
1236.053336648139,1763
1238.1813137443464,1705
1240.3087619836338,1811
1242.4356817964222,1740
1244.5620736122019,1722
1246.6879378595318,1724
1248.813274966039,1752
1250.938085358418,1751
1253.062369462432,1789
1255.186127702913,1717
1257.3093605037611,1696
1259.4320682879434,1739
1261.554251477498,1801
1263.6759104935277,1767
1265.797045756206,1759
1267.9176576847744,1857
1270.0377466975428,1910
1272.1573132118879,1841
1274.2763576442567,1826
1276.394880410162,1871
1278.5128819241877,1805
1280.6303625999835,1806
1282.7473228502695,1842
1284.8637630868325,1835
1286.9796837205272,1868
1289.0950851612783,1823
1291.209967818078,1822
1293.3243320989864,1888
1295.4381784111324,1904
1297.551507160712,1886
1299.6643187529912,1866
1301.776613592303,1886
1303.888392082049,1875
1305.9996546246998,1884
1308.1104016217923,1919
1310.220633473934,1856
1312.3303505807999,1879
1314.4395533411316,1857
1316.5482421527418,1880
1318.6564174125092,1760
1320.7640795163816,1858
1322.8712288593752,1797
1324.9778658355744,1906
1327.0839908381313,1834
1329.1896042592675,1877
1331.2947064902714,1829
1333.3992979215009,1794
1335.503378942381,1804
1337.6069499414057,1847
1339.7100113061383,1849
1341.8125634232074,1881
1343.9146066783128,1814
1346.0161414562212,1818
1348.1171681407677,1774
1350.2176871148563,1824
1352.3176987604575,1880
1354.4172034586127,1867
1356.5162015894289,1832
1358.6146935320835,1880
1360.7126796648213,1861
1362.8101603649548,1853
1364.9071360088656,1768
1367.0036069720036,1828
1369.099573628886,1922
1371.195036353099,1808
1373.2899955172975,1893
1375.3844514932039,1901
1377.4784046516088,1819
1379.5718553623715,1844
1381.6648039944193,1820
1383.7572509157485,1916
1385.8491964934224,1807
1387.9406410935735,1879
1390.0315850814022,1879
1392.122028821177,1870
1394.2119726762357,1936
1396.3014170089828,1930
1398.3903621808918,1891
1400.4788085525051,1836
1402.566756483432,1839
1404.6542063323514,1805
1406.7411584570095,1847
1408.8276132142219,1858
1410.9135709598704,1829
1412.9990320489078,1835
1415.083996835353,1786
1417.1684656722937,1773
1419.2524389118867,1797
1421.3359169053565,1879
1423.4189000029946,1832
1425.5013885541634,1789
1427.5833829072913,1823
1429.664883409876,1771
1431.7458904084833,1821
1433.8264042487467,1842
1435.9064252753697,1875
1437.9859538321216,1858
1440.0649902618416,1835
1442.1435349064373,1855
1444.2215881068837,1843
1446.2991502032237,1892
1448.37622153457,1846
1450.452802439103,1836
1452.5288932540698,1908
1454.604494315788,1873
1456.6796059596427,1843
1458.7542285200866,1862
1460.8283623306415,1861
1462.902007723897,1860
1464.9751650315106,1856
1467.0478345842089,1825
1469.1200167117868,1840
1471.1917117431062,1826
1473.2629200060992,1859
1475.333641827764,1881
1477.4038775341692,1881
1479.4736274504498,1809
1481.5428919008104,1916
1483.6116712085222,1812
1485.6799656959279,1903
1487.7477756844346,1897
1489.8151014945201,1904
1491.88194344573,1897
1493.9483018566775,1871
1496.0141770450455,1892
1498.0795693275822,1901
1500.1444790201076,1843
1502.2089064375086,1859
1504.2728518937402,1759
1506.3363157018239,1904
1508.3992981738534,1810
1510.4617996209872,1880
1512.5238203534536,1849
1514.5853606805495,1935
1516.6464209106384,1849
1518.7070013511543,1870
1520.7671023085973,1863
1522.8267240885375,1863
1524.885866995612,1885
1526.9445313335268,1867
1529.002717405056,2012
1531.0604255120425,1938
1533.1176559553965,1948
1535.1744090350971,1900
1537.2306850501914,1988
1539.2864842987956,2011
1541.3418070780922,2051
1543.396653684334,1973
1545.4510244128405,2035
1547.5049195580013,2064
1549.5583394132727,1997
1551.61128427118,1990
1553.6637544233158,2006
1555.7157501603415,1947
1557.7672717719888,2006
1559.8183195470538,2001
1561.8688937734037,2011
1563.9189947379737,2015
1565.9686227267657,2062
1568.0177780248514,2028
1570.0664609163696,2030
1572.1146716845292,1963
1574.162410611605,2021
1576.2096779789413,2057
1578.2564740669518,2001
1580.3027991551157,2006
1582.3486535219831,1918
1584.3940374451709,1930
1586.4389512013645,1946
1588.4833950663178,1914
1590.5273693148533,1881
1592.5708742208603,1908
1594.6139100572982,1898
1596.6564770961936,1918
1598.698575608642,1924
1600.7402058648063,1836
1602.7813681339185,1908
1604.8220626842776,1979
1606.8622897832533,1900
1608.9020496972812,1896
1610.9413426918663,1940
1612.9801690315808,1904
1615.018528980066,1912
1617.056422800033,1910
1619.0938507532578,1962
1621.1308131005876,1879
1623.1673101019355,1828
1625.2033420162848,1855
1627.2389091016862,1818
1629.274011615259,1857
1631.3086498131897,1915
1633.3428239507352,1930
1635.376534282219,1879
1637.4097810610324,1901
1639.4425645396364,1908
1641.4748849695593,1887
1643.5067426013989,1889
1645.53813768482,1863
1647.5690704685549,1867
1649.5995412004067,1878
1651.6295501272452,1855
1653.6590974950086,1945
1655.6881835487025,1902
1657.7168085324029,1878
1659.7449726892523,1886
1661.772676261462,1823
1663.7999194903114,1879
1665.8267026161484,1834
1667.8530258783894,1864
1669.8788895155185,1894
1671.9042937650888,1792
1673.9292388637205,1887
1675.953725047103,1884
1677.977752549994,1859
1680.0013216062184,1861
1682.0244324486712,1826
1684.0470853093134,1897
1686.0692804191767,1879
1688.0910180083588,1796
1690.1122983060268,1847
1692.1331215404175,1864
1694.1534879388319,1895
1696.173397727644,1919
1698.1928511322926,1954
1700.211848377286,1870
1702.2303896862018,1867
1704.248475281684,1936
1706.2661053854458,1899
1708.2832802182684,1977
1710.300000000002,1935
1712.3162649495644,1972
1714.3320752849409,1892
1716.3474312231865,1881
1718.362332980424,1871
1720.376780771845,1811
1722.3907748117072,1890
1724.4043153133393,1898
1726.4174024891367,1894
1728.4300365505628,1883
1730.442217708151,1962
1732.4539461715008,1902
1734.465222149282,1887
1736.4760458492306,1932
1738.4864174781524,1932
1740.496337241921,1767
1742.5058053454786,1825
1744.5148219928346,1840
1746.523387387068,1835
1748.531501730325,1833
1750.5391652238209,1831
1752.5463780678388,1859
1754.55314046173,1847
1756.5594526039135,1943
1758.565314691879,1879
1760.5707269221812,1845
1762.5756894904443,1857
1764.580202591363,1947
1766.5842664186966,1931
1768.5878811652751,1888
1770.591047022996,1910
1772.593764182825,1868
1774.5960328347965,1931
1776.5978531680116,1872
1778.5992253706427,1939
1780.6001496299273,1914
1782.6006261321731,1854
1784.6006550627553,1930
1786.6002366061175,1927
1788.5993709457725,1870
1790.5980582642992,1936
1792.5962987433468,1908
1794.5940925636314,1910
1796.5914399049389,1889
1798.5883409461221,1938
1800.584795865102,1879
1802.580804838869,1838
1804.5763680434807,1894
1806.571485654064,1828
1808.566157844813,1904
1810.5603847889902,1877
1812.5541666589274,1958
1814.5475036260236,1910
1816.5403958607467,1901
1818.5328435326323,1939
1820.5248468102845,1883
1822.5164058613755,1870
1824.5075208526468,1874
1826.4981919499064,1974
1828.488419318032,1903
1830.4782031209684,1957
1832.4675435217305,1890
1834.4564406823993,1889
1836.4448947641258,1925
1838.432905927128,1954
1840.4204743306927,1949
1842.4076001331746,1924
1844.3942834919985,1919
1846.380524563654,1977
1848.366323503702,1976
1850.351680466771,1909
1852.3365956065563,1867
1854.3210690758228,1891
1856.3051010264044,1956
1858.2886916092007,1959
1860.271840974182,2022
1862.2545492703862,1912
1864.2368166459191,2002
1866.2186432479543,1984
1868.2000292227349,1920
1870.1809747155717,1891
1872.1614798708429,1958
1874.1415448319963,1937
1876.1211697415474,1919
1878.1003547410805,1917
1880.0790999712472,1909
1882.0574055717675,1879
1884.0352716814305,1943
1886.0126984380927,2012
1887.989685978679,1875
1889.9662344391836,1899
1891.9423439546672,2010
1893.9180146592607,1930
1895.893246686161,1940
1897.868040167636,1997
1899.8423952350195,1952
1901.8163120187137,1913
1903.7897906481917,1952
1905.7628312519923,1983
1907.7354339577219,1994
1909.7075988920578,1983
1911.6793261807447,1905
1913.6506159485943,1995
1915.6214683194871,2001
1917.5918834163726,1908
1919.5618613612687,1929
1921.5314022752605,1947
1923.5005062785012,1982
1925.4691734902144,1960
1927.4374040286893,1967
1929.4051980112845,1906
1931.3725555544274,1979
1933.3394767736136,1976
1935.305961783406,1961
1937.2720106974361,1981
1939.237623628404,2019
1941.2028006880778,2017
1943.167541987295,1956
1945.1318476359588,1989
1947.0957177430432,1992
1949.0591524165898,2044
1951.0221517637078,2000
1952.984715890574,2005
1954.9468449024357,2006
1956.9085389036072,2026
1958.8697979974704,1895
1960.8306222864767,1898
1962.7910118721456,1906
1964.7509668550638,1919
1966.7104873348871,2007
1968.6695734103387,1962
1970.6282251792127,2002
1972.586442738368,2031
1974.5442261837343,1955
1976.501575610307,1974
1978.4584911121533,1984
1980.4149727824056,1996
1982.3710207132658,1960
1984.326634996004,2030
1986.2818157209585,1987
1988.2365629775359,2007
1990.1908768542116,1979
1992.144757438527,2022
1994.0982048170954,1989
1996.0512190755953,1957
1998.0038002987749,2022
1999.95594857045,1925
2001.9076639735054,1931
2003.8589465898945,2041
2005.8097965006368,1966
2007.760213785822,1998
2009.7101985246077,2065
2011.6597507952201,1990
2013.6088706749524,1945
2015.5575582401675,1886
2017.5058135662953,1931
2019.4536367278351,1981
2021.4010277983534,1989
2023.347986850486,1940
2025.2945139559365,2001
2027.2406091854768,1979
2029.1862726089462,1995
2031.1315042952538,1992
2033.0763043123766,2062
2035.0206727273585,2053
2036.964609606313,2091
2038.908115014422,1980
2040.8511890159348,1928
2042.7938316741693,2023
2044.7360430515123,2027
2046.677823209417,2041
2048.6191722084077,1955
2050.5600901080743,1984
2052.5005769670765,1973
2054.440632843142,2023
2056.380257793066,1974
2058.3194518727128,2003
2060.258215137015,2013
2062.1965476399732,2051
2064.1344494346554,2030
2066.0719205732,1961
2068.008961106812,2031
2069.945571085764,1939
2071.8817505593997,1970
2073.817499576128,2014
2075.7528181834273,2090
2077.6877064278447,2031
2079.622164354995,1976
2081.556192009562,1994
2083.4897894352966,2025
2085.4229566750187,1988
2087.355693770616,1965
2089.2880007630456,1988
2091.219877692331,2009
2093.151324597566,1933
2095.0823415169107,1988
2097.012928487595,2062
2098.9430855459173,2000
2100.872812727242,1997
2102.8021100660035,1965
2104.730977595705,2058
2106.659415348917,2030
2108.5874233572777,2053
2110.5150016514945,2042
2112.442150261343,2034
2114.3688692156675,1961
2116.2951585423793,2022
2118.2210182684585,1988
2120.146448419954,2037
2122.0714490219825,2036
2123.9960200987293,1960
2125.920161673447,2065
2127.843873768458,1991
2129.767156405151,1986
2131.690009603985,1981
2133.612433384486,2053
2135.534427765249,2078
2137.4559927639366,2083
2139.37712839728,2046
2141.2978346810783,2059
2143.2181116301995,2054
2145.1379592585795,2031
2147.057377579222,2009
2148.9763666042,2059
2150.894926344655,2025
2152.813056810794,2044
2154.730758011896,2012
2156.648029956306,2083
2158.564872651437,1978
2160.481286103772,2028
2162.397270318861,2048
2164.312825301323,2027
2166.227951054844,2048
2168.14264758218,2044
2170.056914885153,2043
2171.9707529646566,2072
2173.8841618206484,1983
2175.7971414521585,2074
2177.7096918572825,2052
2179.621813033186,1977
2181.5335049761,2009
2183.444767681327,2007
2185.355601143236,2097
2187.2660053552654,2020
2189.1759803099208,2041
2191.085525998777,2086
2192.994642412475,2050
2194.903329540727,1968
2196.811587372312,2018
2198.7194158950765,2029
2200.626815095937,2010
2202.5337849608763,2032
2204.440325474948,2028
2206.346436622271,2003
2208.2521183860345,1967
2210.157370748496,1971
2212.0621936909793,2009
2213.966587193879,2077
2215.8705512366573,2062
2217.774085797842,1947
2219.677190855033,2034
2221.579866384897,1998
2223.4821123631677,2070
2225.3839287646483,2065
2227.2853155632106,2055
2229.186272731794,2063
2231.0868002424063,2041
2232.986898066123,2067
2234.8865661730892,1982
2236.785804532517,2041
2238.6846131126877,2094
2240.5829918809495,1998
2242.4809408037213,2084
2244.3784598464877,2076
2246.275548973803,2069
2248.172208149288,1927
2250.0684373356357,2066
2251.964236494603,2061
2253.859605587017,2030
2255.7545445727733,2026
2257.6490534108357,1993
2259.5431320592356,2055
2261.436780475073,1999
2263.329998614516,2060
2265.222786432802,2004
2267.1151438842344,2019
2269.0070709221877,2042
2270.8985674991022,2018
2272.789633566488,2014
2274.6802690749237,2121
2276.570473974053,2084
2278.4602482125933,1982
2280.3495917383257,2082
2282.238504498101,1991
2284.1269864378387,2053
2286.0150375025264,1998
2287.9026576362203,2118
2289.789846782043,2143
2291.6766048821873,2073
2293.5629318779147,2075
2295.4488277095534,2032
2297.3342923164996,2024
2299.2193256372193,2012
2301.1039276092465,2132
2302.9880981691817,2115
2304.871837252696,2092
2306.755144794528,2091
2308.6380207284838,2075
2310.5204649874386,2087
2312.4024775033354,2050
2314.2840582071854,2028
2316.165207029068,2015
2318.0459238981325,2120
2319.926208742594,2068
2321.8060614897363,2023
2323.6854820659137,2070
2325.5644703965463,2110
2327.443026406124,2127
2329.321150018203,2079
2331.1988411554107,2013
2333.0760997394395,2043
2334.952925691053,2107
2336.829318930082,2019
2338.705279375424,2069
2340.5808069450477,2114
2342.4559015559867,2074
2344.3305631243456,2037
2346.204791565297,2022
2348.07858679308,2118
2349.9519487210027,2072
2351.824877261443,2042
2353.6973723258448,2106
2355.5694338247226,2079
2357.4410616676564,2090
2359.312255763297,2071
2361.1830160193617,2053
2363.053342342637,2137
2364.9232346389776,2116
2366.792692813306,2061
2368.6617167696145,2111
2370.5303064109603,2121
2372.3984616394723,2109
2374.2661823563467,2109
2376.1334684618464,2098
2378.0003198553054,2072
2379.8667364351227,2151
2381.7327180987672,2174
2383.5982647427777,2110
2385.4633762627586,2087
2387.3280525533837,2163
2389.192293508395,2055
2391.0560990206027,2111
2392.919468981885,2133
2394.782403283189,2187
2396.644901814531,2067
2398.5069644649916,2112
2400.3685911227235,2080
2402.2297816749474,2105
2404.0905360079505,2075
2405.950854007089,2158
2407.8107355567886,2144
2409.670180540541,2160
2411.529188840908,2110
2413.387760339518,2133
2415.2458949170705,2103
2417.1035924533294,2090
2418.96085282713,2082
2420.8176759163744,2118
2422.6740615980334,2071
2424.5300097481468,2044
2426.38552024182,2090
2428.24059295323,2112
2430.0952277556207,2125
2431.949424521303,2125
2433.803183121658,2148
2435.6565034271343,2149
2437.5093853072485,2107
2439.361828630585,2112
2441.213833264798,2091
2443.0653990766095,2192
2444.916525931808,2135
2446.7672136952524,2078
2448.6174622308695,2081
2450.4672714016538,2116
2452.3166410696676,2145
2454.165571096043,2051
2456.0140613409794,2097
2457.8621116637432,2073
2459.709721922672,2168
2461.556891975169,2063
2463.403621677707,2138
2465.249910885827,2194
2467.0957594541383,2087
2468.9411672363167,2172
2470.78613408511,2105
2472.630659852331,2100
2474.4747443888614,2044
2476.3183875446516,2052
2478.161589168721,2149
2480.0043491091556,2183
2481.8466672131112,2056
2483.6885433268108,2040
2485.529977295547,2160
2487.370968963678,2127
2489.2115181746335,2109
2491.0516247709097,2124
2492.891288594071,2084
2494.7305094847497,2071
2496.569287282649,2130
2498.407621826537,2200
2500.2455129542523,2158
2502.0829605027,2134
2503.919964307855,2096
2505.7565242047594,2136
2507.5926400275252,2122
2509.42831160933,2131
2511.263538782423,2069
2513.0983213781174,2068
2514.9326592267994,2113
2516.76655215792,2131
2518.5999999999995,2058
2520.4330025806275,2095
2522.2655597264607,2123
2524.0976712632237,2103
2525.9293370157097,2084
2527.760556807782,2181
2529.591330462369,2104
2531.4216578014702,2114
2533.2515386461523,2163
2535.080972816548,2185
2536.9099601318626,2117
2538.738500410366,2172
2540.5665934693993,2155
2542.3942391253695,2163
2544.221437193752,2199
2546.0481874890925,2077
2547.874489825003,2227
2549.700344014164,2168
2551.5257498683245,2125
2553.350707198304,2102
2555.175215813986,2113
2556.9992755243256,2137
2558.8228861373454,2179
2560.646047460134,2156
2562.468759298852,2098
2564.2910214587255,2164
2566.1128337440496,2126
2567.93419595819,2123
2569.7551079035757,2106
2571.5755693817077,2119
2573.395580193155,2111
2575.2151401375536,2116
2577.034249013609,2078
2578.8529066190936,2089
2580.6711127508493,2195
2582.488867204785,2148
2584.3061697758794,2119
2586.1230202581787,2164
2587.939418444797,2149
2589.7553641279183,2124
2591.570857098791,2148
2593.385897147736,2141
2595.200484064141,2152
2597.014617636461,2124
2598.8282976522214,2127
2600.6415238980126,2187
2602.454296159496,2109
2604.266614221401,2163
2606.0784778675243,2078
2607.8898868807305,2137
2609.700841042955,2118
2611.5113401351973,2189
2613.32138393753,2207
2615.13097222909,2120
2616.940104788084,2239
2618.748781391788,2102
2620.557001816543,2133
2622.364765837763,2123
2624.1720732299264,2210
2625.9789237665814,2156
2627.7853172203445,2088
2629.5912533629,2186
2631.396731965001,2143
2633.2017527964676,2185
2635.0063156261904,2190
2636.810420222126,2159
2638.614066351301,2127
2640.417253779809,2182
2642.219982272813,2121
2644.022251594542,2143
2645.8240615082973,2265
2647.625411776444,2144
2649.4263021604183,2142
2651.226732420724,2181
2653.026702316933,2166
2654.8262116076858,2139
2656.625260050691,2107
2658.423847402724,2142
2660.221973419631,2081
2662.0196378563246,2143
2663.8168404667867,2102
2665.613581004068,2104
2667.4098592202854,2077
2669.2056748666246,2101
2671.0010276933417,2131
2672.7959174497596,2129
2674.5903438842674,2184
2676.384306744327,2174
2678.177805776465,2175
2679.9708407262765,2202
2681.7634113384274,2142
2683.555517356648,2146
2685.3471585237403,2203
2687.138334581574,2148
2688.9290452710843,2161
2690.7192903322784,2111
2692.50906950423,2136
2694.2983825250794,2223
2696.087229132039,2164
2697.875609061386,2122
2699.6635220484677,2182
2701.450967827699,2179
2703.237946132564,2154
2705.0244566956126,2195
2706.8104992484664,2132
2708.596073521813,2180
2710.381179245408,2128
2712.1658161480777,2176
2713.949983957714,2162
2715.7336824012773,2100
2717.516911204798,2194
2719.299670093374,2106
2721.0819587911706,2086
2722.8637770214223,2201
2724.6451245064322,2142
2726.426000967571,2136
2728.2064061252763,2085
2729.986339699057,2178
2731.765801407488,2127
2733.5447909682134,2155
2735.323308097945,2227
2737.101352512463,2073
2738.8789239266166,2192
2740.6560220543215,2113
2742.4326466085645,2128
2744.2087973013977,2124
2745.984473843944,2163
2747.7596759463922,2101
2749.534403318001,2167
2751.308655667096,2148
2753.0824327010737,2158
2754.8557341263954,2142
2756.628559648593,2182
2758.4009089722667,2170
2760.172781801083,2231
2761.944177837779,2072
2763.715096784159,2093
2765.4855383410945,2166
2767.2555022085267,2139
2769.024988085465,2225
2770.793995669988,2137
2772.5625246592385,2186
2774.3305747494323,2149
2776.098145635852,2131
2777.865237012847,2154
2779.6318485738357,2130
2781.397980011306,2189
2783.163631016813,2129
2784.928801280979,2119
2786.6934904934974,2126
2788.457698343127,2100
2790.221424517697,2215
2791.9846687041027,2171
2793.74743058831,2170
2795.5097098553515,2171
2797.2715061893286,2184
2799.0328192734105,2178
2800.793648789836,2213
2802.553994419911,2186
2804.3138558440087,2151
2806.073232741573,2214
2807.8321247911135,2180
2809.590531670211,2161
2811.3484530555115,2203
2813.105888622732,2149
2814.8628380466557,2274
2816.6193010011348,2169
2818.3752771590903,2105
2820.13076619251,2087
2821.885767772452,2163
2823.640281569041,2134
2825.3943072514703,2130
2827.147844488002,2156
2828.9008929459665,2187
2830.6534522917614,2201
2832.405522190854,2213
2834.1571023077786,2256
2835.9081923061394,2205
2837.658791848606,2170
2839.40890059692,2262
2841.1585182118874,2153
2842.907644353386,2181
2844.6562786803593,2214
2846.4044208508203,2194
2848.15207052185,2193
2849.899227349598,2187
2851.6458909892804,2168
2853.392061095185,2153
2855.137737320664,2133
2856.882919318142,2211
2858.6276067391063,2175
2860.371799234118,2145
2862.1154964528037,2215
2863.8586980438586,2221
2865.6014036550464,2264
2867.343612933199,2287
2869.0853255242173,2150
2870.826541073068,2260
2872.567259223789,2259
2874.307479619485,2239
2876.0472019023287,2191
2877.7864257135625,2203
2879.525150693495,2224
2881.263376481505,2240
2883.0011027160385,2153
2884.73832903461,2200
2886.4750550738027,2207
2888.2112804692665,2238
2889.9470048557223,2212
2891.682227866956,2158
2893.416949135825,2176
2895.151168294252,2188
2896.88488497323,2285
2898.6180988028204,2248
2900.3508094121503,2221
2902.083016429419,2288
2903.81471948189,2234
2905.5459181958972,2203
2907.276612196844,2207
2909.0068011091994,2202
2910.736484556502,2244
2912.465662161359,2269
2914.194333545445,2181
2915.922498329504,2194
2917.650156133346,2273
2919.377306575852,2258
2921.103949274969,2199
2922.830083847715,2115
2924.555709910173,2261
2926.2808270774967,2100
2928.005434963907,2186
2929.7295331826936,2232
2931.4531213462133,2164
2933.1761990658924,2188
2934.8987659522254,2230
2936.6208216147747,2213
2938.3423656621694,2247
2940.0633977021116,2307
2941.783917341366,2233
2943.503924185768,2213
2945.223417840223,2334
2946.9423979087023,2249
2948.6608639942456,2263
2950.378815698962,2206
2952.096252624029,2175
2953.81317436969,2251
2955.529580535259,2169
2957.2454707191177,2197
2958.9608445187164,2280
2960.6757015305734,2215
2962.3900413502733,2247
2964.103863572472,2200
2965.817167790894,2199
2967.529953598327,2155
2969.2422205866337,2267
2970.953968346739,2241
2972.6651964686407,2196
2974.3759045414035,2153
2976.0860921531585,2238
2977.7957588911067,2204
2979.504904341517,2174
2981.2135280897273,2210
2982.9216297201433,2268
2984.629208816238,2271
2986.336264960554,2283
2988.0427977347017,2227
2989.7488067193594,2195
2991.454291494274,2257
2993.1592516382607,2162
2994.8636867292034,2297
2996.567596344053,2265
2998.2709800588295,2235
2999.973837448621,2205
3001.6761680875857,2254
3003.377971548946,2289
3005.0792474049954,2197
3006.7799952270957,2274
3008.480214585676,2142
3010.1799050502345,2190
3011.8790661893368,2236
3013.5776975706176,2225
3015.2757987607793,2228
3016.973369325592,2204
3018.6704088298966,2229
3020.366916837598,2166
3022.0628929116747,2200
3023.7583366141675,2213
3025.4532475061915,2234
3027.147625147925,2159
3028.841469098617,2192
3030.534778916585,2206
3032.2275541592144,2258
3033.9197943829577,2151
3035.611499143338,2299
3037.302667994943,2225
3038.9933004914333,2187
3040.683396185535,2184
3042.372954629042,2300
3044.061975372817,2236
3045.7504579667934,2213
3047.4384019599684,2281
3049.1258069004116,2315
3050.812672335258,2214
3052.4989978107124,2281
3054.184782872047,2234
3055.870027063603,2246
3057.554729928791,2282
3059.238891010086,2169
3060.9225098490347,2235
3062.6055859862518,2182
3064.2881189614177,2179
3065.970108313285,2229
3067.651553579671,2213
3069.3324542974633,2152
3071.012810002616,2174
3072.6926202301543,2265
3074.3718845141702,2258
3076.050602387822,2256
3077.728773383339,2219
3079.406397032018,2228
3081.083472864223,2233
3082.7600004093874,2204
3084.4359791960137,2213
3086.11140875167,2132
3087.7862886029952,2204
3089.4606182756943,2235
3091.134397294544,2148
3092.807625183385,2330
3094.4803014651284,2276
3096.152425661755,2232
3097.8239972943097,2264
3099.49501588291,2241
3101.165480946741,2280
3102.8353920040518,2268
3104.504748572165,2255
3106.1735501674693,2202
3107.8417963054226,2288
3109.5094865005485,2251
3111.176620266441,2224
3112.8431971157625,2238
3114.5092165602427,2283
3116.1746781106813,2280
3117.839581276943,2230
3119.503925567965,2230
3121.167710491747,2270
3122.830935555364,2320
3124.493600264954,2236
3126.1557041257247,2244
3127.817246641952,2233
3129.478227316982,2239
3131.1386456532273,2197
3132.798501152168,2292
3134.4577933143537,2290
3136.116521639402,2282
3137.7746856259982,2351
3139.4322847718977,2323
3141.0893185739224,2212
3142.745786527962,2265
3144.4016881289754,2254
3146.0570228709903,2272
3147.711790247102,2250
3149.3659897494754,2269
3151.0196208693396,2289
3152.6726830969974,2221
3154.3251759218165,2191
3155.9770988322334,2261
3157.6284513157534,2236
3159.2792328589485,2286
3160.929442947461,2253
3162.579081066002,2313
3164.2281466983477,2272
3165.8766393273454,2227
3167.5245584349086,2215
3169.1719035020224,2303
3170.818674008735,2235
3172.4648694341677,2234
3174.110489256508,2302
3175.7555329530105,2256
3177.4000000000005,2274
3179.0438898728707,2293
3180.6872020460805,2232
3182.32993599316,2271
3183.972091186706,2192
3185.613667098384,2249
3187.254663198927,2215
3188.8950789581386,2291
3190.5349138448873,2260
3192.1741673271126,2333
3193.8128388718224,2278
3195.4509279450886,2283
3197.0884340120574,2286
3198.725356536939,2264
3200.361694983014,2277
3201.997448812629,2220
3203.632617487203,2233
3205.2672004672195,2395
3206.901197212229,2267
3208.5346071808563,2234
3210.167429830789,2262
3211.799664618785,2218
3213.4313110006706,2269
3215.0623684313387,2295
3216.692836364753,2205
3218.3227142539445,2220
3219.9520015510125,2255
3221.5806977071215,2266
3223.2088021725103,2224
3224.8363143964816,2233
3226.4632338274077,2286
3228.089559912728,2236
3229.715292098951,2209
3231.3404298316545,2301
3232.9649725554846,2276
3234.5889197141523,2346
3236.2122707504395,2262
3237.8350251061984,2283
3239.457182222345,2351
3241.0787415388677,2241
3242.6997024948187,2261
3244.3200645283223,2261
3245.9398270765696,2317
3247.558989575821,2245
3249.177551461403,2280
3250.7955121677123,2277
3252.412871128213,2260
3254.029627775437,2267
3255.6457815409867,2300
3257.2613318555286,2209
3258.876278148802,2310
3260.490619849613,2240
3262.1043563858348,2263
3263.717487184408,2283
3265.3300116713453,2231
3266.941929271725,2274
3268.5532394096917,2247
3270.1639415084646,2317
3271.7740349903233,2288
3273.383519276621,2247
3274.9923937877775,2383
3276.6006579432833,2265
3278.2083111616903,2324
3279.815352860627,2318
3281.421782456786,2329
3283.027599365927,2373
3284.632803002881,2306
3286.237392781545,2316
3287.841368114885,2338
3289.4447284149373,2313
3291.047473092801,2246
3292.649601558651,2280
3294.2511132217223,2216
3295.8520074903254,2186
3297.452283771835,2217
3299.051941472695,2235
3300.650979998417,2271
3302.2493987535827,2235
3303.8471971418403,2250
3305.4443745659064,2289
3307.0409304275654,2331
3308.636864127674,2254
3310.2321750661513,2240
3311.8268626419876,2242
3313.420926253242,2324
3315.01436529704,2210
3316.6071791695776,2319
3318.1993672661183,2323
3319.7909289809913,2264
3321.3818637075983,2191
3322.972170838406,2227
3324.561849764951,2262
3326.150899877838,2309
3327.7393205667386,2301
3329.3271112203956,2215
3330.9142712266166,2288
3332.5007999722793,2415
3334.08669684333,2353
3335.6719612247834,2324
3337.2565925007193,2208
3338.840590054291,2422
3340.4239532677157,2324
3342.006681522281,2305
3343.5887741983406,2276
3345.1702306753214,2286
3346.7510503317126,2251
3348.3312325450743,2269
3349.910776692037,2343
3351.4896821482953,2313
3353.0679482886153,2403
3354.645574486829,2271
3356.2225601158398,2290
3357.798904547615,2257
