CollectionTime,6/26/2024 2:34:27 PM
ExposureUsed,3
CalibratedSpectrum
-962.7078968117929,619
-959.9714848408522,657
-957.2358232597828,622
-954.5009119013725,623
-951.7667505983302,642
-949.0333391832855,657
-946.3006774887896,637
-943.5687653473143,670
-940.837602591253,633
-938.1071890529199,647
-935.3775245645503,670
-932.6486089583007,684
-929.9204420662485,750
-927.1930237203925,713
-924.4663537526524,665
-921.7404319948689,653
-919.0152582788041,650
-916.2908324361409,719
-913.5671542984834,726
-910.8442236973568,706
-908.1220404642074,689
-905.4006044304027,686
-902.679915427231,683
-899.959973285902,699
-897.2407778375464,710
-894.5223289132158,697
-891.8046263438832,702
-889.0876699604426,684
-886.3714595937089,653
-883.6559950744183,659
-880.9412762332282,664
-878.2273029007168,680
-875.5140749073835,720
-872.8015920836489,658
-870.0898542598545,644
-867.3788612662631,633
-864.6686129330585,649
-861.9591090903457,638
-859.2503495681506,597
-856.5423341964203,634
-853.8350628050229,679
-851.1285352237478,681
-848.4227512823054,616
-845.7177108103272,647
-843.0134136373656,671
-840.3098595928943,649
-837.6070485063082,669
-834.9049802069229,667
-832.2036545239757,691
-829.5030712866244,657
-826.8032303239481,707
-824.1041314649472,632
-821.4057745385428,629
-818.7081593735775,663
-816.0112857988148,648
-813.3151536429393,679
-810.6197627345566,653
-807.9251129021936,632
-805.2312039742981,641
-802.5380357792392,640
-799.8456081453069,623
-797.1539209007124,629
-794.462973873588,646
-791.772766891987,667
-789.083299783884,652
-786.3945723771743,659
-783.7065844996748,634
-781.0193359791231,668
-778.3328266431781,680
-775.6470563194197,688
-772.9620248353489,637
-770.2777320183878,642
-767.5941776958798,644
-764.9113616950891,699
-762.2292838432011,666
-759.5479439673222,663
-756.8673418944801,643
-754.1874774516235,689
-751.5083504656222,644
-748.8299607632671,641
-746.15230817127,652
-743.475392516264,678
-740.7992136248035,696
-738.1237713233636,633
-735.4490654383407,676
-732.7750957960521,689
-730.1018622227365,708
-727.4293645445534,682
-724.7576025875837,657
-722.0865761778291,699
-719.4162851412126,683
-716.7467293035781,661
-714.0779084906909,715
-711.409822528237,723
-708.7424712418238,694
-706.0758544569796,695
-703.4099719991541,711
-700.7448236937178,713
-698.0804093659622,698
-695.4167288411002,697
-692.7537819442656,695
-690.0915685005134,686
-687.4300883348199,702
-684.7693412720819,715
-682.1093271371178,699
-679.4500457546669,734
-676.7914969493897,714
-674.1336805458676,744
-671.4765963686034,743
-668.8202442420206,752
-666.1646239904642,722
-663.5097354382001,728
-660.8555784094151,743
-658.2021527282176,744
-655.5494582186366,813
-652.8974947046223,760
-650.2462620100463,750
-647.5957599587009,749
-644.9459883742998,766
-642.2969470804776,763
-639.6486359007902,824
-637.0010546587141,827
-634.3542031776476,819
-631.7080812809096,781
-629.0626887917401,755
-626.4180255333008,745
-623.7740913286734,750
-621.1308860008619,790
-618.4884093727904,781
-615.8466612673046,816
-613.2056415071715,763
-610.5653499150785,740
-607.9257863136347,775
-605.28695052537,791
-602.6488423727357,789
-600.0114616781036,759
-597.3748082637674,841
-594.7388819519412,836
-592.1036825647604,794
-589.4692099242818,795
-586.8354638524829,802
-584.2024441712624,795
-581.5701507024403,756
-578.9385832677575,803
-576.3077416888759,800
-573.6776257873787,823
-571.0482353847704,827
-568.4195703024757,805
-565.7916303618415,873
-563.164415384135,835
-560.5379251905453,817
-557.9121596021815,775
-555.2871184400748,813
-552.6628015251767,796
-550.0392086783606,830
-547.4163397204204,813
-544.794194472071,792
-542.1727727539491,825
-539.5520743866118,843
-536.9320991905377,892
-534.3128469861261,908
-531.6943175936979,923
-529.0765108334947,938
-526.4594265256793,1050
-523.8430644903358,1179
-521.2274245474689,1385
-518.612506517005,1528
-515.9983102187913,1570
-513.3848354725959,1663
-510.77208209810846,1760
-508.16004991493924,1805
-505.5487387426199,1961
-502.9381484006032,2055
-500.3282787082628,2170
-497.71912948489364,2331
-495.1107005497117,2423
-492.5029917218539,2271
-489.8960028203786,2184
-487.28973366426493,2037
-484.68418407241325,1752
-482.07935386364494,1535
-479.47524285670266,1401
-476.87185087025,1411
-474.2691777228715,1299
-471.66722323307334,1229
-469.0659872192821,1190
-466.4654694998459,1126
-463.86566989303384,1156
-461.26658821703614,1109
-458.66822428996414,1060
-456.07057792985,1102
-453.4736489546475,1101
-450.877437182231,1135
-448.28194243039627,1094
-445.68716451686,1101
-443.09310325926003,1071
-440.49975847515555,1021
-437.9071299820263,1031
-435.31521759727354,1084
-432.72402113821954,1047
-430.13354042210767,1063
-427.5437752661022,1099
-424.95472548728867,1104
-422.36639090267386,1151
-419.7787713291855,1157
-417.1918665836721,1099
-414.60567648290385,1100
-412.0202008435715,1144
-409.4354394822874,1157
-406.8513922155845,1134
-404.26805885991723,1159
-401.685439231661,1148
-399.103533147112,1151
-396.522340422488,1145
-393.9418608739278,1191
-391.3620943174908,1210
-388.7830405691583,1175
-386.2046994448317,1122
-383.6270707603344,1072
-381.05015433141045,1003
-378.473949973725,931
-375.8984575028645,949
-373.32367673433623,856
-370.74960748356875,785
-368.1762495659117,702
-365.60360279663576,676
-363.03166699093265,667
-360.4604419639154,702
-357.8899275306178,641
-355.32012350599507,609
-352.7510297049233,586
-350.1826459421999,605
-347.61497203254316,617
-345.04800779059235,575
-342.4817530309082,547
-339.91620756797226,558
-337.35137121618743,573
-334.7872437898774,543
-332.22382510328725,537
-329.66111497058273,583
-327.09911320585127,606
-324.53781962310075,603
-321.9772340362607,610
-319.4173562591816,696
-316.8581861056348,706
-314.2997233893127,801
-311.7419679238294,799
-309.1849195227194,756
-306.62857799943856,685
-304.0729431673641,596
-301.51801483979375,567
-298.963792829947,563
-296.41027695096386,714
-293.85746701590574,739
-291.3053628377552,703
-288.7539642294155,691
-286.2032710037115,682
-283.65328297338897,657
-281.1039999511146,689
-278.5554217494762,810
-276.007548180983,731
-273.4603790580651,716
-270.9139141930734,669
-268.3681533982807,705
-265.8230964858798,693
-263.27874326798565,692
-260.7350935566336,707
-258.1921471637804,795
-255.6499039013039,880
-253.10836358100266,802
-250.56752601459698,781
-248.02739101372765,906
-245.48795838995704,839
-242.94922795476816,824
-240.41119951956557,825
-237.8738728956746,1016
-235.33724789434166,1130
-232.80132432673452,970
-230.2661020039418,920
-227.73158073697357,959
-225.19776033676033,973
-222.66464061415422,1030
-220.1322213799284,891
-217.60050244477725,901
-215.06948361931552,1000
-212.53916471408013,912
-210.00954553952818,880
-207.48062590603843,947
-204.9524056239104,1009
-202.4248845033651,1021
-199.8980623545441,1140
-197.37193898751036,1083
-194.84651421224817,1040
-192.32178783866232,937
-189.79775967657952,1001
-187.27442953574644,1043
-184.7517972258321,1023
-182.2298625564256,949
-179.7086253370378,1113
-177.18808537710026,1239
-174.66824248596583,1157
-172.14909647290835,1262
-169.6306471471229,1212
-167.11289431772548,1176
-164.59583779375328,1161
-162.07947738416453,1195
-159.5638128978386,1254
-157.04884414357605,1281
-154.53457093009854,1313
-152.02099306604828,1180
-149.50811035998936,1215
-146.99592262040665,1312
-144.48442965570587,1280
-141.97363127421409,1352
-139.46352728417958,1380
-136.95411749377126,1629
-134.44540171107985,1864
-131.93737974411636,1791
-129.43005140081357,1707
-126.92341648902493,1580
-124.41747481652521,1739
-121.91222619101006,1786
-119.40767042009657,1591
-116.90380731132257,1494
-114.40063667214702,1693
-111.8981583099503,1907
-109.3963720320337,2043
-106.89527764561933,1845
-104.39487495785067,1903
-101.89516377579241,2044
-99.39614390642998,1988
-96.89781515667039,1904
-94.40017733334128,2182
-91.90323024319173,2181
-89.40697369289148,2203
-86.91140748903172,2075
-84.41653143812482,2203
-81.92234534660395,2237
-79.42884902082358,2380
-76.93604226705907,2223
-74.4439248915071,2241
-71.95249670028534,2240
-69.46175749943245,2662
-66.97170709490854,2806
-64.48234529259423,3309
-61.99367189829195,3325
-59.50568671772464,3546
-57.01838955653636,3749
-54.53178022029283,3815
-52.045858514480074,3880
-49.560624244506016,4499
-47.07607721569923,4618
-44.59221723330904,3927
-42.10904410250669,3701
-39.62655762838392,5143
-37.14475761595372,6607
-34.66364387015028,6681
-32.18321619582866,7567
-29.70347439776515,8549
-27.224418280657005,9453
-24.74604764912317,12561
-22.26836230770266,17558
-19.7913620608565,28840
-17.315046712966478,45141
-14.83941606833514,53105
-12.36446993118659,65039
-9.89020810566592,65039
-7.416630395839093,65039
-4.94373660569363,65039
-2.471526539137585,65039
-6.821210263296962E-13,65039
2.47084320796705,65039
4.941003281093458,65039
7.410480415786196,65039
9.879274808531363,65039
12.347386655893956,65039
14.814816154518212,65039
17.28156350112681,65039
19.74762889252179,65039
22.21301252558385,65039
24.67771459727237,65039
27.141735304626195,65039
29.605074844762612,26929
32.06773341487792,14181
34.52971121224755,8951
36.99100843422559,7403
39.45162527824516,9013
41.91156194181792,10400
44.370818622535126,17288
46.82939551806646,23210
49.287292826160524,21386
51.74451074464503,16258
54.201049471426245,11533
56.65690920448981,7774
59.112090141899785,4649
61.56659248179983,4068
64.02041642241159,3709
66.4735621620365,3849
68.92602989905402,3692
71.37781983192338,3648
73.82893215918205,3422
76.27936707944684,2801
78.72912479141326,3141
81.17820549385567,3283
83.62660938562783,3101
86.07433666566146,2756
88.5213875329681,3304
90.96776218663751,3435
93.41346082583925,3101
95.85848364982041,2894
98.30283085790859,2289
100.7465026495089,2262
103.18949922410604,2481
105.63182078126385,2379
108.07346752062438,2581
110.51443964190923,2460
112.95473734491827,2249
115.39436082953114,2003
117.83331029570547,2067
120.27158594347827,2404
122.7091879729652,2051
125.1461165843615,1704
127.58237197794062,1596
130.01795435405518,1599
132.4528639131364,1561
134.88710085569494,1847
137.32066538231982,2061
139.75355769367923,1903
142.1857779905207,1816
144.61732647366978,1771
147.04820334403132,1615
149.47840880258934,1718
151.90794305040674,1926
154.33680628862487,1881
156.76499871846443,1890
159.19252054122433,1921
161.61937195828352,1926
164.04555317109896,1876
166.47106438120693,2267
168.89590579022217,2610
171.320077599839,2683
173.7435800118302,2692
176.16641322804742,2840
178.58857745042144,2849
181.01007288096173,2891
183.43089972175687,2773
185.85105817497413,2762
188.27054844285988,2687
190.6893707277394,2610
193.10752523201643,2772
195.5250121581745,2967
197.9418317087751,3075
200.3579840864594,3002
202.7734694939469,3033
205.18828813403627,3056
207.6024402096051,2944
210.01592592360964,2985
212.42874547908548,2951
214.84089907914665,2915
217.2523869269868,2971
219.66320922587727,3069
222.0733661791695,2957
224.48285799029293,2877
226.8916848627572,3049
229.29984700014882,3136
231.7073446061355,3149
234.11417788446204,3092
236.520347038953,3150
238.92585227351185,3316
241.33069379212054,3485
243.73487179884035,3285
246.1383864978112,3054
248.541238093252,3121
250.9434267894609,3165
253.34495279081432,3091
255.74581630176783,3107
258.1460175268563,3194
260.54555667069314,3155
262.9444339379703,3055
265.3426495334594,3055
267.7402036620107,3179
270.1370965285529,3089
272.53332833809407,3040
274.9288992957214,3053
277.32380960660055,3094
279.718059475976,3058
282.1116491091717,2960
284.5045787115897,3092
286.89684848871195,3118
289.2884586460981,3036
291.67940938938807,2995
294.0697009242996,2910
296.4593334566299,2921
298.84830719225477,2863
301.23662233712923,2922
303.6242790972866,2887
306.01127767884,2990
308.39761828798066,2943
310.78330113097934,2804
313.16832641418534,2805
315.5526943440269,2838
317.9364051270112,2848
320.3194589697242,2744
322.70185607883093,2674
325.0835966610754,2746
327.4646809232805,2812
329.8451090723478,2737
332.2248813152577,2651
334.6039978590701,2652
336.9824589109231,2708
339.36026467803447,2604
341.7374153677,2528
344.113911187295,2550
346.48975234427337,2503
348.8649390461686,2540
351.2394715005918,2555
353.61334991523415,2403
355.9865744978655,2439
358.35914545633375,2467
360.73106299856715,2393
363.10232733257146,2488
365.47293866643247,2522
367.84289720831396,2473
370.2122031664593,2425
372.5808567491905,2319
374.9488581649083,2377
377.31620762209275,2312
379.6829053293021,2449
382.0489514951745,2388
384.4143463284262,2452
386.7790900378528,2431
389.14318283232853,2351
391.50662492080653,2301
393.86941651231916,2271
396.23155781597745,2297
398.5930490409713,2311
400.9538903965696,2339
403.3140820921202,2262
405.6736243370498,2276
408.03251734086336,2282
410.3907613131465,2286
412.74835646356166,2302
415.10530300185144,2302
417.4616011378372,2309
419.81725108141893,2279
422.1722530425758,2250
424.5266072313656,2236
426.880313857925,2287
429.2333731324701,2220
431.58578526529516,2208
433.9375504667738,2364
436.2886689473588,2200
438.63914091758113,2185
440.9889665880513,2180
443.33814616945835,2142
445.68667987257015,2179
448.03456790823395,2143
450.3818104873759,2148
452.72840782100013,2230
455.07436012019105,2189
457.41966759611057,2251
459.7643304600007,2236
462.10834892318155,2196
464.4517231970525,2264
466.79445349309174,2236
469.1365400228566,2263
471.4779829979826,2285
473.81878263018564,2265
476.15893913125876,2320
478.4984527130747,2370
480.8373235875855,2336
483.17555196682144,2462
485.5131380628919,2545
487.8500820879857,2766
490.1863842543697,3034
492.52204477439034,3240
494.8570638604725,3371
497.1914417251204,3906
499.52517858091653,4041
501.85827464052306,4141
504.19073011668036,4209
506.5225452222086,4023
508.85372017000566,3923
511.18425517304956,3683
513.514150444396,3771
515.8434061971808,4475
518.1720226446176,5046
520.4999999999999,5504
522.8273384766991,5936
525.1540382881666,6210
527.480099647932,6028
529.8055227696037,4912
532.1303078668694,3504
534.454455153496,2738
536.777964843328,2358
539.1008371502907,2215
541.4230722883866,2160
543.744670471698,2148
546.0656319143858,2019
548.3859568306899,2082
550.7056454349294,2151
553.0246979415016,1981
555.3431145648834,1973
557.6608955196306,1917
559.978041020377,1989
562.2945512818363,2016
564.6104265188006,1951
566.9256669461412,1980
569.2402727788082,1936
571.5542442318302,1961
573.8675815203156,1959
576.1802848594508,1959
578.4923544645015,1891
580.8037905508126,1889
583.114593333807,1981
585.4247630289875,1957
587.7342998519354,1955
590.0432040183106,1984
592.3514757438526,1895
594.6591152443794,1930
596.9661227357875,1962
599.2724984340531,2015
601.578242555231,1889
603.8833553154542,1938
606.1878369309362,2010
608.4916876179676,2048
610.7949075929192,2084
613.0974970722403,2024
615.3994562724587,1976
617.7007854101818,1963
620.0014847020951,1992
622.3015543649641,1949
624.6009946156324,1978
626.8998056710224,2001
629.1979877481361,1928
631.4955410640538,1932
633.7924658359349,1912
636.0887622810175,1967
638.3844306166192,1917
640.6794710601358,1937
642.9738838290426,1966
645.2676691408932,1946
647.5608272133207,1947
649.853358264037,1934
652.1452625108324,1947
654.4365401715764,1912
656.7271914642178,1915
659.0172166067838,2024
661.3066158173809,2032
663.5953893141935,1956
665.8835373154867,1961
668.1710600396028,1974
670.4579577049639,2004
672.7442305300709,1971
675.0298787335033,1988
677.3149025339197,1960
679.599302150058,2026
681.8830778007342,1988
684.1662297048437,1982
686.4487580813608,2042
688.7306631493387,1962
691.0119451279091,2027
693.2926042362834,2014
695.5726406937516,1976
697.8520547196814,2044
700.1308465335215,2011
702.4090163547982,1990
704.6865644031171,2048
706.9634908981619,1978
709.2397960596965,1935
711.5154801075631,1989
713.7905432616823,1956
716.0649857420548,2033
718.3388077687592,1983
720.612009561953,2018
722.8845913418733,1895
725.1565533288352,2061
727.427895743234,1998
729.6986188055427,1972
731.9687227363137,1990
734.238207756178,1979
736.5070740858458,1984
738.7753219461066,2028
741.0429515578281,1963
743.3099631419569,2015
745.5763569195191,2009
747.8421331116193,2061
750.1072919394409,2081
752.3718336242467,2044
754.6357583873777,1998
756.8990664502545,1930
759.1617580343765,2021
761.423833361321,1981
763.6852926527457,1928
765.9461361303862,1987
768.206364016058,1965
770.4659765316536,2004
772.7249738991469,2034
774.9833563405886,2037
777.2411240781092,2076
779.4982773339183,2058
781.7548163303044,2133
784.010741289634,2068
786.2660524343538,2166
788.5207499869881,2098
790.7748341701416,2012
793.0283052064964,2089
795.2811633188143,2096
797.5334087299362,1987
799.7850416627813,2070
802.0360623403484,2062
804.2864709857143,2002
806.5362678220353,2013
808.7854530725468,2116
811.0340269605625,2092
813.2819897094754,2093
815.5293415427581,2089
817.77608268396,2051
820.0222133567116,2020
822.2677337847211,2020
824.5126441917765,2044
826.7569448017433,2044
829.0006358385675,2043
831.2437175262731,2123
833.4861900889629,2038
835.7280537508192,2013
837.9693087361026,2036
840.2099552691533,2100
842.4499935743896,2121
844.689423876309,2061
846.9282463994886,2027
849.1664613685833,2036
851.4040690083276,2079
853.6410695435349,2067
855.877463199097,2015
858.1132501999847,2094
860.3484307712487,1989
862.5830051380175,2103
864.8169735254988,1988
867.0503361589791,1967
869.2830932638243,2016
871.5152450654786,2052
873.7467917894654,2079
875.9777336613873,2048
878.2080709069252,2073
880.4378037518389,2004
882.666932421968,2176
884.8954571432301,2071
887.1233781416219,2090
889.3506956432192,2147
891.5774098741766,2160
893.803521060728,2080
896.0290294291852,2119
898.2539352059397,2185
900.4782386174619,2045
902.7019398903011,2052
904.925039251085,2140
907.147536926521,2118
909.3694331433943,2107
911.59072812857,2015
913.8114221089921,2044
916.0315153116827,2108
918.2510079637437,2070
920.4699002923547,2052
922.6881925247761,2076
924.905884888345,2059
927.1229776104793,2030
929.3394709186747,2118
931.555365040506,2100
933.7706602036275,1968
935.9853566357709,2025
938.1994545647489,2090
940.4129542184515,2127
942.6258558248488,2064
944.8381596119883,1997
947.0498658079974,2094
949.2609746410825,1992
951.4714863395287,2001
953.6814011316998,1960
955.8907192460387,2031
958.0994409110671,1972
960.3075663553858,2014
962.5150958076741,1923
964.7220294966913,1954
966.928367651274,1926
969.1341105003388,1954
971.3392582728806,1949
973.5438111979742,1945
975.747769504772,1971
977.9511334225061,1924
980.153903180487,1901
982.3560790081052,1909
984.5576611348289,1954
986.7586497902058,1917
988.9590452038618,1928
991.158847605503,1867
993.3580572249133,1820
995.5566742919558,1892
997.7546990365728,1835
999.952131688785,1802
1002.1489724786926,1748
1004.3452216364743,1747
1006.5408793923874,1830
1008.7359459767691,1757
1010.9304216200343,1750
1013.1243065526781,1691
1015.3176010052733,1719
1017.510305208472,1634
1019.7024193930064,1671
1021.8939437896848,1646
1024.0848786293977,1611
1026.2752241431122,1643
1028.4649805618747,1692
1030.6541481168115,1599
1032.842727039127,1653
1035.0307175601051,1600
1037.2181199111074,1611
1039.4049343235752,1590
1041.591161029029,1622
1043.7768002590683,1587
1045.9618522453698,1600
1048.1463172196918,1573
1050.3301954138697,1636
1052.513487059818,1595
1054.69619238953,1623
1056.8783116350783,1582
1059.0598450286152,1527
1061.2407928023704,1601
1063.4211551886528,1625
1065.6009324198508,1592
1067.780124728432,1498
1069.9587323469414,1537
1072.1367555080046,1573
1074.314194444325,1571
1076.4910493886855,1559
1078.667320573947,1544
1080.843008233051,1514
1083.0181125990161,1563
1085.1926339049414,1557
1087.3665723840027,1550
1089.5399282694575,1473
1091.7127017946405,1466
1093.8848931929647,1471
1096.0565026979243,1546
1098.2275305430899,1496
1100.3979769621128,1494
1102.567842188722,1479
1104.737126456726,1495
1106.9058300000124,1492
1109.0739530525475,1460
1111.2414958483764,1504
1113.4084586216231,1514
1115.5748416064907,1520
1117.7406450372605,1424
1119.9058691482942,1478
1122.0705141740304,1436
1124.2345803489884,1471
1126.3980679077658,1447
1128.5609770850388,1471
1130.7233081155623,1431
1132.8850612341707,1415
1135.0462366757774,1464
1137.2068346753745,1475
1139.3668554680326,1434
1141.526299288901,1431
1143.68516637321,1420
1145.8434569562655,1417
1148.001171273455,1400
1150.158309560244,1404
1152.3148720521767,1441
1154.470858984876,1429
1156.626270594044,1446
1158.7811071154629,1425
1160.9353687849912,1389
1163.089055838569,1434
1165.242168512213,1437
1167.3947070420209,1445
1169.5466716641677,1449
1171.6980626149075,1452
1173.8488801305748,1369
1175.9991244475814,1394
1178.1487958024186,1420
1180.2978944316555,1388
1182.4464205719428,1477
1184.5943744600072,1424
1186.7417563326567,1408
1188.8885664267755,1387
1191.0348049793297,1362
1193.1804722273619,1411
1195.325568407995,1432
1197.4700937584303,1442
1199.614048515948,1414
1201.7574329179074,1399
1203.900247201746,1462
1206.042491604982,1364
1208.1841663652099,1406
1210.3252717201053,1464
1212.465807907422,1406
1214.6057751649923,1451
1216.7451737307279,1424
1218.8840038426192,1396
1221.0222657387353,1412
1223.1599596572241,1419
1225.2970858363137,1432
1227.4336445143094,1426
1229.5696359295966,1453
1231.705060320639,1438
1233.8399179259786,1397
1235.9742089842384,1484
1238.107933734118,1417
1240.2410924143974,1444
1242.373685263935,1517
1244.5057125216676,1447
1246.6371744266116,1413
1248.7680712178621,1461
1250.898403134593,1456
1253.028170416058,1418
1255.1573733015875,1395
1257.2860120305932,1483
1259.4140868425648,1489
1261.54159797707,1395
1263.6685456737569,1462
1265.7949301723515,1464
1267.9207517126597,1523
1270.046010534565,1433
1272.1707068780306,1449
1274.2948409830983,1513
1276.4184130898889,1496
1278.541423438603,1509
1280.6638722695184,1561
1282.785759822993,1503
1284.9070863394636,1520
1287.0278520594447,1529
1289.1480572235314,1536
1291.2677020723963,1517
1293.3867868467923,1515
1295.5053117875495,1544
1297.623277135579,1485
1299.740683131868,1550
1301.8575300174857,1592
1303.973818033578,1582
1306.0895474213703,1538
1308.2047184221678,1545
1310.3193312773528,1560
1312.4333862283888,1533
1314.5468835168163,1527
1316.659823384255,1555
1318.7722060724045,1535
1320.8840318230418,1456
1322.9953008780249,1585
1325.1060134792888,1619
1327.2161698688478,1574
1329.3257702887959,1640
1331.4348149813054,1610
1333.5433041886276,1565
1335.6512381530933,1543
1337.7586171171101,1533
1339.8654413231675,1493
1341.9717110138317,1541
1344.0774264317488,1553
1346.1825878196432,1609
1348.2871954203192,1526
1350.3912494766587,1553
1352.4947502316231,1507
1354.5976979282532,1550
1356.7000928096686,1533
1358.8019351190665,1564
1360.9032250997243,1510
1363.0039629949988,1463
1365.1041490483235,1564
1367.2037835032133,1504
1369.3028666032606,1467
1371.401398592137,1544
1373.4993797135926,1510
1375.5968102114575,1496
1377.6936903296396,1544
1379.7900203121262,1563
1381.8858004029835,1500
1383.9810308463561,1543
1386.075711886469,1490
1388.1698437676241,1550
1390.2634267342032,1516
1392.356461030667,1541
1394.4489469015557,1538
1396.5408845914872,1552
1398.6322743451592,1537
1400.7231164073469,1549
1402.813411022907,1495
1404.903158436773,1555
1406.9923588939578,1572
1409.0810126395531,1528
1411.1691199187303,1522
1413.2566809767386,1538
1415.343696058907,1509
1417.4301654106425,1504
1419.5160892774315,1556
1421.6014679048399,1542
1423.6863015385125,1545
1425.7705904241707,1556
1427.8543348076178,1485
1429.9375349347342,1544
1432.0201910514802,1581
1434.102303403894,1586
1436.1838722380944,1558
1438.2648978002767,1541
1440.3453803367174,1566
1442.4253200937692,1575
1444.5047173178677,1627
1446.5835722555234,1590
1448.6618851533285,1586
1450.739656257952,1639
1452.8168858161434,1613
1454.8935740747306,1630
1456.96972128062,1631
1459.045327680797,1626
1461.120393522327,1666
1463.1949190523528,1645
1465.2689045180973,1679
1467.3423501668608,1655
1469.415256246024,1691
1471.4876230030463,1697
1473.559450685465,1698
1475.6307395408976,1752
1477.7014898170391,1749
1479.771701761665,1746
1481.8413756226287,1786
1483.9105116478618,1848
1485.9791100853772,1809
1488.0471711832643,1830
1490.1146951896926,1868
1492.1816823529098,1826
1494.2481329212433,1875
1496.3140471430984,1907
1498.3794252669609,1919
1500.4442675413939,1946
1502.5085742150404,1925
1504.572345536622,1978
1506.6355817549388,1996
1508.6982831188702,2028
1510.7604498773744,1985
1512.8220822794883,2024
1514.8831805743293,2042
1516.9437450110909,2185
1519.003775839048,2132
1521.0632733075522,2138
1523.1222376660367,2211
1525.1806691640113,2356
1527.2385680510652,2353
1529.2959345768668,2250
1531.3527689911643,2343
1533.4090715437833,2443
1535.4648424846291,2416
1537.5200820636855,2454
1539.5747905310159,2513
1541.6289681367616,2524
1543.6826151311434,2546
1545.7357317644614,2689
1547.7883182870937,2560
1549.8403749494987,2705
1551.8919020022113,2718
1553.9428996958477,2743
1555.9933682811015,2862
1558.0433080087469,2856
1560.0927191296346,3060
1562.1416018946961,2951
1564.1899565549415,3112
1566.2377833614592,3048
1568.2850825654164,3004
1570.3318544180606,3015
1572.3780991707158,2912
1574.423817074788,2785
1576.4690083817595,2853
1578.5136733431923,2604
1580.5578122107272,2515
1582.601425236085,2517
1584.6445126710646,2333
1586.6870747675434,2227
1588.7291117774776,2244
1590.7706239529034,2112
1592.8116115459347,1977
1594.8520748087658,1995
1596.8920139936686,1950
1598.9314293529933,1815
1600.9703211391711,1870
1603.008689604711,1811
1605.0465350022005,1762
1607.0838575843068,1776
1609.1206576037753,1660
1611.1569353134305,1694
1613.1926909661765,1741
1615.2279248149953,1698
1617.2626371129481,1681
1619.2968281131757,1614
1621.3304980688963,1664
1623.3636472334088,1649
1625.39627586009,1621
1627.428384202396,1603
1629.459972513861,1578
1631.4910410480993,1588
1633.5215900588028,1611
1635.551619799744,1567
1637.5811305247717,1507
1639.6101224878166,1472
1641.6385959428862,1528
1643.6665511440683,1567
1645.693988345528,1528
1647.7209078015112,1547
1649.7473097663405,1530
1651.7731944944203,1524
1653.7985622402307,1495
1655.823413258333,1506
1657.847747803366,1507
1659.8715661300494,1464
1661.8948684931793,1528
1663.9176551476316,1508
1665.9399263483624,1456
1667.9616823504057,1434
1669.982923408873,1478
1672.0036497789574,1503
1674.0238617159293,1484
1676.043559475138,1447
1678.0627433120121,1459
1680.081413482059,1471
1682.0995702408654,1445
1684.117213844096,1448
1686.134344547495,1416
1688.1509626068864,1456
1690.1670682781705,1466
1692.182661817329,1411
1694.1977434804217,1496
1696.2123135235875,1425
1698.226372203043,1408
1700.2399197750851,1449
1702.2529564960905,1450
1704.2654826225112,1542
1706.277498410882,1515
1708.2890041178139,1499
1710.2999999999988,1592
1712.3104863142066,1495
1714.3204633172854,1467
1716.329931266163,1491
1718.3388904178469,1471
1720.3473410294214,1524
1722.3552833580516,1422
1724.3627176609807,1445
1726.3696441955308,1442
1728.3760632191033,1418
1730.3819749891782,1410
1732.3873797633146,1432
1734.3922777991502,1502
1736.3966693544012,1459
1738.4005546868639,1428
1740.4039340544127,1456
1742.406807715001,1477
1744.4091759266616,1489
1746.4110389475054,1441
1748.4123970357223,1450
1750.413250449582,1484
1752.4135994474318,1407
1754.4134442876993,1422
1756.4127852288902,1415
1758.4116225295893,1430
1760.4099564484595,1449
1762.407787244244,1482
1764.405115175764,1408
1766.4019405019203,1377
1768.3982634816916,1417
1770.3940843741357,1451
1772.3894034383907,1410
1774.3842209336717,1356
1776.378537119274,1363
1778.372352254571,1384
1780.3656665990156,1437
1782.3584804121397,1371
1784.3507939535534,1376
1786.3426074829463,1376
1788.3339212600863,1424
1790.3247355448211,1396
1792.3150505970766,1383
1794.3048666768573,1381
1796.2941840442477,1364
1798.2830029594106,1417
1800.2713236825884,1391
1802.2591464741004,1382
1804.2464715943465,1366
1806.2332993038058,1376
1808.2196298630352,1415
1810.2054635326708,1440
1812.190800573428,1410
1814.175641246101,1434
1816.1599858115628,1356
1818.1438345307652,1487
1820.127187664738,1468
1822.1100454745924,1453
1824.092408221516,1398
1826.0742761667766,1360
1828.055649571721,1390
1830.0365286977735,1417
1832.0169138064398,1418
1833.9968051593014,1420
1835.9762030180214,1381
1837.9551076443408,1415
1839.9335193000788,1396
1841.9114382471344,1382
1843.888864747485,1393
1845.8657990631878,1434
1847.842241456378,1392
1849.8181921892697,1409
1851.7936515241558,1371
1853.7686197234098,1390
1855.7430970494815,1455
1857.7170837649014,1367
1859.6905801322787,1356
1861.6635864143004,1464
1863.6361028737338,1403
1865.608129773424,1401
1867.5796673762961,1373
1869.5507159453537,1399
1871.521275743678,1396
1873.4913470344313,1393
1875.4609300808534,1393
1877.4300251462632,1439
1879.3986324940588,1421
1881.366752387717,1432
1883.3343850907936,1408
1885.3015308669228,1413
1887.268189979819,1431
1889.2343626932739,1412
1891.2000492711595,1435
1893.1652499774254,1427
1895.1299650761011,1389
1897.0941948312952,1433
1899.0579395071945,1408
1901.0211993680641,1431
1902.98397467825,1398
1904.9462657021745,1422
1906.9080727043415,1401
1908.869395949332,1420
1910.8302357018065,1398
1912.790592226504,1418
1914.7504657882428,1370
1916.7098566519212,1444
1918.6687650825133,1383
1920.6271913450764,1398
1922.5851357047422,1421
1924.5425984267245,1393
1926.499579776314,1406
1928.4560800188833,1434
1930.4120994198802,1384
1932.367638244833,1349
1934.32269675935,1398
1936.2772752291175,1408
1938.231373919899,1414
1940.1849930975404,1398
1942.1381330279637,1430
1944.0907939771696,1407
1946.0429762112412,1407
1947.9946799963363,1469
1949.9459055986945,1449
1951.896653284633,1443
1953.8469233205478,1370
1955.7967159729142,1383
1957.7460315082863,1387
1959.6948701932974,1435
1961.6432322946594,1405
1963.5911180791632,1398
1965.5385278136787,1374
1967.4854617651545,1437
1969.4319202006182,1459
1971.377903387176,1449
1973.3234115920136,1426
1975.268445082395,1356
1977.2130041256642,1360
1979.1570889892423,1380
1981.1006999406304,1405
1983.04383724741,1409
1984.986501177238,1390
1986.928691997853,1471
1988.8704099770712,1392
1990.811655382789,1393
1992.7524284829801,1407
1994.692729545698,1384
1996.6325588390755,1432
1998.5719166313224,1375
2000.5108031907307,1381
2002.4492187856677,1416
2004.387163684583,1427
2006.3246381560011,1384
2008.2616424685298,1426
2010.1981768908527,1378
2012.1342416917332,1426
2014.069837140014,1353
2016.0049635046162,1376
2017.9396210545406,1418
2019.8738100588666,1367
2021.8075307867502,1373
2023.740783507431,1377
2025.6735684902228,1377
2027.6058860045214,1417
2029.5377363198004,1436
2031.4691197056118,1424
2033.4000364315875,1387
2035.3304867674374,1426
2037.260470982952,1407
2039.189989347998,1333
2041.1190421325232,1372
2043.047629606554,1380
2044.9757520401945,1381
2046.9034097036288,1401
2048.8306028671195,1329
2050.7573318010086,1407
2052.683596775716,1331
2054.609398061742,1400
2056.5347359296647,1434
2058.4596106501403,1338
2060.384022493906,1416
2062.3079717317764,1386
2064.231458634646,1430
2066.1544834734873,1397
2068.077046519352,1379
2069.99914804337,1381
2071.9207883167524,1395
2073.8419676107865,1338
2075.7626861968406,1421
2077.6829443463607,1375
2079.6027423308715,1343
2081.522080421977,1451
2083.440958891362,1488
2085.359378010786,1385
2087.2773380520907,1375
2089.194839287196,1386
2091.111881988101,1400
2093.0284664268825,1421
2094.9445928756973,1391
2096.86026160678,1463
2098.775472892446,1398
2100.690227005088,1419
2102.604524217178,1398
2104.5183648012676,1387
2106.431749029985,1399
2108.34467717604,1404
2110.2571495122206,1402
2112.169166311393,1350
2114.080727846503,1378
2115.9918343905747,1427
2117.902486216711,1465
2119.8126835980956,1382
2121.722426807987,1396
2123.6317161197285,1394
2125.5405518067364,1329
2127.448934142509,1431
2129.356863400624,1401
2131.264339854737,1426
2133.1713637785815,1345
2135.077935445972,1422
2136.9840551308002,1364
2138.889723107037,1383
2140.7949396487334,1386
2142.699705030018,1398
2144.6040195250994,1413
2146.507883408264,1323
2148.4112969538774,1397
2150.3142604363848,1393
2152.2167741303097,1347
2154.1188383102535,1397
2156.0204532508997,1390
2157.9216192270064,1365
2159.822336513414,1429
2161.7226053850413,1451
2163.622426116884,1377
2165.5217989840185,1382
2167.4207242616,1444
2169.319202224862,1352
2171.2172331491165,1452
2173.1148173097563,1433
2175.0119549822507,1401
2176.90864644215,1350
2178.8048919650823,1397
2180.7006918267534,1369
2182.596046302952,1374
2184.4909556695407,1423
2186.3854202024645,1446
2188.279440177746,1430
2190.173015871487,1381
2192.066147559868,1408
2193.958835519149,1392
2195.851080025667,1403
2197.7428813558417,1415
2199.6342397861667,1427
2201.5251555932186,1340
2203.415629053651,1353
2205.3056604441986,1427
2207.19525004167,1359
2209.084398122958,1528
2210.9731049650327,1364
2212.861370844941,1433
2214.749196039812,1411
2216.636580826851,1346
2218.523525483344,1409
2220.410030286655,1354
2222.296095514226,1394
2224.1817214435805,1413
2226.066908352319,1420
2227.951656518121,1422
2229.835966218746,1384
2231.71983773203,1436
2233.6032713358913,1414
2235.486267308324,1379
2237.3688259274036,1395
2239.2509474712824,1350
2241.132632218193,1400
2243.013880446447,1409
2244.8946924344323,1390
2246.7750684606203,1381
2248.6550088035574,1415
2250.534513741871,1468
2252.413583554265,1382
2254.292218519526,1380
2256.170418916517,1362
2258.0481850241786,1353
2259.925517121534,1386
2261.8024154876825,1324
2263.678880401803,1370
2265.5549121431536,1328
2267.430510991071,1429
2269.305677224971,1371
2271.180411124348,1332
2273.0547129687766,1434
2274.9285830379076,1356
2276.8020216114737,1366
2278.6750289692845,1383
2280.5476053912294,1399
2282.4197511572766,1414
2284.2914665474727,1398
2286.162751841943,1416
2288.0336073208937,1362
2289.904033264608,1376
2291.774029953448,1426
2293.6435976678554,1402
2295.5127366883517,1407
2297.381447295534,1446
2299.2497297700825,1404
2301.1175843927526,1479
2302.9850114443825,1409
2304.852011205885,1433
2306.7185839582553,1408
2308.5847299825664,1402
2310.4504495599676,1448
2312.3157429716925,1394
2314.1806104990483,1380
2316.0450524234247,1431
2317.9090690262888,1473
2319.772660589186,1448
2321.635827393742,1424
2323.498569721661,1421
2325.3608878547248,1404
2327.2227820747967,1411
2329.0842526638157,1501
2330.945299903803,1478
2332.805924076857,1425
2334.6661254651535,1435
2336.525904350951,1418
2338.3852610165827,1447
2340.244195744464,1390
2342.102708817088,1443
2343.9608005170253,1446
2345.8184711269287,1394
2347.675720929526,1447
2349.532550207628,1442
2351.38895924412,1422
2353.24494832197,1429
2355.100517724223,1410
2356.955667734004,1436
2358.810398634514,1370
2360.664710709037,1416
2362.5186042409337,1381
2364.3720795136437,1416
2366.225136810686,1460
2368.0777764156583,1425
2369.929998612237,1406
2371.7818036841777,1472
2373.633191915315,1458
2375.484163589562,1406
2377.3347189909114,1428
2379.184858403434,1465
2381.03458211128,1437
2382.8838903986775,1436
2384.732783549936,1443
2386.5812618494406,1455
2388.4293255816588,1442
2390.2769750311327,1447
2392.1242104824883,1392
2393.971032220427,1462
2395.8174405297295,1428
2397.6634356952563,1474
2399.509018001947,1484
2401.3541877348193,1427
2403.1989451789705,1431
2405.043290619576,1495
2406.8872243418905,1464
2408.730746631247,1430
2410.5738577730594,1455
2412.4165580528183,1448
2414.258847756095,1432
2416.100727168537,1494
2417.9421965758734,1469
2419.783256263912,1449
2421.623906518538,1461
2423.4641476257157,1472
2425.303979871491,1438
2427.143403541984,1455
2428.9824189233977,1473
2430.821026302012,1468
2432.6592259641866,1452
2434.497018196361,1441
2436.33440328505,1450
2438.171381516851,1432
2440.00795317844,1433
2441.844118556569,1523
2443.6798779380724,1480
2445.5152316098606,1509
2447.3501798589255,1456
2449.1847229723357,1465
2451.0188612372403,1512
2452.8525949408663,1454
2454.6859243705203,1461
2456.518849813587,1487
2458.3513715575314,1451
2460.183489889895,1491
2462.015205098301,1514
2463.8465174704493,1476
2465.67742729412,1448
2467.5079348571717,1462
2469.338040447542,1470
2471.1677443532476,1436
2472.9970468623833,1451
2474.825948263123,1482
2476.6544488437207,1415
2478.482548892508,1379
2480.310248697896,1464
2482.137548548374,1452
2483.9644487325118,1492
2485.790949538956,1481
2487.617051256433,1513
2489.44275417375,1431
2491.26805857979,1469
2493.0929647635157,1465
2494.917473013971,1494
2496.741583620276,1454
2498.5652968716304,1444
2500.3886130573137,1438
2502.2115324666834,1447
2504.0340553891765,1479
2505.856182114308,1390
2507.6779129316733,1480
2509.499248130945,1499
2511.3201880018764,1528
2513.140732834298,1523
2514.9608829181198,1491
2516.780638543331,1517
2518.6,1551
2520.418967578273,1476
2522.237541568376,1462
2524.0557222606144,1466
2525.8735099453706,1553
2527.6909049131086,1554
2529.507907454368,1488
2531.32451785977,1484
2533.140736420014,1459
2534.9565634258774,1493
2536.771999168218,1444
2538.5870439379714,1492
2540.4016980261526,1459
2542.2159617238544,1505
2544.02983532225,1486
2545.8433191125914,1514
2547.656413386209,1453
2549.4691184345115,1478
2551.2814345489874,1515
2553.093362021204,1561
2554.904901142808,1538
2556.716052205523,1580
2558.526815501153,1553
2560.3371913215824,1542
2562.147179958771,1558
2563.956781704761,1549
2565.7659968516705,1593
2567.5748256916986,1588
2569.3832685171224,1568
2571.1913256202984,1524
2572.9989972936614,1574
2574.806283829725,1558
2576.613185521084,1640
2578.4197026604074,1560
2580.2258355404483,1585
2582.031584454035,1648
2583.836949694077,1607
2585.6419315535613,1575
2587.4465303255533,1522
2589.2507463032002,1645
2591.0545797797245,1627
2592.8580310484303,1603
2594.6611004026995,1632
2596.463788135992,1641
2598.266094541849,1639
2600.0680199138874,1674
2601.869564545807,1595
2603.670728731383,1579
2605.4715127644704,1660
2607.2719169390048,1691
2609.071941548998,1645
2610.8715868885433,1657
2612.670853251811,1695
2614.469740933052,1599
2616.268250226594,1625
2618.0663814268455,1670
2619.864134828292,1667
2621.6615107255006,1577
2623.458509413115,1590
2625.2551311858597,1684
2627.0513763385347,1611
2628.8472451660223,1672
2630.6427379632833,1652
2632.4378550253564,1683
2634.232596647359,1552
2636.026963124488,1641
2637.8209547520187,1616
2639.6145718253065,1597
2641.407814639785,1605
2643.200683490966,1608
2644.9931786744414,1578
2646.7853004858807,1571
2648.577049221034,1608
2650.3684251757277,1616
2652.1594286458712,1515
2653.9500599274484,1574
2655.740319316525,1535
2657.5302071092437,1556
2659.3197236018286,1522
2661.10886909058,1564
2662.8976438718782,1566
2664.686048242183,1525
2666.4740824980327,1510
2668.2617469360443,1518
2670.0490418529134,1553
2671.8359675454153,1510
2673.622524310403,1509
2675.408712444811,1510
2677.1945322456495,1501
2678.979984010009,1536
2680.76506803506,1501
2682.5497846180497,1452
2684.334134056306,1504
2686.1181166472343,1494
2687.9017326883213,1448
2689.6849824771293,1441
2691.4678663113013,1470
2693.2503844885596,1462
2695.032537306705,1486
2696.8143250636167,1483
2698.5957480572542,1512
2700.3768065856534,1491
2702.1575009469316,1482
2703.937831439283,1384
2705.717798360982,1424
2707.4974020103837,1461
2709.276642685917,1439
2711.055520686095,1415
2712.834036309506,1426
2714.612189854819,1432
2716.389981620782,1427
2718.1674119062204,1442
2719.944481010041,1376
2721.721189231226,1368
2723.4975368688415,1384
2725.273524222027,1403
2727.0491515900053,1447
2728.824419272075,1404
2730.5993275676146,1439
2732.3738767760838,1365
2734.148067197016,1440
2735.921899130031,1438
2737.6953728748194,1460
2739.468488731156,1450
2741.2412469988926,1429
2743.0136479779617,1374
2744.785691968372,1443
2746.5573792702116,1455
2748.3287101836504,1463
2750.099685008934,1442
2751.870304046388,1410
2753.640567596418,1337
2755.4104759595057,1405
2757.1800294362156,1416
2758.949228327187,1465
2760.7180729331412,1382
2762.486563554877,1418
2764.254700493272,1434
2766.022484049284,1381
2767.789914523947,1431
2769.5569922183786,1425
2771.3237174337705,1389
2773.090090471394,1426
2774.8561116326036,1350
2776.6217812188274,1408
2778.3870995315756,1434
2780.1520668724356,1411
2781.9166835430747,1352
2783.6809498452394,1378
2785.444866080754,1425
2787.2084325515225,1456
2788.971649559527,1406
2790.73451740683,1417
2792.4970363955713,1403
2794.2592068279705,1408
2796.0210290063264,1450
2797.7825032330147,1464
2799.543629810493,1405
2801.304409041296,1420
2803.0648412280366,1373
2804.8249266734088,1358
2806.5846656801846,1427
2808.344058551212,1447
2810.1031055894246,1395
2811.8618070978273,1443
2813.6201633795085,1442
2815.378174737636,1423
2817.1358414754536,1440
2818.893163896285,1410
2820.6501423035334,1383
2822.4067770006814,1410
2824.1630682912883,1403
2825.9190164789957,1336
2827.6746218675207,1422
2829.429884760661,1376
2831.184805462294,1449
2832.9393842763743,1427
2834.693621506936,1396
2836.4475174580916,1394
2838.201072434034,1390
2839.954286739034,1404
2841.707160677441,1371
2843.459694553685,1400
2845.2118886722724,1405
2846.96374333779,1430
2848.7152588549034,1432
2850.4664355283567,1325
2852.217273662973,1396
2853.9677735636546,1422
2855.7179355353833,1424
2857.4677598832186,1465
2859.217246912299,1401
2860.9663969278427,1407
2862.715210235146,1384
2864.4636871395846,1373
2866.211827946614,1385
2867.9596329617652,1412
2869.7071024906536,1435
2871.4542368389684,1382
2873.20103631248,1433
2874.947501217038,1416
2876.6936318585695,1402
2878.4394285430812,1440
2880.1848915766604,1427
2881.9300212654707,1463
2883.6748179157553,1457
2885.4192818338374,1460
2887.1634133261173,1433
2888.907212699077,1411
2890.6506802592744,1371
2892.393816313348,1398
2894.1366211680142,1438
2895.8790951300693,1406
2897.621238506388,1422
2899.363051603925,1478
2901.1045347297118,1426
2902.8456881908596,1444
2904.58651229456,1465
2906.327007348081,1436
2908.067173658772,1423
2909.8070115340597,1397
2911.5465212814497,1391
2913.285703208527,1375
2915.0245576229563,1415
2916.7630848324807,1435
2918.5012851449196,1404
2920.2391588681758,1449
2921.976706310227,1434
2923.7139277791334,1381
2925.4508235830313,1334
2927.187394030137,1406
2928.923639428745,1403
2930.6595600872306,1409
2932.395156314046,1445
2934.1304284177218,1422
2935.8653767068713,1394
2937.6000014901815,1434
2939.3343030764227,1420
2941.068281774442,1450
2942.8019378931644,1382
2944.5352717415976,1397
2946.2682836288236,1479
2948.0009738640065,1427
2949.7333427563885,1431
2951.465390615289,1398
2953.1971177501086,1408
2954.9285244703265,1401
2956.6596110855,1457
2958.3903779052657,1374
2960.1208252393385,1458
2961.8509533975125,1402
2963.5807626896617,1405
2965.3102534257378,1336
2967.0394259157715,1429
2968.768280469873,1336
2970.496817398232,1420
2972.2250370111146,1407
2973.952939618869,1370
2975.6805255319196,1393
2977.4077950607707,1396
2979.134748516006,1368
2980.861386208289,1393
2982.587708448359,1416
2984.313715547037,1424
2986.039407815222,1382
2987.764785563891,1419
2989.489849104102,1440
2991.2145987469908,1461
2992.9390348037705,1438
2994.6631575857346,1374
2996.3869674042576,1331
2998.1104645707887,1381
2999.83364939686,1443
3001.5565221940783,1416
3003.2790832741334,1391
3005.0013329487924,1373
3006.7232715298996,1419
3008.4448993293804,1396
3010.166216659239,1407
3011.887223831558,1379
3013.607921158498,1404
3015.3283089522993,1411
3017.0483875252826,1396
3018.7681571898443,1391
3020.4876182584626,1418
3022.2067710436927,1417
3023.9256158581707,1326
3025.644153014609,1445
3027.362382825801,1429
3029.0803056046193,1396
3030.797921664012,1367
3032.5152313170106,1394
3034.2322348767225,1425
3035.9489326563353,1287
3037.665324969115,1418
3039.3814121284063,1435
3041.097194447633,1403
3042.812672240299,1394
3044.5278458199855,1397
3046.2427155003525,1413
3047.9572815951406,1450
3049.671544418167,1420
3051.38550428333,1360
3053.0991615046073,1423
3054.812516396051,1395
3056.5255692717974,1426
3058.2383204460575,1386
3059.9507702331257,1397
3061.662918947372,1420
3063.3747669032446,1413
3065.0863144152736,1422
3066.7975617980674,1451
3068.508509366309,1462
3070.219157434767,1434
3071.9295063182844,1386
3073.639556331785,1387
3075.3493077902704,1403
3077.058761008821,1435
3078.7679163025964,1433
3080.476773986837,1422
3082.1853343768594,1407
3083.89359778806,1384
3085.6015645359153,1456
3087.3092349359786,1361
3089.016609303884,1393
3090.7236879553434,1411
3092.4304712061476,1375
3094.136959372166,1416
3095.843152769349,1386
3097.5490517137237,1404
3099.2546565213966,1409
3100.959967508554,1416
3102.66498499146,1400
3104.3697092864577,1396
3106.0741407099695,1433
3107.778279578498,1412
3109.482126208622,1406
3111.1856809170004,1395
3112.8889440203716,1419
3114.5919158355528,1408
3116.294596679439,1381
3117.996986869006,1389
3119.6990867213062,1368
3121.4008965534726,1397
3123.102416682717,1407
3124.803647426329,1427
3126.5045891016784,1424
3128.205242026213,1443
3129.90560651746,1456
3131.605682893025,1419
3133.3054714705922,1458
3135.0049725679282,1461
3136.7041865028714,1410
3138.4031135933465,1415
3140.101754157353,1345
3141.800108512971,1394
3143.498176978357,1397
3145.1959598717494,1413
3146.8934575114636,1385
3148.5906702158954,1410
3150.2875983035183,1406
3151.9842420928853,1354
3153.680601902627,1411
3155.376678051456,1417
3157.07247085816,1402
3158.767980641609,1403
3160.463207720748,1372
3162.158152414606,1405
3163.8528150422862,1430
3165.5471959229726,1367
3167.2412953759303,1395
3168.9351137204976,1422
3170.628651276098,1394
3172.3219083622307,1416
3174.014885298474,1410
3175.707582404485,1448
3177.4000000000005,1412
3179.092138404835,1425
3180.7839979388846,1407
3182.47557892212,1381
3184.166881674594,1403
3185.8579065164386,1419
3187.5486537678626,1386
3189.2391237491547,1418
3190.9293167806827,1376
3192.6192331828934,1446
3194.3088732763117,1377
3195.998237381542,1461
3197.687325819268,1374
3199.376138910251,1458
3201.064676975334,1400
3202.7529403354347,1415
3204.4409293115523,1391
3206.1286442247647,1349
3207.816085396229,1409
3209.5032531471825,1426
3211.190147798936,1348
3212.8767696728846,1401
3214.5631190905015,1380
3216.2491963733373,1388
3217.9350018430214,1333
3219.6205358212637,1387
3221.305798629851,1297
3222.990790590651,1359
3224.6755120256103,1320
3226.359963256751,1384
3228.0441446061795,1384
3229.7280563960758,1414
3231.411698948703,1387
3233.0950725863995,1414
3234.778177631587,1389
3236.461014406761,1425
3238.1435832345005,1427
3239.8258844374595,1424
3241.507918338374,1396
3243.1896852600576,1357
3244.8711855254023,1375
3246.552419457381,1426
3248.233387379042,1411
3249.914089613516,1383
3251.59452648401,1373
3253.274698313813,1388
3254.95460542629,1348
3256.6342481448855,1361
3258.313626793125,1395
3259.9927416946084,1360
3261.6715931730196,1341
3263.3501815521176,1388
3265.0285071557437,1401
3266.706570307815,1357
3268.3843713323286,1359
3270.0619105533615,1365
3271.739188295068,1407
3273.4162048816834,1401
3275.0929606375184,1319
3276.769455886966,1358
3278.445690954498,1390
3280.1216661646613,1380
3281.797381842087,1365
3283.4728383114807,1358
3285.1480358976296,1356
3286.8229749253996,1392
3288.4976557197333,1374
3290.172078605655,1374
3291.846243908266,1418
3293.5201519527463,1329
3295.193803064357,1394
3296.8671975684374,1341
3298.5403357904024,1413
3300.21321805575,1378
3301.8858446900567,1375
3303.558216018975,1388
3305.23033236824,1381
3306.9021940636603,1366
3308.57380143113,1378
3310.2451547966184,1393
3311.916254486174,1387
3313.5871008259246,1400
3315.2576941420766,1392
3316.9280347609147,1423
3318.5981230088046,1387
3320.2679592121895,1359
3321.9375436975924,1347
3323.606876791612,1372
3325.27595882093,1430
3326.944790112305,1369
3328.6133709925753,1380
3330.2817017886573,1393
3331.949782827547,1360
3333.617614436319,1358
3335.2851969421245,1436
3336.952530672199,1339
3338.619615953853,1331
3340.286453114475,1447
3341.9530424815357,1394
3343.619384382583,1406
3345.2854791452437,1383
3346.951327097224,1367
3348.6169285663073,1389
3350.2822838803577,1307
3351.947393367319,1414
3353.61225735521,1365
3355.2768761721345,1415
3356.9412501462693,1339
3358.605379605873,1363
3360.2692648792827,1421
3361.9329062949146,1393
3363.596304181263,1370
