CollectionTime,6/26/2024 2:34:40 PM
ExposureUsed,3
CalibratedSpectrum
-962.7078968117929,616
-959.9714848408522,647
-957.2358232597828,613
-954.5009119013725,623
-951.7667505983302,611
-949.0333391832855,631
-946.3006774887896,652
-943.5687653473143,683
-940.837602591253,672
-938.1071890529199,645
-935.3775245645503,648
-932.6486089583007,646
-929.9204420662485,647
-927.1930237203925,690
-924.4663537526524,675
-921.7404319948689,707
-919.0152582788041,672
-916.2908324361409,699
-913.5671542984834,724
-910.8442236973568,737
-908.1220404642074,694
-905.4006044304027,715
-902.679915427231,730
-899.959973285902,688
-897.2407778375464,703
-894.5223289132158,704
-891.8046263438832,679
-889.0876699604426,637
-886.3714595937089,664
-883.6559950744183,701
-880.9412762332282,665
-878.2273029007168,659
-875.5140749073835,695
-872.8015920836489,670
-870.0898542598545,630
-867.3788612662631,662
-864.6686129330585,632
-861.9591090903457,609
-859.2503495681506,619
-856.5423341964203,636
-853.8350628050229,666
-851.1285352237478,660
-848.4227512823054,629
-845.7177108103272,620
-843.0134136373656,601
-840.3098595928943,655
-837.6070485063082,677
-834.9049802069229,658
-832.2036545239757,645
-829.5030712866244,659
-826.8032303239481,647
-824.1041314649472,648
-821.4057745385428,609
-818.7081593735775,654
-816.0112857988148,630
-813.3151536429393,617
-810.6197627345566,588
-807.9251129021936,645
-805.2312039742981,638
-802.5380357792392,631
-799.8456081453069,611
-797.1539209007124,634
-794.462973873588,671
-791.772766891987,641
-789.083299783884,654
-786.3945723771743,630
-783.7065844996748,600
-781.0193359791231,662
-778.3328266431781,684
-775.6470563194197,678
-772.9620248353489,650
-770.2777320183878,640
-767.5941776958798,669
-764.9113616950891,682
-762.2292838432011,645
-759.5479439673222,647
-756.8673418944801,667
-754.1874774516235,660
-751.5083504656222,654
-748.8299607632671,660
-746.15230817127,652
-743.475392516264,673
-740.7992136248035,677
-738.1237713233636,670
-735.4490654383407,682
-732.7750957960521,627
-730.1018622227365,669
-727.4293645445534,655
-724.7576025875837,695
-722.0865761778291,674
-719.4162851412126,702
-716.7467293035781,693
-714.0779084906909,712
-711.409822528237,744
-708.7424712418238,722
-706.0758544569796,669
-703.4099719991541,705
-700.7448236937178,695
-698.0804093659622,714
-695.4167288411002,687
-692.7537819442656,678
-690.0915685005134,686
-687.4300883348199,690
-684.7693412720819,710
-682.1093271371178,698
-679.4500457546669,683
-676.7914969493897,708
-674.1336805458676,679
-671.4765963686034,720
-668.8202442420206,715
-666.1646239904642,739
-663.5097354382001,756
-660.8555784094151,757
-658.2021527282176,711
-655.5494582186366,789
-652.8974947046223,754
-650.2462620100463,735
-647.5957599587009,764
-644.9459883742998,766
-642.2969470804776,766
-639.6486359007902,796
-637.0010546587141,783
-634.3542031776476,796
-631.7080812809096,802
-629.0626887917401,770
-626.4180255333008,753
-623.7740913286734,762
-621.1308860008619,755
-618.4884093727904,711
-615.8466612673046,767
-613.2056415071715,776
-610.5653499150785,780
-607.9257863136347,736
-605.28695052537,763
-602.6488423727357,714
-600.0114616781036,744
-597.3748082637674,769
-594.7388819519412,835
-592.1036825647604,776
-589.4692099242818,811
-586.8354638524829,800
-584.2024441712624,757
-581.5701507024403,766
-578.9385832677575,776
-576.3077416888759,776
-573.6776257873787,818
-571.0482353847704,790
-568.4195703024757,789
-565.7916303618415,837
-563.164415384135,853
-560.5379251905453,842
-557.9121596021815,803
-555.2871184400748,784
-552.6628015251767,844
-550.0392086783606,826
-547.4163397204204,783
-544.794194472071,815
-542.1727727539491,822
-539.5520743866118,840
-536.9320991905377,967
-534.3128469861261,964
-531.6943175936979,910
-529.0765108334947,935
-526.4594265256793,1027
-523.8430644903358,1210
-521.2274245474689,1360
-518.612506517005,1428
-515.9983102187913,1529
-513.3848354725959,1644
-510.77208209810846,1697
-508.16004991493924,1721
-505.5487387426199,1823
-502.9381484006032,1988
-500.3282787082628,2157
-497.71912948489364,2238
-495.1107005497117,2357
-492.5029917218539,2338
-489.8960028203786,2173
-487.28973366426493,2047
-484.68418407241325,1769
-482.07935386364494,1539
-479.47524285670266,1378
-476.87185087025,1362
-474.2691777228715,1340
-471.66722323307334,1184
-469.0659872192821,1146
-466.4654694998459,1087
-463.86566989303384,1149
-461.26658821703614,1092
-458.66822428996414,1078
-456.07057792985,1080
-453.4736489546475,1050
-450.877437182231,1045
-448.28194243039627,1088
-445.68716451686,1048
-443.09310325926003,1065
-440.49975847515555,1053
-437.9071299820263,999
-435.31521759727354,1014
-432.72402113821954,1059
-430.13354042210767,1054
-427.5437752661022,1059
-424.95472548728867,1074
-422.36639090267386,1128
-419.7787713291855,1147
-417.1918665836721,1064
-414.60567648290385,1092
-412.0202008435715,1115
-409.4354394822874,1119
-406.8513922155845,1058
-404.26805885991723,1112
-401.685439231661,1125
-399.103533147112,1105
-396.522340422488,1119
-393.9418608739278,1156
-391.3620943174908,1139
-388.7830405691583,1139
-386.2046994448317,1118
-383.6270707603344,1034
-381.05015433141045,958
-378.473949973725,894
-375.8984575028645,862
-373.32367673433623,781
-370.74960748356875,795
-368.1762495659117,746
-365.60360279663576,702
-363.03166699093265,680
-360.4604419639154,649
-357.8899275306178,614
-355.32012350599507,603
-352.7510297049233,577
-350.1826459421999,576
-347.61497203254316,580
-345.04800779059235,566
-342.4817530309082,546
-339.91620756797226,545
-337.35137121618743,576
-334.7872437898774,592
-332.22382510328725,575
-329.66111497058273,583
-327.09911320585127,568
-324.53781962310075,557
-321.9772340362607,592
-319.4173562591816,625
-316.8581861056348,640
-314.2997233893127,671
-311.7419679238294,722
-309.1849195227194,668
-306.62857799943856,563
-304.0729431673641,566
-301.51801483979375,569
-298.963792829947,582
-296.41027695096386,578
-293.85746701590574,637
-291.3053628377552,639
-288.7539642294155,628
-286.2032710037115,656
-283.65328297338897,620
-281.1039999511146,693
-278.5554217494762,802
-276.007548180983,838
-273.4603790580651,760
-270.9139141930734,668
-268.3681533982807,727
-265.8230964858798,734
-263.27874326798565,671
-260.7350935566336,769
-258.1921471637804,890
-255.6499039013039,927
-253.10836358100266,864
-250.56752601459698,825
-248.02739101372765,871
-245.48795838995704,910
-242.94922795476816,953
-240.41119951956557,788
-237.8738728956746,860
-235.33724789434166,1020
-232.80132432673452,1194
-230.2661020039418,1146
-227.73158073697357,998
-225.19776033676033,799
-222.66464061415422,840
-220.1322213799284,818
-217.60050244477725,839
-215.06948361931552,847
-212.53916471408013,909
-210.00954553952818,901
-207.48062590603843,883
-204.9524056239104,927
-202.4248845033651,883
-199.8980623545441,836
-197.37193898751036,893
-194.84651421224817,881
-192.32178783866232,903
-189.79775967657952,903
-187.27442953574644,961
-184.7517972258321,1056
-182.2298625564256,1088
-179.7086253370378,1091
-177.18808537710026,1157
-174.66824248596583,1201
-172.14909647290835,1286
-169.6306471471229,1263
-167.11289431772548,1177
-164.59583779375328,1138
-162.07947738416453,1135
-159.5638128978386,1193
-157.04884414357605,1256
-154.53457093009854,1395
-152.02099306604828,1299
-149.50811035998936,1283
-146.99592262040665,1316
-144.48442965570587,1438
-141.97363127421409,1319
-139.46352728417958,1220
-136.95411749377126,1313
-134.44540171107985,1607
-131.93737974411636,1676
-129.43005140081357,1556
-126.92341648902493,1527
-124.41747481652521,1654
-121.91222619101006,1489
-119.40767042009657,1360
-116.90380731132257,1470
-114.40063667214702,1618
-111.8981583099503,1723
-109.3963720320337,1930
-106.89527764561933,1805
-104.39487495785067,1788
-101.89516377579241,1943
-99.39614390642998,1921
-96.89781515667039,1974
-94.40017733334128,2389
-91.90323024319173,2218
-89.40697369289148,2189
-86.91140748903172,2089
-84.41653143812482,1957
-81.92234534660395,2262
-79.42884902082358,2360
-76.93604226705907,2445
-74.4439248915071,2312
-71.95249670028534,2306
-69.46175749943245,2628
-66.97170709490854,2953
-64.48234529259423,3239
-61.99367189829195,2932
-59.50568671772464,3047
-57.01838955653636,3619
-54.53178022029283,3452
-52.045858514480074,3345
-49.560624244506016,3957
-47.07607721569923,4197
-44.59221723330904,3821
-42.10904410250669,3745
-39.62655762838392,4490
-37.14475761595372,5683
-34.66364387015028,5777
-32.18321619582866,6378
-29.70347439776515,7116
-27.224418280657005,8061
-24.74604764912317,12162
-22.26836230770266,18122
-19.7913620608565,31206
-17.315046712966478,49220
-14.83941606833514,58345
-12.36446993118659,65039
-9.89020810566592,65039
-7.416630395839093,65039
-4.94373660569363,65039
-2.471526539137585,65039
-6.821210263296962E-13,65039
2.47084320796705,65039
4.941003281093458,65039
7.410480415786196,65039
9.879274808531363,65039
12.347386655893956,65039
14.814816154518212,65039
17.28156350112681,65039
19.74762889252179,65039
22.21301252558385,65039
24.67771459727237,65039
27.141735304626195,50646
29.605074844762612,25054
32.06773341487792,16858
34.52971121224755,11332
36.99100843422559,8164
39.45162527824516,8371
41.91156194181792,8604
44.370818622535126,13706
46.82939551806646,20740
49.287292826160524,20326
51.74451074464503,16305
54.201049471426245,12290
56.65690920448981,7811
59.112090141899785,4482
61.56659248179983,3643
64.02041642241159,3561
66.4735621620365,3327
68.92602989905402,3488
71.37781983192338,3009
73.82893215918205,2755
76.27936707944684,2935
78.72912479141326,3417
81.17820549385567,3113
83.62660938562783,3001
86.07433666566146,2401
88.5213875329681,2919
90.96776218663751,3177
93.41346082583925,3082
95.85848364982041,3335
98.30283085790859,2579
100.7465026495089,2252
103.18949922410604,2326
105.63182078126385,2361
108.07346752062438,2430
110.51443964190923,2449
112.95473734491827,1994
115.39436082953114,2060
117.83331029570547,2113
120.27158594347827,2221
122.7091879729652,2237
125.1461165843615,1744
127.58237197794062,1578
130.01795435405518,1608
132.4528639131364,1670
134.88710085569494,1653
137.32066538231982,1784
139.75355769367923,1687
142.1857779905207,1716
144.61732647366978,1573
147.04820334403132,1550
149.47840880258934,1556
151.90794305040674,1861
154.33680628862487,1800
156.76499871846443,1731
159.19252054122433,1905
161.61937195828352,1974
164.04555317109896,1970
166.47106438120693,2356
168.89590579022217,2584
171.320077599839,2657
173.7435800118302,2663
176.16641322804742,2637
178.58857745042144,2705
181.01007288096173,2901
183.43089972175687,2802
185.85105817497413,2808
188.27054844285988,2815
190.6893707277394,2735
193.10752523201643,2880
195.5250121581745,3098
197.9418317087751,3170
200.3579840864594,2898
202.7734694939469,3063
205.18828813403627,2936
207.6024402096051,2927
210.01592592360964,2894
212.42874547908548,2902
214.84089907914665,2806
217.2523869269868,2908
219.66320922587727,3016
222.0733661791695,2944
224.48285799029293,2822
226.8916848627572,2986
229.29984700014882,3110
231.7073446061355,3165
234.11417788446204,3035
236.520347038953,3068
238.92585227351185,3189
241.33069379212054,3244
243.73487179884035,3264
246.1383864978112,3077
248.541238093252,3040
250.9434267894609,3105
253.34495279081432,3236
255.74581630176783,3117
258.1460175268563,3078
260.54555667069314,3193
262.9444339379703,3180
265.3426495334594,3110
267.7402036620107,3171
270.1370965285529,3003
272.53332833809407,3010
274.9288992957214,3016
277.32380960660055,2997
279.718059475976,2989
282.1116491091717,3099
284.5045787115897,3163
286.89684848871195,3082
289.2884586460981,3051
291.67940938938807,3070
294.0697009242996,3003
296.4593334566299,2893
298.84830719225477,2903
301.23662233712923,2941
303.6242790972866,2904
306.01127767884,2963
308.39761828798066,3034
310.78330113097934,2844
313.16832641418534,2786
315.5526943440269,2759
317.9364051270112,2721
320.3194589697242,2657
322.70185607883093,2667
325.0835966610754,2600
327.4646809232805,2718
329.8451090723478,2739
332.2248813152577,2727
334.6039978590701,2653
336.9824589109231,2565
339.36026467803447,2536
341.7374153677,2582
344.113911187295,2453
346.48975234427337,2554
348.8649390461686,2415
351.2394715005918,2440
353.61334991523415,2471
355.9865744978655,2444
358.35914545633375,2477
360.73106299856715,2427
363.10232733257146,2507
365.47293866643247,2426
367.84289720831396,2364
370.2122031664593,2395
372.5808567491905,2368
374.9488581649083,2369
377.31620762209275,2397
379.6829053293021,2362
382.0489514951745,2402
384.4143463284262,2404
386.7790900378528,2257
389.14318283232853,2326
391.50662492080653,2297
393.86941651231916,2274
396.23155781597745,2311
398.5930490409713,2299
400.9538903965696,2268
403.3140820921202,2249
405.6736243370498,2275
408.03251734086336,2244
410.3907613131465,2174
412.74835646356166,2238
415.10530300185144,2194
417.4616011378372,2277
419.81725108141893,2243
422.1722530425758,2334
424.5266072313656,2250
426.880313857925,2239
429.2333731324701,2139
431.58578526529516,2187
433.9375504667738,2163
436.2886689473588,2226
438.63914091758113,2245
440.9889665880513,2203
443.33814616945835,2138
445.68667987257015,2163
448.03456790823395,2124
450.3818104873759,2095
452.72840782100013,2165
455.07436012019105,2164
457.41966759611057,2157
459.7643304600007,2218
462.10834892318155,2180
464.4517231970525,2229
466.79445349309174,2184
469.1365400228566,2267
471.4779829979826,2180
473.81878263018564,2233
476.15893913125876,2346
478.4984527130747,2292
480.8373235875855,2407
483.17555196682144,2443
485.5131380628919,2581
487.8500820879857,2787
490.1863842543697,2970
492.52204477439034,3172
494.8570638604725,3629
497.1914417251204,3747
499.52517858091653,4148
501.85827464052306,4188
504.19073011668036,4093
506.5225452222086,4106
508.85372017000566,3773
511.18425517304956,3682
513.514150444396,3642
515.8434061971808,4354
518.1720226446176,5012
520.4999999999999,5539
522.8273384766991,5788
525.1540382881666,6052
527.480099647932,5949
529.8055227696037,5073
532.1303078668694,3481
534.454455153496,2612
536.777964843328,2291
539.1008371502907,2168
541.4230722883866,2171
543.744670471698,2145
546.0656319143858,2089
548.3859568306899,1976
550.7056454349294,2027
553.0246979415016,2059
555.3431145648834,2011
557.6608955196306,1955
559.978041020377,1925
562.2945512818363,1849
564.6104265188006,1898
566.9256669461412,1923
569.2402727788082,1954
571.5542442318302,1938
573.8675815203156,1926
576.1802848594508,1838
578.4923544645015,1807
580.8037905508126,1887
583.114593333807,1877
585.4247630289875,1899
587.7342998519354,1924
590.0432040183106,1952
592.3514757438526,1919
594.6591152443794,1936
596.9661227357875,1927
599.2724984340531,1956
601.578242555231,1958
603.8833553154542,2041
606.1878369309362,1966
608.4916876179676,2073
610.7949075929192,2117
613.0974970722403,1947
615.3994562724587,1979
617.7007854101818,2033
620.0014847020951,1946
622.3015543649641,1924
624.6009946156324,1920
626.8998056710224,1991
629.1979877481361,1997
631.4955410640538,1933
633.7924658359349,1952
636.0887622810175,1921
638.3844306166192,2000
640.6794710601358,1925
642.9738838290426,1916
645.2676691408932,1996
647.5608272133207,1932
649.853358264037,1938
652.1452625108324,1950
654.4365401715764,1975
656.7271914642178,1938
659.0172166067838,1931
661.3066158173809,2044
663.5953893141935,2010
665.8835373154867,1934
668.1710600396028,1940
670.4579577049639,2026
672.7442305300709,1969
675.0298787335033,1980
677.3149025339197,2003
679.599302150058,2061
681.8830778007342,2087
684.1662297048437,2003
686.4487580813608,1962
688.7306631493387,2021
691.0119451279091,1909
693.2926042362834,1934
695.5726406937516,1985
697.8520547196814,1922
700.1308465335215,2015
702.4090163547982,1954
704.6865644031171,2001
706.9634908981619,2010
709.2397960596965,1958
711.5154801075631,1921
713.7905432616823,1931
716.0649857420548,1996
718.3388077687592,1989
720.612009561953,1965
722.8845913418733,1996
725.1565533288352,1991
727.427895743234,1980
729.6986188055427,1951
731.9687227363137,1977
734.238207756178,1966
736.5070740858458,1968
738.7753219461066,1936
741.0429515578281,1995
743.3099631419569,2000
745.5763569195191,2004
747.8421331116193,1975
750.1072919394409,2043
752.3718336242467,1989
754.6357583873777,1974
756.8990664502545,2005
759.1617580343765,1961
761.423833361321,2008
763.6852926527457,1980
765.9461361303862,2001
768.206364016058,2008
770.4659765316536,1965
772.7249738991469,2007
774.9833563405886,2067
777.2411240781092,1980
779.4982773339183,1953
781.7548163303044,2027
784.010741289634,2022
786.2660524343538,2163
788.5207499869881,2060
790.7748341701416,2071
793.0283052064964,2064
795.2811633188143,2064
797.5334087299362,2068
799.7850416627813,2075
802.0360623403484,2079
804.2864709857143,2093
806.5362678220353,2005
808.7854530725468,2025
811.0340269605625,2039
813.2819897094754,2039
815.5293415427581,2015
817.77608268396,2066
820.0222133567116,2091
822.2677337847211,2052
824.5126441917765,1978
826.7569448017433,2032
829.0006358385675,2026
831.2437175262731,2062
833.4861900889629,2068
835.7280537508192,2100
837.9693087361026,2030
840.2099552691533,2051
842.4499935743896,2025
844.689423876309,2000
846.9282463994886,2008
849.1664613685833,2009
851.4040690083276,2030
853.6410695435349,2059
855.877463199097,2038
858.1132501999847,1954
860.3484307712487,2015
862.5830051380175,1991
864.8169735254988,1972
867.0503361589791,2033
869.2830932638243,2067
871.5152450654786,2073
873.7467917894654,2138
875.9777336613873,2054
878.2080709069252,2080
880.4378037518389,2090
882.666932421968,2152
884.8954571432301,2081
887.1233781416219,2071
889.3506956432192,2057
891.5774098741766,2080
893.803521060728,2104
896.0290294291852,2050
898.2539352059397,2121
900.4782386174619,2100
902.7019398903011,2075
904.925039251085,2180
907.147536926521,2074
909.3694331433943,2050
911.59072812857,2075
913.8114221089921,2050
916.0315153116827,1998
918.2510079637437,2089
920.4699002923547,2024
922.6881925247761,1976
924.905884888345,2093
927.1229776104793,2027
929.3394709186747,1994
931.555365040506,1975
933.7706602036275,2022
935.9853566357709,2001
938.1994545647489,2042
940.4129542184515,2055
942.6258558248488,2050
944.8381596119883,1986
947.0498658079974,2030
949.2609746410825,2030
951.4714863395287,1975
953.6814011316998,2057
955.8907192460387,2031
958.0994409110671,2030
960.3075663553858,1995
962.5150958076741,1989
964.7220294966913,1971
966.928367651274,1903
969.1341105003388,1897
971.3392582728806,1911
973.5438111979742,1930
975.747769504772,1895
977.9511334225061,1913
980.153903180487,1879
982.3560790081052,1942
984.5576611348289,1901
986.7586497902058,1884
988.9590452038618,1900
991.158847605503,1842
993.3580572249133,1793
995.5566742919558,1807
997.7546990365728,1744
999.952131688785,1762
1002.1489724786926,1740
1004.3452216364743,1653
1006.5408793923874,1764
1008.7359459767691,1708
1010.9304216200343,1761
1013.1243065526781,1762
1015.3176010052733,1680
1017.510305208472,1678
1019.7024193930064,1626
1021.8939437896848,1670
1024.0848786293977,1587
1026.2752241431122,1654
1028.4649805618747,1601
1030.6541481168115,1593
1032.842727039127,1606
1035.0307175601051,1625
1037.2181199111074,1622
1039.4049343235752,1604
1041.591161029029,1612
1043.7768002590683,1594
1045.9618522453698,1564
1048.1463172196918,1542
1050.3301954138697,1585
1052.513487059818,1599
1054.69619238953,1559
1056.8783116350783,1606
1059.0598450286152,1625
1061.2407928023704,1574
1063.4211551886528,1580
1065.6009324198508,1597
1067.780124728432,1620
1069.9587323469414,1573
1072.1367555080046,1569
1074.314194444325,1584
1076.4910493886855,1591
1078.667320573947,1476
1080.843008233051,1524
1083.0181125990161,1490
1085.1926339049414,1533
1087.3665723840027,1531
1089.5399282694575,1560
1091.7127017946405,1513
1093.8848931929647,1472
1096.0565026979243,1451
1098.2275305430899,1468
1100.3979769621128,1538
1102.567842188722,1484
1104.737126456726,1451
1106.9058300000124,1430
1109.0739530525475,1476
1111.2414958483764,1484
1113.4084586216231,1436
1115.5748416064907,1528
1117.7406450372605,1542
1119.9058691482942,1417
1122.0705141740304,1451
1124.2345803489884,1439
1126.3980679077658,1476
1128.5609770850388,1476
1130.7233081155623,1499
1132.8850612341707,1453
1135.0462366757774,1419
1137.2068346753745,1422
1139.3668554680326,1436
1141.526299288901,1440
1143.68516637321,1445
1145.8434569562655,1414
1148.001171273455,1396
1150.158309560244,1379
1152.3148720521767,1431
1154.470858984876,1451
1156.626270594044,1432
1158.7811071154629,1455
1160.9353687849912,1454
1163.089055838569,1456
1165.242168512213,1485
1167.3947070420209,1474
1169.5466716641677,1445
1171.6980626149075,1425
1173.8488801305748,1436
1175.9991244475814,1387
1178.1487958024186,1393
1180.2978944316555,1462
1182.4464205719428,1377
1184.5943744600072,1367
1186.7417563326567,1422
1188.8885664267755,1459
1191.0348049793297,1445
1193.1804722273619,1466
1195.325568407995,1482
1197.4700937584303,1446
1199.614048515948,1398
1201.7574329179074,1400
1203.900247201746,1394
1206.042491604982,1389
1208.1841663652099,1400
1210.3252717201053,1399
1212.465807907422,1342
1214.6057751649923,1426
1216.7451737307279,1412
1218.8840038426192,1405
1221.0222657387353,1412
1223.1599596572241,1377
1225.2970858363137,1447
1227.4336445143094,1405
1229.5696359295966,1432
1231.705060320639,1437
1233.8399179259786,1443
1235.9742089842384,1473
1238.107933734118,1400
1240.2410924143974,1404
1242.373685263935,1443
1244.5057125216676,1432
1246.6371744266116,1440
1248.7680712178621,1431
1250.898403134593,1445
1253.028170416058,1462
1255.1573733015875,1449
1257.2860120305932,1458
1259.4140868425648,1416
1261.54159797707,1439
1263.6685456737569,1439
1265.7949301723515,1385
1267.9207517126597,1411
1270.046010534565,1476
1272.1707068780306,1463
1274.2948409830983,1442
1276.4184130898889,1434
1278.541423438603,1457
1280.6638722695184,1495
1282.785759822993,1456
1284.9070863394636,1481
1287.0278520594447,1457
1289.1480572235314,1556
1291.2677020723963,1590
1293.3867868467923,1547
1295.5053117875495,1493
1297.623277135579,1531
1299.740683131868,1560
1301.8575300174857,1542
1303.973818033578,1541
1306.0895474213703,1558
1308.2047184221678,1493
1310.3193312773528,1531
1312.4333862283888,1517
1314.5468835168163,1556
1316.659823384255,1542
1318.7722060724045,1488
1320.8840318230418,1569
1322.9953008780249,1574
1325.1060134792888,1506
1327.2161698688478,1577
1329.3257702887959,1626
1331.4348149813054,1574
1333.5433041886276,1533
1335.6512381530933,1543
1337.7586171171101,1540
1339.8654413231675,1541
1341.9717110138317,1539
1344.0774264317488,1563
1346.1825878196432,1564
1348.2871954203192,1550
1350.3912494766587,1557
1352.4947502316231,1527
1354.5976979282532,1504
1356.7000928096686,1541
1358.8019351190665,1568
1360.9032250997243,1495
1363.0039629949988,1517
1365.1041490483235,1531
1367.2037835032133,1523
1369.3028666032606,1459
1371.401398592137,1466
1373.4993797135926,1483
1375.5968102114575,1476
1377.6936903296396,1549
1379.7900203121262,1550
1381.8858004029835,1527
1383.9810308463561,1516
1386.075711886469,1528
1388.1698437676241,1518
1390.2634267342032,1540
1392.356461030667,1591
1394.4489469015557,1515
1396.5408845914872,1530
1398.6322743451592,1600
1400.7231164073469,1534
1402.813411022907,1577
1404.903158436773,1501
1406.9923588939578,1490
1409.0810126395531,1552
1411.1691199187303,1571
1413.2566809767386,1543
1415.343696058907,1522
1417.4301654106425,1542
1419.5160892774315,1546
1421.6014679048399,1575
1423.6863015385125,1497
1425.7705904241707,1541
1427.8543348076178,1520
1429.9375349347342,1548
1432.0201910514802,1543
1434.102303403894,1635
1436.1838722380944,1546
1438.2648978002767,1573
1440.3453803367174,1504
1442.4253200937692,1533
1444.5047173178677,1612
1446.5835722555234,1594
1448.6618851533285,1607
1450.739656257952,1616
1452.8168858161434,1632
1454.8935740747306,1649
1456.96972128062,1637
1459.045327680797,1639
1461.120393522327,1672
1463.1949190523528,1715
1465.2689045180973,1723
1467.3423501668608,1659
1469.415256246024,1728
1471.4876230030463,1732
1473.559450685465,1697
1475.6307395408976,1667
1477.7014898170391,1703
1479.771701761665,1850
1481.8413756226287,1755
1483.9105116478618,1881
1485.9791100853772,1856
1488.0471711832643,1776
1490.1146951896926,1838
1492.1816823529098,1796
1494.2481329212433,1898
1496.3140471430984,1886
1498.3794252669609,1970
1500.4442675413939,1970
1502.5085742150404,1939
1504.572345536622,1961
1506.6355817549388,1970
1508.6982831188702,1987
1510.7604498773744,2071
1512.8220822794883,2035
1514.8831805743293,2054
1516.9437450110909,2134
1519.003775839048,2146
1521.0632733075522,2061
1523.1222376660367,2122
1525.1806691640113,2204
1527.2385680510652,2259
1529.2959345768668,2290
1531.3527689911643,2353
1533.4090715437833,2361
1535.4648424846291,2450
1537.5200820636855,2464
1539.5747905310159,2533
1541.6289681367616,2525
1543.6826151311434,2593
1545.7357317644614,2621
1547.7883182870937,2616
1549.8403749494987,2636
1551.8919020022113,2761
1553.9428996958477,2845
1555.9933682811015,2891
1558.0433080087469,2960
1560.0927191296346,2993
1562.1416018946961,3041
1564.1899565549415,3077
1566.2377833614592,3057
1568.2850825654164,2992
1570.3318544180606,2958
1572.3780991707158,2884
1574.423817074788,2853
1576.4690083817595,2733
1578.5136733431923,2690
1580.5578122107272,2579
1582.601425236085,2461
1584.6445126710646,2319
1586.6870747675434,2286
1588.7291117774776,2103
1590.7706239529034,2104
1592.8116115459347,2023
1594.8520748087658,2024
1596.8920139936686,1905
1598.9314293529933,1971
1600.9703211391711,1862
1603.008689604711,1820
1605.0465350022005,1760
1607.0838575843068,1712
1609.1206576037753,1658
1611.1569353134305,1670
1613.1926909661765,1620
1615.2279248149953,1682
1617.2626371129481,1677
1619.2968281131757,1613
1621.3304980688963,1573
1623.3636472334088,1575
1625.39627586009,1512
1627.428384202396,1547
1629.459972513861,1589
1631.4910410480993,1524
1633.5215900588028,1574
1635.551619799744,1539
1637.5811305247717,1555
1639.6101224878166,1568
1641.6385959428862,1575
1643.6665511440683,1539
1645.693988345528,1492
1647.7209078015112,1516
1649.7473097663405,1515
1651.7731944944203,1441
1653.7985622402307,1509
1655.823413258333,1497
1657.847747803366,1531
1659.8715661300494,1463
1661.8948684931793,1514
1663.9176551476316,1523
1665.9399263483624,1448
1667.9616823504057,1449
1669.982923408873,1469
1672.0036497789574,1448
1674.0238617159293,1427
1676.043559475138,1455
1678.0627433120121,1476
1680.081413482059,1455
1682.0995702408654,1399
1684.117213844096,1500
1686.134344547495,1467
1688.1509626068864,1480
1690.1670682781705,1408
1692.182661817329,1473
1694.1977434804217,1496
1696.2123135235875,1450
1698.226372203043,1470
1700.2399197750851,1490
1702.2529564960905,1490
1704.2654826225112,1476
1706.277498410882,1433
1708.2890041178139,1506
1710.2999999999988,1499
1712.3104863142066,1552
1714.3204633172854,1504
1716.329931266163,1447
1718.3388904178469,1461
1720.3473410294214,1493
1722.3552833580516,1490
1724.3627176609807,1536
1726.3696441955308,1511
1728.3760632191033,1490
1730.3819749891782,1436
1732.3873797633146,1470
1734.3922777991502,1470
1736.3966693544012,1467
1738.4005546868639,1449
1740.4039340544127,1501
1742.406807715001,1478
1744.4091759266616,1416
1746.4110389475054,1463
1748.4123970357223,1499
1750.413250449582,1444
1752.4135994474318,1458
1754.4134442876993,1479
1756.4127852288902,1405
1758.4116225295893,1487
1760.4099564484595,1432
1762.407787244244,1460
1764.405115175764,1439
1766.4019405019203,1400
1768.3982634816916,1442
1770.3940843741357,1411
1772.3894034383907,1372
1774.3842209336717,1392
1776.378537119274,1373
1778.372352254571,1398
1780.3656665990156,1402
1782.3584804121397,1380
1784.3507939535534,1408
1786.3426074829463,1365
1788.3339212600863,1379
1790.3247355448211,1371
1792.3150505970766,1405
1794.3048666768573,1414
1796.2941840442477,1411
1798.2830029594106,1438
1800.2713236825884,1449
1802.2591464741004,1398
1804.2464715943465,1384
1806.2332993038058,1408
1808.2196298630352,1390
1810.2054635326708,1395
1812.190800573428,1409
1814.175641246101,1414
1816.1599858115628,1417
1818.1438345307652,1426
1820.127187664738,1425
1822.1100454745924,1406
1824.092408221516,1403
1826.0742761667766,1388
1828.055649571721,1394
1830.0365286977735,1372
1832.0169138064398,1456
1833.9968051593014,1408
1835.9762030180214,1381
1837.9551076443408,1338
1839.9335193000788,1434
1841.9114382471344,1409
1843.888864747485,1402
1845.8657990631878,1417
1847.842241456378,1395
1849.8181921892697,1369
1851.7936515241558,1371
1853.7686197234098,1373
1855.7430970494815,1430
1857.7170837649014,1404
1859.6905801322787,1475
1861.6635864143004,1394
1863.6361028737338,1394
1865.608129773424,1346
1867.5796673762961,1362
1869.5507159453537,1390
1871.521275743678,1441
1873.4913470344313,1428
1875.4609300808534,1427
1877.4300251462632,1426
1879.3986324940588,1403
1881.366752387717,1395
1883.3343850907936,1447
1885.3015308669228,1407
1887.268189979819,1432
1889.2343626932739,1409
1891.2000492711595,1388
1893.1652499774254,1414
1895.1299650761011,1406
1897.0941948312952,1406
1899.0579395071945,1397
1901.0211993680641,1400
1902.98397467825,1395
1904.9462657021745,1408
1906.9080727043415,1382
1908.869395949332,1433
1910.8302357018065,1366
1912.790592226504,1389
1914.7504657882428,1341
1916.7098566519212,1421
1918.6687650825133,1370
1920.6271913450764,1405
1922.5851357047422,1394
1924.5425984267245,1408
1926.499579776314,1406
1928.4560800188833,1422
1930.4120994198802,1430
1932.367638244833,1385
1934.32269675935,1446
1936.2772752291175,1446
1938.231373919899,1350
1940.1849930975404,1420
1942.1381330279637,1381
1944.0907939771696,1442
1946.0429762112412,1392
1947.9946799963363,1389
1949.9459055986945,1435
1951.896653284633,1435
1953.8469233205478,1438
1955.7967159729142,1396
1957.7460315082863,1432
1959.6948701932974,1408
1961.6432322946594,1480
1963.5911180791632,1392
1965.5385278136787,1447
1967.4854617651545,1407
1969.4319202006182,1388
1971.377903387176,1480
1973.3234115920136,1436
1975.268445082395,1387
1977.2130041256642,1403
1979.1570889892423,1392
1981.1006999406304,1378
1983.04383724741,1413
1984.986501177238,1437
1986.928691997853,1345
1988.8704099770712,1434
1990.811655382789,1423
1992.7524284829801,1451
1994.692729545698,1406
1996.6325588390755,1402
1998.5719166313224,1395
2000.5108031907307,1427
2002.4492187856677,1405
2004.387163684583,1425
2006.3246381560011,1353
2008.2616424685298,1355
2010.1981768908527,1327
2012.1342416917332,1367
2014.069837140014,1366
2016.0049635046162,1409
2017.9396210545406,1414
2019.8738100588666,1376
2021.8075307867502,1392
2023.740783507431,1388
2025.6735684902228,1385
2027.6058860045214,1441
2029.5377363198004,1400
2031.4691197056118,1370
2033.4000364315875,1405
2035.3304867674374,1413
2037.260470982952,1356
2039.189989347998,1434
2041.1190421325232,1396
2043.047629606554,1386
2044.9757520401945,1419
2046.9034097036288,1363
2048.8306028671195,1414
2050.7573318010086,1427
2052.683596775716,1406
2054.609398061742,1350
2056.5347359296647,1421
2058.4596106501403,1409
2060.384022493906,1404
2062.3079717317764,1373
2064.231458634646,1450
2066.1544834734873,1385
2068.077046519352,1375
2069.99914804337,1378
2071.9207883167524,1403
2073.8419676107865,1363
2075.7626861968406,1370
2077.6829443463607,1374
2079.6027423308715,1392
2081.522080421977,1398
2083.440958891362,1393
2085.359378010786,1398
2087.2773380520907,1362
2089.194839287196,1410
2091.111881988101,1448
2093.0284664268825,1430
2094.9445928756973,1437
2096.86026160678,1383
2098.775472892446,1386
2100.690227005088,1414
2102.604524217178,1354
2104.5183648012676,1423
2106.431749029985,1388
2108.34467717604,1376
2110.2571495122206,1414
2112.169166311393,1388
2114.080727846503,1384
2115.9918343905747,1381
2117.902486216711,1388
2119.8126835980956,1364
2121.722426807987,1348
2123.6317161197285,1417
2125.5405518067364,1393
2127.448934142509,1437
2129.356863400624,1394
2131.264339854737,1444
2133.1713637785815,1452
2135.077935445972,1415
2136.9840551308002,1396
2138.889723107037,1350
2140.7949396487334,1342
2142.699705030018,1424
2144.6040195250994,1376
2146.507883408264,1406
2148.4112969538774,1393
2150.3142604363848,1356
2152.2167741303097,1408
2154.1188383102535,1379
2156.0204532508997,1436
2157.9216192270064,1439
2159.822336513414,1414
2161.7226053850413,1380
2163.622426116884,1364
2165.5217989840185,1342
2167.4207242616,1347
2169.319202224862,1384
2171.2172331491165,1391
2173.1148173097563,1421
2175.0119549822507,1414
2176.90864644215,1415
2178.8048919650823,1439
2180.7006918267534,1354
2182.596046302952,1348
2184.4909556695407,1399
2186.3854202024645,1427
2188.279440177746,1416
2190.173015871487,1441
2192.066147559868,1381
2193.958835519149,1373
2195.851080025667,1407
2197.7428813558417,1362
2199.6342397861667,1371
2201.5251555932186,1432
2203.415629053651,1398
2205.3056604441986,1403
2207.19525004167,1425
2209.084398122958,1512
2210.9731049650327,1393
2212.861370844941,1419
2214.749196039812,1422
2216.636580826851,1435
2218.523525483344,1414
2220.410030286655,1426
2222.296095514226,1409
2224.1817214435805,1408
2226.066908352319,1386
2227.951656518121,1402
2229.835966218746,1429
2231.71983773203,1413
2233.6032713358913,1388
2235.486267308324,1409
2237.3688259274036,1376
2239.2509474712824,1394
2241.132632218193,1385
2243.013880446447,1405
2244.8946924344323,1424
2246.7750684606203,1383
2248.6550088035574,1379
2250.534513741871,1348
2252.413583554265,1420
2254.292218519526,1446
2256.170418916517,1403
2258.0481850241786,1349
2259.925517121534,1430
2261.8024154876825,1403
2263.678880401803,1404
2265.5549121431536,1421
2267.430510991071,1357
2269.305677224971,1397
2271.180411124348,1334
2273.0547129687766,1375
2274.9285830379076,1432
2276.8020216114737,1373
2278.6750289692845,1401
2280.5476053912294,1386
2282.4197511572766,1362
2284.2914665474727,1363
2286.162751841943,1409
2288.0336073208937,1466
2289.904033264608,1394
2291.774029953448,1379
2293.6435976678554,1467
2295.5127366883517,1402
2297.381447295534,1401
2299.2497297700825,1372
2301.1175843927526,1479
2302.9850114443825,1365
2304.852011205885,1432
2306.7185839582553,1419
2308.5847299825664,1402
2310.4504495599676,1405
2312.3157429716925,1418
2314.1806104990483,1413
2316.0450524234247,1415
2317.9090690262888,1415
2319.772660589186,1474
2321.635827393742,1425
2323.498569721661,1430
2325.3608878547248,1398
2327.2227820747967,1455
2329.0842526638157,1442
2330.945299903803,1421
2332.805924076857,1429
2334.6661254651535,1439
2336.525904350951,1438
2338.3852610165827,1440
2340.244195744464,1416
2342.102708817088,1404
2343.9608005170253,1398
2345.8184711269287,1464
2347.675720929526,1411
2349.532550207628,1448
2351.38895924412,1431
2353.24494832197,1433
2355.100517724223,1380
2356.955667734004,1425
2358.810398634514,1427
2360.664710709037,1466
2362.5186042409337,1508
2364.3720795136437,1482
2366.225136810686,1452
2368.0777764156583,1357
2369.929998612237,1428
2371.7818036841777,1399
2373.633191915315,1501
2375.484163589562,1409
2377.3347189909114,1464
2379.184858403434,1451
2381.03458211128,1474
2382.8838903986775,1394
2384.732783549936,1440
2386.5812618494406,1391
2388.4293255816588,1398
2390.2769750311327,1457
2392.1242104824883,1418
2393.971032220427,1460
2395.8174405297295,1424
2397.6634356952563,1438
2399.509018001947,1416
2401.3541877348193,1455
2403.1989451789705,1444
2405.043290619576,1395
2406.8872243418905,1460
2408.730746631247,1461
2410.5738577730594,1442
2412.4165580528183,1432
2414.258847756095,1462
2416.100727168537,1469
2417.9421965758734,1521
2419.783256263912,1416
2421.623906518538,1414
2423.4641476257157,1464
2425.303979871491,1500
2427.143403541984,1495
2428.9824189233977,1512
2430.821026302012,1542
2432.6592259641866,1500
2434.497018196361,1516
2436.33440328505,1403
2438.171381516851,1491
2440.00795317844,1475
2441.844118556569,1391
2443.6798779380724,1475
2445.5152316098606,1500
2447.3501798589255,1507
2449.1847229723357,1407
2451.0188612372403,1409
2452.8525949408663,1447
2454.6859243705203,1458
2456.518849813587,1456
2458.3513715575314,1430
2460.183489889895,1484
2462.015205098301,1436
2463.8465174704493,1480
2465.67742729412,1489
2467.5079348571717,1447
2469.338040447542,1448
2471.1677443532476,1478
2472.9970468623833,1415
2474.825948263123,1433
2476.6544488437207,1414
2478.482548892508,1444
2480.310248697896,1471
2482.137548548374,1411
2483.9644487325118,1475
2485.790949538956,1453
2487.617051256433,1478
2489.44275417375,1472
2491.26805857979,1415
2493.0929647635157,1502
2494.917473013971,1463
2496.741583620276,1557
2498.5652968716304,1480
2500.3886130573137,1535
2502.2115324666834,1439
2504.0340553891765,1546
2505.856182114308,1469
2507.6779129316733,1475
2509.499248130945,1507
2511.3201880018764,1467
2513.140732834298,1452
2514.9608829181198,1491
2516.780638543331,1510
2518.6,1494
2520.418967578273,1467
2522.237541568376,1497
2524.0557222606144,1523
2525.8735099453706,1465
2527.6909049131086,1452
2529.507907454368,1492
2531.32451785977,1418
2533.140736420014,1489
2534.9565634258774,1506
2536.771999168218,1499
2538.5870439379714,1452
2540.4016980261526,1498
2542.2159617238544,1542
2544.02983532225,1506
2545.8433191125914,1482
2547.656413386209,1575
2549.4691184345115,1452
2551.2814345489874,1591
2553.093362021204,1531
2554.904901142808,1552
2556.716052205523,1533
2558.526815501153,1537
2560.3371913215824,1483
2562.147179958771,1532
2563.956781704761,1606
2565.7659968516705,1550
2567.5748256916986,1519
2569.3832685171224,1565
2571.1913256202984,1540
2572.9989972936614,1600
2574.806283829725,1563
2576.613185521084,1644
2578.4197026604074,1615
2580.2258355404483,1592
2582.031584454035,1597
2583.836949694077,1604
2585.6419315535613,1628
2587.4465303255533,1569
2589.2507463032002,1672
2591.0545797797245,1626
2592.8580310484303,1635
2594.6611004026995,1605
2596.463788135992,1611
2598.266094541849,1609
2600.0680199138874,1569
2601.869564545807,1605
2603.670728731383,1702
2605.4715127644704,1695
2607.2719169390048,1687
2609.071941548998,1702
2610.8715868885433,1636
2612.670853251811,1649
2614.469740933052,1714
2616.268250226594,1678
2618.0663814268455,1652
2619.864134828292,1656
2621.6615107255006,1643
2623.458509413115,1622
2625.2551311858597,1664
2627.0513763385347,1606
2628.8472451660223,1683
2630.6427379632833,1633
2632.4378550253564,1658
2634.232596647359,1616
2636.026963124488,1619
2637.8209547520187,1634
2639.6145718253065,1546
2641.407814639785,1598
2643.200683490966,1564
2644.9931786744414,1590
2646.7853004858807,1655
2648.577049221034,1533
2650.3684251757277,1642
2652.1594286458712,1543
2653.9500599274484,1618
2655.740319316525,1546
2657.5302071092437,1532
2659.3197236018286,1615
2661.10886909058,1541
2662.8976438718782,1555
2664.686048242183,1508
2666.4740824980327,1554
2668.2617469360443,1522
2670.0490418529134,1478
2671.8359675454153,1486
2673.622524310403,1481
2675.408712444811,1478
2677.1945322456495,1407
2678.979984010009,1480
2680.76506803506,1500
2682.5497846180497,1480
2684.334134056306,1487
2686.1181166472343,1530
2687.9017326883213,1441
2689.6849824771293,1482
2691.4678663113013,1514
2693.2503844885596,1490
2695.032537306705,1521
2696.8143250636167,1452
2698.5957480572542,1447
2700.3768065856534,1488
2702.1575009469316,1468
2703.937831439283,1424
2705.717798360982,1471
2707.4974020103837,1482
2709.276642685917,1502
2711.055520686095,1521
2712.834036309506,1474
2714.612189854819,1472
2716.389981620782,1440
2718.1674119062204,1406
2719.944481010041,1481
2721.721189231226,1430
2723.4975368688415,1479
2725.273524222027,1387
2727.0491515900053,1469
2728.824419272075,1415
2730.5993275676146,1433
2732.3738767760838,1366
2734.148067197016,1405
2735.921899130031,1399
2737.6953728748194,1438
2739.468488731156,1433
2741.2412469988926,1441
2743.0136479779617,1381
2744.785691968372,1394
2746.5573792702116,1395
2748.3287101836504,1475
2750.099685008934,1433
2751.870304046388,1412
2753.640567596418,1404
2755.4104759595057,1365
2757.1800294362156,1428
2758.949228327187,1400
2760.7180729331412,1405
2762.486563554877,1441
2764.254700493272,1407
2766.022484049284,1413
2767.789914523947,1401
2769.5569922183786,1403
2771.3237174337705,1440
2773.090090471394,1434
2774.8561116326036,1459
2776.6217812188274,1387
2778.3870995315756,1371
2780.1520668724356,1343
2781.9166835430747,1380
2783.6809498452394,1398
2785.444866080754,1403
2787.2084325515225,1406
2788.971649559527,1412
2790.73451740683,1461
2792.4970363955713,1412
2794.2592068279705,1435
2796.0210290063264,1368
2797.7825032330147,1378
2799.543629810493,1412
2801.304409041296,1435
2803.0648412280366,1379
2804.8249266734088,1436
2806.5846656801846,1420
2808.344058551212,1418
2810.1031055894246,1433
2811.8618070978273,1430
2813.6201633795085,1447
2815.378174737636,1426
2817.1358414754536,1428
2818.893163896285,1486
2820.6501423035334,1392
2822.4067770006814,1428
2824.1630682912883,1485
2825.9190164789957,1408
2827.6746218675207,1479
2829.429884760661,1458
2831.184805462294,1441
2832.9393842763743,1416
2834.693621506936,1429
2836.4475174580916,1418
2838.201072434034,1394
2839.954286739034,1400
2841.707160677441,1408
2843.459694553685,1398
2845.2118886722724,1390
2846.96374333779,1414
2848.7152588549034,1399
2850.4664355283567,1417
2852.217273662973,1414
2853.9677735636546,1389
2855.7179355353833,1455
2857.4677598832186,1428
2859.217246912299,1428
2860.9663969278427,1412
2862.715210235146,1431
2864.4636871395846,1401
2866.211827946614,1444
2867.9596329617652,1407
2869.7071024906536,1447
2871.4542368389684,1397
2873.20103631248,1411
2874.947501217038,1396
2876.6936318585695,1381
2878.4394285430812,1427
2880.1848915766604,1448
2881.9300212654707,1414
2883.6748179157553,1421
2885.4192818338374,1444
2887.1634133261173,1401
2888.907212699077,1413
2890.6506802592744,1426
2892.393816313348,1366
2894.1366211680142,1424
2895.8790951300693,1453
2897.621238506388,1387
2899.363051603925,1456
2901.1045347297118,1429
2902.8456881908596,1399
2904.58651229456,1427
2906.327007348081,1431
2908.067173658772,1445
2909.8070115340597,1437
2911.5465212814497,1422
2913.285703208527,1337
2915.0245576229563,1417
2916.7630848324807,1410
2918.5012851449196,1408
2920.2391588681758,1438
2921.976706310227,1459
2923.7139277791334,1425
2925.4508235830313,1476
2927.187394030137,1395
2928.923639428745,1383
2930.6595600872306,1444
2932.395156314046,1358
2934.1304284177218,1406
2935.8653767068713,1469
2937.6000014901815,1433
2939.3343030764227,1415
2941.068281774442,1424
2942.8019378931644,1471
2944.5352717415976,1405
2946.2682836288236,1416
2948.0009738640065,1441
2949.7333427563885,1399
2951.465390615289,1455
2953.1971177501086,1426
2954.9285244703265,1443
2956.6596110855,1488
2958.3903779052657,1392
2960.1208252393385,1363
2961.8509533975125,1418
2963.5807626896617,1408
2965.3102534257378,1347
2967.0394259157715,1347
2968.768280469873,1358
2970.496817398232,1364
2972.2250370111146,1424
2973.952939618869,1406
2975.6805255319196,1402
2977.4077950607707,1392
2979.134748516006,1387
2980.861386208289,1381
2982.587708448359,1444
2984.313715547037,1375
2986.039407815222,1394
2987.764785563891,1370
2989.489849104102,1375
2991.2145987469908,1404
2992.9390348037705,1417
2994.6631575857346,1411
2996.3869674042576,1444
2998.1104645707887,1371
2999.83364939686,1478
3001.5565221940783,1410
3003.2790832741334,1412
3005.0013329487924,1375
3006.7232715298996,1379
3008.4448993293804,1385
3010.166216659239,1384
3011.887223831558,1466
3013.607921158498,1404
3015.3283089522993,1400
3017.0483875252826,1397
3018.7681571898443,1397
3020.4876182584626,1394
3022.2067710436927,1415
3023.9256158581707,1411
3025.644153014609,1411
3027.362382825801,1398
3029.0803056046193,1317
3030.797921664012,1381
3032.5152313170106,1412
3034.2322348767225,1410
3035.9489326563353,1392
3037.665324969115,1425
3039.3814121284063,1401
3041.097194447633,1375
3042.812672240299,1351
3044.5278458199855,1415
3046.2427155003525,1333
3047.9572815951406,1403
3049.671544418167,1391
3051.38550428333,1392
3053.0991615046073,1421
3054.812516396051,1415
3056.5255692717974,1405
3058.2383204460575,1442
3059.9507702331257,1416
3061.662918947372,1391
3063.3747669032446,1411
3065.0863144152736,1453
3066.7975617980674,1408
3068.508509366309,1404
3070.219157434767,1400
3071.9295063182844,1429
3073.639556331785,1471
3075.3493077902704,1381
3077.058761008821,1351
3078.7679163025964,1364
3080.476773986837,1415
3082.1853343768594,1402
3083.89359778806,1364
3085.6015645359153,1370
3087.3092349359786,1396
3089.016609303884,1367
3090.7236879553434,1430
3092.4304712061476,1380
3094.136959372166,1363
3095.843152769349,1398
3097.5490517137237,1383
3099.2546565213966,1433
3100.959967508554,1369
3102.66498499146,1453
3104.3697092864577,1393
3106.0741407099695,1347
3107.778279578498,1338
3109.482126208622,1378
3111.1856809170004,1418
3112.8889440203716,1436
3114.5919158355528,1393
3116.294596679439,1414
3117.996986869006,1423
3119.6990867213062,1427
3121.4008965534726,1400
3123.102416682717,1440
3124.803647426329,1435
3126.5045891016784,1380
3128.205242026213,1383
3129.90560651746,1408
3131.605682893025,1455
3133.3054714705922,1427
3135.0049725679282,1420
3136.7041865028714,1400
3138.4031135933465,1449
3140.101754157353,1440
3141.800108512971,1437
3143.498176978357,1378
3145.1959598717494,1401
3146.8934575114636,1385
3148.5906702158954,1425
3150.2875983035183,1424
3151.9842420928853,1438
3153.680601902627,1394
3155.376678051456,1377
3157.07247085816,1345
3158.767980641609,1375
3160.463207720748,1444
3162.158152414606,1421
3163.8528150422862,1399
3165.5471959229726,1439
3167.2412953759303,1343
3168.9351137204976,1405
3170.628651276098,1418
3172.3219083622307,1432
3174.014885298474,1443
3175.707582404485,1423
3177.4000000000005,1375
3179.092138404835,1441
3180.7839979388846,1363
3182.47557892212,1422
3184.166881674594,1419
3185.8579065164386,1380
3187.5486537678626,1399
3189.2391237491547,1395
3190.9293167806827,1401
3192.6192331828934,1381
3194.3088732763117,1450
3195.998237381542,1368
3197.687325819268,1417
3199.376138910251,1416
3201.064676975334,1436
3202.7529403354347,1409
3204.4409293115523,1362
3206.1286442247647,1407
3207.816085396229,1426
3209.5032531471825,1466
3211.190147798936,1389
3212.8767696728846,1402
3214.5631190905015,1387
3216.2491963733373,1417
3217.9350018430214,1361
3219.6205358212637,1322
3221.305798629851,1378
3222.990790590651,1355
3224.6755120256103,1413
3226.359963256751,1392
3228.0441446061795,1410
3229.7280563960758,1414
3231.411698948703,1358
3233.0950725863995,1371
3234.778177631587,1415
3236.461014406761,1400
3238.1435832345005,1392
3239.8258844374595,1419
3241.507918338374,1406
3243.1896852600576,1375
3244.8711855254023,1421
3246.552419457381,1369
3248.233387379042,1339
3249.914089613516,1362
3251.59452648401,1361
3253.274698313813,1397
3254.95460542629,1386
3256.6342481448855,1454
3258.313626793125,1349
3259.9927416946084,1338
3261.6715931730196,1356
3263.3501815521176,1379
3265.0285071557437,1409
3266.706570307815,1306
3268.3843713323286,1343
3270.0619105533615,1376
3271.739188295068,1393
3273.4162048816834,1375
3275.0929606375184,1376
3276.769455886966,1460
3278.445690954498,1401
3280.1216661646613,1432
3281.797381842087,1391
3283.4728383114807,1430
3285.1480358976296,1407
3286.8229749253996,1374
3288.4976557197333,1424
3290.172078605655,1421
3291.846243908266,1365
3293.5201519527463,1338
3295.193803064357,1390
3296.8671975684374,1392
3298.5403357904024,1383
3300.21321805575,1448
3301.8858446900567,1407
3303.558216018975,1393
3305.23033236824,1447
3306.9021940636603,1379
3308.57380143113,1381
3310.2451547966184,1429
3311.916254486174,1366
3313.5871008259246,1410
3315.2576941420766,1351
3316.9280347609147,1397
3318.5981230088046,1380
3320.2679592121895,1270
3321.9375436975924,1311
3323.606876791612,1349
3325.27595882093,1367
3326.944790112305,1363
3328.6133709925753,1344
3330.2817017886573,1315
3331.949782827547,1406
3333.617614436319,1428
3335.2851969421245,1372
3336.952530672199,1338
3338.619615953853,1351
3340.286453114475,1306
3341.9530424815357,1438
3343.619384382583,1429
3345.2854791452437,1457
3346.951327097224,1394
3348.6169285663073,1402
3350.2822838803577,1395
3351.947393367319,1449
3353.61225735521,1421
3355.2768761721345,1403
3356.9412501462693,1403
3358.605379605873,1385
3360.2692648792827,1408
3361.9329062949146,1394
3363.596304181263,1356
