CollectionTime,7/3/2024 2:41:14 PM
ExposureUsed,3
CalibratedSpectrum
-962.7078968117929,440
-959.9714848408522,476
-957.2358232597828,466
-954.5009119013725,439
-951.7667505983302,439
-949.0333391832855,455
-946.3006774887896,463
-943.5687653473143,472
-940.837602591253,444
-938.1071890529199,445
-935.3775245645503,453
-932.6486089583007,447
-929.9204420662485,477
-927.1930237203925,461
-924.4663537526524,454
-921.7404319948689,448
-919.0152582788041,463
-916.2908324361409,510
-913.5671542984834,476
-910.8442236973568,469
-908.1220404642074,440
-905.4006044304027,452
-902.679915427231,440
-899.959973285902,460
-897.2407778375464,458
-894.5223289132158,449
-891.8046263438832,446
-889.0876699604426,450
-886.3714595937089,432
-883.6559950744183,445
-880.9412762332282,474
-878.2273029007168,439
-875.5140749073835,434
-872.8015920836489,457
-870.0898542598545,471
-867.3788612662631,442
-864.6686129330585,457
-861.9591090903457,424
-859.2503495681506,431
-856.5423341964203,450
-853.8350628050229,464
-851.1285352237478,430
-848.4227512823054,435
-845.7177108103272,458
-843.0134136373656,458
-840.3098595928943,475
-837.6070485063082,492
-834.9049802069229,516
-832.2036545239757,466
-829.5030712866244,463
-826.8032303239481,444
-824.1041314649472,455
-821.4057745385428,453
-818.7081593735775,446
-816.0112857988148,460
-813.3151536429393,459
-810.6197627345566,456
-807.9251129021936,460
-805.2312039742981,455
-802.5380357792392,471
-799.8456081453069,450
-797.1539209007124,469
-794.462973873588,500
-791.772766891987,488
-789.083299783884,471
-786.3945723771743,474
-783.7065844996748,460
-781.0193359791231,435
-778.3328266431781,448
-775.6470563194197,472
-772.9620248353489,478
-770.2777320183878,490
-767.5941776958798,498
-764.9113616950891,479
-762.2292838432011,471
-759.5479439673222,454
-756.8673418944801,448
-754.1874774516235,478
-751.5083504656222,483
-748.8299607632671,501
-746.15230817127,476
-743.475392516264,438
-740.7992136248035,471
-738.1237713233636,473
-735.4490654383407,477
-732.7750957960521,490
-730.1018622227365,484
-727.4293645445534,457
-724.7576025875837,469
-722.0865761778291,466
-719.4162851412126,493
-716.7467293035781,502
-714.0779084906909,469
-711.409822528237,493
-708.7424712418238,472
-706.0758544569796,548
-703.4099719991541,519
-700.7448236937178,489
-698.0804093659622,495
-695.4167288411002,499
-692.7537819442656,491
-690.0915685005134,494
-687.4300883348199,469
-684.7693412720819,474
-682.1093271371178,481
-679.4500457546669,514
-676.7914969493897,497
-674.1336805458676,478
-671.4765963686034,490
-668.8202442420206,491
-666.1646239904642,489
-663.5097354382001,515
-660.8555784094151,486
-658.2021527282176,501
-655.5494582186366,547
-652.8974947046223,534
-650.2462620100463,487
-647.5957599587009,527
-644.9459883742998,539
-642.2969470804776,522
-639.6486359007902,531
-637.0010546587141,525
-634.3542031776476,506
-631.7080812809096,528
-629.0626887917401,523
-626.4180255333008,485
-623.7740913286734,526
-621.1308860008619,546
-618.4884093727904,524
-615.8466612673046,516
-613.2056415071715,524
-610.5653499150785,522
-607.9257863136347,557
-605.28695052537,551
-602.6488423727357,561
-600.0114616781036,509
-597.3748082637674,525
-594.7388819519412,578
-592.1036825647604,605
-589.4692099242818,651
-586.8354638524829,565
-584.2024441712624,563
-581.5701507024403,581
-578.9385832677575,586
-576.3077416888759,566
-573.6776257873787,545
-571.0482353847704,557
-568.4195703024757,577
-565.7916303618415,565
-563.164415384135,561
-560.5379251905453,550
-557.9121596021815,562
-555.2871184400748,560
-552.6628015251767,553
-550.0392086783606,540
-547.4163397204204,603
-544.794194472071,579
-542.1727727539491,591
-539.5520743866118,601
-536.9320991905377,625
-534.3128469861261,661
-531.6943175936979,637
-529.0765108334947,638
-526.4594265256793,699
-523.8430644903358,791
-521.2274245474689,922
-518.612506517005,968
-515.9983102187913,1055
-513.3848354725959,1229
-510.77208209810846,1498
-508.16004991493924,1525
-505.5487387426199,1490
-502.9381484006032,1240
-500.3282787082628,1103
-497.71912948489364,894
-495.1107005497117,845
-492.5029917218539,720
-489.8960028203786,689
-487.28973366426493,685
-484.68418407241325,667
-482.07935386364494,663
-479.47524285670266,641
-476.87185087025,656
-474.2691777228715,648
-471.66722323307334,649
-469.0659872192821,651
-466.4654694998459,663
-463.86566989303384,680
-461.26658821703614,664
-458.66822428996414,674
-456.07057792985,685
-453.4736489546475,644
-450.877437182231,665
-448.28194243039627,668
-445.68716451686,665
-443.09310325926003,650
-440.49975847515555,597
-437.9071299820263,625
-435.31521759727354,694
-432.72402113821954,697
-430.13354042210767,680
-427.5437752661022,656
-424.95472548728867,682
-422.36639090267386,730
-419.7787713291855,785
-417.1918665836721,842
-414.60567648290385,776
-412.0202008435715,715
-409.4354394822874,695
-406.8513922155845,784
-404.26805885991723,778
-401.685439231661,784
-399.103533147112,740
-396.522340422488,715
-393.9418608739278,695
-391.3620943174908,677
-388.7830405691583,709
-386.2046994448317,698
-383.6270707603344,652
-381.05015433141045,666
-378.473949973725,591
-375.8984575028645,595
-373.32367673433623,600
-370.74960748356875,621
-368.1762495659117,572
-365.60360279663576,541
-363.03166699093265,530
-360.4604419639154,523
-357.8899275306178,546
-355.32012350599507,499
-352.7510297049233,489
-350.1826459421999,490
-347.61497203254316,456
-345.04800779059235,478
-342.4817530309082,498
-339.91620756797226,527
-337.35137121618743,566
-334.7872437898774,604
-332.22382510328725,581
-329.66111497058273,502
-327.09911320585127,466
-324.53781962310075,518
-321.9772340362607,523
-319.4173562591816,526
-316.8581861056348,516
-314.2997233893127,482
-311.7419679238294,496
-309.1849195227194,527
-306.62857799943856,500
-304.0729431673641,548
-301.51801483979375,564
-298.963792829947,541
-296.41027695096386,518
-293.85746701590574,546
-291.3053628377552,546
-288.7539642294155,574
-286.2032710037115,594
-283.65328297338897,561
-281.1039999511146,618
-278.5554217494762,637
-276.007548180983,677
-273.4603790580651,656
-270.9139141930734,598
-268.3681533982807,573
-265.8230964858798,678
-263.27874326798565,659
-260.7350935566336,613
-258.1921471637804,607
-255.6499039013039,585
-253.10836358100266,599
-250.56752601459698,693
-248.02739101372765,732
-245.48795838995704,645
-242.94922795476816,654
-240.41119951956557,613
-237.8738728956746,643
-235.33724789434166,664
-232.80132432673452,692
-230.2661020039418,597
-227.73158073697357,597
-225.19776033676033,632
-222.66464061415422,670
-220.1322213799284,688
-217.60050244477725,609
-215.06948361931552,570
-212.53916471408013,672
-210.00954553952818,691
-207.48062590603843,701
-204.9524056239104,613
-202.4248845033651,741
-199.8980623545441,754
-197.37193898751036,765
-194.84651421224817,687
-192.32178783866232,708
-189.79775967657952,737
-187.27442953574644,854
-184.7517972258321,770
-182.2298625564256,816
-179.7086253370378,852
-177.18808537710026,780
-174.66824248596583,774
-172.14909647290835,829
-169.6306471471229,828
-167.11289431772548,731
-164.59583779375328,741
-162.07947738416453,870
-159.5638128978386,969
-157.04884414357605,1131
-154.53457093009854,1213
-152.02099306604828,1033
-149.50811035998936,878
-146.99592262040665,945
-144.48442965570587,1010
-141.97363127421409,1315
-139.46352728417958,1464
-136.95411749377126,1448
-134.44540171107985,1267
-131.93737974411636,1028
-129.43005140081357,1024
-126.92341648902493,1143
-124.41747481652521,1395
-121.91222619101006,1841
-119.40767042009657,2585
-116.90380731132257,2840
-114.40063667214702,2601
-111.8981583099503,2001
-109.3963720320337,1480
-106.89527764561933,1320
-104.39487495785067,1691
-101.89516377579241,2930
-99.39614390642998,4234
-96.89781515667039,3669
-94.40017733334128,3955
-91.90323024319173,5514
-89.40697369289148,9451
-86.91140748903172,11801
-84.41653143812482,9413
-81.92234534660395,6156
-79.42884902082358,4314
-76.93604226705907,9265
-74.4439248915071,19113
-71.95249670028534,25968
-69.46175749943245,27021
-66.97170709490854,22984
-64.48234529259423,19755
-61.99367189829195,18173
-59.50568671772464,20537
-57.01838955653636,21542
-54.53178022029283,20057
-52.045858514480074,18126
-49.560624244506016,17429
-47.07607721569923,15298
-44.59221723330904,15683
-42.10904410250669,16332
-39.62655762838392,14887
-37.14475761595372,12058
-34.66364387015028,11265
-32.18321619582866,10068
-29.70347439776515,8182
-27.224418280657005,8260
-24.74604764912317,9412
-22.26836230770266,14324
-19.7913620608565,28011
-17.315046712966478,52696
-14.83941606833514,65041
-12.36446993118659,65041
-9.89020810566592,65041
-7.416630395839093,65041
-4.94373660569363,65041
-2.471526539137585,65041
-6.821210263296962E-13,65041
2.47084320796705,65041
4.941003281093458,65041
7.410480415786196,65041
9.879274808531363,65041
12.347386655893956,65041
14.814816154518212,65041
17.28156350112681,65041
19.74762889252179,65041
22.21301252558385,65041
24.67771459727237,20810
27.141735304626195,4050
29.605074844762612,2789
32.06773341487792,3091
34.52971121224755,2623
36.99100843422559,2364
39.45162527824516,2209
41.91156194181792,2015
44.370818622535126,1722
46.82939551806646,1519
49.287292826160524,2172
51.74451074464503,2435
54.201049471426245,2392
56.65690920448981,1955
59.112090141899785,1743
61.56659248179983,1679
64.02041642241159,1641
66.4735621620365,1417
68.92602989905402,1262
71.37781983192338,1272
73.82893215918205,1362
76.27936707944684,1561
78.72912479141326,1471
81.17820549385567,1626
83.62660938562783,1647
86.07433666566146,1745
88.5213875329681,1392
90.96776218663751,1219
93.41346082583925,1147
95.85848364982041,1371
98.30283085790859,1302
100.7465026495089,1256
103.18949922410604,1390
105.63182078126385,1354
108.07346752062438,1458
110.51443964190923,1258
112.95473734491827,1065
115.39436082953114,1098
117.83331029570547,1031
120.27158594347827,960
122.7091879729652,1120
125.1461165843615,1196
127.58237197794062,1112
130.01795435405518,1141
132.4528639131364,1218
134.88710085569494,1175
137.32066538231982,963
139.75355769367923,965
142.1857779905207,1036
144.61732647366978,1004
147.04820334403132,862
149.47840880258934,870
151.90794305040674,939
154.33680628862487,969
156.76499871846443,985
159.19252054122433,973
161.61937195828352,1171
164.04555317109896,1453
166.47106438120693,1422
168.89590579022217,1367
171.320077599839,1396
173.7435800118302,1441
176.16641322804742,1432
178.58857745042144,1629
181.01007288096173,1650
183.43089972175687,1588
185.85105817497413,1687
188.27054844285988,1717
190.6893707277394,1491
193.10752523201643,1550
195.5250121581745,1559
197.9418317087751,1614
200.3579840864594,1642
202.7734694939469,1758
205.18828813403627,1763
207.6024402096051,1829
210.01592592360964,1786
212.42874547908548,1780
214.84089907914665,1839
217.2523869269868,1808
219.66320922587727,1851
222.0733661791695,1734
224.48285799029293,1765
226.8916848627572,1658
229.29984700014882,1858
231.7073446061355,1868
234.11417788446204,1733
236.520347038953,1765
238.92585227351185,1824
241.33069379212054,1840
243.73487179884035,1785
246.1383864978112,1762
248.541238093252,1805
250.9434267894609,1752
253.34495279081432,1811
255.74581630176783,1822
258.1460175268563,1747
260.54555667069314,1722
262.9444339379703,1676
265.3426495334594,1745
267.7402036620107,1826
270.1370965285529,1792
272.53332833809407,1870
274.9288992957214,1726
277.32380960660055,1800
279.718059475976,1751
282.1116491091717,1768
284.5045787115897,1746
286.89684848871195,1717
289.2884586460981,1676
291.67940938938807,1820
294.0697009242996,1801
296.4593334566299,1898
298.84830719225477,1781
301.23662233712923,1807
303.6242790972866,1846
306.01127767884,1853
308.39761828798066,1816
310.78330113097934,1706
313.16832641418534,1657
315.5526943440269,1635
317.9364051270112,1677
320.3194589697242,1687
322.70185607883093,1693
325.0835966610754,1601
327.4646809232805,1563
329.8451090723478,1562
332.2248813152577,1603
334.6039978590701,1589
336.9824589109231,1605
339.36026467803447,1566
341.7374153677,1557
344.113911187295,1594
346.48975234427337,1583
348.8649390461686,1599
351.2394715005918,1612
353.61334991523415,1575
355.9865744978655,1581
358.35914545633375,1566
360.73106299856715,1528
363.10232733257146,1541
365.47293866643247,1486
367.84289720831396,1464
370.2122031664593,1500
372.5808567491905,1533
374.9488581649083,1481
377.31620762209275,1541
379.6829053293021,1501
382.0489514951745,1489
384.4143463284262,1449
386.7790900378528,1454
389.14318283232853,1521
391.50662492080653,1498
393.86941651231916,1532
396.23155781597745,1499
398.5930490409713,1425
400.9538903965696,1434
403.3140820921202,1515
405.6736243370498,1429
408.03251734086336,1466
410.3907613131465,1450
412.74835646356166,1465
415.10530300185144,1406
417.4616011378372,1451
419.81725108141893,1411
422.1722530425758,1388
424.5266072313656,1432
426.880313857925,1405
429.2333731324701,1444
431.58578526529516,1397
433.9375504667738,1388
436.2886689473588,1358
438.63914091758113,1384
440.9889665880513,1394
443.33814616945835,1384
445.68667987257015,1373
448.03456790823395,1370
450.3818104873759,1363
452.72840782100013,1357
455.07436012019105,1340
457.41966759611057,1363
459.7643304600007,1365
462.10834892318155,1386
464.4517231970525,1362
466.79445349309174,1333
469.1365400228566,1333
471.4779829979826,1326
473.81878263018564,1343
476.15893913125876,1342
478.4984527130747,1385
480.8373235875855,1446
483.17555196682144,1469
485.5131380628919,1484
487.8500820879857,1448
490.1863842543697,1503
492.52204477439034,1538
494.8570638604725,1658
497.1914417251204,1721
499.52517858091653,1949
501.85827464052306,2167
504.19073011668036,2646
506.5225452222086,3328
508.85372017000566,3968
511.18425517304956,4177
513.514150444396,4354
515.8434061971808,4584
518.1720226446176,5002
520.4999999999999,4759
522.8273384766991,4162
525.1540382881666,3620
527.480099647932,3103
529.8055227696037,2502
532.1303078668694,2119
534.454455153496,1690
536.777964843328,1644
539.1008371502907,1548
541.4230722883866,1437
543.744670471698,1428
546.0656319143858,1503
548.3859568306899,1474
550.7056454349294,1397
553.0246979415016,1445
555.3431145648834,1449
557.6608955196306,1471
559.978041020377,1422
562.2945512818363,1361
564.6104265188006,1392
566.9256669461412,1357
569.2402727788082,1393
571.5542442318302,1402
573.8675815203156,1441
576.1802848594508,1419
578.4923544645015,1427
580.8037905508126,1409
583.114593333807,1385
585.4247630289875,1429
587.7342998519354,1369
590.0432040183106,1456
592.3514757438526,1453
594.6591152443794,1368
596.9661227357875,1371
599.2724984340531,1436
601.578242555231,1462
603.8833553154542,1417
606.1878369309362,1417
608.4916876179676,1423
610.7949075929192,1459
613.0974970722403,1422
615.3994562724587,1439
617.7007854101818,1412
620.0014847020951,1426
622.3015543649641,1413
624.6009946156324,1366
626.8998056710224,1464
629.1979877481361,1432
631.4955410640538,1441
633.7924658359349,1369
636.0887622810175,1393
638.3844306166192,1422
640.6794710601358,1453
642.9738838290426,1412
645.2676691408932,1421
647.5608272133207,1420
649.853358264037,1448
652.1452625108324,1384
654.4365401715764,1460
656.7271914642178,1496
659.0172166067838,1411
661.3066158173809,1464
663.5953893141935,1453
665.8835373154867,1384
668.1710600396028,1389
670.4579577049639,1383
672.7442305300709,1426
675.0298787335033,1403
677.3149025339197,1443
679.599302150058,1443
681.8830778007342,1439
684.1662297048437,1403
686.4487580813608,1423
688.7306631493387,1451
691.0119451279091,1472
693.2926042362834,1448
695.5726406937516,1442
697.8520547196814,1478
700.1308465335215,1389
702.4090163547982,1409
704.6865644031171,1382
706.9634908981619,1396
709.2397960596965,1381
711.5154801075631,1452
713.7905432616823,1413
716.0649857420548,1393
718.3388077687592,1450
720.612009561953,1477
722.8845913418733,1403
725.1565533288352,1455
727.427895743234,1417
729.6986188055427,1465
731.9687227363137,1402
734.238207756178,1407
736.5070740858458,1433
738.7753219461066,1397
741.0429515578281,1503
743.3099631419569,1471
745.5763569195191,1411
747.8421331116193,1407
750.1072919394409,1496
752.3718336242467,1467
754.6357583873777,1472
756.8990664502545,1489
759.1617580343765,1425
761.423833361321,1429
763.6852926527457,1487
765.9461361303862,1499
768.206364016058,1458
770.4659765316536,1477
772.7249738991469,1477
774.9833563405886,1553
777.2411240781092,1499
779.4982773339183,1488
781.7548163303044,1469
784.010741289634,1422
786.2660524343538,1533
788.5207499869881,1501
790.7748341701416,1477
793.0283052064964,1468
795.2811633188143,1475
797.5334087299362,1439
799.7850416627813,1548
802.0360623403484,1506
804.2864709857143,1477
806.5362678220353,1536
808.7854530725468,1461
811.0340269605625,1459
813.2819897094754,1510
815.5293415427581,1507
817.77608268396,1467
820.0222133567116,1460
822.2677337847211,1472
824.5126441917765,1442
826.7569448017433,1459
829.0006358385675,1482
831.2437175262731,1426
833.4861900889629,1428
835.7280537508192,1509
837.9693087361026,1464
840.2099552691533,1457
842.4499935743896,1509
844.689423876309,1454
846.9282463994886,1531
849.1664613685833,1516
851.4040690083276,1506
853.6410695435349,1516
855.877463199097,1494
858.1132501999847,1507
860.3484307712487,1580
862.5830051380175,1462
864.8169735254988,1479
867.0503361589791,1499
869.2830932638243,1415
871.5152450654786,1422
873.7467917894654,1421
875.9777336613873,1412
878.2080709069252,1454
880.4378037518389,1476
882.666932421968,1489
884.8954571432301,1439
887.1233781416219,1453
889.3506956432192,1513
891.5774098741766,1494
893.803521060728,1443
896.0290294291852,1482
898.2539352059397,1486
900.4782386174619,1495
902.7019398903011,1425
904.925039251085,1441
907.147536926521,1468
909.3694331433943,1384
911.59072812857,1452
913.8114221089921,1477
916.0315153116827,1524
918.2510079637437,1467
920.4699002923547,1465
922.6881925247761,1458
924.905884888345,1428
927.1229776104793,1484
929.3394709186747,1492
931.555365040506,1533
933.7706602036275,1473
935.9853566357709,1463
938.1994545647489,1508
940.4129542184515,1548
942.6258558248488,1495
944.8381596119883,1534
947.0498658079974,1499
949.2609746410825,1468
951.4714863395287,1509
953.6814011316998,1521
955.8907192460387,1512
958.0994409110671,1473
960.3075663553858,1516
962.5150958076741,1442
964.7220294966913,1498
966.928367651274,1484
969.1341105003388,1475
971.3392582728806,1436
973.5438111979742,1472
975.747769504772,1418
977.9511334225061,1434
980.153903180487,1380
982.3560790081052,1426
984.5576611348289,1362
986.7586497902058,1377
988.9590452038618,1320
991.158847605503,1399
993.3580572249133,1342
995.5566742919558,1328
997.7546990365728,1330
999.952131688785,1305
1002.1489724786926,1274
1004.3452216364743,1246
1006.5408793923874,1238
1008.7359459767691,1219
1010.9304216200343,1247
1013.1243065526781,1269
1015.3176010052733,1196
1017.510305208472,1212
1019.7024193930064,1177
1021.8939437896848,1171
1024.0848786293977,1199
1026.2752241431122,1147
1028.4649805618747,1238
1030.6541481168115,1206
1032.842727039127,1127
1035.0307175601051,1139
1037.2181199111074,1235
1039.4049343235752,1158
1041.591161029029,1146
1043.7768002590683,1146
1045.9618522453698,1135
1048.1463172196918,1157
1050.3301954138697,1116
1052.513487059818,1147
1054.69619238953,1163
1056.8783116350783,1145
1059.0598450286152,1070
1061.2407928023704,1121
1063.4211551886528,1157
1065.6009324198508,1121
1067.780124728432,1131
1069.9587323469414,1105
1072.1367555080046,1132
1074.314194444325,1101
1076.4910493886855,1165
1078.667320573947,1079
1080.843008233051,1158
1083.0181125990161,1093
1085.1926339049414,1070
1087.3665723840027,1095
1089.5399282694575,1115
1091.7127017946405,1095
1093.8848931929647,1058
1096.0565026979243,1054
1098.2275305430899,1079
1100.3979769621128,1127
1102.567842188722,1073
1104.737126456726,1102
1106.9058300000124,1052
1109.0739530525475,1044
1111.2414958483764,1037
1113.4084586216231,1073
1115.5748416064907,1058
1117.7406450372605,997
1119.9058691482942,1106
1122.0705141740304,1035
1124.2345803489884,1059
1126.3980679077658,1055
1128.5609770850388,1076
1130.7233081155623,1057
1132.8850612341707,1076
1135.0462366757774,1064
1137.2068346753745,1049
1139.3668554680326,1044
1141.526299288901,1032
1143.68516637321,1068
1145.8434569562655,1062
1148.001171273455,1073
1150.158309560244,1031
1152.3148720521767,1024
1154.470858984876,1026
1156.626270594044,1050
1158.7811071154629,1036
1160.9353687849912,1078
1163.089055838569,1051
1165.242168512213,1067
1167.3947070420209,1050
1169.5466716641677,1069
1171.6980626149075,1005
1173.8488801305748,1008
1175.9991244475814,997
1178.1487958024186,1046
1180.2978944316555,1050
1182.4464205719428,1054
1184.5943744600072,1059
1186.7417563326567,1014
1188.8885664267755,1028
1191.0348049793297,1004
1193.1804722273619,992
1195.325568407995,1042
1197.4700937584303,1008
1199.614048515948,1038
1201.7574329179074,1000
1203.900247201746,1020
1206.042491604982,1002
1208.1841663652099,1013
1210.3252717201053,988
1212.465807907422,1027
1214.6057751649923,1016
1216.7451737307279,1031
1218.8840038426192,990
1221.0222657387353,1100
1223.1599596572241,1045
1225.2970858363137,1082
1227.4336445143094,1066
1229.5696359295966,1022
1231.705060320639,1065
1233.8399179259786,1053
1235.9742089842384,1012
1238.107933734118,978
1240.2410924143974,967
1242.373685263935,1034
1244.5057125216676,1048
1246.6371744266116,1076
1248.7680712178621,1030
1250.898403134593,985
1253.028170416058,1065
1255.1573733015875,1007
1257.2860120305932,1025
1259.4140868425648,1048
1261.54159797707,996
1263.6685456737569,1033
1265.7949301723515,1048
1267.9207517126597,1033
1270.046010534565,1037
1272.1707068780306,1022
1274.2948409830983,1006
1276.4184130898889,1095
1278.541423438603,1021
1280.6638722695184,1004
1282.785759822993,991
1284.9070863394636,1056
1287.0278520594447,1026
1289.1480572235314,1078
1291.2677020723963,1043
1293.3867868467923,1054
1295.5053117875495,1055
1297.623277135579,1007
1299.740683131868,1063
1301.8575300174857,1019
1303.973818033578,1061
1306.0895474213703,1067
1308.2047184221678,1079
1310.3193312773528,1042
1312.4333862283888,1047
1314.5468835168163,1045
1316.659823384255,1090
1318.7722060724045,1042
1320.8840318230418,1015
1322.9953008780249,1042
1325.1060134792888,1101
1327.2161698688478,1060
1329.3257702887959,1055
1331.4348149813054,1045
1333.5433041886276,1018
1335.6512381530933,1038
1337.7586171171101,1135
1339.8654413231675,1037
1341.9717110138317,1063
1344.0774264317488,1082
1346.1825878196432,1047
1348.2871954203192,1080
1350.3912494766587,1074
1352.4947502316231,1034
1354.5976979282532,1081
1356.7000928096686,1065
1358.8019351190665,1072
1360.9032250997243,1056
1363.0039629949988,1071
1365.1041490483235,1035
1367.2037835032133,1028
1369.3028666032606,1069
1371.401398592137,1059
1373.4993797135926,1029
1375.5968102114575,1091
1377.6936903296396,1071
1379.7900203121262,1093
1381.8858004029835,1045
1383.9810308463561,1023
1386.075711886469,1010
1388.1698437676241,1070
1390.2634267342032,1054
1392.356461030667,1081
1394.4489469015557,1051
1396.5408845914872,1130
1398.6322743451592,1097
1400.7231164073469,1058
1402.813411022907,1078
1404.903158436773,1065
1406.9923588939578,1120
1409.0810126395531,1075
1411.1691199187303,1050
1413.2566809767386,1065
1415.343696058907,1054
1417.4301654106425,1047
1419.5160892774315,1056
1421.6014679048399,1042
1423.6863015385125,1062
1425.7705904241707,1077
1427.8543348076178,1028
1429.9375349347342,1098
1432.0201910514802,1103
1434.102303403894,1120
1436.1838722380944,1085
1438.2648978002767,1084
1440.3453803367174,1084
1442.4253200937692,1082
1444.5047173178677,1050
1446.5835722555234,1092
1448.6618851533285,1100
1450.739656257952,1094
1452.8168858161434,1082
1454.8935740747306,1099
1456.96972128062,1104
1459.045327680797,1041
1461.120393522327,1064
1463.1949190523528,1094
1465.2689045180973,1089
1467.3423501668608,1115
1469.415256246024,1066
1471.4876230030463,1093
1473.559450685465,1060
1475.6307395408976,1076
1477.7014898170391,1103
1479.771701761665,1049
1481.8413756226287,1113
1483.9105116478618,1102
1485.9791100853772,1108
1488.0471711832643,1065
1490.1146951896926,1127
1492.1816823529098,1081
1494.2481329212433,1095
1496.3140471430984,1118
1498.3794252669609,1074
1500.4442675413939,1090
1502.5085742150404,1119
1504.572345536622,1118
1506.6355817549388,1113
1508.6982831188702,1068
1510.7604498773744,1122
1512.8220822794883,1107
1514.8831805743293,1072
1516.9437450110909,1057
1519.003775839048,1101
1521.0632733075522,1094
1523.1222376660367,1089
1525.1806691640113,1100
1527.2385680510652,1098
1529.2959345768668,1039
1531.3527689911643,1111
1533.4090715437833,1096
1535.4648424846291,1105
1537.5200820636855,1062
1539.5747905310159,1099
1541.6289681367616,1141
1543.6826151311434,1145
1545.7357317644614,1132
1547.7883182870937,1109
1549.8403749494987,1085
1551.8919020022113,1090
1553.9428996958477,1020
1555.9933682811015,1112
1558.0433080087469,1077
1560.0927191296346,1077
1562.1416018946961,1107
1564.1899565549415,1091
1566.2377833614592,1078
1568.2850825654164,1082
1570.3318544180606,1119
1572.3780991707158,1126
1574.423817074788,1056
1576.4690083817595,1119
1578.5136733431923,1119
1580.5578122107272,1066
1582.601425236085,1051
1584.6445126710646,1057
1586.6870747675434,1090
1588.7291117774776,1121
1590.7706239529034,1056
1592.8116115459347,1107
1594.8520748087658,1051
1596.8920139936686,1027
1598.9314293529933,1075
1600.9703211391711,1056
1603.008689604711,1119
1605.0465350022005,1103
1607.0838575843068,1065
1609.1206576037753,1043
1611.1569353134305,1144
1613.1926909661765,1058
1615.2279248149953,1086
1617.2626371129481,1068
1619.2968281131757,1081
1621.3304980688963,1111
1623.3636472334088,1050
1625.39627586009,1058
1627.428384202396,1139
1629.459972513861,1110
1631.4910410480993,1108
1633.5215900588028,1132
1635.551619799744,1089
1637.5811305247717,1084
1639.6101224878166,1039
1641.6385959428862,1078
1643.6665511440683,1093
1645.693988345528,1105
1647.7209078015112,1063
1649.7473097663405,1115
1651.7731944944203,1135
1653.7985622402307,1088
1655.823413258333,1130
1657.847747803366,1082
1659.8715661300494,1141
1661.8948684931793,1127
1663.9176551476316,1114
1665.9399263483624,1107
1667.9616823504057,1080
1669.982923408873,1093
1672.0036497789574,1126
1674.0238617159293,1115
1676.043559475138,1139
1678.0627433120121,1094
1680.081413482059,1066
1682.0995702408654,1087
1684.117213844096,1116
1686.134344547495,1097
1688.1509626068864,1127
1690.1670682781705,1098
1692.182661817329,1138
1694.1977434804217,1106
1696.2123135235875,1098
1698.226372203043,1064
1700.2399197750851,1086
1702.2529564960905,1093
1704.2654826225112,1069
1706.277498410882,1099
1708.2890041178139,1112
1710.2999999999988,1102
1712.3104863142066,1058
1714.3204633172854,1088
1716.329931266163,1108
1718.3388904178469,1059
1720.3473410294214,1092
1722.3552833580516,1156
1724.3627176609807,1129
1726.3696441955308,1090
1728.3760632191033,1062
1730.3819749891782,1108
1732.3873797633146,1081
1734.3922777991502,1079
1736.3966693544012,1134
1738.4005546868639,1080
1740.4039340544127,1089
1742.406807715001,1083
1744.4091759266616,1123
1746.4110389475054,1134
1748.4123970357223,1128
1750.413250449582,1072
1752.4135994474318,1068
1754.4134442876993,1071
1756.4127852288902,1141
1758.4116225295893,1075
1760.4099564484595,1090
1762.407787244244,1052
1764.405115175764,1090
1766.4019405019203,1118
1768.3982634816916,1129
1770.3940843741357,1089
1772.3894034383907,1054
1774.3842209336717,1120
1776.378537119274,1081
1778.372352254571,1084
1780.3656665990156,1089
1782.3584804121397,1095
1784.3507939535534,1100
1786.3426074829463,1108
1788.3339212600863,1090
1790.3247355448211,1128
1792.3150505970766,1104
1794.3048666768573,1090
1796.2941840442477,1054
1798.2830029594106,1108
1800.2713236825884,1095
1802.2591464741004,1105
1804.2464715943465,1065
1806.2332993038058,1080
1808.2196298630352,1094
1810.2054635326708,1084
1812.190800573428,1068
1814.175641246101,1060
1816.1599858115628,1126
1818.1438345307652,1110
1820.127187664738,1128
1822.1100454745924,1065
1824.092408221516,1084
1826.0742761667766,1095
1828.055649571721,1096
1830.0365286977735,1101
1832.0169138064398,1107
1833.9968051593014,1102
1835.9762030180214,1125
1837.9551076443408,1134
1839.9335193000788,1084
1841.9114382471344,1118
1843.888864747485,1088
1845.8657990631878,1118
1847.842241456378,1127
1849.8181921892697,1118
1851.7936515241558,1074
1853.7686197234098,1135
1855.7430970494815,1105
1857.7170837649014,1082
1859.6905801322787,1125
1861.6635864143004,1086
1863.6361028737338,1086
1865.608129773424,1111
1867.5796673762961,1083
1869.5507159453537,1078
1871.521275743678,1094
1873.4913470344313,1104
1875.4609300808534,1119
1877.4300251462632,1111
1879.3986324940588,1102
1881.366752387717,1074
1883.3343850907936,1105
1885.3015308669228,1139
1887.268189979819,1094
1889.2343626932739,1116
1891.2000492711595,1085
1893.1652499774254,1138
1895.1299650761011,1050
1897.0941948312952,1105
1899.0579395071945,1084
1901.0211993680641,1097
1902.98397467825,1132
1904.9462657021745,1108
1906.9080727043415,1129
1908.869395949332,1114
1910.8302357018065,1086
1912.790592226504,1077
1914.7504657882428,1095
1916.7098566519212,1096
1918.6687650825133,1109
1920.6271913450764,1077
1922.5851357047422,1093
1924.5425984267245,1076
1926.499579776314,1072
1928.4560800188833,1048
1930.4120994198802,1083
1932.367638244833,1103
1934.32269675935,1104
1936.2772752291175,1077
1938.231373919899,1127
1940.1849930975404,1108
1942.1381330279637,1103
1944.0907939771696,1083
1946.0429762112412,1073
1947.9946799963363,1074
1949.9459055986945,1120
1951.896653284633,1138
1953.8469233205478,1079
1955.7967159729142,1083
1957.7460315082863,1095
1959.6948701932974,1097
1961.6432322946594,1141
1963.5911180791632,1085
1965.5385278136787,1100
1967.4854617651545,1100
1969.4319202006182,1102
1971.377903387176,1082
1973.3234115920136,1104
1975.268445082395,1073
1977.2130041256642,1094
1979.1570889892423,1118
1981.1006999406304,1124
1983.04383724741,1115
1984.986501177238,1103
1986.928691997853,1097
1988.8704099770712,1150
1990.811655382789,1127
1992.7524284829801,1108
1994.692729545698,1107
1996.6325588390755,1125
1998.5719166313224,1083
2000.5108031907307,1148
2002.4492187856677,1105
2004.387163684583,1095
2006.3246381560011,1107
2008.2616424685298,1104
2010.1981768908527,1156
2012.1342416917332,1055
2014.069837140014,1089
2016.0049635046162,1065
2017.9396210545406,1073
2019.8738100588666,1097
2021.8075307867502,1054
2023.740783507431,1130
2025.6735684902228,1152
2027.6058860045214,1116
2029.5377363198004,1112
2031.4691197056118,1103
2033.4000364315875,1073
2035.3304867674374,1125
2037.260470982952,1075
2039.189989347998,1095
2041.1190421325232,1079
2043.047629606554,1120
2044.9757520401945,1173
2046.9034097036288,1091
2048.8306028671195,1070
2050.7573318010086,1103
2052.683596775716,1109
2054.609398061742,1104
2056.5347359296647,1147
2058.4596106501403,1117
2060.384022493906,1088
2062.3079717317764,1095
2064.231458634646,1077
2066.1544834734873,1118
2068.077046519352,1095
2069.99914804337,1077
2071.9207883167524,1062
2073.8419676107865,1058
2075.7626861968406,1099
2077.6829443463607,1088
2079.6027423308715,1118
2081.522080421977,1094
2083.440958891362,1102
2085.359378010786,1078
2087.2773380520907,1125
2089.194839287196,1123
2091.111881988101,1113
2093.0284664268825,1113
2094.9445928756973,1082
2096.86026160678,1104
2098.775472892446,1128
2100.690227005088,1126
2102.604524217178,1139
2104.5183648012676,1109
2106.431749029985,1076
2108.34467717604,1120
2110.2571495122206,1095
2112.169166311393,1100
2114.080727846503,1075
2115.9918343905747,1058
2117.902486216711,1063
2119.8126835980956,1150
2121.722426807987,1160
2123.6317161197285,1127
2125.5405518067364,1117
2127.448934142509,1154
2129.356863400624,1102
2131.264339854737,1133
2133.1713637785815,1136
2135.077935445972,1142
2136.9840551308002,1096
2138.889723107037,1126
2140.7949396487334,1155
2142.699705030018,1137
2144.6040195250994,1138
2146.507883408264,1137
2148.4112969538774,1101
2150.3142604363848,1129
2152.2167741303097,1128
2154.1188383102535,1113
2156.0204532508997,1140
2157.9216192270064,1122
2159.822336513414,1108
2161.7226053850413,1138
2163.622426116884,1148
2165.5217989840185,1134
2167.4207242616,1141
2169.319202224862,1138
2171.2172331491165,1128
2173.1148173097563,1120
2175.0119549822507,1142
2176.90864644215,1155
2178.8048919650823,1059
2180.7006918267534,1111
2182.596046302952,1108
2184.4909556695407,1124
2186.3854202024645,1114
2188.279440177746,1187
2190.173015871487,1127
2192.066147559868,1132
2193.958835519149,1122
2195.851080025667,1105
2197.7428813558417,1140
2199.6342397861667,1134
2201.5251555932186,1138
2203.415629053651,1110
2205.3056604441986,1116
2207.19525004167,1157
2209.084398122958,1123
2210.9731049650327,1084
2212.861370844941,1108
2214.749196039812,1127
2216.636580826851,1148
2218.523525483344,1140
2220.410030286655,1120
2222.296095514226,1147
2224.1817214435805,1108
2226.066908352319,1208
2227.951656518121,1149
2229.835966218746,1153
2231.71983773203,1184
2233.6032713358913,1144
2235.486267308324,1124
2237.3688259274036,1138
2239.2509474712824,1135
2241.132632218193,1133
2243.013880446447,1176
2244.8946924344323,1177
2246.7750684606203,1164
2248.6550088035574,1132
2250.534513741871,1147
2252.413583554265,1170
2254.292218519526,1133
2256.170418916517,1177
2258.0481850241786,1138
2259.925517121534,1126
2261.8024154876825,1187
2263.678880401803,1120
2265.5549121431536,1138
2267.430510991071,1172
2269.305677224971,1126
2271.180411124348,1122
2273.0547129687766,1170
2274.9285830379076,1131
2276.8020216114737,1133
2278.6750289692845,1139
2280.5476053912294,1100
2282.4197511572766,1153
2284.2914665474727,1191
2286.162751841943,1190
2288.0336073208937,1219
2289.904033264608,1201
2291.774029953448,1174
2293.6435976678554,1150
2295.5127366883517,1115
2297.381447295534,1129
2299.2497297700825,1100
2301.1175843927526,1082
2302.9850114443825,1086
2304.852011205885,1019
2306.7185839582553,1032
2308.5847299825664,1052
2310.4504495599676,1032
2312.3157429716925,990
2314.1806104990483,957
2316.0450524234247,1044
2317.9090690262888,1000
2319.772660589186,984
2321.635827393742,1000
2323.498569721661,1022
2325.3608878547248,970
2327.2227820747967,1044
2329.0842526638157,940
2330.945299903803,1004
2332.805924076857,1011
2334.6661254651535,957
2336.525904350951,960
2338.3852610165827,986
2340.244195744464,951
2342.102708817088,977
2343.9608005170253,980
2345.8184711269287,948
2347.675720929526,953
2349.532550207628,961
2351.38895924412,1018
2353.24494832197,955
2355.100517724223,994
2356.955667734004,955
2358.810398634514,969
2360.664710709037,967
2362.5186042409337,980
2364.3720795136437,952
2366.225136810686,958
2368.0777764156583,985
2369.929998612237,987
2371.7818036841777,955
2373.633191915315,972
2375.484163589562,1004
2377.3347189909114,998
2379.184858403434,999
2381.03458211128,952
2382.8838903986775,980
2384.732783549936,966
2386.5812618494406,1003
2388.4293255816588,981
2390.2769750311327,987
2392.1242104824883,999
2393.971032220427,977
2395.8174405297295,974
2397.6634356952563,1023
2399.509018001947,1002
2401.3541877348193,1024
2403.1989451789705,978
2405.043290619576,991
2406.8872243418905,961
2408.730746631247,1006
2410.5738577730594,973
2412.4165580528183,997
2414.258847756095,975
2416.100727168537,1015
2417.9421965758734,1035
2419.783256263912,1024
2421.623906518538,984
2423.4641476257157,985
2425.303979871491,1005
2427.143403541984,984
2428.9824189233977,989
2430.821026302012,982
2432.6592259641866,991
2434.497018196361,1039
2436.33440328505,1002
2438.171381516851,1003
2440.00795317844,999
2441.844118556569,986
2443.6798779380724,987
2445.5152316098606,1031
2447.3501798589255,1020
2449.1847229723357,958
2451.0188612372403,1014
2452.8525949408663,1021
2454.6859243705203,1043
2456.518849813587,972
2458.3513715575314,1016
2460.183489889895,975
2462.015205098301,982
2463.8465174704493,972
2465.67742729412,995
2467.5079348571717,995
2469.338040447542,987
2471.1677443532476,977
2472.9970468623833,1013
2474.825948263123,997
2476.6544488437207,999
2478.482548892508,962
2480.310248697896,956
2482.137548548374,965
2483.9644487325118,959
2485.790949538956,1010
2487.617051256433,1003
2489.44275417375,998
2491.26805857979,973
2493.0929647635157,948
2494.917473013971,968
2496.741583620276,961
2498.5652968716304,942
2500.3886130573137,951
2502.2115324666834,981
2504.0340553891765,1000
2505.856182114308,1007
2507.6779129316733,1009
2509.499248130945,976
2511.3201880018764,1006
2513.140732834298,1038
2514.9608829181198,1006
2516.780638543331,945
2518.6,1003
2520.418967578273,979
2522.237541568376,981
2524.0557222606144,961
2525.8735099453706,991
2527.6909049131086,991
2529.507907454368,977
2531.32451785977,974
2533.140736420014,1012
2534.9565634258774,985
2536.771999168218,969
2538.5870439379714,937
2540.4016980261526,995
2542.2159617238544,987
2544.02983532225,952
2545.8433191125914,958
2547.656413386209,1042
2549.4691184345115,1020
2551.2814345489874,982
2553.093362021204,980
2554.904901142808,984
2556.716052205523,937
2558.526815501153,961
2560.3371913215824,986
2562.147179958771,944
2563.956781704761,977
2565.7659968516705,970
2567.5748256916986,992
2569.3832685171224,993
2571.1913256202984,992
2572.9989972936614,966
2574.806283829725,1013
2576.613185521084,961
2578.4197026604074,1012
2580.2258355404483,917
2582.031584454035,966
2583.836949694077,962
2585.6419315535613,953
2587.4465303255533,987
2589.2507463032002,936
2591.0545797797245,961
2592.8580310484303,981
2594.6611004026995,989
2596.463788135992,957
2598.266094541849,991
2600.0680199138874,959
2601.869564545807,974
2603.670728731383,952
2605.4715127644704,977
2607.2719169390048,1002
2609.071941548998,997
2610.8715868885433,967
2612.670853251811,957
2614.469740933052,976
2616.268250226594,1006
2618.0663814268455,996
2619.864134828292,923
2621.6615107255006,908
2623.458509413115,953
2625.2551311858597,945
2627.0513763385347,937
2628.8472451660223,948
2630.6427379632833,1020
2632.4378550253564,956
2634.232596647359,939
2636.026963124488,975
2637.8209547520187,958
2639.6145718253065,986
2641.407814639785,988
2643.200683490966,964
2644.9931786744414,973
2646.7853004858807,1015
2648.577049221034,951
2650.3684251757277,985
2652.1594286458712,986
2653.9500599274484,949
2655.740319316525,960
2657.5302071092437,963
2659.3197236018286,933
2661.10886909058,994
2662.8976438718782,960
2664.686048242183,1008
2666.4740824980327,980
2668.2617469360443,1015
2670.0490418529134,973
2671.8359675454153,953
2673.622524310403,998
2675.408712444811,982
2677.1945322456495,966
2678.979984010009,955
2680.76506803506,995
2682.5497846180497,1025
2684.334134056306,953
2686.1181166472343,974
2687.9017326883213,934
2689.6849824771293,959
2691.4678663113013,999
2693.2503844885596,930
2695.032537306705,988
2696.8143250636167,1012
2698.5957480572542,958
2700.3768065856534,989
2702.1575009469316,937
2703.937831439283,983
2705.717798360982,946
2707.4974020103837,976
2709.276642685917,965
2711.055520686095,948
2712.834036309506,969
2714.612189854819,959
2716.389981620782,910
2718.1674119062204,993
2719.944481010041,962
2721.721189231226,943
2723.4975368688415,969
2725.273524222027,965
2727.0491515900053,957
2728.824419272075,970
2730.5993275676146,976
2732.3738767760838,1014
2734.148067197016,979
2735.921899130031,1003
2737.6953728748194,989
2739.468488731156,1006
2741.2412469988926,958
2743.0136479779617,984
2744.785691968372,976
2746.5573792702116,949
2748.3287101836504,988
2750.099685008934,1001
2751.870304046388,958
2753.640567596418,1003
2755.4104759595057,966
2757.1800294362156,1058
2758.949228327187,993
2760.7180729331412,1002
2762.486563554877,998
2764.254700493272,995
2766.022484049284,969
2767.789914523947,925
2769.5569922183786,937
2771.3237174337705,1001
2773.090090471394,918
2774.8561116326036,988
2776.6217812188274,937
2778.3870995315756,957
2780.1520668724356,956
2781.9166835430747,991
2783.6809498452394,958
2785.444866080754,1006
2787.2084325515225,1003
2788.971649559527,959
2790.73451740683,996
2792.4970363955713,1003
2794.2592068279705,972
2796.0210290063264,967
2797.7825032330147,1017
2799.543629810493,978
2801.304409041296,999
2803.0648412280366,1004
2804.8249266734088,985
2806.5846656801846,998
2808.344058551212,980
2810.1031055894246,1004
2811.8618070978273,976
2813.6201633795085,1001
2815.378174737636,1001
2817.1358414754536,985
2818.893163896285,946
2820.6501423035334,1001
2822.4067770006814,1008
2824.1630682912883,983
2825.9190164789957,961
2827.6746218675207,978
2829.429884760661,1003
2831.184805462294,975
2832.9393842763743,1006
2834.693621506936,986
2836.4475174580916,1030
2838.201072434034,974
2839.954286739034,965
2841.707160677441,957
2843.459694553685,968
2845.2118886722724,1007
2846.96374333779,1024
2848.7152588549034,1017
2850.4664355283567,982
2852.217273662973,991
2853.9677735636546,967
2855.7179355353833,960
2857.4677598832186,997
2859.217246912299,978
2860.9663969278427,978
2862.715210235146,1018
2864.4636871395846,979
2866.211827946614,991
2867.9596329617652,1000
2869.7071024906536,983
2871.4542368389684,984
2873.20103631248,973
2874.947501217038,989
2876.6936318585695,963
2878.4394285430812,999
2880.1848915766604,1001
2881.9300212654707,955
2883.6748179157553,1050
2885.4192818338374,965
2887.1634133261173,970
2888.907212699077,969
2890.6506802592744,983
2892.393816313348,970
2894.1366211680142,984
2895.8790951300693,1016
2897.621238506388,1010
2899.363051603925,1012
2901.1045347297118,978
2902.8456881908596,1003
2904.58651229456,982
2906.327007348081,1033
2908.067173658772,1019
2909.8070115340597,987
2911.5465212814497,966
2913.285703208527,984
2915.0245576229563,961
2916.7630848324807,967
2918.5012851449196,973
2920.2391588681758,1012
2921.976706310227,973
2923.7139277791334,955
2925.4508235830313,975
2927.187394030137,993
2928.923639428745,956
2930.6595600872306,963
2932.395156314046,992
2934.1304284177218,965
2935.8653767068713,981
2937.6000014901815,971
2939.3343030764227,1004
2941.068281774442,973
2942.8019378931644,1031
2944.5352717415976,1004
2946.2682836288236,1016
2948.0009738640065,1018
2949.7333427563885,977
2951.465390615289,1007
2953.1971177501086,1006
2954.9285244703265,977
2956.6596110855,991
2958.3903779052657,1031
2960.1208252393385,1008
2961.8509533975125,984
2963.5807626896617,1000
2965.3102534257378,952
2967.0394259157715,984
2968.768280469873,969
2970.496817398232,987
2972.2250370111146,982
2973.952939618869,1014
2975.6805255319196,1016
2977.4077950607707,988
2979.134748516006,994
2980.861386208289,964
2982.587708448359,1036
2984.313715547037,1029
2986.039407815222,1000
2987.764785563891,1034
2989.489849104102,983
2991.2145987469908,977
2992.9390348037705,970
2994.6631575857346,1001
2996.3869674042576,987
2998.1104645707887,979
2999.83364939686,979
3001.5565221940783,972
3003.2790832741334,994
3005.0013329487924,965
3006.7232715298996,987
3008.4448993293804,952
3010.166216659239,954
3011.887223831558,990
3013.607921158498,1019
3015.3283089522993,1020
3017.0483875252826,958
3018.7681571898443,1023
3020.4876182584626,1012
3022.2067710436927,986
3023.9256158581707,986
3025.644153014609,985
3027.362382825801,968
3029.0803056046193,1002
3030.797921664012,982
3032.5152313170106,989
3034.2322348767225,950
3035.9489326563353,986
3037.665324969115,947
3039.3814121284063,935
3041.097194447633,947
3042.812672240299,949
3044.5278458199855,989
3046.2427155003525,963
3047.9572815951406,975
3049.671544418167,1005
3051.38550428333,989
3053.0991615046073,989
3054.812516396051,992
3056.5255692717974,994
3058.2383204460575,1007
3059.9507702331257,934
3061.662918947372,958
3063.3747669032446,989
3065.0863144152736,962
3066.7975617980674,960
3068.508509366309,988
3070.219157434767,974
3071.9295063182844,975
3073.639556331785,977
3075.3493077902704,958
3077.058761008821,965
3078.7679163025964,919
3080.476773986837,995
3082.1853343768594,954
3083.89359778806,976
3085.6015645359153,961
3087.3092349359786,988
3089.016609303884,980
3090.7236879553434,994
3092.4304712061476,951
3094.136959372166,983
3095.843152769349,980
3097.5490517137237,930
3099.2546565213966,990
3100.959967508554,978
3102.66498499146,992
3104.3697092864577,949
3106.0741407099695,952
3107.778279578498,953
3109.482126208622,967
3111.1856809170004,969
3112.8889440203716,982
3114.5919158355528,987
3116.294596679439,1017
3117.996986869006,1012
3119.6990867213062,950
3121.4008965534726,984
3123.102416682717,976
3124.803647426329,931
3126.5045891016784,948
3128.205242026213,981
3129.90560651746,973
3131.605682893025,973
3133.3054714705922,989
3135.0049725679282,975
3136.7041865028714,976
3138.4031135933465,966
3140.101754157353,973
3141.800108512971,968
3143.498176978357,1008
3145.1959598717494,1004
3146.8934575114636,933
3148.5906702158954,942
3150.2875983035183,936
3151.9842420928853,932
3153.680601902627,966
3155.376678051456,964
3157.07247085816,941
3158.767980641609,960
3160.463207720748,973
3162.158152414606,959
3163.8528150422862,952
3165.5471959229726,971
3167.2412953759303,996
3168.9351137204976,951
3170.628651276098,958
3172.3219083622307,955
3174.014885298474,982
3175.707582404485,987
3177.4000000000005,997
3179.092138404835,979
3180.7839979388846,960
3182.47557892212,979
3184.166881674594,982
3185.8579065164386,918
3187.5486537678626,982
3189.2391237491547,960
3190.9293167806827,1000
3192.6192331828934,1001
3194.3088732763117,1021
3195.998237381542,987
3197.687325819268,976
3199.376138910251,944
3201.064676975334,961
3202.7529403354347,977
3204.4409293115523,960
3206.1286442247647,1017
3207.816085396229,925
3209.5032531471825,949
3211.190147798936,984
3212.8767696728846,984
3214.5631190905015,957
3216.2491963733373,957
3217.9350018430214,942
3219.6205358212637,938
3221.305798629851,953
3222.990790590651,955
3224.6755120256103,942
3226.359963256751,984
3228.0441446061795,970
3229.7280563960758,914
3231.411698948703,926
3233.0950725863995,918
3234.778177631587,932
3236.461014406761,940
3238.1435832345005,976
3239.8258844374595,1007
3241.507918338374,991
3243.1896852600576,1006
3244.8711855254023,943
3246.552419457381,958
3248.233387379042,966
3249.914089613516,939
3251.59452648401,979
3253.274698313813,945
3254.95460542629,935
3256.6342481448855,990
3258.313626793125,992
3259.9927416946084,928
3261.6715931730196,955
3263.3501815521176,948
3265.0285071557437,976
3266.706570307815,928
3268.3843713323286,952
3270.0619105533615,920
3271.739188295068,962
3273.4162048816834,957
3275.0929606375184,910
3276.769455886966,956
3278.445690954498,957
3280.1216661646613,1006
3281.797381842087,992
3283.4728383114807,948
3285.1480358976296,981
3286.8229749253996,987
3288.4976557197333,943
3290.172078605655,985
3291.846243908266,956
3293.5201519527463,948
3295.193803064357,959
3296.8671975684374,920
3298.5403357904024,942
3300.21321805575,979
3301.8858446900567,969
3303.558216018975,976
3305.23033236824,956
3306.9021940636603,1000
3308.57380143113,979
3310.2451547966184,963
3311.916254486174,969
3313.5871008259246,949
3315.2576941420766,963
3316.9280347609147,964
3318.5981230088046,1007
3320.2679592121895,969
3321.9375436975924,922
3323.606876791612,930
3325.27595882093,943
3326.944790112305,989
3328.6133709925753,1017
3330.2817017886573,947
3331.949782827547,943
3333.617614436319,991
3335.2851969421245,998
3336.952530672199,989
3338.619615953853,958
3340.286453114475,964
3341.9530424815357,990
3343.619384382583,990
3345.2854791452437,1030
3346.951327097224,999
3348.6169285663073,948
3350.2822838803577,1017
3351.947393367319,951
3353.61225735521,977
3355.2768761721345,944
3356.9412501462693,958
3358.605379605873,982
3360.2692648792827,1004
3361.9329062949146,990
3363.596304181263,979
