CollectionTime,7/3/2024 2:41:38 PM
ExposureUsed,3
CalibratedSpectrum
-962.7078968117929,423
-959.9714848408522,451
-957.2358232597828,469
-954.5009119013725,448
-951.7667505983302,434
-949.0333391832855,425
-946.3006774887896,493
-943.5687653473143,485
-940.837602591253,469
-938.1071890529199,443
-935.3775245645503,429
-932.6486089583007,460
-929.9204420662485,459
-927.1930237203925,450
-924.4663537526524,446
-921.7404319948689,451
-919.0152582788041,486
-916.2908324361409,546
-913.5671542984834,491
-910.8442236973568,465
-908.1220404642074,460
-905.4006044304027,466
-902.679915427231,463
-899.959973285902,448
-897.2407778375464,452
-894.5223289132158,443
-891.8046263438832,456
-889.0876699604426,424
-886.3714595937089,456
-883.6559950744183,443
-880.9412762332282,439
-878.2273029007168,446
-875.5140749073835,432
-872.8015920836489,446
-870.0898542598545,460
-867.3788612662631,439
-864.6686129330585,449
-861.9591090903457,444
-859.2503495681506,429
-856.5423341964203,430
-853.8350628050229,459
-851.1285352237478,441
-848.4227512823054,449
-845.7177108103272,449
-843.0134136373656,455
-840.3098595928943,462
-837.6070485063082,489
-834.9049802069229,497
-832.2036545239757,472
-829.5030712866244,478
-826.8032303239481,465
-824.1041314649472,444
-821.4057745385428,447
-818.7081593735775,463
-816.0112857988148,439
-813.3151536429393,438
-810.6197627345566,462
-807.9251129021936,456
-805.2312039742981,454
-802.5380357792392,466
-799.8456081453069,452
-797.1539209007124,486
-794.462973873588,489
-791.772766891987,467
-789.083299783884,456
-786.3945723771743,459
-783.7065844996748,442
-781.0193359791231,431
-778.3328266431781,440
-775.6470563194197,449
-772.9620248353489,452
-770.2777320183878,462
-767.5941776958798,512
-764.9113616950891,466
-762.2292838432011,480
-759.5479439673222,461
-756.8673418944801,470
-754.1874774516235,482
-751.5083504656222,497
-748.8299607632671,507
-746.15230817127,476
-743.475392516264,475
-740.7992136248035,469
-738.1237713233636,496
-735.4490654383407,477
-732.7750957960521,484
-730.1018622227365,510
-727.4293645445534,452
-724.7576025875837,456
-722.0865761778291,460
-719.4162851412126,497
-716.7467293035781,524
-714.0779084906909,491
-711.409822528237,498
-708.7424712418238,480
-706.0758544569796,533
-703.4099719991541,496
-700.7448236937178,495
-698.0804093659622,513
-695.4167288411002,500
-692.7537819442656,485
-690.0915685005134,479
-687.4300883348199,447
-684.7693412720819,495
-682.1093271371178,473
-679.4500457546669,470
-676.7914969493897,474
-674.1336805458676,451
-671.4765963686034,494
-668.8202442420206,500
-666.1646239904642,518
-663.5097354382001,504
-660.8555784094151,482
-658.2021527282176,497
-655.5494582186366,529
-652.8974947046223,518
-650.2462620100463,499
-647.5957599587009,485
-644.9459883742998,516
-642.2969470804776,546
-639.6486359007902,529
-637.0010546587141,528
-634.3542031776476,516
-631.7080812809096,525
-629.0626887917401,558
-626.4180255333008,532
-623.7740913286734,525
-621.1308860008619,571
-618.4884093727904,543
-615.8466612673046,525
-613.2056415071715,537
-610.5653499150785,531
-607.9257863136347,541
-605.28695052537,546
-602.6488423727357,548
-600.0114616781036,538
-597.3748082637674,524
-594.7388819519412,532
-592.1036825647604,591
-589.4692099242818,606
-586.8354638524829,590
-584.2024441712624,520
-581.5701507024403,602
-578.9385832677575,599
-576.3077416888759,543
-573.6776257873787,544
-571.0482353847704,563
-568.4195703024757,566
-565.7916303618415,544
-563.164415384135,564
-560.5379251905453,551
-557.9121596021815,558
-555.2871184400748,590
-552.6628015251767,545
-550.0392086783606,597
-547.4163397204204,564
-544.794194472071,565
-542.1727727539491,568
-539.5520743866118,619
-536.9320991905377,652
-534.3128469861261,614
-531.6943175936979,607
-529.0765108334947,649
-526.4594265256793,674
-523.8430644903358,773
-521.2274245474689,882
-518.612506517005,1067
-515.9983102187913,1096
-513.3848354725959,1333
-510.77208209810846,1528
-508.16004991493924,1507
-505.5487387426199,1456
-502.9381484006032,1340
-500.3282787082628,1111
-497.71912948489364,916
-495.1107005497117,816
-492.5029917218539,716
-489.8960028203786,662
-487.28973366426493,645
-484.68418407241325,684
-482.07935386364494,660
-479.47524285670266,627
-476.87185087025,647
-474.2691777228715,637
-471.66722323307334,655
-469.0659872192821,649
-466.4654694998459,670
-463.86566989303384,672
-461.26658821703614,685
-458.66822428996414,661
-456.07057792985,695
-453.4736489546475,661
-450.877437182231,650
-448.28194243039627,629
-445.68716451686,661
-443.09310325926003,659
-440.49975847515555,627
-437.9071299820263,653
-435.31521759727354,661
-432.72402113821954,705
-430.13354042210767,713
-427.5437752661022,689
-424.95472548728867,723
-422.36639090267386,708
-419.7787713291855,778
-417.1918665836721,763
-414.60567648290385,766
-412.0202008435715,732
-409.4354394822874,675
-406.8513922155845,727
-404.26805885991723,769
-401.685439231661,744
-399.103533147112,749
-396.522340422488,768
-393.9418608739278,702
-391.3620943174908,674
-388.7830405691583,714
-386.2046994448317,680
-383.6270707603344,680
-381.05015433141045,673
-378.473949973725,620
-375.8984575028645,617
-373.32367673433623,598
-370.74960748356875,613
-368.1762495659117,593
-365.60360279663576,513
-363.03166699093265,498
-360.4604419639154,551
-357.8899275306178,515
-355.32012350599507,509
-352.7510297049233,511
-350.1826459421999,440
-347.61497203254316,445
-345.04800779059235,495
-342.4817530309082,483
-339.91620756797226,501
-337.35137121618743,557
-334.7872437898774,648
-332.22382510328725,565
-329.66111497058273,492
-327.09911320585127,479
-324.53781962310075,490
-321.9772340362607,535
-319.4173562591816,495
-316.8581861056348,550
-314.2997233893127,482
-311.7419679238294,492
-309.1849195227194,509
-306.62857799943856,540
-304.0729431673641,539
-301.51801483979375,560
-298.963792829947,531
-296.41027695096386,519
-293.85746701590574,536
-291.3053628377552,531
-288.7539642294155,587
-286.2032710037115,622
-283.65328297338897,589
-281.1039999511146,586
-278.5554217494762,596
-276.007548180983,621
-273.4603790580651,644
-270.9139141930734,613
-268.3681533982807,585
-265.8230964858798,591
-263.27874326798565,616
-260.7350935566336,607
-258.1921471637804,624
-255.6499039013039,592
-253.10836358100266,603
-250.56752601459698,621
-248.02739101372765,713
-245.48795838995704,714
-242.94922795476816,637
-240.41119951956557,617
-237.8738728956746,689
-235.33724789434166,675
-232.80132432673452,663
-230.2661020039418,602
-227.73158073697357,546
-225.19776033676033,646
-222.66464061415422,724
-220.1322213799284,728
-217.60050244477725,608
-215.06948361931552,598
-212.53916471408013,676
-210.00954553952818,710
-207.48062590603843,688
-204.9524056239104,627
-202.4248845033651,714
-199.8980623545441,737
-197.37193898751036,775
-194.84651421224817,695
-192.32178783866232,696
-189.79775967657952,739
-187.27442953574644,813
-184.7517972258321,809
-182.2298625564256,836
-179.7086253370378,874
-177.18808537710026,811
-174.66824248596583,783
-172.14909647290835,871
-169.6306471471229,866
-167.11289431772548,764
-164.59583779375328,795
-162.07947738416453,852
-159.5638128978386,981
-157.04884414357605,1092
-154.53457093009854,1286
-152.02099306604828,1062
-149.50811035998936,906
-146.99592262040665,922
-144.48442965570587,996
-141.97363127421409,1251
-139.46352728417958,1416
-136.95411749377126,1404
-134.44540171107985,1216
-131.93737974411636,1027
-129.43005140081357,941
-126.92341648902493,1169
-124.41747481652521,1410
-121.91222619101006,1822
-119.40767042009657,2619
-116.90380731132257,2940
-114.40063667214702,2597
-111.8981583099503,2036
-109.3963720320337,1418
-106.89527764561933,1238
-104.39487495785067,1639
-101.89516377579241,3001
-99.39614390642998,4309
-96.89781515667039,3681
-94.40017733334128,4013
-91.90323024319173,5628
-89.40697369289148,9746
-86.91140748903172,12367
-84.41653143812482,9954
-81.92234534660395,6322
-79.42884902082358,4604
-76.93604226705907,9895
-74.4439248915071,20608
-71.95249670028534,27751
-69.46175749943245,29633
-66.97170709490854,25370
-64.48234529259423,21719
-61.99367189829195,19320
-59.50568671772464,21027
-57.01838955653636,21925
-54.53178022029283,20293
-52.045858514480074,17700
-49.560624244506016,16222
-47.07607721569923,13928
-44.59221723330904,14529
-42.10904410250669,15810
-39.62655762838392,14612
-37.14475761595372,12124
-34.66364387015028,11871
-32.18321619582866,10352
-29.70347439776515,8966
-27.224418280657005,9141
-24.74604764912317,10798
-22.26836230770266,16711
-19.7913620608565,33571
-17.315046712966478,64104
-14.83941606833514,65040
-12.36446993118659,65040
-9.89020810566592,65040
-7.416630395839093,65040
-4.94373660569363,65040
-2.471526539137585,65040
-6.821210263296962E-13,65040
2.47084320796705,65040
4.941003281093458,65040
7.410480415786196,65040
9.879274808531363,65040
12.347386655893956,65040
14.814816154518212,65040
17.28156350112681,65040
19.74762889252179,65040
22.21301252558385,65040
24.67771459727237,20577
27.141735304626195,4105
29.605074844762612,3020
32.06773341487792,2844
34.52971121224755,2378
36.99100843422559,2244
39.45162527824516,2229
41.91156194181792,2007
44.370818622535126,1743
46.82939551806646,1533
49.287292826160524,2050
51.74451074464503,2536
54.201049471426245,2294
56.65690920448981,1939
59.112090141899785,1891
61.56659248179983,1703
64.02041642241159,1584
66.4735621620365,1408
68.92602989905402,1155
71.37781983192338,1242
73.82893215918205,1374
76.27936707944684,1419
78.72912479141326,1400
81.17820549385567,1606
83.62660938562783,1678
86.07433666566146,1800
88.5213875329681,1436
90.96776218663751,1322
93.41346082583925,1176
95.85848364982041,1347
98.30283085790859,1306
100.7465026495089,1256
103.18949922410604,1332
105.63182078126385,1324
108.07346752062438,1469
110.51443964190923,1277
112.95473734491827,1036
115.39436082953114,1056
117.83331029570547,1071
120.27158594347827,978
122.7091879729652,1083
125.1461165843615,1222
127.58237197794062,1047
130.01795435405518,1011
132.4528639131364,1059
134.88710085569494,1074
137.32066538231982,916
139.75355769367923,985
142.1857779905207,965
144.61732647366978,907
147.04820334403132,845
149.47840880258934,789
151.90794305040674,901
154.33680628862487,882
156.76499871846443,988
159.19252054122433,1001
161.61937195828352,1149
164.04555317109896,1383
166.47106438120693,1398
168.89590579022217,1366
171.320077599839,1398
173.7435800118302,1420
176.16641322804742,1483
178.58857745042144,1600
181.01007288096173,1610
183.43089972175687,1657
185.85105817497413,1658
188.27054844285988,1681
190.6893707277394,1548
193.10752523201643,1594
195.5250121581745,1580
197.9418317087751,1637
200.3579840864594,1665
202.7734694939469,1689
205.18828813403627,1710
207.6024402096051,1822
210.01592592360964,1749
212.42874547908548,1736
214.84089907914665,1832
217.2523869269868,1744
219.66320922587727,1800
222.0733661791695,1749
224.48285799029293,1734
226.8916848627572,1785
229.29984700014882,1760
231.7073446061355,1728
234.11417788446204,1744
236.520347038953,1800
238.92585227351185,1732
241.33069379212054,1754
243.73487179884035,1783
246.1383864978112,1716
248.541238093252,1820
250.9434267894609,1779
253.34495279081432,1747
255.74581630176783,1773
258.1460175268563,1743
260.54555667069314,1748
262.9444339379703,1620
265.3426495334594,1634
267.7402036620107,1713
270.1370965285529,1799
272.53332833809407,1839
274.9288992957214,1757
277.32380960660055,1737
279.718059475976,1731
282.1116491091717,1797
284.5045787115897,1770
286.89684848871195,1698
289.2884586460981,1768
291.67940938938807,1720
294.0697009242996,1797
296.4593334566299,1885
298.84830719225477,1778
301.23662233712923,1813
303.6242790972866,1852
306.01127767884,1717
308.39761828798066,1694
310.78330113097934,1646
313.16832641418534,1676
315.5526943440269,1643
317.9364051270112,1638
320.3194589697242,1643
322.70185607883093,1676
325.0835966610754,1643
327.4646809232805,1617
329.8451090723478,1596
332.2248813152577,1605
334.6039978590701,1668
336.9824589109231,1633
339.36026467803447,1531
341.7374153677,1574
344.113911187295,1473
346.48975234427337,1543
348.8649390461686,1540
351.2394715005918,1542
353.61334991523415,1569
355.9865744978655,1505
358.35914545633375,1481
360.73106299856715,1591
363.10232733257146,1559
365.47293866643247,1497
367.84289720831396,1579
370.2122031664593,1451
372.5808567491905,1495
374.9488581649083,1424
377.31620762209275,1500
379.6829053293021,1458
382.0489514951745,1526
384.4143463284262,1423
386.7790900378528,1454
389.14318283232853,1446
391.50662492080653,1480
393.86941651231916,1496
396.23155781597745,1466
398.5930490409713,1482
400.9538903965696,1529
403.3140820921202,1447
405.6736243370498,1438
408.03251734086336,1428
410.3907613131465,1377
412.74835646356166,1383
415.10530300185144,1441
417.4616011378372,1402
419.81725108141893,1410
422.1722530425758,1377
424.5266072313656,1375
426.880313857925,1442
429.2333731324701,1474
431.58578526529516,1398
433.9375504667738,1372
436.2886689473588,1402
438.63914091758113,1461
440.9889665880513,1380
443.33814616945835,1400
445.68667987257015,1331
448.03456790823395,1316
450.3818104873759,1324
452.72840782100013,1361
455.07436012019105,1317
457.41966759611057,1316
459.7643304600007,1361
462.10834892318155,1359
464.4517231970525,1370
466.79445349309174,1329
469.1365400228566,1347
471.4779829979826,1294
473.81878263018564,1361
476.15893913125876,1389
478.4984527130747,1375
480.8373235875855,1464
483.17555196682144,1395
485.5131380628919,1428
487.8500820879857,1446
490.1863842543697,1474
492.52204477439034,1526
494.8570638604725,1565
497.1914417251204,1679
499.52517858091653,1884
501.85827464052306,2166
504.19073011668036,2668
506.5225452222086,3367
508.85372017000566,3855
511.18425517304956,4161
513.514150444396,4243
515.8434061971808,4628
518.1720226446176,5124
520.4999999999999,4883
522.8273384766991,4288
525.1540382881666,3631
527.480099647932,3114
529.8055227696037,2565
532.1303078668694,2049
534.454455153496,1776
536.777964843328,1665
539.1008371502907,1559
541.4230722883866,1429
543.744670471698,1518
546.0656319143858,1442
548.3859568306899,1458
550.7056454349294,1497
553.0246979415016,1436
555.3431145648834,1409
557.6608955196306,1516
559.978041020377,1397
562.2945512818363,1356
564.6104265188006,1400
566.9256669461412,1411
569.2402727788082,1388
571.5542442318302,1406
573.8675815203156,1461
576.1802848594508,1438
578.4923544645015,1478
580.8037905508126,1420
583.114593333807,1472
585.4247630289875,1468
587.7342998519354,1406
590.0432040183106,1395
592.3514757438526,1371
594.6591152443794,1393
596.9661227357875,1443
599.2724984340531,1409
601.578242555231,1362
603.8833553154542,1407
606.1878369309362,1416
608.4916876179676,1421
610.7949075929192,1430
613.0974970722403,1395
615.3994562724587,1419
617.7007854101818,1424
620.0014847020951,1429
622.3015543649641,1407
624.6009946156324,1384
626.8998056710224,1388
629.1979877481361,1388
631.4955410640538,1389
633.7924658359349,1432
636.0887622810175,1393
638.3844306166192,1384
640.6794710601358,1430
642.9738838290426,1436
645.2676691408932,1491
647.5608272133207,1425
649.853358264037,1445
652.1452625108324,1412
654.4365401715764,1495
656.7271914642178,1480
659.0172166067838,1435
661.3066158173809,1543
663.5953893141935,1394
665.8835373154867,1460
668.1710600396028,1443
670.4579577049639,1401
672.7442305300709,1449
675.0298787335033,1385
677.3149025339197,1453
679.599302150058,1404
681.8830778007342,1424
684.1662297048437,1510
686.4487580813608,1474
688.7306631493387,1488
691.0119451279091,1467
693.2926042362834,1374
695.5726406937516,1440
697.8520547196814,1458
700.1308465335215,1462
702.4090163547982,1443
704.6865644031171,1407
706.9634908981619,1420
709.2397960596965,1468
711.5154801075631,1384
713.7905432616823,1394
716.0649857420548,1419
718.3388077687592,1403
720.612009561953,1416
722.8845913418733,1426
725.1565533288352,1429
727.427895743234,1437
729.6986188055427,1399
731.9687227363137,1441
734.238207756178,1435
736.5070740858458,1402
738.7753219461066,1411
741.0429515578281,1398
743.3099631419569,1442
745.5763569195191,1496
747.8421331116193,1432
750.1072919394409,1395
752.3718336242467,1429
754.6357583873777,1415
756.8990664502545,1445
759.1617580343765,1412
761.423833361321,1400
763.6852926527457,1397
765.9461361303862,1481
768.206364016058,1487
770.4659765316536,1495
772.7249738991469,1465
774.9833563405886,1481
777.2411240781092,1537
779.4982773339183,1504
781.7548163303044,1489
784.010741289634,1473
786.2660524343538,1559
788.5207499869881,1482
790.7748341701416,1499
793.0283052064964,1442
795.2811633188143,1474
797.5334087299362,1443
799.7850416627813,1503
802.0360623403484,1520
804.2864709857143,1526
806.5362678220353,1445
808.7854530725468,1463
811.0340269605625,1483
813.2819897094754,1475
815.5293415427581,1488
817.77608268396,1475
820.0222133567116,1461
822.2677337847211,1479
824.5126441917765,1460
826.7569448017433,1480
829.0006358385675,1485
831.2437175262731,1439
833.4861900889629,1377
835.7280537508192,1456
837.9693087361026,1507
840.2099552691533,1518
842.4499935743896,1453
844.689423876309,1477
846.9282463994886,1507
849.1664613685833,1493
851.4040690083276,1443
853.6410695435349,1436
855.877463199097,1426
858.1132501999847,1437
860.3484307712487,1502
862.5830051380175,1528
864.8169735254988,1520
867.0503361589791,1482
869.2830932638243,1458
871.5152450654786,1470
873.7467917894654,1533
875.9777336613873,1430
878.2080709069252,1508
880.4378037518389,1521
882.666932421968,1476
884.8954571432301,1450
887.1233781416219,1511
889.3506956432192,1563
891.5774098741766,1508
893.803521060728,1459
896.0290294291852,1450
898.2539352059397,1453
900.4782386174619,1418
902.7019398903011,1457
904.925039251085,1460
907.147536926521,1481
909.3694331433943,1438
911.59072812857,1464
913.8114221089921,1453
916.0315153116827,1495
918.2510079637437,1520
920.4699002923547,1507
922.6881925247761,1506
924.905884888345,1480
927.1229776104793,1593
929.3394709186747,1497
931.555365040506,1513
933.7706602036275,1481
935.9853566357709,1512
938.1994545647489,1527
940.4129542184515,1505
942.6258558248488,1559
944.8381596119883,1503
947.0498658079974,1504
949.2609746410825,1501
951.4714863395287,1490
953.6814011316998,1543
955.8907192460387,1496
958.0994409110671,1466
960.3075663553858,1469
962.5150958076741,1448
964.7220294966913,1541
966.928367651274,1488
969.1341105003388,1407
971.3392582728806,1461
973.5438111979742,1447
975.747769504772,1452
977.9511334225061,1420
980.153903180487,1387
982.3560790081052,1399
984.5576611348289,1383
986.7586497902058,1434
988.9590452038618,1393
991.158847605503,1335
993.3580572249133,1331
995.5566742919558,1359
997.7546990365728,1258
999.952131688785,1336
1002.1489724786926,1286
1004.3452216364743,1267
1006.5408793923874,1249
1008.7359459767691,1271
1010.9304216200343,1228
1013.1243065526781,1229
1015.3176010052733,1209
1017.510305208472,1208
1019.7024193930064,1176
1021.8939437896848,1147
1024.0848786293977,1168
1026.2752241431122,1178
1028.4649805618747,1179
1030.6541481168115,1203
1032.842727039127,1181
1035.0307175601051,1153
1037.2181199111074,1200
1039.4049343235752,1148
1041.591161029029,1174
1043.7768002590683,1151
1045.9618522453698,1127
1048.1463172196918,1087
1050.3301954138697,1107
1052.513487059818,1169
1054.69619238953,1101
1056.8783116350783,1128
1059.0598450286152,1136
1061.2407928023704,1198
1063.4211551886528,1144
1065.6009324198508,1166
1067.780124728432,1122
1069.9587323469414,1116
1072.1367555080046,1134
1074.314194444325,1113
1076.4910493886855,1125
1078.667320573947,1140
1080.843008233051,1101
1083.0181125990161,1077
1085.1926339049414,1082
1087.3665723840027,1108
1089.5399282694575,1079
1091.7127017946405,1063
1093.8848931929647,1076
1096.0565026979243,1058
1098.2275305430899,1115
1100.3979769621128,1137
1102.567842188722,1105
1104.737126456726,1084
1106.9058300000124,1031
1109.0739530525475,1047
1111.2414958483764,1074
1113.4084586216231,1077
1115.5748416064907,1005
1117.7406450372605,1088
1119.9058691482942,1055
1122.0705141740304,1085
1124.2345803489884,1053
1126.3980679077658,1080
1128.5609770850388,1035
1130.7233081155623,1073
1132.8850612341707,1050
1135.0462366757774,1056
1137.2068346753745,1081
1139.3668554680326,1094
1141.526299288901,1056
1143.68516637321,1104
1145.8434569562655,1105
1148.001171273455,1028
1150.158309560244,1021
1152.3148720521767,1052
1154.470858984876,1040
1156.626270594044,1012
1158.7811071154629,1033
1160.9353687849912,1064
1163.089055838569,1087
1165.242168512213,1030
1167.3947070420209,1021
1169.5466716641677,1029
1171.6980626149075,1033
1173.8488801305748,1018
1175.9991244475814,1032
1178.1487958024186,1046
1180.2978944316555,1009
1182.4464205719428,1034
1184.5943744600072,1029
1186.7417563326567,993
1188.8885664267755,998
1191.0348049793297,1036
1193.1804722273619,997
1195.325568407995,1014
1197.4700937584303,979
1199.614048515948,1039
1201.7574329179074,1023
1203.900247201746,980
1206.042491604982,1016
1208.1841663652099,1012
1210.3252717201053,1000
1212.465807907422,1072
1214.6057751649923,1006
1216.7451737307279,1018
1218.8840038426192,1036
1221.0222657387353,1048
1223.1599596572241,1011
1225.2970858363137,1058
1227.4336445143094,1021
1229.5696359295966,1071
1231.705060320639,994
1233.8399179259786,1072
1235.9742089842384,1047
1238.107933734118,1039
1240.2410924143974,1073
1242.373685263935,1049
1244.5057125216676,1058
1246.6371744266116,1025
1248.7680712178621,1030
1250.898403134593,1070
1253.028170416058,1015
1255.1573733015875,1035
1257.2860120305932,1006
1259.4140868425648,1018
1261.54159797707,1028
1263.6685456737569,1006
1265.7949301723515,1049
1267.9207517126597,1033
1270.046010534565,1040
1272.1707068780306,995
1274.2948409830983,1050
1276.4184130898889,1018
1278.541423438603,1075
1280.6638722695184,1024
1282.785759822993,1008
1284.9070863394636,1054
1287.0278520594447,1050
1289.1480572235314,1039
1291.2677020723963,1044
1293.3867868467923,1024
1295.5053117875495,1081
1297.623277135579,1071
1299.740683131868,1038
1301.8575300174857,1055
1303.973818033578,1046
1306.0895474213703,1058
1308.2047184221678,1029
1310.3193312773528,1056
1312.4333862283888,1053
1314.5468835168163,1066
1316.659823384255,1051
1318.7722060724045,1045
1320.8840318230418,1043
1322.9953008780249,1068
1325.1060134792888,1035
1327.2161698688478,1073
1329.3257702887959,1052
1331.4348149813054,1045
1333.5433041886276,1054
1335.6512381530933,1025
1337.7586171171101,1060
1339.8654413231675,1067
1341.9717110138317,1066
1344.0774264317488,1067
1346.1825878196432,1006
1348.2871954203192,1104
1350.3912494766587,1010
1352.4947502316231,1012
1354.5976979282532,1028
1356.7000928096686,1078
1358.8019351190665,1075
1360.9032250997243,1057
1363.0039629949988,1057
1365.1041490483235,1078
1367.2037835032133,1055
1369.3028666032606,1053
1371.401398592137,1076
1373.4993797135926,1078
1375.5968102114575,1086
1377.6936903296396,1091
1379.7900203121262,1069
1381.8858004029835,1021
1383.9810308463561,1057
1386.075711886469,1072
1388.1698437676241,1019
1390.2634267342032,1025
1392.356461030667,1063
1394.4489469015557,1061
1396.5408845914872,1076
1398.6322743451592,1055
1400.7231164073469,1065
1402.813411022907,1100
1404.903158436773,1085
1406.9923588939578,1079
1409.0810126395531,1100
1411.1691199187303,1068
1413.2566809767386,1116
1415.343696058907,1112
1417.4301654106425,1091
1419.5160892774315,1057
1421.6014679048399,1059
1423.6863015385125,1057
1425.7705904241707,1063
1427.8543348076178,1097
1429.9375349347342,1083
1432.0201910514802,1037
1434.102303403894,1120
1436.1838722380944,1107
1438.2648978002767,1080
1440.3453803367174,1127
1442.4253200937692,1133
1444.5047173178677,1107
1446.5835722555234,1088
1448.6618851533285,1112
1450.739656257952,1081
1452.8168858161434,1069
1454.8935740747306,1064
1456.96972128062,1169
1459.045327680797,1112
1461.120393522327,1115
1463.1949190523528,1121
1465.2689045180973,1079
1467.3423501668608,1111
1469.415256246024,1088
1471.4876230030463,1114
1473.559450685465,1090
1475.6307395408976,1107
1477.7014898170391,1137
1479.771701761665,1053
1481.8413756226287,1103
1483.9105116478618,1101
1485.9791100853772,1056
1488.0471711832643,1098
1490.1146951896926,1050
1492.1816823529098,1094
1494.2481329212433,1060
1496.3140471430984,1131
1498.3794252669609,1137
1500.4442675413939,1126
1502.5085742150404,1147
1504.572345536622,1130
1506.6355817549388,1111
1508.6982831188702,1102
1510.7604498773744,1068
1512.8220822794883,1162
1514.8831805743293,1111
1516.9437450110909,1098
1519.003775839048,1090
1521.0632733075522,1067
1523.1222376660367,1127
1525.1806691640113,1083
1527.2385680510652,1090
1529.2959345768668,1035
1531.3527689911643,1106
1533.4090715437833,1139
1535.4648424846291,1081
1537.5200820636855,1106
1539.5747905310159,1111
1541.6289681367616,1080
1543.6826151311434,1183
1545.7357317644614,1130
1547.7883182870937,1115
1549.8403749494987,1108
1551.8919020022113,1086
1553.9428996958477,1119
1555.9933682811015,1104
1558.0433080087469,1066
1560.0927191296346,1088
1562.1416018946961,1080
1564.1899565549415,1087
1566.2377833614592,1134
1568.2850825654164,1129
1570.3318544180606,1101
1572.3780991707158,1084
1574.423817074788,1101
1576.4690083817595,1103
1578.5136733431923,1069
1580.5578122107272,1094
1582.601425236085,1038
1584.6445126710646,1122
1586.6870747675434,1033
1588.7291117774776,1097
1590.7706239529034,1103
1592.8116115459347,1129
1594.8520748087658,1086
1596.8920139936686,1061
1598.9314293529933,1090
1600.9703211391711,1099
1603.008689604711,1132
1605.0465350022005,1083
1607.0838575843068,1074
1609.1206576037753,1095
1611.1569353134305,1131
1613.1926909661765,1143
1615.2279248149953,1104
1617.2626371129481,1100
1619.2968281131757,1108
1621.3304980688963,1083
1623.3636472334088,1110
1625.39627586009,1109
1627.428384202396,1104
1629.459972513861,1124
1631.4910410480993,1059
1633.5215900588028,1150
1635.551619799744,1117
1637.5811305247717,1130
1639.6101224878166,1131
1641.6385959428862,1100
1643.6665511440683,1114
1645.693988345528,1072
1647.7209078015112,1077
1649.7473097663405,1081
1651.7731944944203,1097
1653.7985622402307,1108
1655.823413258333,1111
1657.847747803366,1091
1659.8715661300494,1133
1661.8948684931793,1090
1663.9176551476316,1123
1665.9399263483624,1092
1667.9616823504057,1088
1669.982923408873,1162
1672.0036497789574,1166
1674.0238617159293,1121
1676.043559475138,1077
1678.0627433120121,1094
1680.081413482059,1081
1682.0995702408654,1127
1684.117213844096,1090
1686.134344547495,1099
1688.1509626068864,1065
1690.1670682781705,1052
1692.182661817329,1095
1694.1977434804217,1135
1696.2123135235875,1103
1698.226372203043,1083
1700.2399197750851,1116
1702.2529564960905,1109
1704.2654826225112,1085
1706.277498410882,1104
1708.2890041178139,1082
1710.2999999999988,1093
1712.3104863142066,1083
1714.3204633172854,1085
1716.329931266163,1131
1718.3388904178469,1140
1720.3473410294214,1131
1722.3552833580516,1099
1724.3627176609807,1103
1726.3696441955308,1128
1728.3760632191033,1082
1730.3819749891782,1049
1732.3873797633146,1119
1734.3922777991502,1111
1736.3966693544012,1093
1738.4005546868639,1112
1740.4039340544127,1123
1742.406807715001,1063
1744.4091759266616,1102
1746.4110389475054,1091
1748.4123970357223,1053
1750.413250449582,1071
1752.4135994474318,1105
1754.4134442876993,1068
1756.4127852288902,1088
1758.4116225295893,1096
1760.4099564484595,1112
1762.407787244244,1095
1764.405115175764,1133
1766.4019405019203,1087
1768.3982634816916,1132
1770.3940843741357,1167
1772.3894034383907,1059
1774.3842209336717,1057
1776.378537119274,1084
1778.372352254571,1076
1780.3656665990156,1095
1782.3584804121397,1086
1784.3507939535534,1140
1786.3426074829463,1097
1788.3339212600863,1143
1790.3247355448211,1095
1792.3150505970766,1133
1794.3048666768573,1092
1796.2941840442477,1114
1798.2830029594106,1065
1800.2713236825884,1080
1802.2591464741004,1096
1804.2464715943465,1099
1806.2332993038058,1107
1808.2196298630352,1065
1810.2054635326708,1075
1812.190800573428,1117
1814.175641246101,1106
1816.1599858115628,1055
1818.1438345307652,1105
1820.127187664738,1093
1822.1100454745924,1099
1824.092408221516,1077
1826.0742761667766,1100
1828.055649571721,1113
1830.0365286977735,1097
1832.0169138064398,1102
1833.9968051593014,1051
1835.9762030180214,1089
1837.9551076443408,1115
1839.9335193000788,1132
1841.9114382471344,1114
1843.888864747485,1105
1845.8657990631878,1101
1847.842241456378,1063
1849.8181921892697,1120
1851.7936515241558,1124
1853.7686197234098,1091
1855.7430970494815,1102
1857.7170837649014,1048
1859.6905801322787,1048
1861.6635864143004,1089
1863.6361028737338,1085
1865.608129773424,1086
1867.5796673762961,1098
1869.5507159453537,1115
1871.521275743678,1109
1873.4913470344313,1075
1875.4609300808534,1105
1877.4300251462632,1108
1879.3986324940588,1141
1881.366752387717,1097
1883.3343850907936,1086
1885.3015308669228,1114
1887.268189979819,1079
1889.2343626932739,1120
1891.2000492711595,1047
1893.1652499774254,1129
1895.1299650761011,1110
1897.0941948312952,1113
1899.0579395071945,1100
1901.0211993680641,1133
1902.98397467825,1081
1904.9462657021745,1087
1906.9080727043415,1100
1908.869395949332,1089
1910.8302357018065,1103
1912.790592226504,1116
1914.7504657882428,1116
1916.7098566519212,1093
1918.6687650825133,1084
1920.6271913450764,1101
1922.5851357047422,1076
1924.5425984267245,1107
1926.499579776314,1084
1928.4560800188833,1081
1930.4120994198802,1108
1932.367638244833,1151
1934.32269675935,1055
1936.2772752291175,1119
1938.231373919899,1089
1940.1849930975404,1132
1942.1381330279637,1110
1944.0907939771696,1111
1946.0429762112412,1149
1947.9946799963363,1114
1949.9459055986945,1089
1951.896653284633,1100
1953.8469233205478,1069
1955.7967159729142,1055
1957.7460315082863,1057
1959.6948701932974,1130
1961.6432322946594,1105
1963.5911180791632,1094
1965.5385278136787,1103
1967.4854617651545,1113
1969.4319202006182,1135
1971.377903387176,1092
1973.3234115920136,1090
1975.268445082395,1116
1977.2130041256642,1152
1979.1570889892423,1116
1981.1006999406304,1111
1983.04383724741,1105
1984.986501177238,1119
1986.928691997853,1078
1988.8704099770712,1098
1990.811655382789,1115
1992.7524284829801,1126
1994.692729545698,1108
1996.6325588390755,1097
1998.5719166313224,1101
2000.5108031907307,1071
2002.4492187856677,1089
2004.387163684583,1107
2006.3246381560011,1099
2008.2616424685298,1099
2010.1981768908527,1081
2012.1342416917332,1078
2014.069837140014,1138
2016.0049635046162,1130
2017.9396210545406,1109
2019.8738100588666,1085
2021.8075307867502,1084
2023.740783507431,1144
2025.6735684902228,1115
2027.6058860045214,1088
2029.5377363198004,1091
2031.4691197056118,1124
2033.4000364315875,1090
2035.3304867674374,1097
2037.260470982952,1150
2039.189989347998,1127
2041.1190421325232,1091
2043.047629606554,1100
2044.9757520401945,1110
2046.9034097036288,1141
2048.8306028671195,1118
2050.7573318010086,1103
2052.683596775716,1076
2054.609398061742,1088
2056.5347359296647,1132
2058.4596106501403,1108
2060.384022493906,1080
2062.3079717317764,1110
2064.231458634646,1107
2066.1544834734873,1112
2068.077046519352,1088
2069.99914804337,1090
2071.9207883167524,1117
2073.8419676107865,1059
2075.7626861968406,1064
2077.6829443463607,1080
2079.6027423308715,1172
2081.522080421977,1125
2083.440958891362,1136
2085.359378010786,1084
2087.2773380520907,1117
2089.194839287196,1081
2091.111881988101,1109
2093.0284664268825,1074
2094.9445928756973,1112
2096.86026160678,1114
2098.775472892446,1062
2100.690227005088,1117
2102.604524217178,1126
2104.5183648012676,1160
2106.431749029985,1124
2108.34467717604,1112
2110.2571495122206,1108
2112.169166311393,1100
2114.080727846503,1087
2115.9918343905747,1139
2117.902486216711,1068
2119.8126835980956,1123
2121.722426807987,1096
2123.6317161197285,1122
2125.5405518067364,1116
2127.448934142509,1124
2129.356863400624,1175
2131.264339854737,1085
2133.1713637785815,1097
2135.077935445972,1148
2136.9840551308002,1109
2138.889723107037,1108
2140.7949396487334,1121
2142.699705030018,1098
2144.6040195250994,1160
2146.507883408264,1124
2148.4112969538774,1132
2150.3142604363848,1084
2152.2167741303097,1091
2154.1188383102535,1070
2156.0204532508997,1129
2157.9216192270064,1115
2159.822336513414,1126
2161.7226053850413,1136
2163.622426116884,1086
2165.5217989840185,1070
2167.4207242616,1144
2169.319202224862,1134
2171.2172331491165,1136
2173.1148173097563,1103
2175.0119549822507,1124
2176.90864644215,1128
2178.8048919650823,1136
2180.7006918267534,1139
2182.596046302952,1137
2184.4909556695407,1090
2186.3854202024645,1137
2188.279440177746,1127
2190.173015871487,1088
2192.066147559868,1107
2193.958835519149,1157
2195.851080025667,1118
2197.7428813558417,1150
2199.6342397861667,1114
2201.5251555932186,1129
2203.415629053651,1066
2205.3056604441986,1132
2207.19525004167,1108
2209.084398122958,1163
2210.9731049650327,1122
2212.861370844941,1096
2214.749196039812,1099
2216.636580826851,1121
2218.523525483344,1157
2220.410030286655,1158
2222.296095514226,1136
2224.1817214435805,1113
2226.066908352319,1144
2227.951656518121,1162
2229.835966218746,1140
2231.71983773203,1109
2233.6032713358913,1142
2235.486267308324,1157
2237.3688259274036,1086
2239.2509474712824,1109
2241.132632218193,1116
2243.013880446447,1159
2244.8946924344323,1120
2246.7750684606203,1172
2248.6550088035574,1182
2250.534513741871,1128
2252.413583554265,1176
2254.292218519526,1129
2256.170418916517,1138
2258.0481850241786,1128
2259.925517121534,1136
2261.8024154876825,1158
2263.678880401803,1195
2265.5549121431536,1165
2267.430510991071,1199
2269.305677224971,1139
2271.180411124348,1102
2273.0547129687766,1121
2274.9285830379076,1119
2276.8020216114737,1043
2278.6750289692845,1124
2280.5476053912294,1091
2282.4197511572766,1128
2284.2914665474727,1125
2286.162751841943,1152
2288.0336073208937,1162
2289.904033264608,1160
2291.774029953448,1163
2293.6435976678554,1185
2295.5127366883517,1179
2297.381447295534,1102
2299.2497297700825,1068
2301.1175843927526,1070
2302.9850114443825,1051
2304.852011205885,1057
2306.7185839582553,1036
2308.5847299825664,999
2310.4504495599676,981
2312.3157429716925,971
2314.1806104990483,1035
2316.0450524234247,1036
2317.9090690262888,962
2319.772660589186,993
2321.635827393742,968
2323.498569721661,969
2325.3608878547248,963
2327.2227820747967,966
2329.0842526638157,999
2330.945299903803,981
2332.805924076857,991
2334.6661254651535,944
2336.525904350951,987
2338.3852610165827,980
2340.244195744464,992
2342.102708817088,925
2343.9608005170253,981
2345.8184711269287,940
2347.675720929526,970
2349.532550207628,959
2351.38895924412,977
2353.24494832197,990
2355.100517724223,1000
2356.955667734004,942
2358.810398634514,977
2360.664710709037,973
2362.5186042409337,990
2364.3720795136437,968
2366.225136810686,1000
2368.0777764156583,974
2369.929998612237,973
2371.7818036841777,936
2373.633191915315,1002
2375.484163589562,936
2377.3347189909114,934
2379.184858403434,969
2381.03458211128,968
2382.8838903986775,970
2384.732783549936,947
2386.5812618494406,1006
2388.4293255816588,981
2390.2769750311327,1006
2392.1242104824883,1027
2393.971032220427,972
2395.8174405297295,973
2397.6634356952563,969
2399.509018001947,939
2401.3541877348193,966
2403.1989451789705,948
2405.043290619576,964
2406.8872243418905,1035
2408.730746631247,953
2410.5738577730594,1031
2412.4165580528183,970
2414.258847756095,975
2416.100727168537,960
2417.9421965758734,1015
2419.783256263912,1032
2421.623906518538,954
2423.4641476257157,1004
2425.303979871491,986
2427.143403541984,1060
2428.9824189233977,996
2430.821026302012,998
2432.6592259641866,984
2434.497018196361,1051
2436.33440328505,978
2438.171381516851,978
2440.00795317844,988
2441.844118556569,1010
2443.6798779380724,1014
2445.5152316098606,1052
2447.3501798589255,964
2449.1847229723357,1009
2451.0188612372403,984
2452.8525949408663,1021
2454.6859243705203,978
2456.518849813587,954
2458.3513715575314,949
2460.183489889895,1003
2462.015205098301,1005
2463.8465174704493,1018
2465.67742729412,970
2467.5079348571717,956
2469.338040447542,946
2471.1677443532476,979
2472.9970468623833,968
2474.825948263123,1002
2476.6544488437207,1001
2478.482548892508,960
2480.310248697896,1000
2482.137548548374,942
2483.9644487325118,947
2485.790949538956,1003
2487.617051256433,967
2489.44275417375,963
2491.26805857979,968
2493.0929647635157,988
2494.917473013971,960
2496.741583620276,1000
2498.5652968716304,980
2500.3886130573137,994
2502.2115324666834,979
2504.0340553891765,981
2505.856182114308,997
2507.6779129316733,962
2509.499248130945,970
2511.3201880018764,995
2513.140732834298,970
2514.9608829181198,966
2516.780638543331,945
2518.6,961
2520.418967578273,973
2522.237541568376,990
2524.0557222606144,984
2525.8735099453706,971
2527.6909049131086,973
2529.507907454368,1000
2531.32451785977,955
2533.140736420014,976
2534.9565634258774,1034
2536.771999168218,975
2538.5870439379714,1017
2540.4016980261526,1032
2542.2159617238544,982
2544.02983532225,997
2545.8433191125914,983
2547.656413386209,978
2549.4691184345115,942
2551.2814345489874,988
2553.093362021204,953
2554.904901142808,985
2556.716052205523,987
2558.526815501153,954
2560.3371913215824,976
2562.147179958771,947
2563.956781704761,972
2565.7659968516705,976
2567.5748256916986,966
2569.3832685171224,991
2571.1913256202984,973
2572.9989972936614,961
2574.806283829725,953
2576.613185521084,966
2578.4197026604074,968
2580.2258355404483,940
2582.031584454035,947
2583.836949694077,1007
2585.6419315535613,949
2587.4465303255533,956
2589.2507463032002,986
2591.0545797797245,944
2592.8580310484303,972
2594.6611004026995,967
2596.463788135992,977
2598.266094541849,949
2600.0680199138874,966
2601.869564545807,956
2603.670728731383,950
2605.4715127644704,999
2607.2719169390048,991
2609.071941548998,924
2610.8715868885433,954
2612.670853251811,982
2614.469740933052,966
2616.268250226594,989
2618.0663814268455,1015
2619.864134828292,990
2621.6615107255006,946
2623.458509413115,1001
2625.2551311858597,972
2627.0513763385347,951
2628.8472451660223,964
2630.6427379632833,934
2632.4378550253564,968
2634.232596647359,992
2636.026963124488,1009
2637.8209547520187,946
2639.6145718253065,976
2641.407814639785,943
2643.200683490966,972
2644.9931786744414,1005
2646.7853004858807,987
2648.577049221034,948
2650.3684251757277,984
2652.1594286458712,1003
2653.9500599274484,1004
2655.740319316525,1008
2657.5302071092437,953
2659.3197236018286,975
2661.10886909058,975
2662.8976438718782,955
2664.686048242183,975
2666.4740824980327,967
2668.2617469360443,991
2670.0490418529134,985
2671.8359675454153,968
2673.622524310403,937
2675.408712444811,975
2677.1945322456495,988
2678.979984010009,936
2680.76506803506,986
2682.5497846180497,948
2684.334134056306,993
2686.1181166472343,964
2687.9017326883213,933
2689.6849824771293,1012
2691.4678663113013,998
2693.2503844885596,957
2695.032537306705,973
2696.8143250636167,989
2698.5957480572542,1017
2700.3768065856534,957
2702.1575009469316,1019
2703.937831439283,981
2705.717798360982,931
2707.4974020103837,925
2709.276642685917,939
2711.055520686095,943
2712.834036309506,964
2714.612189854819,980
2716.389981620782,961
2718.1674119062204,964
2719.944481010041,959
2721.721189231226,979
2723.4975368688415,1007
2725.273524222027,954
2727.0491515900053,955
2728.824419272075,981
2730.5993275676146,950
2732.3738767760838,944
2734.148067197016,967
2735.921899130031,961
2737.6953728748194,982
2739.468488731156,964
2741.2412469988926,1021
2743.0136479779617,949
2744.785691968372,1023
2746.5573792702116,939
2748.3287101836504,944
2750.099685008934,964
2751.870304046388,942
2753.640567596418,975
2755.4104759595057,964
2757.1800294362156,966
2758.949228327187,994
2760.7180729331412,1015
2762.486563554877,1030
2764.254700493272,974
2766.022484049284,977
2767.789914523947,944
2769.5569922183786,1017
2771.3237174337705,945
2773.090090471394,939
2774.8561116326036,1010
2776.6217812188274,996
2778.3870995315756,939
2780.1520668724356,942
2781.9166835430747,959
2783.6809498452394,938
2785.444866080754,973
2787.2084325515225,966
2788.971649559527,938
2790.73451740683,960
2792.4970363955713,1038
2794.2592068279705,996
2796.0210290063264,991
2797.7825032330147,991
2799.543629810493,990
2801.304409041296,965
2803.0648412280366,954
2804.8249266734088,990
2806.5846656801846,994
2808.344058551212,946
2810.1031055894246,959
2811.8618070978273,963
2813.6201633795085,967
2815.378174737636,981
2817.1358414754536,1004
2818.893163896285,1001
2820.6501423035334,1012
2822.4067770006814,984
2824.1630682912883,997
2825.9190164789957,923
2827.6746218675207,981
2829.429884760661,992
2831.184805462294,979
2832.9393842763743,1014
2834.693621506936,984
2836.4475174580916,988
2838.201072434034,1021
2839.954286739034,983
2841.707160677441,1000
2843.459694553685,996
2845.2118886722724,981
2846.96374333779,957
2848.7152588549034,990
2850.4664355283567,1010
2852.217273662973,980
2853.9677735636546,1014
2855.7179355353833,958
2857.4677598832186,961
2859.217246912299,967
2860.9663969278427,996
2862.715210235146,957
2864.4636871395846,981
2866.211827946614,976
2867.9596329617652,978
2869.7071024906536,968
2871.4542368389684,975
2873.20103631248,1003
2874.947501217038,1023
2876.6936318585695,974
2878.4394285430812,986
2880.1848915766604,965
2881.9300212654707,995
2883.6748179157553,1004
2885.4192818338374,994
2887.1634133261173,975
2888.907212699077,1006
2890.6506802592744,943
2892.393816313348,944
2894.1366211680142,1020
2895.8790951300693,1053
2897.621238506388,995
2899.363051603925,988
2901.1045347297118,926
2902.8456881908596,940
2904.58651229456,985
2906.327007348081,962
2908.067173658772,956
2909.8070115340597,968
2911.5465212814497,1002
2913.285703208527,975
2915.0245576229563,951
2916.7630848324807,999
2918.5012851449196,935
2920.2391588681758,996
2921.976706310227,946
2923.7139277791334,935
2925.4508235830313,1002
2927.187394030137,973
2928.923639428745,978
2930.6595600872306,940
2932.395156314046,949
2934.1304284177218,986
2935.8653767068713,1015
2937.6000014901815,1042
2939.3343030764227,1044
2941.068281774442,979
2942.8019378931644,982
2944.5352717415976,1012
2946.2682836288236,1029
2948.0009738640065,1031
2949.7333427563885,1016
2951.465390615289,967
2953.1971177501086,994
2954.9285244703265,1006
2956.6596110855,987
2958.3903779052657,993
2960.1208252393385,982
2961.8509533975125,983
2963.5807626896617,986
2965.3102534257378,975
2967.0394259157715,964
2968.768280469873,970
2970.496817398232,1000
2972.2250370111146,987
2973.952939618869,965
2975.6805255319196,927
2977.4077950607707,980
2979.134748516006,986
2980.861386208289,1045
2982.587708448359,976
2984.313715547037,1004
2986.039407815222,985
2987.764785563891,934
2989.489849104102,961
2991.2145987469908,1031
2992.9390348037705,997
2994.6631575857346,992
2996.3869674042576,973
2998.1104645707887,946
2999.83364939686,952
3001.5565221940783,963
3003.2790832741334,1020
3005.0013329487924,972
3006.7232715298996,972
3008.4448993293804,930
3010.166216659239,966
3011.887223831558,985
3013.607921158498,979
3015.3283089522993,987
3017.0483875252826,958
3018.7681571898443,955
3020.4876182584626,953
3022.2067710436927,966
3023.9256158581707,952
3025.644153014609,976
3027.362382825801,994
3029.0803056046193,982
3030.797921664012,985
3032.5152313170106,958
3034.2322348767225,990
3035.9489326563353,934
3037.665324969115,964
3039.3814121284063,1015
3041.097194447633,956
3042.812672240299,974
3044.5278458199855,952
3046.2427155003525,978
3047.9572815951406,949
3049.671544418167,955
3051.38550428333,945
3053.0991615046073,981
3054.812516396051,996
3056.5255692717974,969
3058.2383204460575,921
3059.9507702331257,964
3061.662918947372,993
3063.3747669032446,933
3065.0863144152736,991
3066.7975617980674,977
3068.508509366309,959
3070.219157434767,946
3071.9295063182844,906
3073.639556331785,997
3075.3493077902704,948
3077.058761008821,973
3078.7679163025964,977
3080.476773986837,948
3082.1853343768594,943
3083.89359778806,1002
3085.6015645359153,954
3087.3092349359786,923
3089.016609303884,984
3090.7236879553434,978
3092.4304712061476,1004
3094.136959372166,939
3095.843152769349,983
3097.5490517137237,964
3099.2546565213966,932
3100.959967508554,995
3102.66498499146,946
3104.3697092864577,971
3106.0741407099695,947
3107.778279578498,976
3109.482126208622,942
3111.1856809170004,940
3112.8889440203716,990
3114.5919158355528,948
3116.294596679439,979
3117.996986869006,982
3119.6990867213062,989
3121.4008965534726,961
3123.102416682717,1016
3124.803647426329,963
3126.5045891016784,941
3128.205242026213,959
3129.90560651746,938
3131.605682893025,947
3133.3054714705922,985
3135.0049725679282,996
3136.7041865028714,981
3138.4031135933465,966
3140.101754157353,995
3141.800108512971,936
3143.498176978357,1003
3145.1959598717494,957
3146.8934575114636,965
3148.5906702158954,955
3150.2875983035183,929
3151.9842420928853,974
3153.680601902627,969
3155.376678051456,947
3157.07247085816,940
3158.767980641609,962
3160.463207720748,991
3162.158152414606,969
3163.8528150422862,931
3165.5471959229726,919
3167.2412953759303,969
3168.9351137204976,1020
3170.628651276098,961
3172.3219083622307,967
3174.014885298474,936
3175.707582404485,974
3177.4000000000005,974
3179.092138404835,958
3180.7839979388846,985
3182.47557892212,963
3184.166881674594,979
3185.8579065164386,956
3187.5486537678626,981
3189.2391237491547,969
3190.9293167806827,967
3192.6192331828934,973
3194.3088732763117,975
3195.998237381542,939
3197.687325819268,964
3199.376138910251,961
3201.064676975334,975
3202.7529403354347,985
3204.4409293115523,996
3206.1286442247647,943
3207.816085396229,969
3209.5032531471825,978
3211.190147798936,967
3212.8767696728846,987
3214.5631190905015,949
3216.2491963733373,973
3217.9350018430214,987
3219.6205358212637,927
3221.305798629851,913
3222.990790590651,916
3224.6755120256103,955
3226.359963256751,959
3228.0441446061795,935
3229.7280563960758,969
3231.411698948703,976
3233.0950725863995,939
3234.778177631587,982
3236.461014406761,975
3238.1435832345005,938
3239.8258844374595,967
3241.507918338374,909
3243.1896852600576,936
3244.8711855254023,953
3246.552419457381,965
3248.233387379042,977
3249.914089613516,975
3251.59452648401,989
3253.274698313813,967
3254.95460542629,1035
3256.6342481448855,1012
3258.313626793125,944
3259.9927416946084,944
3261.6715931730196,943
3263.3501815521176,968
3265.0285071557437,937
3266.706570307815,957
3268.3843713323286,997
3270.0619105533615,977
3271.739188295068,985
3273.4162048816834,950
3275.0929606375184,942
3276.769455886966,963
3278.445690954498,964
3280.1216661646613,962
3281.797381842087,936
3283.4728383114807,957
3285.1480358976296,1006
3286.8229749253996,946
3288.4976557197333,955
3290.172078605655,959
3291.846243908266,915
3293.5201519527463,961
3295.193803064357,935
3296.8671975684374,927
3298.5403357904024,996
3300.21321805575,993
3301.8858446900567,925
3303.558216018975,958
3305.23033236824,931
3306.9021940636603,960
3308.57380143113,944
3310.2451547966184,938
3311.916254486174,968
3313.5871008259246,938
3315.2576941420766,977
3316.9280347609147,995
3318.5981230088046,972
3320.2679592121895,957
3321.9375436975924,931
3323.606876791612,947
3325.27595882093,914
3326.944790112305,988
3328.6133709925753,991
3330.2817017886573,910
3331.949782827547,914
3333.617614436319,978
3335.2851969421245,991
3336.952530672199,992
3338.619615953853,968
3340.286453114475,961
3341.9530424815357,921
3343.619384382583,1016
3345.2854791452437,979
3346.951327097224,972
3348.6169285663073,953
3350.2822838803577,965
3351.947393367319,971
3353.61225735521,993
3355.2768761721345,978
3356.9412501462693,983
3358.605379605873,935
3360.2692648792827,946
3361.9329062949146,996
3363.596304181263,956
