CollectionTime,7/3/2024 2:38:49 PM
ExposureUsed,3
CalibratedSpectrum
-962.7078968117929,439
-959.9714848408522,458
-957.2358232597828,475
-954.5009119013725,444
-951.7667505983302,433
-949.0333391832855,459
-946.3006774887896,485
-943.5687653473143,491
-940.837602591253,441
-938.1071890529199,458
-935.3775245645503,468
-932.6486089583007,434
-929.9204420662485,464
-927.1930237203925,444
-924.4663537526524,478
-921.7404319948689,460
-919.0152582788041,438
-916.2908324361409,482
-913.5671542984834,497
-910.8442236973568,454
-908.1220404642074,427
-905.4006044304027,466
-902.679915427231,428
-899.959973285902,438
-897.2407778375464,441
-894.5223289132158,442
-891.8046263438832,469
-889.0876699604426,454
-886.3714595937089,428
-883.6559950744183,438
-880.9412762332282,448
-878.2273029007168,424
-875.5140749073835,437
-872.8015920836489,449
-870.0898542598545,483
-867.3788612662631,448
-864.6686129330585,441
-861.9591090903457,437
-859.2503495681506,453
-856.5423341964203,455
-853.8350628050229,458
-851.1285352237478,445
-848.4227512823054,445
-845.7177108103272,435
-843.0134136373656,441
-840.3098595928943,435
-837.6070485063082,470
-834.9049802069229,489
-832.2036545239757,496
-829.5030712866244,447
-826.8032303239481,463
-824.1041314649472,452
-821.4057745385428,479
-818.7081593735775,452
-816.0112857988148,467
-813.3151536429393,488
-810.6197627345566,475
-807.9251129021936,464
-805.2312039742981,452
-802.5380357792392,457
-799.8456081453069,476
-797.1539209007124,470
-794.462973873588,474
-791.772766891987,490
-789.083299783884,459
-786.3945723771743,464
-783.7065844996748,437
-781.0193359791231,441
-778.3328266431781,430
-775.6470563194197,477
-772.9620248353489,447
-770.2777320183878,455
-767.5941776958798,476
-764.9113616950891,492
-762.2292838432011,471
-759.5479439673222,471
-756.8673418944801,482
-754.1874774516235,467
-751.5083504656222,490
-748.8299607632671,472
-746.15230817127,492
-743.475392516264,481
-740.7992136248035,485
-738.1237713233636,463
-735.4490654383407,479
-732.7750957960521,497
-730.1018622227365,499
-727.4293645445534,459
-724.7576025875837,473
-722.0865761778291,464
-719.4162851412126,454
-716.7467293035781,504
-714.0779084906909,521
-711.409822528237,510
-708.7424712418238,477
-706.0758544569796,502
-703.4099719991541,501
-700.7448236937178,490
-698.0804093659622,497
-695.4167288411002,469
-692.7537819442656,495
-690.0915685005134,485
-687.4300883348199,475
-684.7693412720819,468
-682.1093271371178,488
-679.4500457546669,484
-676.7914969493897,473
-674.1336805458676,489
-671.4765963686034,482
-668.8202442420206,495
-666.1646239904642,508
-663.5097354382001,493
-660.8555784094151,498
-658.2021527282176,500
-655.5494582186366,525
-652.8974947046223,529
-650.2462620100463,510
-647.5957599587009,495
-644.9459883742998,536
-642.2969470804776,502
-639.6486359007902,501
-637.0010546587141,506
-634.3542031776476,511
-631.7080812809096,509
-629.0626887917401,514
-626.4180255333008,499
-623.7740913286734,521
-621.1308860008619,539
-618.4884093727904,527
-615.8466612673046,532
-613.2056415071715,523
-610.5653499150785,543
-607.9257863136347,522
-605.28695052537,552
-602.6488423727357,557
-600.0114616781036,524
-597.3748082637674,538
-594.7388819519412,528
-592.1036825647604,600
-589.4692099242818,629
-586.8354638524829,564
-584.2024441712624,567
-581.5701507024403,587
-578.9385832677575,626
-576.3077416888759,554
-573.6776257873787,568
-571.0482353847704,520
-568.4195703024757,572
-565.7916303618415,555
-563.164415384135,545
-560.5379251905453,549
-557.9121596021815,570
-555.2871184400748,571
-552.6628015251767,564
-550.0392086783606,589
-547.4163397204204,555
-544.794194472071,592
-542.1727727539491,587
-539.5520743866118,622
-536.9320991905377,660
-534.3128469861261,612
-531.6943175936979,604
-529.0765108334947,630
-526.4594265256793,705
-523.8430644903358,811
-521.2274245474689,883
-518.612506517005,1012
-515.9983102187913,1116
-513.3848354725959,1276
-510.77208209810846,1438
-508.16004991493924,1467
-505.5487387426199,1449
-502.9381484006032,1280
-500.3282787082628,1082
-497.71912948489364,922
-495.1107005497117,791
-492.5029917218539,761
-489.8960028203786,697
-487.28973366426493,650
-484.68418407241325,665
-482.07935386364494,602
-479.47524285670266,650
-476.87185087025,664
-474.2691777228715,625
-471.66722323307334,646
-469.0659872192821,620
-466.4654694998459,661
-463.86566989303384,646
-461.26658821703614,688
-458.66822428996414,643
-456.07057792985,693
-453.4736489546475,676
-450.877437182231,653
-448.28194243039627,629
-445.68716451686,642
-443.09310325926003,645
-440.49975847515555,647
-437.9071299820263,645
-435.31521759727354,671
-432.72402113821954,707
-430.13354042210767,670
-427.5437752661022,706
-424.95472548728867,674
-422.36639090267386,715
-419.7787713291855,766
-417.1918665836721,775
-414.60567648290385,769
-412.0202008435715,742
-409.4354394822874,697
-406.8513922155845,738
-404.26805885991723,721
-401.685439231661,746
-399.103533147112,770
-396.522340422488,759
-393.9418608739278,714
-391.3620943174908,729
-388.7830405691583,742
-386.2046994448317,683
-383.6270707603344,680
-381.05015433141045,621
-378.473949973725,607
-375.8984575028645,639
-373.32367673433623,577
-370.74960748356875,610
-368.1762495659117,576
-365.60360279663576,537
-363.03166699093265,523
-360.4604419639154,527
-357.8899275306178,553
-355.32012350599507,480
-352.7510297049233,509
-350.1826459421999,485
-347.61497203254316,476
-345.04800779059235,512
-342.4817530309082,494
-339.91620756797226,496
-337.35137121618743,576
-334.7872437898774,608
-332.22382510328725,584
-329.66111497058273,516
-327.09911320585127,472
-324.53781962310075,488
-321.9772340362607,511
-319.4173562591816,533
-316.8581861056348,541
-314.2997233893127,506
-311.7419679238294,500
-309.1849195227194,497
-306.62857799943856,494
-304.0729431673641,528
-301.51801483979375,561
-298.963792829947,533
-296.41027695096386,507
-293.85746701590574,499
-291.3053628377552,499
-288.7539642294155,555
-286.2032710037115,639
-283.65328297338897,628
-281.1039999511146,627
-278.5554217494762,632
-276.007548180983,649
-273.4603790580651,681
-270.9139141930734,634
-268.3681533982807,585
-265.8230964858798,581
-263.27874326798565,617
-260.7350935566336,612
-258.1921471637804,587
-255.6499039013039,564
-253.10836358100266,595
-250.56752601459698,663
-248.02739101372765,683
-245.48795838995704,680
-242.94922795476816,638
-240.41119951956557,584
-237.8738728956746,648
-235.33724789434166,673
-232.80132432673452,668
-230.2661020039418,642
-227.73158073697357,588
-225.19776033676033,621
-222.66464061415422,715
-220.1322213799284,694
-217.60050244477725,608
-215.06948361931552,589
-212.53916471408013,683
-210.00954553952818,694
-207.48062590603843,643
-204.9524056239104,652
-202.4248845033651,710
-199.8980623545441,776
-197.37193898751036,750
-194.84651421224817,748
-192.32178783866232,728
-189.79775967657952,758
-187.27442953574644,847
-184.7517972258321,809
-182.2298625564256,837
-179.7086253370378,871
-177.18808537710026,763
-174.66824248596583,786
-172.14909647290835,917
-169.6306471471229,879
-167.11289431772548,757
-164.59583779375328,721
-162.07947738416453,864
-159.5638128978386,926
-157.04884414357605,1047
-154.53457093009854,1111
-152.02099306604828,1015
-149.50811035998936,836
-146.99592262040665,837
-144.48442965570587,979
-141.97363127421409,1261
-139.46352728417958,1392
-136.95411749377126,1382
-134.44540171107985,1284
-131.93737974411636,1055
-129.43005140081357,1080
-126.92341648902493,1210
-124.41747481652521,1370
-121.91222619101006,1659
-119.40767042009657,2607
-116.90380731132257,2914
-114.40063667214702,2654
-111.8981583099503,2027
-109.3963720320337,1348
-106.89527764561933,1183
-104.39487495785067,1642
-101.89516377579241,2947
-99.39614390642998,4142
-96.89781515667039,3853
-94.40017733334128,4220
-91.90323024319173,5816
-89.40697369289148,9648
-86.91140748903172,12454
-84.41653143812482,9990
-81.92234534660395,5974
-79.42884902082358,4275
-76.93604226705907,9617
-74.4439248915071,20615
-71.95249670028534,27524
-69.46175749943245,28917
-66.97170709490854,24574
-64.48234529259423,20877
-61.99367189829195,18880
-59.50568671772464,20745
-57.01838955653636,21956
-54.53178022029283,20739
-52.045858514480074,18732
-49.560624244506016,18305
-47.07607721569923,15717
-44.59221723330904,16294
-42.10904410250669,17053
-39.62655762838392,16260
-37.14475761595372,13412
-34.66364387015028,12498
-32.18321619582866,11103
-29.70347439776515,9010
-27.224418280657005,9405
-24.74604764912317,11110
-22.26836230770266,16440
-19.7913620608565,29848
-17.315046712966478,56028
-14.83941606833514,65041
-12.36446993118659,65041
-9.89020810566592,65041
-7.416630395839093,65041
-4.94373660569363,65041
-2.471526539137585,65041
-6.821210263296962E-13,65041
2.47084320796705,65041
4.941003281093458,65041
7.410480415786196,65041
9.879274808531363,65041
12.347386655893956,65041
14.814816154518212,65041
17.28156350112681,65041
19.74762889252179,65041
22.21301252558385,65041
24.67771459727237,20517
27.141735304626195,3800
29.605074844762612,2614
32.06773341487792,2652
34.52971121224755,2385
36.99100843422559,2279
39.45162527824516,2130
41.91156194181792,1994
44.370818622535126,1640
46.82939551806646,1588
49.287292826160524,2286
51.74451074464503,2420
54.201049471426245,2141
56.65690920448981,1860
59.112090141899785,1873
61.56659248179983,1851
64.02041642241159,1754
66.4735621620365,1476
68.92602989905402,1234
71.37781983192338,1258
73.82893215918205,1362
76.27936707944684,1509
78.72912479141326,1402
81.17820549385567,1592
83.62660938562783,1661
86.07433666566146,1755
88.5213875329681,1362
90.96776218663751,1307
93.41346082583925,1260
95.85848364982041,1421
98.30283085790859,1262
100.7465026495089,1231
103.18949922410604,1377
105.63182078126385,1288
108.07346752062438,1460
110.51443964190923,1302
112.95473734491827,1049
115.39436082953114,1034
117.83331029570547,1007
120.27158594347827,952
122.7091879729652,1012
125.1461165843615,1160
127.58237197794062,1027
130.01795435405518,1070
132.4528639131364,1109
134.88710085569494,1085
137.32066538231982,953
139.75355769367923,986
142.1857779905207,990
144.61732647366978,933
147.04820334403132,863
149.47840880258934,875
151.90794305040674,924
154.33680628862487,862
156.76499871846443,972
159.19252054122433,986
161.61937195828352,1168
164.04555317109896,1354
166.47106438120693,1419
168.89590579022217,1391
171.320077599839,1396
173.7435800118302,1421
176.16641322804742,1555
178.58857745042144,1628
181.01007288096173,1691
183.43089972175687,1570
185.85105817497413,1702
188.27054844285988,1598
190.6893707277394,1541
193.10752523201643,1638
195.5250121581745,1580
197.9418317087751,1622
200.3579840864594,1636
202.7734694939469,1753
205.18828813403627,1618
207.6024402096051,1752
210.01592592360964,1793
212.42874547908548,1856
214.84089907914665,1832
217.2523869269868,1739
219.66320922587727,1728
222.0733661791695,1719
224.48285799029293,1698
226.8916848627572,1687
229.29984700014882,1833
231.7073446061355,1787
234.11417788446204,1802
236.520347038953,1802
238.92585227351185,1764
241.33069379212054,1719
243.73487179884035,1789
246.1383864978112,1768
248.541238093252,1785
250.9434267894609,1786
253.34495279081432,1820
255.74581630176783,1813
258.1460175268563,1719
260.54555667069314,1650
262.9444339379703,1686
265.3426495334594,1701
267.7402036620107,1760
270.1370965285529,1884
272.53332833809407,1840
274.9288992957214,1773
277.32380960660055,1776
279.718059475976,1717
282.1116491091717,1706
284.5045787115897,1762
286.89684848871195,1720
289.2884586460981,1774
291.67940938938807,1751
294.0697009242996,1742
296.4593334566299,1783
298.84830719225477,1904
301.23662233712923,1843
303.6242790972866,1755
306.01127767884,1826
308.39761828798066,1772
310.78330113097934,1704
313.16832641418534,1683
315.5526943440269,1684
317.9364051270112,1720
320.3194589697242,1612
322.70185607883093,1661
325.0835966610754,1707
327.4646809232805,1630
329.8451090723478,1614
332.2248813152577,1618
334.6039978590701,1636
336.9824589109231,1597
339.36026467803447,1566
341.7374153677,1568
344.113911187295,1533
346.48975234427337,1526
348.8649390461686,1610
351.2394715005918,1517
353.61334991523415,1619
355.9865744978655,1546
358.35914545633375,1526
360.73106299856715,1587
363.10232733257146,1504
365.47293866643247,1534
367.84289720831396,1470
370.2122031664593,1500
372.5808567491905,1513
374.9488581649083,1490
377.31620762209275,1443
379.6829053293021,1474
382.0489514951745,1494
384.4143463284262,1403
386.7790900378528,1438
389.14318283232853,1456
391.50662492080653,1493
393.86941651231916,1529
396.23155781597745,1453
398.5930490409713,1441
400.9538903965696,1466
403.3140820921202,1485
405.6736243370498,1522
408.03251734086336,1435
410.3907613131465,1434
412.74835646356166,1365
415.10530300185144,1441
417.4616011378372,1466
419.81725108141893,1406
422.1722530425758,1428
424.5266072313656,1400
426.880313857925,1389
429.2333731324701,1435
431.58578526529516,1406
433.9375504667738,1389
436.2886689473588,1371
438.63914091758113,1409
440.9889665880513,1384
443.33814616945835,1414
445.68667987257015,1407
448.03456790823395,1415
450.3818104873759,1391
452.72840782100013,1385
455.07436012019105,1344
457.41966759611057,1383
459.7643304600007,1403
462.10834892318155,1358
464.4517231970525,1321
466.79445349309174,1298
469.1365400228566,1411
471.4779829979826,1358
473.81878263018564,1326
476.15893913125876,1440
478.4984527130747,1380
480.8373235875855,1433
483.17555196682144,1404
485.5131380628919,1395
487.8500820879857,1459
490.1863842543697,1464
492.52204477439034,1560
494.8570638604725,1571
497.1914417251204,1778
499.52517858091653,1869
501.85827464052306,2191
504.19073011668036,2723
506.5225452222086,3344
508.85372017000566,3890
511.18425517304956,4116
513.514150444396,4314
515.8434061971808,4815
518.1720226446176,5105
520.4999999999999,4858
522.8273384766991,4428
525.1540382881666,3605
527.480099647932,3139
529.8055227696037,2620
532.1303078668694,2072
534.454455153496,1721
536.777964843328,1637
539.1008371502907,1571
541.4230722883866,1475
543.744670471698,1509
546.0656319143858,1479
548.3859568306899,1415
550.7056454349294,1452
553.0246979415016,1407
555.3431145648834,1455
557.6608955196306,1538
559.978041020377,1414
562.2945512818363,1400
564.6104265188006,1419
566.9256669461412,1429
569.2402727788082,1428
571.5542442318302,1432
573.8675815203156,1438
576.1802848594508,1448
578.4923544645015,1499
580.8037905508126,1438
583.114593333807,1484
585.4247630289875,1423
587.7342998519354,1443
590.0432040183106,1458
592.3514757438526,1392
594.6591152443794,1434
596.9661227357875,1428
599.2724984340531,1435
601.578242555231,1387
603.8833553154542,1447
606.1878369309362,1401
608.4916876179676,1430
610.7949075929192,1405
613.0974970722403,1396
615.3994562724587,1464
617.7007854101818,1431
620.0014847020951,1477
622.3015543649641,1444
624.6009946156324,1411
626.8998056710224,1444
629.1979877481361,1444
631.4955410640538,1450
633.7924658359349,1431
636.0887622810175,1419
638.3844306166192,1363
640.6794710601358,1452
642.9738838290426,1422
645.2676691408932,1439
647.5608272133207,1418
649.853358264037,1401
652.1452625108324,1471
654.4365401715764,1444
656.7271914642178,1460
659.0172166067838,1435
661.3066158173809,1481
663.5953893141935,1424
665.8835373154867,1429
668.1710600396028,1423
670.4579577049639,1442
672.7442305300709,1437
675.0298787335033,1480
677.3149025339197,1450
679.599302150058,1444
681.8830778007342,1479
684.1662297048437,1405
686.4487580813608,1509
688.7306631493387,1436
691.0119451279091,1519
693.2926042362834,1430
695.5726406937516,1422
697.8520547196814,1419
700.1308465335215,1494
702.4090163547982,1435
704.6865644031171,1440
706.9634908981619,1379
709.2397960596965,1503
711.5154801075631,1422
713.7905432616823,1423
716.0649857420548,1437
718.3388077687592,1444
720.612009561953,1453
722.8845913418733,1442
725.1565533288352,1471
727.427895743234,1456
729.6986188055427,1421
731.9687227363137,1446
734.238207756178,1469
736.5070740858458,1420
738.7753219461066,1477
741.0429515578281,1465
743.3099631419569,1471
745.5763569195191,1425
747.8421331116193,1458
750.1072919394409,1453
752.3718336242467,1442
754.6357583873777,1403
756.8990664502545,1436
759.1617580343765,1434
761.423833361321,1452
763.6852926527457,1433
765.9461361303862,1459
768.206364016058,1497
770.4659765316536,1455
772.7249738991469,1464
774.9833563405886,1488
777.2411240781092,1477
779.4982773339183,1487
781.7548163303044,1460
784.010741289634,1457
786.2660524343538,1590
788.5207499869881,1514
790.7748341701416,1454
793.0283052064964,1453
795.2811633188143,1512
797.5334087299362,1513
799.7850416627813,1543
802.0360623403484,1468
804.2864709857143,1508
806.5362678220353,1474
808.7854530725468,1499
811.0340269605625,1476
813.2819897094754,1499
815.5293415427581,1501
817.77608268396,1493
820.0222133567116,1577
822.2677337847211,1546
824.5126441917765,1500
826.7569448017433,1478
829.0006358385675,1521
831.2437175262731,1436
833.4861900889629,1434
835.7280537508192,1426
837.9693087361026,1483
840.2099552691533,1496
842.4499935743896,1536
844.689423876309,1445
846.9282463994886,1581
849.1664613685833,1476
851.4040690083276,1507
853.6410695435349,1492
855.877463199097,1461
858.1132501999847,1441
860.3484307712487,1562
862.5830051380175,1572
864.8169735254988,1514
867.0503361589791,1490
869.2830932638243,1463
871.5152450654786,1492
873.7467917894654,1506
875.9777336613873,1507
878.2080709069252,1483
880.4378037518389,1517
882.666932421968,1474
884.8954571432301,1459
887.1233781416219,1546
889.3506956432192,1569
891.5774098741766,1469
893.803521060728,1460
896.0290294291852,1452
898.2539352059397,1486
900.4782386174619,1486
902.7019398903011,1483
904.925039251085,1493
907.147536926521,1501
909.3694331433943,1476
911.59072812857,1443
913.8114221089921,1474
916.0315153116827,1519
918.2510079637437,1513
920.4699002923547,1498
922.6881925247761,1453
924.905884888345,1489
927.1229776104793,1626
929.3394709186747,1475
931.555365040506,1516
933.7706602036275,1479
935.9853566357709,1465
938.1994545647489,1506
940.4129542184515,1509
942.6258558248488,1566
944.8381596119883,1545
947.0498658079974,1504
949.2609746410825,1572
951.4714863395287,1425
953.6814011316998,1485
955.8907192460387,1523
958.0994409110671,1572
960.3075663553858,1486
962.5150958076741,1493
964.7220294966913,1516
966.928367651274,1507
969.1341105003388,1447
971.3392582728806,1431
973.5438111979742,1465
975.747769504772,1398
977.9511334225061,1401
980.153903180487,1364
982.3560790081052,1403
984.5576611348289,1368
986.7586497902058,1317
988.9590452038618,1384
991.158847605503,1377
993.3580572249133,1381
995.5566742919558,1294
997.7546990365728,1359
999.952131688785,1350
1002.1489724786926,1283
1004.3452216364743,1268
1006.5408793923874,1261
1008.7359459767691,1196
1010.9304216200343,1240
1013.1243065526781,1194
1015.3176010052733,1260
1017.510305208472,1244
1019.7024193930064,1206
1021.8939437896848,1195
1024.0848786293977,1176
1026.2752241431122,1204
1028.4649805618747,1214
1030.6541481168115,1197
1032.842727039127,1178
1035.0307175601051,1183
1037.2181199111074,1185
1039.4049343235752,1156
1041.591161029029,1113
1043.7768002590683,1146
1045.9618522453698,1129
1048.1463172196918,1143
1050.3301954138697,1094
1052.513487059818,1147
1054.69619238953,1140
1056.8783116350783,1130
1059.0598450286152,1073
1061.2407928023704,1087
1063.4211551886528,1110
1065.6009324198508,1169
1067.780124728432,1134
1069.9587323469414,1132
1072.1367555080046,1094
1074.314194444325,1123
1076.4910493886855,1183
1078.667320573947,1108
1080.843008233051,1139
1083.0181125990161,1085
1085.1926339049414,1086
1087.3665723840027,1182
1089.5399282694575,1100
1091.7127017946405,1066
1093.8848931929647,1076
1096.0565026979243,1085
1098.2275305430899,1089
1100.3979769621128,1101
1102.567842188722,1101
1104.737126456726,1070
1106.9058300000124,1076
1109.0739530525475,1051
1111.2414958483764,1109
1113.4084586216231,1065
1115.5748416064907,1076
1117.7406450372605,1046
1119.9058691482942,1085
1122.0705141740304,1080
1124.2345803489884,1102
1126.3980679077658,1097
1128.5609770850388,1056
1130.7233081155623,1032
1132.8850612341707,1061
1135.0462366757774,1042
1137.2068346753745,1071
1139.3668554680326,1077
1141.526299288901,1060
1143.68516637321,1046
1145.8434569562655,1076
1148.001171273455,1087
1150.158309560244,1001
1152.3148720521767,1052
1154.470858984876,1059
1156.626270594044,1031
1158.7811071154629,1033
1160.9353687849912,1044
1163.089055838569,1074
1165.242168512213,1066
1167.3947070420209,1057
1169.5466716641677,1031
1171.6980626149075,1048
1173.8488801305748,991
1175.9991244475814,1030
1178.1487958024186,997
1180.2978944316555,1005
1182.4464205719428,1099
1184.5943744600072,1058
1186.7417563326567,1065
1188.8885664267755,1033
1191.0348049793297,1032
1193.1804722273619,977
1195.325568407995,1023
1197.4700937584303,1069
1199.614048515948,1009
1201.7574329179074,1046
1203.900247201746,1005
1206.042491604982,1012
1208.1841663652099,1054
1210.3252717201053,1008
1212.465807907422,1103
1214.6057751649923,1075
1216.7451737307279,1042
1218.8840038426192,1022
1221.0222657387353,1058
1223.1599596572241,1021
1225.2970858363137,1056
1227.4336445143094,979
1229.5696359295966,1066
1231.705060320639,979
1233.8399179259786,1034
1235.9742089842384,1068
1238.107933734118,1024
1240.2410924143974,1037
1242.373685263935,1087
1244.5057125216676,1040
1246.6371744266116,1016
1248.7680712178621,978
1250.898403134593,1016
1253.028170416058,996
1255.1573733015875,997
1257.2860120305932,1020
1259.4140868425648,1060
1261.54159797707,1041
1263.6685456737569,1056
1265.7949301723515,1070
1267.9207517126597,1052
1270.046010534565,1032
1272.1707068780306,1046
1274.2948409830983,1047
1276.4184130898889,1064
1278.541423438603,989
1280.6638722695184,1054
1282.785759822993,1084
1284.9070863394636,1056
1287.0278520594447,1038
1289.1480572235314,1045
1291.2677020723963,1035
1293.3867868467923,1105
1295.5053117875495,1081
1297.623277135579,1042
1299.740683131868,1059
1301.8575300174857,1084
1303.973818033578,1056
1306.0895474213703,1049
1308.2047184221678,1018
1310.3193312773528,1011
1312.4333862283888,1043
1314.5468835168163,1049
1316.659823384255,1053
1318.7722060724045,1083
1320.8840318230418,1053
1322.9953008780249,1061
1325.1060134792888,975
1327.2161698688478,1056
1329.3257702887959,1044
1331.4348149813054,1084
1333.5433041886276,1017
1335.6512381530933,1037
1337.7586171171101,1048
1339.8654413231675,1068
1341.9717110138317,1089
1344.0774264317488,1042
1346.1825878196432,1053
1348.2871954203192,1022
1350.3912494766587,1026
1352.4947502316231,1057
1354.5976979282532,1078
1356.7000928096686,1063
1358.8019351190665,1067
1360.9032250997243,1010
1363.0039629949988,1033
1365.1041490483235,1032
1367.2037835032133,1045
1369.3028666032606,1056
1371.401398592137,1032
1373.4993797135926,1091
1375.5968102114575,1093
1377.6936903296396,1118
1379.7900203121262,1059
1381.8858004029835,1029
1383.9810308463561,1059
1386.075711886469,1037
1388.1698437676241,1072
1390.2634267342032,1053
1392.356461030667,1049
1394.4489469015557,1109
1396.5408845914872,1088
1398.6322743451592,1036
1400.7231164073469,1046
1402.813411022907,1048
1404.903158436773,1066
1406.9923588939578,1051
1409.0810126395531,1053
1411.1691199187303,1076
1413.2566809767386,1052
1415.343696058907,1122
1417.4301654106425,1122
1419.5160892774315,1068
1421.6014679048399,1108
1423.6863015385125,1106
1425.7705904241707,1070
1427.8543348076178,1062
1429.9375349347342,1093
1432.0201910514802,1062
1434.102303403894,1079
1436.1838722380944,1110
1438.2648978002767,1122
1440.3453803367174,1086
1442.4253200937692,1098
1444.5047173178677,1088
1446.5835722555234,1084
1448.6618851533285,1093
1450.739656257952,1096
1452.8168858161434,1043
1454.8935740747306,1114
1456.96972128062,1114
1459.045327680797,1086
1461.120393522327,1078
1463.1949190523528,1124
1465.2689045180973,1099
1467.3423501668608,1074
1469.415256246024,1097
1471.4876230030463,1146
1473.559450685465,1164
1475.6307395408976,1081
1477.7014898170391,1111
1479.771701761665,1041
1481.8413756226287,1105
1483.9105116478618,1077
1485.9791100853772,1081
1488.0471711832643,1085
1490.1146951896926,1082
1492.1816823529098,1094
1494.2481329212433,1116
1496.3140471430984,1097
1498.3794252669609,1145
1500.4442675413939,1063
1502.5085742150404,1145
1504.572345536622,1038
1506.6355817549388,1072
1508.6982831188702,1110
1510.7604498773744,1049
1512.8220822794883,1081
1514.8831805743293,1053
1516.9437450110909,1093
1519.003775839048,1178
1521.0632733075522,1078
1523.1222376660367,1084
1525.1806691640113,1089
1527.2385680510652,1086
1529.2959345768668,964
1531.3527689911643,1076
1533.4090715437833,1083
1535.4648424846291,1081
1537.5200820636855,1094
1539.5747905310159,1088
1541.6289681367616,1086
1543.6826151311434,1125
1545.7357317644614,1107
1547.7883182870937,1092
1549.8403749494987,1085
1551.8919020022113,1116
1553.9428996958477,1081
1555.9933682811015,1117
1558.0433080087469,1124
1560.0927191296346,1069
1562.1416018946961,1099
1564.1899565549415,1097
1566.2377833614592,1091
1568.2850825654164,1136
1570.3318544180606,1122
1572.3780991707158,1101
1574.423817074788,1082
1576.4690083817595,1078
1578.5136733431923,1085
1580.5578122107272,1082
1582.601425236085,1069
1584.6445126710646,1060
1586.6870747675434,1101
1588.7291117774776,1064
1590.7706239529034,1094
1592.8116115459347,1074
1594.8520748087658,1114
1596.8920139936686,1083
1598.9314293529933,1092
1600.9703211391711,1057
1603.008689604711,1054
1605.0465350022005,1105
1607.0838575843068,1092
1609.1206576037753,1065
1611.1569353134305,1094
1613.1926909661765,1116
1615.2279248149953,1050
1617.2626371129481,1101
1619.2968281131757,1102
1621.3304980688963,1072
1623.3636472334088,1101
1625.39627586009,1103
1627.428384202396,1118
1629.459972513861,1071
1631.4910410480993,1052
1633.5215900588028,1048
1635.551619799744,1099
1637.5811305247717,1061
1639.6101224878166,1076
1641.6385959428862,1070
1643.6665511440683,1132
1645.693988345528,1099
1647.7209078015112,1076
1649.7473097663405,1065
1651.7731944944203,1052
1653.7985622402307,1074
1655.823413258333,1068
1657.847747803366,1079
1659.8715661300494,1098
1661.8948684931793,1083
1663.9176551476316,1073
1665.9399263483624,1098
1667.9616823504057,1056
1669.982923408873,1128
1672.0036497789574,1077
1674.0238617159293,1058
1676.043559475138,1045
1678.0627433120121,1087
1680.081413482059,1081
1682.0995702408654,1041
1684.117213844096,1083
1686.134344547495,1112
1688.1509626068864,1098
1690.1670682781705,1079
1692.182661817329,1096
1694.1977434804217,1080
1696.2123135235875,1071
1698.226372203043,1051
1700.2399197750851,1095
1702.2529564960905,1126
1704.2654826225112,1092
1706.277498410882,1058
1708.2890041178139,1077
1710.2999999999988,1058
1712.3104863142066,1112
1714.3204633172854,1089
1716.329931266163,1047
1718.3388904178469,1083
1720.3473410294214,1078
1722.3552833580516,1093
1724.3627176609807,1089
1726.3696441955308,1145
1728.3760632191033,1053
1730.3819749891782,1058
1732.3873797633146,1065
1734.3922777991502,1070
1736.3966693544012,1078
1738.4005546868639,1099
1740.4039340544127,1081
1742.406807715001,1074
1744.4091759266616,1050
1746.4110389475054,1087
1748.4123970357223,1060
1750.413250449582,1052
1752.4135994474318,1068
1754.4134442876993,1162
1756.4127852288902,1046
1758.4116225295893,1063
1760.4099564484595,1070
1762.407787244244,1081
1764.405115175764,1066
1766.4019405019203,1078
1768.3982634816916,1061
1770.3940843741357,1103
1772.3894034383907,1053
1774.3842209336717,1054
1776.378537119274,1112
1778.372352254571,1089
1780.3656665990156,1069
1782.3584804121397,1036
1784.3507939535534,1081
1786.3426074829463,1100
1788.3339212600863,1081
1790.3247355448211,1088
1792.3150505970766,1017
1794.3048666768573,1057
1796.2941840442477,1109
1798.2830029594106,1102
1800.2713236825884,1074
1802.2591464741004,1091
1804.2464715943465,1116
1806.2332993038058,1082
1808.2196298630352,1089
1810.2054635326708,1094
1812.190800573428,1081
1814.175641246101,1082
1816.1599858115628,1087
1818.1438345307652,1095
1820.127187664738,1090
1822.1100454745924,1066
1824.092408221516,1097
1826.0742761667766,1068
1828.055649571721,1098
1830.0365286977735,1100
1832.0169138064398,1099
1833.9968051593014,1128
1835.9762030180214,1119
1837.9551076443408,1104
1839.9335193000788,1118
1841.9114382471344,1091
1843.888864747485,1099
1845.8657990631878,1098
1847.842241456378,1108
1849.8181921892697,1151
1851.7936515241558,1078
1853.7686197234098,1126
1855.7430970494815,1073
1857.7170837649014,1079
1859.6905801322787,1061
1861.6635864143004,1109
1863.6361028737338,1079
1865.608129773424,1077
1867.5796673762961,1079
1869.5507159453537,1120
1871.521275743678,1106
1873.4913470344313,1083
1875.4609300808534,1064
1877.4300251462632,1088
1879.3986324940588,1108
1881.366752387717,1078
1883.3343850907936,1065
1885.3015308669228,1085
1887.268189979819,1107
1889.2343626932739,1097
1891.2000492711595,1091
1893.1652499774254,1133
1895.1299650761011,1096
1897.0941948312952,1100
1899.0579395071945,1042
1901.0211993680641,1112
1902.98397467825,1117
1904.9462657021745,1125
1906.9080727043415,1087
1908.869395949332,1118
1910.8302357018065,1081
1912.790592226504,1093
1914.7504657882428,1091
1916.7098566519212,1089
1918.6687650825133,1092
1920.6271913450764,1033
1922.5851357047422,1047
1924.5425984267245,1111
1926.499579776314,1086
1928.4560800188833,1114
1930.4120994198802,1110
1932.367638244833,1128
1934.32269675935,1129
1936.2772752291175,1124
1938.231373919899,1105
1940.1849930975404,1050
1942.1381330279637,1107
1944.0907939771696,1096
1946.0429762112412,1122
1947.9946799963363,1146
1949.9459055986945,1097
1951.896653284633,1075
1953.8469233205478,1123
1955.7967159729142,1142
1957.7460315082863,1092
1959.6948701932974,1086
1961.6432322946594,1094
1963.5911180791632,1119
1965.5385278136787,1089
1967.4854617651545,1137
1969.4319202006182,1102
1971.377903387176,1102
1973.3234115920136,1149
1975.268445082395,1145
1977.2130041256642,1103
1979.1570889892423,1081
1981.1006999406304,1147
1983.04383724741,1109
1984.986501177238,1141
1986.928691997853,1126
1988.8704099770712,1116
1990.811655382789,1107
1992.7524284829801,1102
1994.692729545698,1079
1996.6325588390755,1087
1998.5719166313224,1045
2000.5108031907307,1087
2002.4492187856677,1134
2004.387163684583,1136
2006.3246381560011,1106
2008.2616424685298,1107
2010.1981768908527,1135
2012.1342416917332,1109
2014.069837140014,1106
2016.0049635046162,1080
2017.9396210545406,1101
2019.8738100588666,1104
2021.8075307867502,1116
2023.740783507431,1102
2025.6735684902228,1065
2027.6058860045214,1124
2029.5377363198004,1083
2031.4691197056118,1077
2033.4000364315875,1115
2035.3304867674374,1110
2037.260470982952,1091
2039.189989347998,1096
2041.1190421325232,1132
2043.047629606554,1073
2044.9757520401945,1120
2046.9034097036288,1125
2048.8306028671195,1115
2050.7573318010086,1096
2052.683596775716,1111
2054.609398061742,1100
2056.5347359296647,1101
2058.4596106501403,1121
2060.384022493906,1092
2062.3079717317764,1059
2064.231458634646,1121
2066.1544834734873,1090
2068.077046519352,1047
2069.99914804337,1099
2071.9207883167524,1116
2073.8419676107865,1081
2075.7626861968406,1127
2077.6829443463607,1130
2079.6027423308715,1137
2081.522080421977,1073
2083.440958891362,1090
2085.359378010786,1160
2087.2773380520907,1065
2089.194839287196,1058
2091.111881988101,1092
2093.0284664268825,1072
2094.9445928756973,1129
2096.86026160678,1103
2098.775472892446,1060
2100.690227005088,1120
2102.604524217178,1103
2104.5183648012676,1131
2106.431749029985,1113
2108.34467717604,1070
2110.2571495122206,1105
2112.169166311393,1071
2114.080727846503,1110
2115.9918343905747,1080
2117.902486216711,1042
2119.8126835980956,1056
2121.722426807987,1083
2123.6317161197285,1056
2125.5405518067364,1095
2127.448934142509,1103
2129.356863400624,1070
2131.264339854737,1066
2133.1713637785815,1093
2135.077935445972,1056
2136.9840551308002,1079
2138.889723107037,1124
2140.7949396487334,1083
2142.699705030018,1130
2144.6040195250994,1092
2146.507883408264,1153
2148.4112969538774,1120
2150.3142604363848,1147
2152.2167741303097,1062
2154.1188383102535,1107
2156.0204532508997,1051
2157.9216192270064,1098
2159.822336513414,1105
2161.7226053850413,1083
2163.622426116884,1092
2165.5217989840185,1071
2167.4207242616,1086
2169.319202224862,1126
2171.2172331491165,1083
2173.1148173097563,1132
2175.0119549822507,1061
2176.90864644215,1136
2178.8048919650823,1149
2180.7006918267534,1138
2182.596046302952,1133
2184.4909556695407,1145
2186.3854202024645,1130
2188.279440177746,1113
2190.173015871487,1105
2192.066147559868,1108
2193.958835519149,1071
2195.851080025667,1150
2197.7428813558417,1110
2199.6342397861667,1124
2201.5251555932186,1094
2203.415629053651,1161
2205.3056604441986,1090
2207.19525004167,1083
2209.084398122958,1119
2210.9731049650327,1130
2212.861370844941,1159
2214.749196039812,1146
2216.636580826851,1129
2218.523525483344,1127
2220.410030286655,1169
2222.296095514226,1126
2224.1817214435805,1147
2226.066908352319,1140
2227.951656518121,1132
2229.835966218746,1087
2231.71983773203,1144
2233.6032713358913,1142
2235.486267308324,1133
2237.3688259274036,1141
2239.2509474712824,1103
2241.132632218193,1174
2243.013880446447,1151
2244.8946924344323,1133
2246.7750684606203,1183
2248.6550088035574,1137
2250.534513741871,1123
2252.413583554265,1163
2254.292218519526,1159
2256.170418916517,1184
2258.0481850241786,1131
2259.925517121534,1145
2261.8024154876825,1181
2263.678880401803,1155
2265.5549121431536,1157
2267.430510991071,1211
2269.305677224971,1148
2271.180411124348,1153
2273.0547129687766,1169
2274.9285830379076,1128
2276.8020216114737,1145
2278.6750289692845,1104
2280.5476053912294,1127
2282.4197511572766,1123
2284.2914665474727,1218
2286.162751841943,1201
2288.0336073208937,1191
2289.904033264608,1161
2291.774029953448,1173
2293.6435976678554,1195
2295.5127366883517,1173
2297.381447295534,1144
2299.2497297700825,1141
2301.1175843927526,1082
2302.9850114443825,1099
2304.852011205885,998
2306.7185839582553,1031
2308.5847299825664,1032
2310.4504495599676,999
2312.3157429716925,1014
2314.1806104990483,992
2316.0450524234247,989
2317.9090690262888,1000
2319.772660589186,986
2321.635827393742,1011
2323.498569721661,1002
2325.3608878547248,1038
2327.2227820747967,996
2329.0842526638157,974
2330.945299903803,985
2332.805924076857,966
2334.6661254651535,969
2336.525904350951,985
2338.3852610165827,1002
2340.244195744464,981
2342.102708817088,980
2343.9608005170253,978
2345.8184711269287,1015
2347.675720929526,1020
2349.532550207628,932
2351.38895924412,990
2353.24494832197,1000
2355.100517724223,971
2356.955667734004,975
2358.810398634514,1020
2360.664710709037,971
2362.5186042409337,987
2364.3720795136437,985
2366.225136810686,977
2368.0777764156583,996
2369.929998612237,983
2371.7818036841777,999
2373.633191915315,984
2375.484163589562,1023
2377.3347189909114,980
2379.184858403434,1016
2381.03458211128,979
2382.8838903986775,981
2384.732783549936,1011
2386.5812618494406,980
2388.4293255816588,939
2390.2769750311327,1019
2392.1242104824883,947
2393.971032220427,972
2395.8174405297295,962
2397.6634356952563,952
2399.509018001947,987
2401.3541877348193,945
2403.1989451789705,1002
2405.043290619576,969
2406.8872243418905,981
2408.730746631247,1002
2410.5738577730594,998
2412.4165580528183,975
2414.258847756095,999
2416.100727168537,981
2417.9421965758734,1006
2419.783256263912,1027
2421.623906518538,1033
2423.4641476257157,972
2425.303979871491,982
2427.143403541984,964
2428.9824189233977,989
2430.821026302012,1043
2432.6592259641866,994
2434.497018196361,1001
2436.33440328505,955
2438.171381516851,964
2440.00795317844,981
2441.844118556569,993
2443.6798779380724,1050
2445.5152316098606,995
2447.3501798589255,996
2449.1847229723357,1018
2451.0188612372403,985
2452.8525949408663,1034
2454.6859243705203,981
2456.518849813587,979
2458.3513715575314,997
2460.183489889895,980
2462.015205098301,988
2463.8465174704493,997
2465.67742729412,1021
2467.5079348571717,1014
2469.338040447542,986
2471.1677443532476,977
2472.9970468623833,995
2474.825948263123,956
2476.6544488437207,1038
2478.482548892508,982
2480.310248697896,942
2482.137548548374,962
2483.9644487325118,1035
2485.790949538956,958
2487.617051256433,1006
2489.44275417375,999
2491.26805857979,985
2493.0929647635157,985
2494.917473013971,959
2496.741583620276,967
2498.5652968716304,957
2500.3886130573137,958
2502.2115324666834,975
2504.0340553891765,984
2505.856182114308,1031
2507.6779129316733,1040
2509.499248130945,985
2511.3201880018764,1010
2513.140732834298,984
2514.9608829181198,946
2516.780638543331,962
2518.6,969
2520.418967578273,1009
2522.237541568376,999
2524.0557222606144,1017
2525.8735099453706,997
2527.6909049131086,957
2529.507907454368,978
2531.32451785977,994
2533.140736420014,1000
2534.9565634258774,994
2536.771999168218,972
2538.5870439379714,956
2540.4016980261526,1008
2542.2159617238544,964
2544.02983532225,1002
2545.8433191125914,1014
2547.656413386209,957
2549.4691184345115,933
2551.2814345489874,1004
2553.093362021204,988
2554.904901142808,951
2556.716052205523,992
2558.526815501153,985
2560.3371913215824,982
2562.147179958771,996
2563.956781704761,980
2565.7659968516705,984
2567.5748256916986,963
2569.3832685171224,977
2571.1913256202984,1000
2572.9989972936614,1027
2574.806283829725,964
2576.613185521084,993
2578.4197026604074,965
2580.2258355404483,946
2582.031584454035,994
2583.836949694077,1019
2585.6419315535613,952
2587.4465303255533,988
2589.2507463032002,942
2591.0545797797245,979
2592.8580310484303,1024
2594.6611004026995,952
2596.463788135992,997
2598.266094541849,966
2600.0680199138874,1006
2601.869564545807,958
2603.670728731383,983
2605.4715127644704,986
2607.2719169390048,956
2609.071941548998,944
2610.8715868885433,988
2612.670853251811,975
2614.469740933052,967
2616.268250226594,983
2618.0663814268455,977
2619.864134828292,982
2621.6615107255006,968
2623.458509413115,978
2625.2551311858597,976
2627.0513763385347,968
2628.8472451660223,1010
2630.6427379632833,962
2632.4378550253564,976
2634.232596647359,943
2636.026963124488,966
2637.8209547520187,954
2639.6145718253065,996
2641.407814639785,963
2643.200683490966,977
2644.9931786744414,1031
2646.7853004858807,982
2648.577049221034,989
2650.3684251757277,952
2652.1594286458712,974
2653.9500599274484,1035
2655.740319316525,969
2657.5302071092437,989
2659.3197236018286,1021
2661.10886909058,989
2662.8976438718782,1015
2664.686048242183,968
2666.4740824980327,953
2668.2617469360443,995
2670.0490418529134,944
2671.8359675454153,1018
2673.622524310403,967
2675.408712444811,976
2677.1945322456495,1029
2678.979984010009,997
2680.76506803506,990
2682.5497846180497,954
2684.334134056306,1019
2686.1181166472343,963
2687.9017326883213,946
2689.6849824771293,997
2691.4678663113013,989
2693.2503844885596,1034
2695.032537306705,955
2696.8143250636167,1028
2698.5957480572542,993
2700.3768065856534,980
2702.1575009469316,939
2703.937831439283,939
2705.717798360982,969
2707.4974020103837,973
2709.276642685917,987
2711.055520686095,998
2712.834036309506,942
2714.612189854819,986
2716.389981620782,996
2718.1674119062204,1005
2719.944481010041,969
2721.721189231226,1010
2723.4975368688415,989
2725.273524222027,996
2727.0491515900053,947
2728.824419272075,972
2730.5993275676146,992
2732.3738767760838,985
2734.148067197016,1005
2735.921899130031,949
2737.6953728748194,963
2739.468488731156,1007
2741.2412469988926,1023
2743.0136479779617,948
2744.785691968372,951
2746.5573792702116,990
2748.3287101836504,938
2750.099685008934,939
2751.870304046388,950
2753.640567596418,921
2755.4104759595057,1024
2757.1800294362156,1003
2758.949228327187,976
2760.7180729331412,1030
2762.486563554877,982
2764.254700493272,950
2766.022484049284,953
2767.789914523947,983
2769.5569922183786,973
2771.3237174337705,1005
2773.090090471394,1009
2774.8561116326036,1005
2776.6217812188274,934
2778.3870995315756,969
2780.1520668724356,990
2781.9166835430747,936
2783.6809498452394,994
2785.444866080754,1024
2787.2084325515225,1004
2788.971649559527,960
2790.73451740683,969
2792.4970363955713,914
2794.2592068279705,982
2796.0210290063264,973
2797.7825032330147,961
2799.543629810493,956
2801.304409041296,948
2803.0648412280366,981
2804.8249266734088,995
2806.5846656801846,970
2808.344058551212,938
2810.1031055894246,1017
2811.8618070978273,1044
2813.6201633795085,985
2815.378174737636,1036
2817.1358414754536,1002
2818.893163896285,1009
2820.6501423035334,990
2822.4067770006814,986
2824.1630682912883,1001
2825.9190164789957,977
2827.6746218675207,1024
2829.429884760661,974
2831.184805462294,989
2832.9393842763743,1030
2834.693621506936,969
2836.4475174580916,935
2838.201072434034,967
2839.954286739034,1019
2841.707160677441,1005
2843.459694553685,976
2845.2118886722724,1027
2846.96374333779,996
2848.7152588549034,976
2850.4664355283567,969
2852.217273662973,1012
2853.9677735636546,978
2855.7179355353833,978
2857.4677598832186,996
2859.217246912299,978
2860.9663969278427,1011
2862.715210235146,976
2864.4636871395846,951
2866.211827946614,975
2867.9596329617652,1012
2869.7071024906536,960
2871.4542368389684,1007
2873.20103631248,967
2874.947501217038,985
2876.6936318585695,979
2878.4394285430812,969
2880.1848915766604,1000
2881.9300212654707,1007
2883.6748179157553,1049
2885.4192818338374,986
2887.1634133261173,952
2888.907212699077,990
2890.6506802592744,994
2892.393816313348,1011
2894.1366211680142,978
2895.8790951300693,976
2897.621238506388,1011
2899.363051603925,1027
2901.1045347297118,1011
2902.8456881908596,982
2904.58651229456,1015
2906.327007348081,1048
2908.067173658772,1017
2909.8070115340597,999
2911.5465212814497,1008
2913.285703208527,980
2915.0245576229563,978
2916.7630848324807,1000
2918.5012851449196,936
2920.2391588681758,1017
2921.976706310227,985
2923.7139277791334,1003
2925.4508235830313,997
2927.187394030137,971
2928.923639428745,1016
2930.6595600872306,1022
2932.395156314046,1024
2934.1304284177218,1024
2935.8653767068713,1049
2937.6000014901815,1013
2939.3343030764227,990
2941.068281774442,990
2942.8019378931644,1027
2944.5352717415976,947
2946.2682836288236,1000
2948.0009738640065,992
2949.7333427563885,979
2951.465390615289,968
2953.1971177501086,1010
2954.9285244703265,985
2956.6596110855,994
2958.3903779052657,995
2960.1208252393385,947
2961.8509533975125,971
2963.5807626896617,988
2965.3102534257378,1051
2967.0394259157715,982
2968.768280469873,976
2970.496817398232,984
2972.2250370111146,938
2973.952939618869,1003
2975.6805255319196,967
2977.4077950607707,981
2979.134748516006,994
2980.861386208289,996
2982.587708448359,1037
2984.313715547037,1000
2986.039407815222,976
2987.764785563891,980
2989.489849104102,1000
2991.2145987469908,990
2992.9390348037705,982
2994.6631575857346,1005
2996.3869674042576,994
2998.1104645707887,1001
2999.83364939686,991
3001.5565221940783,1018
3003.2790832741334,1010
3005.0013329487924,1056
3006.7232715298996,1000
3008.4448993293804,958
3010.166216659239,928
3011.887223831558,1044
3013.607921158498,994
3015.3283089522993,1007
3017.0483875252826,961
3018.7681571898443,924
3020.4876182584626,987
3022.2067710436927,1020
3023.9256158581707,996
3025.644153014609,1018
3027.362382825801,949
3029.0803056046193,982
3030.797921664012,996
3032.5152313170106,997
3034.2322348767225,953
3035.9489326563353,965
3037.665324969115,990
3039.3814121284063,961
3041.097194447633,985
3042.812672240299,990
3044.5278458199855,962
3046.2427155003525,987
3047.9572815951406,986
3049.671544418167,936
3051.38550428333,997
3053.0991615046073,982
3054.812516396051,987
3056.5255692717974,1008
3058.2383204460575,984
3059.9507702331257,995
3061.662918947372,998
3063.3747669032446,991
3065.0863144152736,1003
3066.7975617980674,1012
3068.508509366309,968
3070.219157434767,953
3071.9295063182844,1024
3073.639556331785,969
3075.3493077902704,994
3077.058761008821,969
3078.7679163025964,919
3080.476773986837,935
3082.1853343768594,945
3083.89359778806,946
3085.6015645359153,989
3087.3092349359786,977
3089.016609303884,1023
3090.7236879553434,983
3092.4304712061476,994
3094.136959372166,989
3095.843152769349,977
3097.5490517137237,971
3099.2546565213966,977
3100.959967508554,976
3102.66498499146,934
3104.3697092864577,950
3106.0741407099695,966
3107.778279578498,973
3109.482126208622,952
3111.1856809170004,1002
3112.8889440203716,943
3114.5919158355528,939
3116.294596679439,966
3117.996986869006,964
3119.6990867213062,981
3121.4008965534726,995
3123.102416682717,981
3124.803647426329,958
3126.5045891016784,1003
3128.205242026213,991
3129.90560651746,942
3131.605682893025,951
3133.3054714705922,1004
3135.0049725679282,1000
3136.7041865028714,1018
3138.4031135933465,984
3140.101754157353,957
3141.800108512971,1004
3143.498176978357,988
3145.1959598717494,939
3146.8934575114636,963
3148.5906702158954,971
3150.2875983035183,966
3151.9842420928853,997
3153.680601902627,1009
3155.376678051456,985
3157.07247085816,963
3158.767980641609,946
3160.463207720748,950
3162.158152414606,973
3163.8528150422862,975
3165.5471959229726,985
3167.2412953759303,978
3168.9351137204976,965
3170.628651276098,968
3172.3219083622307,959
3174.014885298474,961
3175.707582404485,953
3177.4000000000005,994
3179.092138404835,1000
3180.7839979388846,978
3182.47557892212,962
3184.166881674594,993
3185.8579065164386,986
3187.5486537678626,945
3189.2391237491547,972
3190.9293167806827,995
3192.6192331828934,998
3194.3088732763117,966
3195.998237381542,944
3197.687325819268,971
3199.376138910251,987
3201.064676975334,932
3202.7529403354347,975
3204.4409293115523,968
3206.1286442247647,962
3207.816085396229,1001
3209.5032531471825,954
3211.190147798936,1019
3212.8767696728846,990
3214.5631190905015,946
3216.2491963733373,979
3217.9350018430214,968
3219.6205358212637,986
3221.305798629851,986
3222.990790590651,937
3224.6755120256103,983
3226.359963256751,951
3228.0441446061795,964
3229.7280563960758,1005
3231.411698948703,986
3233.0950725863995,917
3234.778177631587,981
3236.461014406761,941
3238.1435832345005,928
3239.8258844374595,960
3241.507918338374,988
3243.1896852600576,972
3244.8711855254023,951
3246.552419457381,947
3248.233387379042,1009
3249.914089613516,954
3251.59452648401,987
3253.274698313813,929
3254.95460542629,957
3256.6342481448855,987
3258.313626793125,1000
3259.9927416946084,927
3261.6715931730196,938
3263.3501815521176,953
3265.0285071557437,1000
3266.706570307815,955
3268.3843713323286,956
3270.0619105533615,975
3271.739188295068,945
3273.4162048816834,962
3275.0929606375184,938
3276.769455886966,947
3278.445690954498,961
3280.1216661646613,990
3281.797381842087,981
3283.4728383114807,966
3285.1480358976296,973
3286.8229749253996,985
3288.4976557197333,997
3290.172078605655,1010
3291.846243908266,961
3293.5201519527463,961
3295.193803064357,959
3296.8671975684374,958
3298.5403357904024,943
3300.21321805575,971
3301.8858446900567,953
3303.558216018975,966
3305.23033236824,980
3306.9021940636603,1013
3308.57380143113,1011
3310.2451547966184,974
3311.916254486174,968
3313.5871008259246,977
3315.2576941420766,962
3316.9280347609147,976
3318.5981230088046,964
3320.2679592121895,980
3321.9375436975924,931
3323.606876791612,970
3325.27595882093,979
3326.944790112305,927
3328.6133709925753,983
3330.2817017886573,914
3331.949782827547,929
3333.617614436319,953
3335.2851969421245,981
3336.952530672199,986
3338.619615953853,979
3340.286453114475,999
3341.9530424815357,953
3343.619384382583,998
3345.2854791452437,945
3346.951327097224,971
3348.6169285663073,1008
3350.2822838803577,998
3351.947393367319,964
3353.61225735521,1015
3355.2768761721345,938
3356.9412501462693,953
3358.605379605873,944
3360.2692648792827,908
3361.9329062949146,985
3363.596304181263,958
