CollectionTime,7/3/2024 2:41:24 PM
ExposureUsed,3
CalibratedSpectrum
-962.7078968117929,426
-959.9714848408522,451
-957.2358232597828,481
-954.5009119013725,433
-951.7667505983302,432
-949.0333391832855,465
-946.3006774887896,460
-943.5687653473143,460
-940.837602591253,442
-938.1071890529199,468
-935.3775245645503,451
-932.6486089583007,441
-929.9204420662485,483
-927.1930237203925,455
-924.4663537526524,463
-921.7404319948689,466
-919.0152582788041,464
-916.2908324361409,522
-913.5671542984834,487
-910.8442236973568,474
-908.1220404642074,439
-905.4006044304027,478
-902.679915427231,450
-899.959973285902,432
-897.2407778375464,425
-894.5223289132158,450
-891.8046263438832,474
-889.0876699604426,448
-886.3714595937089,432
-883.6559950744183,444
-880.9412762332282,472
-878.2273029007168,438
-875.5140749073835,438
-872.8015920836489,440
-870.0898542598545,457
-867.3788612662631,451
-864.6686129330585,441
-861.9591090903457,414
-859.2503495681506,418
-856.5423341964203,448
-853.8350628050229,429
-851.1285352237478,426
-848.4227512823054,431
-845.7177108103272,463
-843.0134136373656,448
-840.3098595928943,454
-837.6070485063082,495
-834.9049802069229,508
-832.2036545239757,495
-829.5030712866244,463
-826.8032303239481,458
-824.1041314649472,467
-821.4057745385428,454
-818.7081593735775,489
-816.0112857988148,438
-813.3151536429393,468
-810.6197627345566,452
-807.9251129021936,482
-805.2312039742981,485
-802.5380357792392,464
-799.8456081453069,452
-797.1539209007124,473
-794.462973873588,486
-791.772766891987,469
-789.083299783884,472
-786.3945723771743,443
-783.7065844996748,482
-781.0193359791231,452
-778.3328266431781,444
-775.6470563194197,464
-772.9620248353489,432
-770.2777320183878,468
-767.5941776958798,499
-764.9113616950891,490
-762.2292838432011,472
-759.5479439673222,472
-756.8673418944801,449
-754.1874774516235,466
-751.5083504656222,469
-748.8299607632671,494
-746.15230817127,492
-743.475392516264,459
-740.7992136248035,469
-738.1237713233636,472
-735.4490654383407,503
-732.7750957960521,483
-730.1018622227365,495
-727.4293645445534,496
-724.7576025875837,456
-722.0865761778291,472
-719.4162851412126,461
-716.7467293035781,501
-714.0779084906909,507
-711.409822528237,498
-708.7424712418238,505
-706.0758544569796,504
-703.4099719991541,503
-700.7448236937178,511
-698.0804093659622,506
-695.4167288411002,492
-692.7537819442656,483
-690.0915685005134,477
-687.4300883348199,471
-684.7693412720819,475
-682.1093271371178,462
-679.4500457546669,506
-676.7914969493897,493
-674.1336805458676,486
-671.4765963686034,490
-668.8202442420206,506
-666.1646239904642,497
-663.5097354382001,461
-660.8555784094151,483
-658.2021527282176,517
-655.5494582186366,524
-652.8974947046223,523
-650.2462620100463,509
-647.5957599587009,508
-644.9459883742998,531
-642.2969470804776,523
-639.6486359007902,514
-637.0010546587141,508
-634.3542031776476,501
-631.7080812809096,526
-629.0626887917401,530
-626.4180255333008,538
-623.7740913286734,530
-621.1308860008619,550
-618.4884093727904,541
-615.8466612673046,514
-613.2056415071715,541
-610.5653499150785,546
-607.9257863136347,570
-605.28695052537,526
-602.6488423727357,572
-600.0114616781036,555
-597.3748082637674,521
-594.7388819519412,553
-592.1036825647604,604
-589.4692099242818,601
-586.8354638524829,593
-584.2024441712624,585
-581.5701507024403,589
-578.9385832677575,570
-576.3077416888759,559
-573.6776257873787,567
-571.0482353847704,540
-568.4195703024757,582
-565.7916303618415,582
-563.164415384135,536
-560.5379251905453,573
-557.9121596021815,550
-555.2871184400748,583
-552.6628015251767,542
-550.0392086783606,579
-547.4163397204204,569
-544.794194472071,572
-542.1727727539491,588
-539.5520743866118,610
-536.9320991905377,679
-534.3128469861261,618
-531.6943175936979,626
-529.0765108334947,637
-526.4594265256793,703
-523.8430644903358,756
-521.2274245474689,915
-518.612506517005,1016
-515.9983102187913,1117
-513.3848354725959,1293
-510.77208209810846,1451
-508.16004991493924,1440
-505.5487387426199,1452
-502.9381484006032,1319
-500.3282787082628,1075
-497.71912948489364,978
-495.1107005497117,834
-492.5029917218539,735
-489.8960028203786,664
-487.28973366426493,647
-484.68418407241325,653
-482.07935386364494,618
-479.47524285670266,636
-476.87185087025,628
-474.2691777228715,642
-471.66722323307334,635
-469.0659872192821,673
-466.4654694998459,672
-463.86566989303384,671
-461.26658821703614,669
-458.66822428996414,677
-456.07057792985,693
-453.4736489546475,694
-450.877437182231,622
-448.28194243039627,666
-445.68716451686,662
-443.09310325926003,636
-440.49975847515555,620
-437.9071299820263,635
-435.31521759727354,629
-432.72402113821954,711
-430.13354042210767,702
-427.5437752661022,662
-424.95472548728867,718
-422.36639090267386,733
-419.7787713291855,764
-417.1918665836721,789
-414.60567648290385,750
-412.0202008435715,759
-409.4354394822874,713
-406.8513922155845,740
-404.26805885991723,781
-401.685439231661,754
-399.103533147112,760
-396.522340422488,748
-393.9418608739278,709
-391.3620943174908,724
-388.7830405691583,704
-386.2046994448317,701
-383.6270707603344,679
-381.05015433141045,666
-378.473949973725,612
-375.8984575028645,585
-373.32367673433623,612
-370.74960748356875,595
-368.1762495659117,603
-365.60360279663576,524
-363.03166699093265,520
-360.4604419639154,538
-357.8899275306178,534
-355.32012350599507,511
-352.7510297049233,495
-350.1826459421999,476
-347.61497203254316,473
-345.04800779059235,494
-342.4817530309082,459
-339.91620756797226,487
-337.35137121618743,571
-334.7872437898774,627
-332.22382510328725,592
-329.66111497058273,505
-327.09911320585127,470
-324.53781962310075,495
-321.9772340362607,520
-319.4173562591816,536
-316.8581861056348,535
-314.2997233893127,506
-311.7419679238294,475
-309.1849195227194,502
-306.62857799943856,524
-304.0729431673641,528
-301.51801483979375,558
-298.963792829947,530
-296.41027695096386,493
-293.85746701590574,542
-291.3053628377552,542
-288.7539642294155,588
-286.2032710037115,623
-283.65328297338897,604
-281.1039999511146,625
-278.5554217494762,614
-276.007548180983,644
-273.4603790580651,658
-270.9139141930734,597
-268.3681533982807,600
-265.8230964858798,600
-263.27874326798565,651
-260.7350935566336,622
-258.1921471637804,595
-255.6499039013039,608
-253.10836358100266,613
-250.56752601459698,667
-248.02739101372765,674
-245.48795838995704,684
-242.94922795476816,645
-240.41119951956557,625
-237.8738728956746,644
-235.33724789434166,680
-232.80132432673452,705
-230.2661020039418,594
-227.73158073697357,599
-225.19776033676033,622
-222.66464061415422,694
-220.1322213799284,674
-217.60050244477725,579
-215.06948361931552,565
-212.53916471408013,675
-210.00954553952818,724
-207.48062590603843,688
-204.9524056239104,643
-202.4248845033651,697
-199.8980623545441,769
-197.37193898751036,774
-194.84651421224817,745
-192.32178783866232,715
-189.79775967657952,708
-187.27442953574644,849
-184.7517972258321,793
-182.2298625564256,788
-179.7086253370378,838
-177.18808537710026,796
-174.66824248596583,772
-172.14909647290835,858
-169.6306471471229,869
-167.11289431772548,755
-164.59583779375328,764
-162.07947738416453,852
-159.5638128978386,926
-157.04884414357605,1071
-154.53457093009854,1157
-152.02099306604828,1065
-149.50811035998936,863
-146.99592262040665,900
-144.48442965570587,944
-141.97363127421409,1290
-139.46352728417958,1387
-136.95411749377126,1348
-134.44540171107985,1257
-131.93737974411636,1009
-129.43005140081357,1070
-126.92341648902493,1168
-124.41747481652521,1419
-121.91222619101006,1719
-119.40767042009657,2552
-116.90380731132257,2777
-114.40063667214702,2621
-111.8981583099503,2035
-109.3963720320337,1450
-106.89527764561933,1211
-104.39487495785067,1518
-101.89516377579241,2929
-99.39614390642998,4125
-96.89781515667039,3561
-94.40017733334128,3869
-91.90323024319173,5406
-89.40697369289148,9152
-86.91140748903172,11872
-84.41653143812482,9784
-81.92234534660395,6153
-79.42884902082358,4264
-76.93604226705907,9082
-74.4439248915071,19408
-71.95249670028534,26462
-69.46175749943245,28289
-66.97170709490854,24178
-64.48234529259423,20864
-61.99367189829195,18947
-59.50568671772464,20885
-57.01838955653636,21716
-54.53178022029283,20328
-52.045858514480074,18404
-49.560624244506016,17545
-47.07607721569923,15532
-44.59221723330904,15719
-42.10904410250669,16089
-39.62655762838392,14928
-37.14475761595372,12217
-34.66364387015028,11709
-32.18321619582866,10253
-29.70347439776515,8412
-27.224418280657005,8528
-24.74604764912317,9981
-22.26836230770266,14717
-19.7913620608565,28610
-17.315046712966478,53827
-14.83941606833514,65040
-12.36446993118659,65040
-9.89020810566592,65040
-7.416630395839093,65040
-4.94373660569363,65040
-2.471526539137585,65040
-6.821210263296962E-13,65040
2.47084320796705,65040
4.941003281093458,65040
7.410480415786196,65040
9.879274808531363,65040
12.347386655893956,65040
14.814816154518212,65040
17.28156350112681,65040
19.74762889252179,65040
22.21301252558385,65040
24.67771459727237,20638
27.141735304626195,4017
29.605074844762612,2823
32.06773341487792,2974
34.52971121224755,2515
36.99100843422559,2342
39.45162527824516,2254
41.91156194181792,2099
44.370818622535126,1776
46.82939551806646,1618
49.287292826160524,2165
51.74451074464503,2635
54.201049471426245,2396
56.65690920448981,1923
59.112090141899785,1744
61.56659248179983,1669
64.02041642241159,1565
66.4735621620365,1403
68.92602989905402,1242
71.37781983192338,1291
73.82893215918205,1376
76.27936707944684,1525
78.72912479141326,1431
81.17820549385567,1651
83.62660938562783,1624
86.07433666566146,1859
88.5213875329681,1425
90.96776218663751,1288
93.41346082583925,1193
95.85848364982041,1340
98.30283085790859,1330
100.7465026495089,1226
103.18949922410604,1346
105.63182078126385,1354
108.07346752062438,1487
110.51443964190923,1263
112.95473734491827,1025
115.39436082953114,1074
117.83331029570547,1051
120.27158594347827,1018
122.7091879729652,1099
125.1461165843615,1185
127.58237197794062,1081
130.01795435405518,1144
132.4528639131364,1210
134.88710085569494,1108
137.32066538231982,973
139.75355769367923,982
142.1857779905207,1052
144.61732647366978,934
147.04820334403132,860
149.47840880258934,826
151.90794305040674,926
154.33680628862487,973
156.76499871846443,987
159.19252054122433,1013
161.61937195828352,1138
164.04555317109896,1367
166.47106438120693,1408
168.89590579022217,1379
171.320077599839,1405
173.7435800118302,1419
176.16641322804742,1528
178.58857745042144,1563
181.01007288096173,1681
183.43089972175687,1667
185.85105817497413,1734
188.27054844285988,1700
190.6893707277394,1671
193.10752523201643,1587
195.5250121581745,1546
197.9418317087751,1587
200.3579840864594,1649
202.7734694939469,1658
205.18828813403627,1721
207.6024402096051,1826
210.01592592360964,1851
212.42874547908548,1748
214.84089907914665,1830
217.2523869269868,1841
219.66320922587727,1815
222.0733661791695,1809
224.48285799029293,1788
226.8916848627572,1738
229.29984700014882,1788
231.7073446061355,1730
234.11417788446204,1774
236.520347038953,1750
238.92585227351185,1775
241.33069379212054,1796
243.73487179884035,1807
246.1383864978112,1769
248.541238093252,1752
250.9434267894609,1743
253.34495279081432,1765
255.74581630176783,1802
258.1460175268563,1752
260.54555667069314,1731
262.9444339379703,1687
265.3426495334594,1745
267.7402036620107,1852
270.1370965285529,1881
272.53332833809407,1854
274.9288992957214,1771
277.32380960660055,1707
279.718059475976,1745
282.1116491091717,1802
284.5045787115897,1700
286.89684848871195,1692
289.2884586460981,1760
291.67940938938807,1807
294.0697009242996,1790
296.4593334566299,1807
298.84830719225477,1806
301.23662233712923,1849
303.6242790972866,1813
306.01127767884,1869
308.39761828798066,1737
310.78330113097934,1787
313.16832641418534,1742
315.5526943440269,1622
317.9364051270112,1686
320.3194589697242,1695
322.70185607883093,1720
325.0835966610754,1619
327.4646809232805,1621
329.8451090723478,1625
332.2248813152577,1679
334.6039978590701,1603
336.9824589109231,1630
339.36026467803447,1606
341.7374153677,1524
344.113911187295,1570
346.48975234427337,1579
348.8649390461686,1564
351.2394715005918,1512
353.61334991523415,1579
355.9865744978655,1496
358.35914545633375,1564
360.73106299856715,1536
363.10232733257146,1559
365.47293866643247,1516
367.84289720831396,1550
370.2122031664593,1484
372.5808567491905,1457
374.9488581649083,1515
377.31620762209275,1438
379.6829053293021,1425
382.0489514951745,1489
384.4143463284262,1452
386.7790900378528,1438
389.14318283232853,1459
391.50662492080653,1500
393.86941651231916,1489
396.23155781597745,1538
398.5930490409713,1443
400.9538903965696,1490
403.3140820921202,1539
405.6736243370498,1481
408.03251734086336,1448
410.3907613131465,1410
412.74835646356166,1434
415.10530300185144,1413
417.4616011378372,1453
419.81725108141893,1405
422.1722530425758,1437
424.5266072313656,1402
426.880313857925,1392
429.2333731324701,1391
431.58578526529516,1379
433.9375504667738,1434
436.2886689473588,1377
438.63914091758113,1413
440.9889665880513,1373
443.33814616945835,1398
445.68667987257015,1355
448.03456790823395,1373
450.3818104873759,1356
452.72840782100013,1387
455.07436012019105,1388
457.41966759611057,1301
459.7643304600007,1310
462.10834892318155,1332
464.4517231970525,1379
466.79445349309174,1369
469.1365400228566,1356
471.4779829979826,1333
473.81878263018564,1368
476.15893913125876,1387
478.4984527130747,1392
480.8373235875855,1418
483.17555196682144,1418
485.5131380628919,1471
487.8500820879857,1450
490.1863842543697,1554
492.52204477439034,1610
494.8570638604725,1578
497.1914417251204,1723
499.52517858091653,1898
501.85827464052306,2148
504.19073011668036,2623
506.5225452222086,3360
508.85372017000566,3890
511.18425517304956,4240
513.514150444396,4197
515.8434061971808,4593
518.1720226446176,5062
520.4999999999999,4749
522.8273384766991,4252
525.1540382881666,3597
527.480099647932,3183
529.8055227696037,2596
532.1303078668694,2059
534.454455153496,1717
536.777964843328,1674
539.1008371502907,1572
541.4230722883866,1465
543.744670471698,1432
546.0656319143858,1442
548.3859568306899,1520
550.7056454349294,1448
553.0246979415016,1485
555.3431145648834,1466
557.6608955196306,1481
559.978041020377,1375
562.2945512818363,1367
564.6104265188006,1372
566.9256669461412,1417
569.2402727788082,1451
571.5542442318302,1447
573.8675815203156,1413
576.1802848594508,1396
578.4923544645015,1360
580.8037905508126,1395
583.114593333807,1384
585.4247630289875,1426
587.7342998519354,1430
590.0432040183106,1411
592.3514757438526,1377
594.6591152443794,1364
596.9661227357875,1379
599.2724984340531,1455
601.578242555231,1421
603.8833553154542,1366
606.1878369309362,1459
608.4916876179676,1460
610.7949075929192,1436
613.0974970722403,1430
615.3994562724587,1428
617.7007854101818,1361
620.0014847020951,1380
622.3015543649641,1371
624.6009946156324,1387
626.8998056710224,1402
629.1979877481361,1456
631.4955410640538,1389
633.7924658359349,1370
636.0887622810175,1402
638.3844306166192,1353
640.6794710601358,1425
642.9738838290426,1384
645.2676691408932,1409
647.5608272133207,1437
649.853358264037,1412
652.1452625108324,1384
654.4365401715764,1493
656.7271914642178,1446
659.0172166067838,1446
661.3066158173809,1383
663.5953893141935,1414
665.8835373154867,1418
668.1710600396028,1509
670.4579577049639,1449
672.7442305300709,1424
675.0298787335033,1469
677.3149025339197,1377
679.599302150058,1443
681.8830778007342,1480
684.1662297048437,1410
686.4487580813608,1402
688.7306631493387,1435
691.0119451279091,1433
693.2926042362834,1430
695.5726406937516,1381
697.8520547196814,1485
700.1308465335215,1474
702.4090163547982,1396
704.6865644031171,1424
706.9634908981619,1415
709.2397960596965,1408
711.5154801075631,1392
713.7905432616823,1401
716.0649857420548,1383
718.3388077687592,1421
720.612009561953,1431
722.8845913418733,1401
725.1565533288352,1436
727.427895743234,1465
729.6986188055427,1442
731.9687227363137,1438
734.238207756178,1502
736.5070740858458,1387
738.7753219461066,1417
741.0429515578281,1415
743.3099631419569,1468
745.5763569195191,1431
747.8421331116193,1450
750.1072919394409,1403
752.3718336242467,1440
754.6357583873777,1439
756.8990664502545,1466
759.1617580343765,1438
761.423833361321,1405
763.6852926527457,1452
765.9461361303862,1431
768.206364016058,1458
770.4659765316536,1421
772.7249738991469,1436
774.9833563405886,1491
777.2411240781092,1471
779.4982773339183,1431
781.7548163303044,1496
784.010741289634,1495
786.2660524343538,1557
788.5207499869881,1473
790.7748341701416,1501
793.0283052064964,1555
795.2811633188143,1431
797.5334087299362,1491
799.7850416627813,1577
802.0360623403484,1514
804.2864709857143,1504
806.5362678220353,1462
808.7854530725468,1464
811.0340269605625,1464
813.2819897094754,1507
815.5293415427581,1530
817.77608268396,1465
820.0222133567116,1508
822.2677337847211,1472
824.5126441917765,1475
826.7569448017433,1451
829.0006358385675,1451
831.2437175262731,1398
833.4861900889629,1417
835.7280537508192,1429
837.9693087361026,1514
840.2099552691533,1464
842.4499935743896,1432
844.689423876309,1454
846.9282463994886,1461
849.1664613685833,1491
851.4040690083276,1506
853.6410695435349,1423
855.877463199097,1482
858.1132501999847,1470
860.3484307712487,1523
862.5830051380175,1474
864.8169735254988,1489
867.0503361589791,1457
869.2830932638243,1433
871.5152450654786,1481
873.7467917894654,1488
875.9777336613873,1462
878.2080709069252,1496
880.4378037518389,1433
882.666932421968,1467
884.8954571432301,1470
887.1233781416219,1484
889.3506956432192,1526
891.5774098741766,1516
893.803521060728,1451
896.0290294291852,1484
898.2539352059397,1510
900.4782386174619,1449
902.7019398903011,1415
904.925039251085,1482
907.147536926521,1443
909.3694331433943,1502
911.59072812857,1449
913.8114221089921,1498
916.0315153116827,1512
918.2510079637437,1489
920.4699002923547,1545
922.6881925247761,1458
924.905884888345,1517
927.1229776104793,1539
929.3394709186747,1485
931.555365040506,1500
933.7706602036275,1445
935.9853566357709,1480
938.1994545647489,1500
940.4129542184515,1519
942.6258558248488,1559
944.8381596119883,1528
947.0498658079974,1523
949.2609746410825,1469
951.4714863395287,1513
953.6814011316998,1501
955.8907192460387,1533
958.0994409110671,1537
960.3075663553858,1481
962.5150958076741,1461
964.7220294966913,1551
966.928367651274,1445
969.1341105003388,1424
971.3392582728806,1439
973.5438111979742,1455
975.747769504772,1414
977.9511334225061,1401
980.153903180487,1437
982.3560790081052,1382
984.5576611348289,1388
986.7586497902058,1382
988.9590452038618,1331
991.158847605503,1339
993.3580572249133,1351
995.5566742919558,1334
997.7546990365728,1275
999.952131688785,1296
1002.1489724786926,1265
1004.3452216364743,1249
1006.5408793923874,1255
1008.7359459767691,1217
1010.9304216200343,1241
1013.1243065526781,1204
1015.3176010052733,1214
1017.510305208472,1179
1019.7024193930064,1212
1021.8939437896848,1181
1024.0848786293977,1195
1026.2752241431122,1222
1028.4649805618747,1213
1030.6541481168115,1262
1032.842727039127,1193
1035.0307175601051,1163
1037.2181199111074,1149
1039.4049343235752,1123
1041.591161029029,1164
1043.7768002590683,1140
1045.9618522453698,1171
1048.1463172196918,1138
1050.3301954138697,1146
1052.513487059818,1183
1054.69619238953,1109
1056.8783116350783,1108
1059.0598450286152,1156
1061.2407928023704,1147
1063.4211551886528,1097
1065.6009324198508,1137
1067.780124728432,1124
1069.9587323469414,1102
1072.1367555080046,1104
1074.314194444325,1089
1076.4910493886855,1069
1078.667320573947,1086
1080.843008233051,1078
1083.0181125990161,1096
1085.1926339049414,1068
1087.3665723840027,1099
1089.5399282694575,1086
1091.7127017946405,1130
1093.8848931929647,1099
1096.0565026979243,1039
1098.2275305430899,1054
1100.3979769621128,1103
1102.567842188722,1042
1104.737126456726,1056
1106.9058300000124,1038
1109.0739530525475,1032
1111.2414958483764,1089
1113.4084586216231,1053
1115.5748416064907,1024
1117.7406450372605,1107
1119.9058691482942,1061
1122.0705141740304,1096
1124.2345803489884,1094
1126.3980679077658,1103
1128.5609770850388,1056
1130.7233081155623,1060
1132.8850612341707,983
1135.0462366757774,1040
1137.2068346753745,1072
1139.3668554680326,1045
1141.526299288901,1073
1143.68516637321,1114
1145.8434569562655,1081
1148.001171273455,1037
1150.158309560244,1029
1152.3148720521767,1028
1154.470858984876,1010
1156.626270594044,1014
1158.7811071154629,1017
1160.9353687849912,1014
1163.089055838569,1079
1165.242168512213,1006
1167.3947070420209,1069
1169.5466716641677,1048
1171.6980626149075,1044
1173.8488801305748,1047
1175.9991244475814,1006
1178.1487958024186,1033
1180.2978944316555,1041
1182.4464205719428,1083
1184.5943744600072,1044
1186.7417563326567,1008
1188.8885664267755,1034
1191.0348049793297,1004
1193.1804722273619,1036
1195.325568407995,1062
1197.4700937584303,1026
1199.614048515948,1020
1201.7574329179074,1036
1203.900247201746,1001
1206.042491604982,1032
1208.1841663652099,1047
1210.3252717201053,1066
1212.465807907422,1028
1214.6057751649923,1050
1216.7451737307279,1087
1218.8840038426192,1056
1221.0222657387353,1025
1223.1599596572241,1065
1225.2970858363137,1029
1227.4336445143094,1044
1229.5696359295966,1001
1231.705060320639,1070
1233.8399179259786,1043
1235.9742089842384,1055
1238.107933734118,1047
1240.2410924143974,1041
1242.373685263935,1023
1244.5057125216676,1039
1246.6371744266116,1052
1248.7680712178621,1034
1250.898403134593,1046
1253.028170416058,1025
1255.1573733015875,1093
1257.2860120305932,1020
1259.4140868425648,982
1261.54159797707,1012
1263.6685456737569,1023
1265.7949301723515,998
1267.9207517126597,1044
1270.046010534565,1030
1272.1707068780306,1039
1274.2948409830983,1057
1276.4184130898889,1024
1278.541423438603,1086
1280.6638722695184,1031
1282.785759822993,1012
1284.9070863394636,1051
1287.0278520594447,1064
1289.1480572235314,1035
1291.2677020723963,1069
1293.3867868467923,1069
1295.5053117875495,1059
1297.623277135579,1067
1299.740683131868,1057
1301.8575300174857,1089
1303.973818033578,1097
1306.0895474213703,1036
1308.2047184221678,1041
1310.3193312773528,1037
1312.4333862283888,1071
1314.5468835168163,1057
1316.659823384255,1040
1318.7722060724045,1026
1320.8840318230418,1071
1322.9953008780249,1036
1325.1060134792888,1013
1327.2161698688478,1029
1329.3257702887959,1027
1331.4348149813054,1015
1333.5433041886276,1074
1335.6512381530933,1036
1337.7586171171101,1071
1339.8654413231675,1069
1341.9717110138317,1034
1344.0774264317488,1070
1346.1825878196432,1124
1348.2871954203192,1068
1350.3912494766587,1060
1352.4947502316231,1032
1354.5976979282532,1048
1356.7000928096686,1036
1358.8019351190665,1110
1360.9032250997243,1047
1363.0039629949988,1062
1365.1041490483235,1022
1367.2037835032133,1052
1369.3028666032606,1041
1371.401398592137,1110
1373.4993797135926,1068
1375.5968102114575,1112
1377.6936903296396,1078
1379.7900203121262,1034
1381.8858004029835,1063
1383.9810308463561,1035
1386.075711886469,1056
1388.1698437676241,1042
1390.2634267342032,1092
1392.356461030667,1111
1394.4489469015557,1075
1396.5408845914872,1079
1398.6322743451592,1056
1400.7231164073469,1041
1402.813411022907,1102
1404.903158436773,1069
1406.9923588939578,1109
1409.0810126395531,1102
1411.1691199187303,1091
1413.2566809767386,1108
1415.343696058907,1104
1417.4301654106425,1074
1419.5160892774315,1113
1421.6014679048399,1085
1423.6863015385125,1049
1425.7705904241707,1071
1427.8543348076178,1081
1429.9375349347342,1103
1432.0201910514802,1092
1434.102303403894,1078
1436.1838722380944,1068
1438.2648978002767,1136
1440.3453803367174,1043
1442.4253200937692,1055
1444.5047173178677,1059
1446.5835722555234,1097
1448.6618851533285,1136
1450.739656257952,1105
1452.8168858161434,1090
1454.8935740747306,1096
1456.96972128062,1151
1459.045327680797,1095
1461.120393522327,1105
1463.1949190523528,1134
1465.2689045180973,1126
1467.3423501668608,1115
1469.415256246024,1122
1471.4876230030463,1141
1473.559450685465,1060
1475.6307395408976,1086
1477.7014898170391,1151
1479.771701761665,1084
1481.8413756226287,1111
1483.9105116478618,1083
1485.9791100853772,1089
1488.0471711832643,1071
1490.1146951896926,1090
1492.1816823529098,1100
1494.2481329212433,1121
1496.3140471430984,1104
1498.3794252669609,1111
1500.4442675413939,1098
1502.5085742150404,1084
1504.572345536622,1041
1506.6355817549388,1071
1508.6982831188702,1097
1510.7604498773744,1074
1512.8220822794883,1106
1514.8831805743293,1082
1516.9437450110909,1125
1519.003775839048,1114
1521.0632733075522,1059
1523.1222376660367,1074
1525.1806691640113,1093
1527.2385680510652,1080
1529.2959345768668,1095
1531.3527689911643,1072
1533.4090715437833,1106
1535.4648424846291,1082
1537.5200820636855,1095
1539.5747905310159,1103
1541.6289681367616,1113
1543.6826151311434,1120
1545.7357317644614,1129
1547.7883182870937,1095
1549.8403749494987,1078
1551.8919020022113,1080
1553.9428996958477,1150
1555.9933682811015,1167
1558.0433080087469,1132
1560.0927191296346,1058
1562.1416018946961,1121
1564.1899565549415,1121
1566.2377833614592,1140
1568.2850825654164,1087
1570.3318544180606,1113
1572.3780991707158,1115
1574.423817074788,1078
1576.4690083817595,1086
1578.5136733431923,1096
1580.5578122107272,1046
1582.601425236085,1097
1584.6445126710646,1132
1586.6870747675434,1108
1588.7291117774776,1119
1590.7706239529034,1098
1592.8116115459347,1103
1594.8520748087658,1096
1596.8920139936686,1134
1598.9314293529933,1137
1600.9703211391711,1097
1603.008689604711,1057
1605.0465350022005,1097
1607.0838575843068,1085
1609.1206576037753,1108
1611.1569353134305,1100
1613.1926909661765,1125
1615.2279248149953,1086
1617.2626371129481,1083
1619.2968281131757,1026
1621.3304980688963,1132
1623.3636472334088,1113
1625.39627586009,1068
1627.428384202396,1096
1629.459972513861,1131
1631.4910410480993,1135
1633.5215900588028,1104
1635.551619799744,1158
1637.5811305247717,1137
1639.6101224878166,1105
1641.6385959428862,1066
1643.6665511440683,1148
1645.693988345528,1068
1647.7209078015112,1084
1649.7473097663405,1085
1651.7731944944203,1105
1653.7985622402307,1138
1655.823413258333,1109
1657.847747803366,1135
1659.8715661300494,1088
1661.8948684931793,1117
1663.9176551476316,1097
1665.9399263483624,1122
1667.9616823504057,1109
1669.982923408873,1105
1672.0036497789574,1095
1674.0238617159293,1106
1676.043559475138,1056
1678.0627433120121,1088
1680.081413482059,1076
1682.0995702408654,1117
1684.117213844096,1059
1686.134344547495,1100
1688.1509626068864,1083
1690.1670682781705,1124
1692.182661817329,1133
1694.1977434804217,1105
1696.2123135235875,1081
1698.226372203043,1123
1700.2399197750851,1100
1702.2529564960905,1070
1704.2654826225112,1120
1706.277498410882,1132
1708.2890041178139,1073
1710.2999999999988,1107
1712.3104863142066,1122
1714.3204633172854,1075
1716.329931266163,1100
1718.3388904178469,1110
1720.3473410294214,1099
1722.3552833580516,1089
1724.3627176609807,1127
1726.3696441955308,1092
1728.3760632191033,1098
1730.3819749891782,1117
1732.3873797633146,1061
1734.3922777991502,1077
1736.3966693544012,1108
1738.4005546868639,1068
1740.4039340544127,1075
1742.406807715001,1064
1744.4091759266616,1127
1746.4110389475054,1062
1748.4123970357223,1085
1750.413250449582,1054
1752.4135994474318,1115
1754.4134442876993,1052
1756.4127852288902,1095
1758.4116225295893,1085
1760.4099564484595,1104
1762.407787244244,1066
1764.405115175764,1059
1766.4019405019203,1091
1768.3982634816916,1059
1770.3940843741357,1091
1772.3894034383907,1030
1774.3842209336717,1072
1776.378537119274,1076
1778.372352254571,1077
1780.3656665990156,1084
1782.3584804121397,1120
1784.3507939535534,1082
1786.3426074829463,1108
1788.3339212600863,1091
1790.3247355448211,1112
1792.3150505970766,1089
1794.3048666768573,1061
1796.2941840442477,1035
1798.2830029594106,1044
1800.2713236825884,1102
1802.2591464741004,1070
1804.2464715943465,1090
1806.2332993038058,1108
1808.2196298630352,1085
1810.2054635326708,1095
1812.190800573428,1093
1814.175641246101,1117
1816.1599858115628,1115
1818.1438345307652,1094
1820.127187664738,1058
1822.1100454745924,1109
1824.092408221516,1119
1826.0742761667766,1101
1828.055649571721,1093
1830.0365286977735,1135
1832.0169138064398,1083
1833.9968051593014,1075
1835.9762030180214,1047
1837.9551076443408,1052
1839.9335193000788,1107
1841.9114382471344,1073
1843.888864747485,1053
1845.8657990631878,1035
1847.842241456378,1061
1849.8181921892697,1058
1851.7936515241558,1092
1853.7686197234098,1146
1855.7430970494815,1081
1857.7170837649014,1067
1859.6905801322787,1079
1861.6635864143004,1077
1863.6361028737338,1099
1865.608129773424,1090
1867.5796673762961,1113
1869.5507159453537,1146
1871.521275743678,1115
1873.4913470344313,1121
1875.4609300808534,1123
1877.4300251462632,1109
1879.3986324940588,1121
1881.366752387717,1076
1883.3343850907936,1120
1885.3015308669228,1081
1887.268189979819,1122
1889.2343626932739,1067
1891.2000492711595,1094
1893.1652499774254,1086
1895.1299650761011,1128
1897.0941948312952,1102
1899.0579395071945,1053
1901.0211993680641,1092
1902.98397467825,1103
1904.9462657021745,1151
1906.9080727043415,1183
1908.869395949332,1076
1910.8302357018065,1126
1912.790592226504,1101
1914.7504657882428,1095
1916.7098566519212,1120
1918.6687650825133,1109
1920.6271913450764,1103
1922.5851357047422,1135
1924.5425984267245,1103
1926.499579776314,1097
1928.4560800188833,1117
1930.4120994198802,1111
1932.367638244833,1123
1934.32269675935,1126
1936.2772752291175,1097
1938.231373919899,1106
1940.1849930975404,1109
1942.1381330279637,1128
1944.0907939771696,1082
1946.0429762112412,1099
1947.9946799963363,1082
1949.9459055986945,1097
1951.896653284633,1103
1953.8469233205478,1059
1955.7967159729142,1152
1957.7460315082863,1112
1959.6948701932974,1118
1961.6432322946594,1056
1963.5911180791632,1029
1965.5385278136787,1051
1967.4854617651545,1091
1969.4319202006182,1091
1971.377903387176,1146
1973.3234115920136,1128
1975.268445082395,1057
1977.2130041256642,1132
1979.1570889892423,1078
1981.1006999406304,1129
1983.04383724741,1087
1984.986501177238,1093
1986.928691997853,1111
1988.8704099770712,1097
1990.811655382789,1073
1992.7524284829801,1148
1994.692729545698,1096
1996.6325588390755,1082
1998.5719166313224,1079
2000.5108031907307,1137
2002.4492187856677,1090
2004.387163684583,1093
2006.3246381560011,1086
2008.2616424685298,1054
2010.1981768908527,1051
2012.1342416917332,1109
2014.069837140014,1079
2016.0049635046162,1087
2017.9396210545406,1108
2019.8738100588666,1065
2021.8075307867502,1083
2023.740783507431,1129
2025.6735684902228,1100
2027.6058860045214,1066
2029.5377363198004,1104
2031.4691197056118,1086
2033.4000364315875,1094
2035.3304867674374,1129
2037.260470982952,1163
2039.189989347998,1097
2041.1190421325232,1136
2043.047629606554,1096
2044.9757520401945,1165
2046.9034097036288,1128
2048.8306028671195,1099
2050.7573318010086,1162
2052.683596775716,1108
2054.609398061742,1145
2056.5347359296647,1102
2058.4596106501403,1092
2060.384022493906,1108
2062.3079717317764,1048
2064.231458634646,1108
2066.1544834734873,1097
2068.077046519352,1076
2069.99914804337,1081
2071.9207883167524,1130
2073.8419676107865,1100
2075.7626861968406,1117
2077.6829443463607,1075
2079.6027423308715,1100
2081.522080421977,1058
2083.440958891362,1081
2085.359378010786,1087
2087.2773380520907,1100
2089.194839287196,1078
2091.111881988101,1121
2093.0284664268825,1089
2094.9445928756973,1074
2096.86026160678,1121
2098.775472892446,1088
2100.690227005088,1110
2102.604524217178,1099
2104.5183648012676,1134
2106.431749029985,1048
2108.34467717604,1114
2110.2571495122206,1156
2112.169166311393,1139
2114.080727846503,1120
2115.9918343905747,1107
2117.902486216711,1102
2119.8126835980956,1099
2121.722426807987,1105
2123.6317161197285,1090
2125.5405518067364,1061
2127.448934142509,1130
2129.356863400624,1117
2131.264339854737,1162
2133.1713637785815,1093
2135.077935445972,1144
2136.9840551308002,1109
2138.889723107037,1108
2140.7949396487334,1128
2142.699705030018,1123
2144.6040195250994,1150
2146.507883408264,1102
2148.4112969538774,1091
2150.3142604363848,1118
2152.2167741303097,1159
2154.1188383102535,1103
2156.0204532508997,1105
2157.9216192270064,1111
2159.822336513414,1175
2161.7226053850413,1117
2163.622426116884,1119
2165.5217989840185,1137
2167.4207242616,1108
2169.319202224862,1118
2171.2172331491165,1084
2173.1148173097563,1151
2175.0119549822507,1069
2176.90864644215,1132
2178.8048919650823,1106
2180.7006918267534,1121
2182.596046302952,1099
2184.4909556695407,1165
2186.3854202024645,1087
2188.279440177746,1083
2190.173015871487,1102
2192.066147559868,1119
2193.958835519149,1178
2195.851080025667,1155
2197.7428813558417,1070
2199.6342397861667,1061
2201.5251555932186,1150
2203.415629053651,1163
2205.3056604441986,1137
2207.19525004167,1093
2209.084398122958,1085
2210.9731049650327,1187
2212.861370844941,1160
2214.749196039812,1136
2216.636580826851,1106
2218.523525483344,1166
2220.410030286655,1155
2222.296095514226,1139
2224.1817214435805,1171
2226.066908352319,1198
2227.951656518121,1179
2229.835966218746,1149
2231.71983773203,1211
2233.6032713358913,1150
2235.486267308324,1124
2237.3688259274036,1127
2239.2509474712824,1135
2241.132632218193,1131
2243.013880446447,1146
2244.8946924344323,1139
2246.7750684606203,1141
2248.6550088035574,1188
2250.534513741871,1174
2252.413583554265,1151
2254.292218519526,1175
2256.170418916517,1157
2258.0481850241786,1152
2259.925517121534,1191
2261.8024154876825,1116
2263.678880401803,1082
2265.5549121431536,1163
2267.430510991071,1164
2269.305677224971,1153
2271.180411124348,1120
2273.0547129687766,1158
2274.9285830379076,1145
2276.8020216114737,1116
2278.6750289692845,1098
2280.5476053912294,1143
2282.4197511572766,1193
2284.2914665474727,1171
2286.162751841943,1217
2288.0336073208937,1212
2289.904033264608,1160
2291.774029953448,1173
2293.6435976678554,1132
2295.5127366883517,1114
2297.381447295534,1087
2299.2497297700825,1119
2301.1175843927526,1051
2302.9850114443825,1071
2304.852011205885,1050
2306.7185839582553,1045
2308.5847299825664,1014
2310.4504495599676,1013
2312.3157429716925,1006
2314.1806104990483,969
2316.0450524234247,994
2317.9090690262888,986
2319.772660589186,1002
2321.635827393742,987
2323.498569721661,1002
2325.3608878547248,984
2327.2227820747967,964
2329.0842526638157,922
2330.945299903803,1020
2332.805924076857,963
2334.6661254651535,956
2336.525904350951,963
2338.3852610165827,942
2340.244195744464,978
2342.102708817088,993
2343.9608005170253,976
2345.8184711269287,998
2347.675720929526,996
2349.532550207628,986
2351.38895924412,999
2353.24494832197,961
2355.100517724223,957
2356.955667734004,1012
2358.810398634514,972
2360.664710709037,971
2362.5186042409337,980
2364.3720795136437,973
2366.225136810686,988
2368.0777764156583,1001
2369.929998612237,993
2371.7818036841777,996
2373.633191915315,977
2375.484163589562,982
2377.3347189909114,940
2379.184858403434,976
2381.03458211128,985
2382.8838903986775,982
2384.732783549936,953
2386.5812618494406,1032
2388.4293255816588,933
2390.2769750311327,933
2392.1242104824883,968
2393.971032220427,1018
2395.8174405297295,1022
2397.6634356952563,1011
2399.509018001947,985
2401.3541877348193,980
2403.1989451789705,990
2405.043290619576,997
2406.8872243418905,1025
2408.730746631247,957
2410.5738577730594,957
2412.4165580528183,971
2414.258847756095,1011
2416.100727168537,1002
2417.9421965758734,1042
2419.783256263912,984
2421.623906518538,968
2423.4641476257157,1012
2425.303979871491,978
2427.143403541984,1021
2428.9824189233977,1036
2430.821026302012,1025
2432.6592259641866,991
2434.497018196361,1019
2436.33440328505,975
2438.171381516851,1023
2440.00795317844,1023
2441.844118556569,1020
2443.6798779380724,1034
2445.5152316098606,1015
2447.3501798589255,976
2449.1847229723357,999
2451.0188612372403,986
2452.8525949408663,1003
2454.6859243705203,1020
2456.518849813587,984
2458.3513715575314,1017
2460.183489889895,982
2462.015205098301,1015
2463.8465174704493,964
2465.67742729412,960
2467.5079348571717,980
2469.338040447542,988
2471.1677443532476,990
2472.9970468623833,982
2474.825948263123,1009
2476.6544488437207,1012
2478.482548892508,981
2480.310248697896,945
2482.137548548374,976
2483.9644487325118,983
2485.790949538956,977
2487.617051256433,981
2489.44275417375,970
2491.26805857979,967
2493.0929647635157,946
2494.917473013971,976
2496.741583620276,981
2498.5652968716304,968
2500.3886130573137,986
2502.2115324666834,976
2504.0340553891765,992
2505.856182114308,966
2507.6779129316733,946
2509.499248130945,937
2511.3201880018764,966
2513.140732834298,980
2514.9608829181198,972
2516.780638543331,961
2518.6,987
2520.418967578273,989
2522.237541568376,969
2524.0557222606144,981
2525.8735099453706,1000
2527.6909049131086,963
2529.507907454368,1020
2531.32451785977,987
2533.140736420014,941
2534.9565634258774,1001
2536.771999168218,1008
2538.5870439379714,997
2540.4016980261526,1007
2542.2159617238544,987
2544.02983532225,955
2545.8433191125914,979
2547.656413386209,997
2549.4691184345115,977
2551.2814345489874,991
2553.093362021204,975
2554.904901142808,1061
2556.716052205523,974
2558.526815501153,968
2560.3371913215824,968
2562.147179958771,956
2563.956781704761,1001
2565.7659968516705,958
2567.5748256916986,984
2569.3832685171224,946
2571.1913256202984,933
2572.9989972936614,977
2574.806283829725,978
2576.613185521084,965
2578.4197026604074,977
2580.2258355404483,974
2582.031584454035,951
2583.836949694077,962
2585.6419315535613,978
2587.4465303255533,983
2589.2507463032002,1011
2591.0545797797245,936
2592.8580310484303,1027
2594.6611004026995,975
2596.463788135992,1020
2598.266094541849,991
2600.0680199138874,974
2601.869564545807,1023
2603.670728731383,1000
2605.4715127644704,972
2607.2719169390048,961
2609.071941548998,977
2610.8715868885433,973
2612.670853251811,996
2614.469740933052,954
2616.268250226594,969
2618.0663814268455,1005
2619.864134828292,991
2621.6615107255006,1026
2623.458509413115,1009
2625.2551311858597,936
2627.0513763385347,971
2628.8472451660223,978
2630.6427379632833,950
2632.4378550253564,970
2634.232596647359,933
2636.026963124488,935
2637.8209547520187,950
2639.6145718253065,952
2641.407814639785,985
2643.200683490966,913
2644.9931786744414,952
2646.7853004858807,954
2648.577049221034,1043
2650.3684251757277,973
2652.1594286458712,981
2653.9500599274484,978
2655.740319316525,1000
2657.5302071092437,989
2659.3197236018286,1005
2661.10886909058,976
2662.8976438718782,981
2664.686048242183,1000
2666.4740824980327,998
2668.2617469360443,984
2670.0490418529134,980
2671.8359675454153,947
2673.622524310403,941
2675.408712444811,965
2677.1945322456495,966
2678.979984010009,987
2680.76506803506,1013
2682.5497846180497,1007
2684.334134056306,971
2686.1181166472343,946
2687.9017326883213,946
2689.6849824771293,965
2691.4678663113013,996
2693.2503844885596,971
2695.032537306705,955
2696.8143250636167,984
2698.5957480572542,981
2700.3768065856534,970
2702.1575009469316,990
2703.937831439283,958
2705.717798360982,924
2707.4974020103837,955
2709.276642685917,995
2711.055520686095,963
2712.834036309506,1004
2714.612189854819,956
2716.389981620782,1003
2718.1674119062204,957
2719.944481010041,940
2721.721189231226,986
2723.4975368688415,959
2725.273524222027,972
2727.0491515900053,959
2728.824419272075,982
2730.5993275676146,972
2732.3738767760838,967
2734.148067197016,972
2735.921899130031,999
2737.6953728748194,984
2739.468488731156,988
2741.2412469988926,925
2743.0136479779617,1005
2744.785691968372,961
2746.5573792702116,979
2748.3287101836504,981
2750.099685008934,1000
2751.870304046388,949
2753.640567596418,989
2755.4104759595057,972
2757.1800294362156,944
2758.949228327187,968
2760.7180729331412,986
2762.486563554877,961
2764.254700493272,985
2766.022484049284,991
2767.789914523947,989
2769.5569922183786,959
2771.3237174337705,996
2773.090090471394,1008
2774.8561116326036,964
2776.6217812188274,954
2778.3870995315756,942
2780.1520668724356,964
2781.9166835430747,962
2783.6809498452394,983
2785.444866080754,963
2787.2084325515225,947
2788.971649559527,962
2790.73451740683,939
2792.4970363955713,942
2794.2592068279705,988
2796.0210290063264,952
2797.7825032330147,965
2799.543629810493,973
2801.304409041296,1026
2803.0648412280366,949
2804.8249266734088,1009
2806.5846656801846,984
2808.344058551212,993
2810.1031055894246,948
2811.8618070978273,927
2813.6201633795085,985
2815.378174737636,1034
2817.1358414754536,1020
2818.893163896285,1015
2820.6501423035334,1021
2822.4067770006814,997
2824.1630682912883,953
2825.9190164789957,943
2827.6746218675207,954
2829.429884760661,955
2831.184805462294,954
2832.9393842763743,976
2834.693621506936,1046
2836.4475174580916,971
2838.201072434034,976
2839.954286739034,974
2841.707160677441,945
2843.459694553685,978
2845.2118886722724,943
2846.96374333779,1004
2848.7152588549034,969
2850.4664355283567,985
2852.217273662973,977
2853.9677735636546,1016
2855.7179355353833,987
2857.4677598832186,994
2859.217246912299,976
2860.9663969278427,943
2862.715210235146,997
2864.4636871395846,983
2866.211827946614,983
2867.9596329617652,964
2869.7071024906536,928
2871.4542368389684,957
2873.20103631248,990
2874.947501217038,997
2876.6936318585695,967
2878.4394285430812,1000
2880.1848915766604,981
2881.9300212654707,971
2883.6748179157553,1033
2885.4192818338374,975
2887.1634133261173,1002
2888.907212699077,976
2890.6506802592744,1004
2892.393816313348,999
2894.1366211680142,1008
2895.8790951300693,994
2897.621238506388,954
2899.363051603925,956
2901.1045347297118,941
2902.8456881908596,978
2904.58651229456,1003
2906.327007348081,971
2908.067173658772,963
2909.8070115340597,999
2911.5465212814497,975
2913.285703208527,966
2915.0245576229563,979
2916.7630848324807,953
2918.5012851449196,968
2920.2391588681758,1029
2921.976706310227,977
2923.7139277791334,981
2925.4508235830313,1005
2927.187394030137,1011
2928.923639428745,972
2930.6595600872306,983
2932.395156314046,989
2934.1304284177218,1010
2935.8653767068713,984
2937.6000014901815,941
2939.3343030764227,991
2941.068281774442,1000
2942.8019378931644,1037
2944.5352717415976,998
2946.2682836288236,977
2948.0009738640065,989
2949.7333427563885,1008
2951.465390615289,1010
2953.1971177501086,1035
2954.9285244703265,1015
2956.6596110855,1032
2958.3903779052657,1008
2960.1208252393385,986
2961.8509533975125,994
2963.5807626896617,966
2965.3102534257378,971
2967.0394259157715,996
2968.768280469873,951
2970.496817398232,1003
2972.2250370111146,977
2973.952939618869,987
2975.6805255319196,994
2977.4077950607707,968
2979.134748516006,976
2980.861386208289,984
2982.587708448359,963
2984.313715547037,949
2986.039407815222,1001
2987.764785563891,986
2989.489849104102,1001
2991.2145987469908,1010
2992.9390348037705,981
2994.6631575857346,958
2996.3869674042576,999
2998.1104645707887,1008
2999.83364939686,974
3001.5565221940783,970
3003.2790832741334,950
3005.0013329487924,985
3006.7232715298996,1020
3008.4448993293804,981
3010.166216659239,1006
3011.887223831558,937
3013.607921158498,994
3015.3283089522993,983
3017.0483875252826,992
3018.7681571898443,966
3020.4876182584626,963
3022.2067710436927,901
3023.9256158581707,953
3025.644153014609,972
3027.362382825801,973
3029.0803056046193,973
3030.797921664012,958
3032.5152313170106,990
3034.2322348767225,987
3035.9489326563353,962
3037.665324969115,967
3039.3814121284063,961
3041.097194447633,943
3042.812672240299,970
3044.5278458199855,963
3046.2427155003525,952
3047.9572815951406,1000
3049.671544418167,946
3051.38550428333,930
3053.0991615046073,983
3054.812516396051,989
3056.5255692717974,928
3058.2383204460575,992
3059.9507702331257,983
3061.662918947372,1010
3063.3747669032446,981
3065.0863144152736,916
3066.7975617980674,981
3068.508509366309,953
3070.219157434767,964
3071.9295063182844,998
3073.639556331785,953
3075.3493077902704,989
3077.058761008821,1001
3078.7679163025964,949
3080.476773986837,976
3082.1853343768594,980
3083.89359778806,964
3085.6015645359153,990
3087.3092349359786,967
3089.016609303884,988
3090.7236879553434,984
3092.4304712061476,940
3094.136959372166,987
3095.843152769349,983
3097.5490517137237,939
3099.2546565213966,958
3100.959967508554,911
3102.66498499146,925
3104.3697092864577,945
3106.0741407099695,964
3107.778279578498,984
3109.482126208622,989
3111.1856809170004,996
3112.8889440203716,966
3114.5919158355528,958
3116.294596679439,967
3117.996986869006,997
3119.6990867213062,985
3121.4008965534726,972
3123.102416682717,953
3124.803647426329,996
3126.5045891016784,977
3128.205242026213,1001
3129.90560651746,1023
3131.605682893025,995
3133.3054714705922,965
3135.0049725679282,1004
3136.7041865028714,979
3138.4031135933465,997
3140.101754157353,995
3141.800108512971,943
3143.498176978357,988
3145.1959598717494,946
3146.8934575114636,941
3148.5906702158954,934
3150.2875983035183,965
3151.9842420928853,1005
3153.680601902627,961
3155.376678051456,921
3157.07247085816,910
3158.767980641609,956
3160.463207720748,1018
3162.158152414606,967
3163.8528150422862,971
3165.5471959229726,944
3167.2412953759303,1017
3168.9351137204976,972
3170.628651276098,973
3172.3219083622307,971
3174.014885298474,933
3175.707582404485,961
3177.4000000000005,987
3179.092138404835,905
3180.7839979388846,983
3182.47557892212,974
3184.166881674594,1012
3185.8579065164386,1033
3187.5486537678626,929
3189.2391237491547,979
3190.9293167806827,967
3192.6192331828934,973
3194.3088732763117,999
3195.998237381542,988
3197.687325819268,954
3199.376138910251,936
3201.064676975334,944
3202.7529403354347,979
3204.4409293115523,955
3206.1286442247647,956
3207.816085396229,952
3209.5032531471825,969
3211.190147798936,978
3212.8767696728846,985
3214.5631190905015,948
3216.2491963733373,979
3217.9350018430214,952
3219.6205358212637,958
3221.305798629851,966
3222.990790590651,968
3224.6755120256103,968
3226.359963256751,951
3228.0441446061795,928
3229.7280563960758,972
3231.411698948703,990
3233.0950725863995,948
3234.778177631587,961
3236.461014406761,955
3238.1435832345005,996
3239.8258844374595,966
3241.507918338374,966
3243.1896852600576,1000
3244.8711855254023,920
3246.552419457381,944
3248.233387379042,996
3249.914089613516,945
3251.59452648401,1004
3253.274698313813,961
3254.95460542629,944
3256.6342481448855,941
3258.313626793125,1004
3259.9927416946084,961
3261.6715931730196,913
3263.3501815521176,974
3265.0285071557437,947
3266.706570307815,957
3268.3843713323286,916
3270.0619105533615,976
3271.739188295068,999
3273.4162048816834,933
3275.0929606375184,899
3276.769455886966,957
3278.445690954498,938
3280.1216661646613,989
3281.797381842087,976
3283.4728383114807,968
3285.1480358976296,996
3286.8229749253996,944
3288.4976557197333,967
3290.172078605655,964
3291.846243908266,940
3293.5201519527463,942
3295.193803064357,982
3296.8671975684374,969
3298.5403357904024,976
3300.21321805575,921
3301.8858446900567,974
3303.558216018975,957
3305.23033236824,927
3306.9021940636603,948
3308.57380143113,971
3310.2451547966184,1008
3311.916254486174,993
3313.5871008259246,958
3315.2576941420766,978
3316.9280347609147,923
3318.5981230088046,906
3320.2679592121895,918
3321.9375436975924,957
3323.606876791612,911
3325.27595882093,981
3326.944790112305,1027
3328.6133709925753,948
3330.2817017886573,945
3331.949782827547,930
3333.617614436319,923
3335.2851969421245,980
3336.952530672199,975
3338.619615953853,971
3340.286453114475,972
3341.9530424815357,942
3343.619384382583,1029
3345.2854791452437,1016
3346.951327097224,952
3348.6169285663073,952
3350.2822838803577,973
3351.947393367319,932
3353.61225735521,968
3355.2768761721345,984
3356.9412501462693,985
3358.605379605873,1011
3360.2692648792827,984
3361.9329062949146,970
3363.596304181263,948
