CollectionTime,7/3/2024 2:40:45 PM
ExposureUsed,3
CalibratedSpectrum
-962.7078968117929,422
-959.9714848408522,457
-957.2358232597828,454
-954.5009119013725,426
-951.7667505983302,459
-949.0333391832855,465
-946.3006774887896,488
-943.5687653473143,479
-940.837602591253,471
-938.1071890529199,436
-935.3775245645503,456
-932.6486089583007,470
-929.9204420662485,467
-927.1930237203925,451
-924.4663537526524,441
-921.7404319948689,444
-919.0152582788041,457
-916.2908324361409,505
-913.5671542984834,485
-910.8442236973568,459
-908.1220404642074,430
-905.4006044304027,458
-902.679915427231,467
-899.959973285902,451
-897.2407778375464,434
-894.5223289132158,435
-891.8046263438832,450
-889.0876699604426,466
-886.3714595937089,455
-883.6559950744183,457
-880.9412762332282,467
-878.2273029007168,459
-875.5140749073835,446
-872.8015920836489,451
-870.0898542598545,482
-867.3788612662631,457
-864.6686129330585,444
-861.9591090903457,455
-859.2503495681506,448
-856.5423341964203,426
-853.8350628050229,445
-851.1285352237478,451
-848.4227512823054,446
-845.7177108103272,436
-843.0134136373656,456
-840.3098595928943,448
-837.6070485063082,456
-834.9049802069229,521
-832.2036545239757,494
-829.5030712866244,462
-826.8032303239481,447
-824.1041314649472,452
-821.4057745385428,460
-818.7081593735775,466
-816.0112857988148,448
-813.3151536429393,496
-810.6197627345566,461
-807.9251129021936,442
-805.2312039742981,434
-802.5380357792392,482
-799.8456081453069,474
-797.1539209007124,467
-794.462973873588,472
-791.772766891987,464
-789.083299783884,461
-786.3945723771743,460
-783.7065844996748,455
-781.0193359791231,456
-778.3328266431781,461
-775.6470563194197,462
-772.9620248353489,452
-770.2777320183878,460
-767.5941776958798,497
-764.9113616950891,474
-762.2292838432011,427
-759.5479439673222,438
-756.8673418944801,449
-754.1874774516235,476
-751.5083504656222,484
-748.8299607632671,460
-746.15230817127,489
-743.475392516264,492
-740.7992136248035,464
-738.1237713233636,508
-735.4490654383407,469
-732.7750957960521,483
-730.1018622227365,501
-727.4293645445534,457
-724.7576025875837,473
-722.0865761778291,474
-719.4162851412126,483
-716.7467293035781,511
-714.0779084906909,502
-711.409822528237,527
-708.7424712418238,491
-706.0758544569796,485
-703.4099719991541,513
-700.7448236937178,490
-698.0804093659622,493
-695.4167288411002,497
-692.7537819442656,467
-690.0915685005134,467
-687.4300883348199,477
-684.7693412720819,464
-682.1093271371178,465
-679.4500457546669,502
-676.7914969493897,511
-674.1336805458676,517
-671.4765963686034,475
-668.8202442420206,484
-666.1646239904642,511
-663.5097354382001,476
-660.8555784094151,495
-658.2021527282176,485
-655.5494582186366,529
-652.8974947046223,508
-650.2462620100463,522
-647.5957599587009,495
-644.9459883742998,510
-642.2969470804776,498
-639.6486359007902,509
-637.0010546587141,521
-634.3542031776476,519
-631.7080812809096,506
-629.0626887917401,503
-626.4180255333008,507
-623.7740913286734,494
-621.1308860008619,541
-618.4884093727904,553
-615.8466612673046,518
-613.2056415071715,521
-610.5653499150785,535
-607.9257863136347,553
-605.28695052537,574
-602.6488423727357,578
-600.0114616781036,528
-597.3748082637674,513
-594.7388819519412,554
-592.1036825647604,599
-589.4692099242818,645
-586.8354638524829,569
-584.2024441712624,565
-581.5701507024403,565
-578.9385832677575,575
-576.3077416888759,557
-573.6776257873787,554
-571.0482353847704,548
-568.4195703024757,554
-565.7916303618415,575
-563.164415384135,537
-560.5379251905453,551
-557.9121596021815,571
-555.2871184400748,567
-552.6628015251767,543
-550.0392086783606,558
-547.4163397204204,562
-544.794194472071,583
-542.1727727539491,625
-539.5520743866118,570
-536.9320991905377,652
-534.3128469861261,645
-531.6943175936979,607
-529.0765108334947,625
-526.4594265256793,711
-523.8430644903358,791
-521.2274245474689,850
-518.612506517005,944
-515.9983102187913,1046
-513.3848354725959,1264
-510.77208209810846,1482
-508.16004991493924,1507
-505.5487387426199,1397
-502.9381484006032,1287
-500.3282787082628,1079
-497.71912948489364,927
-495.1107005497117,826
-492.5029917218539,725
-489.8960028203786,721
-487.28973366426493,696
-484.68418407241325,683
-482.07935386364494,636
-479.47524285670266,662
-476.87185087025,664
-474.2691777228715,649
-471.66722323307334,665
-469.0659872192821,659
-466.4654694998459,637
-463.86566989303384,643
-461.26658821703614,672
-458.66822428996414,663
-456.07057792985,646
-453.4736489546475,654
-450.877437182231,673
-448.28194243039627,652
-445.68716451686,663
-443.09310325926003,679
-440.49975847515555,663
-437.9071299820263,649
-435.31521759727354,703
-432.72402113821954,710
-430.13354042210767,696
-427.5437752661022,685
-424.95472548728867,668
-422.36639090267386,688
-419.7787713291855,730
-417.1918665836721,773
-414.60567648290385,788
-412.0202008435715,780
-409.4354394822874,716
-406.8513922155845,690
-404.26805885991723,718
-401.685439231661,736
-399.103533147112,786
-396.522340422488,717
-393.9418608739278,705
-391.3620943174908,694
-388.7830405691583,738
-386.2046994448317,699
-383.6270707603344,687
-381.05015433141045,678
-378.473949973725,629
-375.8984575028645,641
-373.32367673433623,608
-370.74960748356875,593
-368.1762495659117,546
-365.60360279663576,562
-363.03166699093265,533
-360.4604419639154,509
-357.8899275306178,523
-355.32012350599507,487
-352.7510297049233,493
-350.1826459421999,496
-347.61497203254316,490
-345.04800779059235,502
-342.4817530309082,489
-339.91620756797226,487
-337.35137121618743,528
-334.7872437898774,577
-332.22382510328725,621
-329.66111497058273,510
-327.09911320585127,463
-324.53781962310075,502
-321.9772340362607,514
-319.4173562591816,461
-316.8581861056348,494
-314.2997233893127,498
-311.7419679238294,489
-309.1849195227194,478
-306.62857799943856,498
-304.0729431673641,512
-301.51801483979375,555
-298.963792829947,605
-296.41027695096386,557
-293.85746701590574,540
-291.3053628377552,564
-288.7539642294155,591
-286.2032710037115,572
-283.65328297338897,616
-281.1039999511146,614
-278.5554217494762,631
-276.007548180983,655
-273.4603790580651,714
-270.9139141930734,673
-268.3681533982807,606
-265.8230964858798,561
-263.27874326798565,623
-260.7350935566336,636
-258.1921471637804,555
-255.6499039013039,542
-253.10836358100266,565
-250.56752601459698,628
-248.02739101372765,710
-245.48795838995704,653
-242.94922795476816,620
-240.41119951956557,619
-237.8738728956746,678
-235.33724789434166,660
-232.80132432673452,697
-230.2661020039418,664
-227.73158073697357,622
-225.19776033676033,657
-222.66464061415422,703
-220.1322213799284,662
-217.60050244477725,561
-215.06948361931552,550
-212.53916471408013,657
-210.00954553952818,687
-207.48062590603843,644
-204.9524056239104,647
-202.4248845033651,774
-199.8980623545441,761
-197.37193898751036,733
-194.84651421224817,768
-192.32178783866232,707
-189.79775967657952,749
-187.27442953574644,831
-184.7517972258321,779
-182.2298625564256,746
-179.7086253370378,791
-177.18808537710026,811
-174.66824248596583,855
-172.14909647290835,859
-169.6306471471229,872
-167.11289431772548,780
-164.59583779375328,829
-162.07947738416453,877
-159.5638128978386,882
-157.04884414357605,929
-154.53457093009854,1070
-152.02099306604828,1014
-149.50811035998936,850
-146.99592262040665,800
-144.48442965570587,876
-141.97363127421409,1155
-139.46352728417958,1401
-136.95411749377126,1434
-134.44540171107985,1344
-131.93737974411636,1012
-129.43005140081357,1109
-126.92341648902493,1255
-124.41747481652521,1354
-121.91222619101006,1750
-119.40767042009657,2481
-116.90380731132257,2761
-114.40063667214702,2523
-111.8981583099503,2122
-109.3963720320337,1553
-106.89527764561933,1339
-104.39487495785067,1637
-101.89516377579241,2657
-99.39614390642998,3656
-96.89781515667039,3439
-94.40017733334128,3694
-91.90323024319173,5255
-89.40697369289148,8871
-86.91140748903172,11026
-84.41653143812482,9316
-81.92234534660395,5810
-79.42884902082358,4367
-76.93604226705907,9020
-74.4439248915071,18691
-71.95249670028534,25954
-69.46175749943245,26897
-66.97170709490854,23381
-64.48234529259423,19857
-61.99367189829195,17856
-59.50568671772464,19908
-57.01838955653636,20717
-54.53178022029283,18046
-52.045858514480074,16568
-49.560624244506016,15912
-47.07607721569923,13964
-44.59221723330904,14551
-42.10904410250669,16159
-39.62655762838392,15745
-37.14475761595372,13815
-34.66364387015028,12493
-32.18321619582866,10045
-29.70347439776515,8391
-27.224418280657005,8217
-24.74604764912317,9229
-22.26836230770266,14038
-19.7913620608565,27098
-17.315046712966478,51258
-14.83941606833514,65041
-12.36446993118659,65041
-9.89020810566592,65041
-7.416630395839093,65041
-4.94373660569363,65041
-2.471526539137585,65041
-6.821210263296962E-13,65041
2.47084320796705,65041
4.941003281093458,65041
7.410480415786196,65041
9.879274808531363,65041
12.347386655893956,65041
14.814816154518212,65041
17.28156350112681,65041
19.74762889252179,65041
22.21301252558385,65041
24.67771459727237,20711
27.141735304626195,4402
29.605074844762612,2640
32.06773341487792,2470
34.52971121224755,2612
36.99100843422559,2366
39.45162527824516,2205
41.91156194181792,2162
44.370818622535126,1872
46.82939551806646,1554
49.287292826160524,1800
51.74451074464503,2045
54.201049471426245,2207
56.65690920448981,2036
59.112090141899785,1712
61.56659248179983,1554
64.02041642241159,1499
66.4735621620365,1476
68.92602989905402,1213
71.37781983192338,1215
73.82893215918205,1264
76.27936707944684,1535
78.72912479141326,1426
81.17820549385567,1530
83.62660938562783,1596
86.07433666566146,1613
88.5213875329681,1378
90.96776218663751,1333
93.41346082583925,1151
95.85848364982041,1347
98.30283085790859,1308
100.7465026495089,1248
103.18949922410604,1252
105.63182078126385,1293
108.07346752062438,1434
110.51443964190923,1167
112.95473734491827,1058
115.39436082953114,1204
117.83331029570547,1091
120.27158594347827,1036
122.7091879729652,1097
125.1461165843615,1241
127.58237197794062,1026
130.01795435405518,1104
132.4528639131364,1271
134.88710085569494,1293
137.32066538231982,925
139.75355769367923,874
142.1857779905207,998
144.61732647366978,1021
147.04820334403132,891
149.47840880258934,833
151.90794305040674,1003
154.33680628862487,981
156.76499871846443,992
159.19252054122433,1023
161.61937195828352,1087
164.04555317109896,1338
166.47106438120693,1341
168.89590579022217,1405
171.320077599839,1420
173.7435800118302,1420
176.16641322804742,1562
178.58857745042144,1652
181.01007288096173,1787
183.43089972175687,1665
185.85105817497413,1682
188.27054844285988,1691
190.6893707277394,1696
193.10752523201643,1617
195.5250121581745,1626
197.9418317087751,1646
200.3579840864594,1629
202.7734694939469,1706
205.18828813403627,1731
207.6024402096051,1853
210.01592592360964,1860
212.42874547908548,1775
214.84089907914665,1817
217.2523869269868,1833
219.66320922587727,1808
222.0733661791695,1845
224.48285799029293,1749
226.8916848627572,1709
229.29984700014882,1758
231.7073446061355,1842
234.11417788446204,1848
236.520347038953,1829
238.92585227351185,1729
241.33069379212054,1872
243.73487179884035,1715
246.1383864978112,1800
248.541238093252,1747
250.9434267894609,1738
253.34495279081432,1716
255.74581630176783,1874
258.1460175268563,1775
260.54555667069314,1758
262.9444339379703,1689
265.3426495334594,1678
267.7402036620107,1788
270.1370965285529,1872
272.53332833809407,1898
274.9288992957214,1755
277.32380960660055,1719
279.718059475976,1798
282.1116491091717,1808
284.5045787115897,1797
286.89684848871195,1744
289.2884586460981,1861
291.67940938938807,1827
294.0697009242996,1874
296.4593334566299,1900
298.84830719225477,1864
301.23662233712923,1813
303.6242790972866,1815
306.01127767884,1804
308.39761828798066,1710
310.78330113097934,1685
313.16832641418534,1643
315.5526943440269,1733
317.9364051270112,1695
320.3194589697242,1644
322.70185607883093,1772
325.0835966610754,1648
327.4646809232805,1708
329.8451090723478,1621
332.2248813152577,1650
334.6039978590701,1591
336.9824589109231,1582
339.36026467803447,1560
341.7374153677,1531
344.113911187295,1550
346.48975234427337,1579
348.8649390461686,1605
351.2394715005918,1574
353.61334991523415,1545
355.9865744978655,1601
358.35914545633375,1521
360.73106299856715,1582
363.10232733257146,1527
365.47293866643247,1500
367.84289720831396,1475
370.2122031664593,1529
372.5808567491905,1522
374.9488581649083,1481
377.31620762209275,1458
379.6829053293021,1442
382.0489514951745,1400
384.4143463284262,1449
386.7790900378528,1441
389.14318283232853,1424
391.50662492080653,1504
393.86941651231916,1555
396.23155781597745,1530
398.5930490409713,1497
400.9538903965696,1493
403.3140820921202,1494
405.6736243370498,1508
408.03251734086336,1480
410.3907613131465,1424
412.74835646356166,1433
415.10530300185144,1434
417.4616011378372,1390
419.81725108141893,1435
422.1722530425758,1448
424.5266072313656,1462
426.880313857925,1472
429.2333731324701,1443
431.58578526529516,1365
433.9375504667738,1423
436.2886689473588,1483
438.63914091758113,1357
440.9889665880513,1367
443.33814616945835,1402
445.68667987257015,1322
448.03456790823395,1333
450.3818104873759,1357
452.72840782100013,1349
455.07436012019105,1308
457.41966759611057,1413
459.7643304600007,1365
462.10834892318155,1399
464.4517231970525,1454
466.79445349309174,1304
469.1365400228566,1352
471.4779829979826,1353
473.81878263018564,1341
476.15893913125876,1335
478.4984527130747,1389
480.8373235875855,1422
483.17555196682144,1404
485.5131380628919,1451
487.8500820879857,1417
490.1863842543697,1579
492.52204477439034,1515
494.8570638604725,1622
497.1914417251204,1726
499.52517858091653,1837
501.85827464052306,2247
504.19073011668036,2733
506.5225452222086,3399
508.85372017000566,3911
511.18425517304956,4144
513.514150444396,4324
515.8434061971808,4574
518.1720226446176,4945
520.4999999999999,4751
522.8273384766991,4194
525.1540382881666,3611
527.480099647932,3160
529.8055227696037,2553
532.1303078668694,2087
534.454455153496,1709
536.777964843328,1617
539.1008371502907,1634
541.4230722883866,1527
543.744670471698,1482
546.0656319143858,1501
548.3859568306899,1555
550.7056454349294,1501
553.0246979415016,1471
555.3431145648834,1437
557.6608955196306,1494
559.978041020377,1410
562.2945512818363,1424
564.6104265188006,1354
566.9256669461412,1413
569.2402727788082,1447
571.5542442318302,1425
573.8675815203156,1472
576.1802848594508,1430
578.4923544645015,1416
580.8037905508126,1412
583.114593333807,1390
585.4247630289875,1436
587.7342998519354,1405
590.0432040183106,1402
592.3514757438526,1409
594.6591152443794,1375
596.9661227357875,1452
599.2724984340531,1464
601.578242555231,1446
603.8833553154542,1447
606.1878369309362,1440
608.4916876179676,1450
610.7949075929192,1424
613.0974970722403,1435
615.3994562724587,1409
617.7007854101818,1449
620.0014847020951,1411
622.3015543649641,1490
624.6009946156324,1482
626.8998056710224,1414
629.1979877481361,1415
631.4955410640538,1459
633.7924658359349,1421
636.0887622810175,1418
638.3844306166192,1452
640.6794710601358,1419
642.9738838290426,1460
645.2676691408932,1453
647.5608272133207,1481
649.853358264037,1486
652.1452625108324,1415
654.4365401715764,1464
656.7271914642178,1477
659.0172166067838,1427
661.3066158173809,1451
663.5953893141935,1378
665.8835373154867,1440
668.1710600396028,1451
670.4579577049639,1457
672.7442305300709,1409
675.0298787335033,1415
677.3149025339197,1455
679.599302150058,1495
681.8830778007342,1444
684.1662297048437,1459
686.4487580813608,1485
688.7306631493387,1440
691.0119451279091,1468
693.2926042362834,1490
695.5726406937516,1423
697.8520547196814,1467
700.1308465335215,1412
702.4090163547982,1388
704.6865644031171,1402
706.9634908981619,1446
709.2397960596965,1407
711.5154801075631,1466
713.7905432616823,1450
716.0649857420548,1436
718.3388077687592,1460
720.612009561953,1457
722.8845913418733,1417
725.1565533288352,1469
727.427895743234,1450
729.6986188055427,1443
731.9687227363137,1407
734.238207756178,1426
736.5070740858458,1435
738.7753219461066,1444
741.0429515578281,1474
743.3099631419569,1461
745.5763569195191,1477
747.8421331116193,1507
750.1072919394409,1399
752.3718336242467,1412
754.6357583873777,1446
756.8990664502545,1487
759.1617580343765,1464
761.423833361321,1484
763.6852926527457,1449
765.9461361303862,1452
768.206364016058,1469
770.4659765316536,1431
772.7249738991469,1491
774.9833563405886,1492
777.2411240781092,1479
779.4982773339183,1456
781.7548163303044,1486
784.010741289634,1451
786.2660524343538,1517
788.5207499869881,1527
790.7748341701416,1480
793.0283052064964,1525
795.2811633188143,1478
797.5334087299362,1474
799.7850416627813,1526
802.0360623403484,1513
804.2864709857143,1505
806.5362678220353,1480
808.7854530725468,1514
811.0340269605625,1456
813.2819897094754,1524
815.5293415427581,1532
817.77608268396,1525
820.0222133567116,1521
822.2677337847211,1450
824.5126441917765,1552
826.7569448017433,1443
829.0006358385675,1521
831.2437175262731,1401
833.4861900889629,1436
835.7280537508192,1506
837.9693087361026,1501
840.2099552691533,1524
842.4499935743896,1473
844.689423876309,1472
846.9282463994886,1474
849.1664613685833,1496
851.4040690083276,1504
853.6410695435349,1493
855.877463199097,1433
858.1132501999847,1487
860.3484307712487,1435
862.5830051380175,1486
864.8169735254988,1485
867.0503361589791,1525
869.2830932638243,1485
871.5152450654786,1464
873.7467917894654,1510
875.9777336613873,1472
878.2080709069252,1435
880.4378037518389,1475
882.666932421968,1503
884.8954571432301,1505
887.1233781416219,1523
889.3506956432192,1526
891.5774098741766,1547
893.803521060728,1487
896.0290294291852,1471
898.2539352059397,1492
900.4782386174619,1473
902.7019398903011,1402
904.925039251085,1472
907.147536926521,1458
909.3694331433943,1446
911.59072812857,1461
913.8114221089921,1509
916.0315153116827,1582
918.2510079637437,1589
920.4699002923547,1531
922.6881925247761,1524
924.905884888345,1509
927.1229776104793,1523
929.3394709186747,1575
931.555365040506,1463
933.7706602036275,1491
935.9853566357709,1499
938.1994545647489,1534
940.4129542184515,1563
942.6258558248488,1504
944.8381596119883,1564
947.0498658079974,1491
949.2609746410825,1519
951.4714863395287,1506
953.6814011316998,1497
955.8907192460387,1511
958.0994409110671,1455
960.3075663553858,1488
962.5150958076741,1525
964.7220294966913,1488
966.928367651274,1454
969.1341105003388,1456
971.3392582728806,1399
973.5438111979742,1536
975.747769504772,1385
977.9511334225061,1406
980.153903180487,1420
982.3560790081052,1410
984.5576611348289,1434
986.7586497902058,1339
988.9590452038618,1301
991.158847605503,1349
993.3580572249133,1360
995.5566742919558,1335
997.7546990365728,1318
999.952131688785,1269
1002.1489724786926,1276
1004.3452216364743,1299
1006.5408793923874,1255
1008.7359459767691,1203
1010.9304216200343,1265
1013.1243065526781,1236
1015.3176010052733,1203
1017.510305208472,1189
1019.7024193930064,1202
1021.8939437896848,1198
1024.0848786293977,1199
1026.2752241431122,1206
1028.4649805618747,1186
1030.6541481168115,1182
1032.842727039127,1209
1035.0307175601051,1206
1037.2181199111074,1187
1039.4049343235752,1153
1041.591161029029,1131
1043.7768002590683,1161
1045.9618522453698,1163
1048.1463172196918,1112
1050.3301954138697,1131
1052.513487059818,1106
1054.69619238953,1093
1056.8783116350783,1167
1059.0598450286152,1179
1061.2407928023704,1140
1063.4211551886528,1121
1065.6009324198508,1171
1067.780124728432,1129
1069.9587323469414,1132
1072.1367555080046,1170
1074.314194444325,1155
1076.4910493886855,1116
1078.667320573947,1096
1080.843008233051,1154
1083.0181125990161,1152
1085.1926339049414,1084
1087.3665723840027,1115
1089.5399282694575,1063
1091.7127017946405,1068
1093.8848931929647,1102
1096.0565026979243,1095
1098.2275305430899,1082
1100.3979769621128,1105
1102.567842188722,1053
1104.737126456726,1083
1106.9058300000124,1079
1109.0739530525475,1050
1111.2414958483764,1082
1113.4084586216231,1114
1115.5748416064907,1058
1117.7406450372605,1059
1119.9058691482942,1105
1122.0705141740304,1105
1124.2345803489884,1074
1126.3980679077658,1070
1128.5609770850388,1034
1130.7233081155623,1069
1132.8850612341707,1035
1135.0462366757774,1078
1137.2068346753745,1071
1139.3668554680326,1071
1141.526299288901,1070
1143.68516637321,1073
1145.8434569562655,1103
1148.001171273455,1034
1150.158309560244,1038
1152.3148720521767,1054
1154.470858984876,1027
1156.626270594044,1015
1158.7811071154629,1016
1160.9353687849912,1030
1163.089055838569,1036
1165.242168512213,1074
1167.3947070420209,1034
1169.5466716641677,1078
1171.6980626149075,1044
1173.8488801305748,1029
1175.9991244475814,1002
1178.1487958024186,996
1180.2978944316555,1048
1182.4464205719428,1036
1184.5943744600072,1052
1186.7417563326567,1059
1188.8885664267755,993
1191.0348049793297,998
1193.1804722273619,980
1195.325568407995,1065
1197.4700937584303,1025
1199.614048515948,1000
1201.7574329179074,1060
1203.900247201746,975
1206.042491604982,1002
1208.1841663652099,1065
1210.3252717201053,1009
1212.465807907422,1022
1214.6057751649923,1084
1216.7451737307279,1027
1218.8840038426192,1051
1221.0222657387353,1057
1223.1599596572241,1058
1225.2970858363137,1074
1227.4336445143094,1019
1229.5696359295966,1043
1231.705060320639,1001
1233.8399179259786,1033
1235.9742089842384,1042
1238.107933734118,1040
1240.2410924143974,1020
1242.373685263935,1066
1244.5057125216676,1038
1246.6371744266116,1008
1248.7680712178621,1044
1250.898403134593,1056
1253.028170416058,1044
1255.1573733015875,1071
1257.2860120305932,1038
1259.4140868425648,1042
1261.54159797707,1011
1263.6685456737569,1035
1265.7949301723515,1042
1267.9207517126597,1073
1270.046010534565,1028
1272.1707068780306,1042
1274.2948409830983,1041
1276.4184130898889,1050
1278.541423438603,1028
1280.6638722695184,1028
1282.785759822993,1045
1284.9070863394636,1074
1287.0278520594447,1080
1289.1480572235314,1087
1291.2677020723963,1019
1293.3867868467923,1071
1295.5053117875495,1045
1297.623277135579,1078
1299.740683131868,1042
1301.8575300174857,1080
1303.973818033578,1038
1306.0895474213703,1066
1308.2047184221678,1044
1310.3193312773528,1044
1312.4333862283888,1030
1314.5468835168163,1045
1316.659823384255,1023
1318.7722060724045,1034
1320.8840318230418,1050
1322.9953008780249,1071
1325.1060134792888,1080
1327.2161698688478,1037
1329.3257702887959,1057
1331.4348149813054,1063
1333.5433041886276,1046
1335.6512381530933,1043
1337.7586171171101,1065
1339.8654413231675,1043
1341.9717110138317,1053
1344.0774264317488,1087
1346.1825878196432,1066
1348.2871954203192,1098
1350.3912494766587,1045
1352.4947502316231,1102
1354.5976979282532,1074
1356.7000928096686,1085
1358.8019351190665,1055
1360.9032250997243,1044
1363.0039629949988,1053
1365.1041490483235,1048
1367.2037835032133,1046
1369.3028666032606,1042
1371.401398592137,1068
1373.4993797135926,1043
1375.5968102114575,1056
1377.6936903296396,1093
1379.7900203121262,1051
1381.8858004029835,1060
1383.9810308463561,1028
1386.075711886469,1105
1388.1698437676241,1055
1390.2634267342032,1047
1392.356461030667,1084
1394.4489469015557,1113
1396.5408845914872,1051
1398.6322743451592,1069
1400.7231164073469,1062
1402.813411022907,1061
1404.903158436773,1097
1406.9923588939578,1077
1409.0810126395531,1080
1411.1691199187303,1093
1413.2566809767386,1063
1415.343696058907,1104
1417.4301654106425,1029
1419.5160892774315,1043
1421.6014679048399,1097
1423.6863015385125,1086
1425.7705904241707,1123
1427.8543348076178,1094
1429.9375349347342,1073
1432.0201910514802,1085
1434.102303403894,1116
1436.1838722380944,1058
1438.2648978002767,1064
1440.3453803367174,1042
1442.4253200937692,1066
1444.5047173178677,1103
1446.5835722555234,1091
1448.6618851533285,1118
1450.739656257952,1071
1452.8168858161434,1082
1454.8935740747306,1122
1456.96972128062,1088
1459.045327680797,1080
1461.120393522327,1125
1463.1949190523528,1091
1465.2689045180973,1063
1467.3423501668608,1077
1469.415256246024,1071
1471.4876230030463,1082
1473.559450685465,1102
1475.6307395408976,1121
1477.7014898170391,1123
1479.771701761665,1102
1481.8413756226287,1157
1483.9105116478618,1117
1485.9791100853772,1033
1488.0471711832643,1096
1490.1146951896926,1118
1492.1816823529098,1049
1494.2481329212433,1125
1496.3140471430984,1087
1498.3794252669609,1093
1500.4442675413939,1140
1502.5085742150404,1118
1504.572345536622,1095
1506.6355817549388,1106
1508.6982831188702,1080
1510.7604498773744,1050
1512.8220822794883,1036
1514.8831805743293,1093
1516.9437450110909,1067
1519.003775839048,1106
1521.0632733075522,1081
1523.1222376660367,1148
1525.1806691640113,1074
1527.2385680510652,1089
1529.2959345768668,1095
1531.3527689911643,1097
1533.4090715437833,1103
1535.4648424846291,1074
1537.5200820636855,1098
1539.5747905310159,1144
1541.6289681367616,1136
1543.6826151311434,1093
1545.7357317644614,1101
1547.7883182870937,1024
1549.8403749494987,1154
1551.8919020022113,1076
1553.9428996958477,1112
1555.9933682811015,1089
1558.0433080087469,1095
1560.0927191296346,1143
1562.1416018946961,1128
1564.1899565549415,1106
1566.2377833614592,1099
1568.2850825654164,1136
1570.3318544180606,1065
1572.3780991707158,1130
1574.423817074788,1105
1576.4690083817595,1121
1578.5136733431923,1152
1580.5578122107272,1074
1582.601425236085,1117
1584.6445126710646,1124
1586.6870747675434,1099
1588.7291117774776,1093
1590.7706239529034,1051
1592.8116115459347,1068
1594.8520748087658,1131
1596.8920139936686,1140
1598.9314293529933,1064
1600.9703211391711,1096
1603.008689604711,1138
1605.0465350022005,1068
1607.0838575843068,1070
1609.1206576037753,1098
1611.1569353134305,1095
1613.1926909661765,1085
1615.2279248149953,1165
1617.2626371129481,1115
1619.2968281131757,1095
1621.3304980688963,1107
1623.3636472334088,1111
1625.39627586009,1093
1627.428384202396,1077
1629.459972513861,1123
1631.4910410480993,1108
1633.5215900588028,1078
1635.551619799744,1109
1637.5811305247717,1085
1639.6101224878166,1096
1641.6385959428862,1067
1643.6665511440683,1073
1645.693988345528,1131
1647.7209078015112,1072
1649.7473097663405,1104
1651.7731944944203,1105
1653.7985622402307,1086
1655.823413258333,1140
1657.847747803366,1085
1659.8715661300494,1062
1661.8948684931793,1044
1663.9176551476316,1024
1665.9399263483624,1115
1667.9616823504057,1095
1669.982923408873,1116
1672.0036497789574,1125
1674.0238617159293,1139
1676.043559475138,1130
1678.0627433120121,1074
1680.081413482059,1128
1682.0995702408654,1083
1684.117213844096,1134
1686.134344547495,1040
1688.1509626068864,1113
1690.1670682781705,1075
1692.182661817329,1084
1694.1977434804217,1115
1696.2123135235875,1069
1698.226372203043,1102
1700.2399197750851,1081
1702.2529564960905,1089
1704.2654826225112,1107
1706.277498410882,1079
1708.2890041178139,1101
1710.2999999999988,1074
1712.3104863142066,1087
1714.3204633172854,1125
1716.329931266163,1129
1718.3388904178469,1092
1720.3473410294214,1084
1722.3552833580516,1123
1724.3627176609807,1085
1726.3696441955308,1094
1728.3760632191033,1080
1730.3819749891782,1055
1732.3873797633146,1044
1734.3922777991502,1087
1736.3966693544012,1086
1738.4005546868639,1096
1740.4039340544127,1084
1742.406807715001,1042
1744.4091759266616,1033
1746.4110389475054,1050
1748.4123970357223,1081
1750.413250449582,1087
1752.4135994474318,1115
1754.4134442876993,1099
1756.4127852288902,1087
1758.4116225295893,1094
1760.4099564484595,1069
1762.407787244244,1069
1764.405115175764,1121
1766.4019405019203,1089
1768.3982634816916,1100
1770.3940843741357,1161
1772.3894034383907,1118
1774.3842209336717,1075
1776.378537119274,1102
1778.372352254571,1089
1780.3656665990156,1088
1782.3584804121397,1074
1784.3507939535534,1076
1786.3426074829463,1125
1788.3339212600863,1118
1790.3247355448211,1089
1792.3150505970766,1125
1794.3048666768573,1095
1796.2941840442477,1089
1798.2830029594106,1109
1800.2713236825884,1084
1802.2591464741004,1095
1804.2464715943465,1081
1806.2332993038058,1096
1808.2196298630352,1109
1810.2054635326708,1041
1812.190800573428,1106
1814.175641246101,1088
1816.1599858115628,1103
1818.1438345307652,1109
1820.127187664738,1117
1822.1100454745924,1092
1824.092408221516,1095
1826.0742761667766,1108
1828.055649571721,1070
1830.0365286977735,1105
1832.0169138064398,1051
1833.9968051593014,1130
1835.9762030180214,1114
1837.9551076443408,1098
1839.9335193000788,1095
1841.9114382471344,1076
1843.888864747485,1117
1845.8657990631878,1105
1847.842241456378,1077
1849.8181921892697,1095
1851.7936515241558,1086
1853.7686197234098,1101
1855.7430970494815,1097
1857.7170837649014,1089
1859.6905801322787,1094
1861.6635864143004,1084
1863.6361028737338,1066
1865.608129773424,1056
1867.5796673762961,1071
1869.5507159453537,1081
1871.521275743678,1137
1873.4913470344313,1062
1875.4609300808534,1052
1877.4300251462632,1084
1879.3986324940588,1118
1881.366752387717,1080
1883.3343850907936,1116
1885.3015308669228,1118
1887.268189979819,1124
1889.2343626932739,1098
1891.2000492711595,1106
1893.1652499774254,1117
1895.1299650761011,1084
1897.0941948312952,1043
1899.0579395071945,1134
1901.0211993680641,1118
1902.98397467825,1118
1904.9462657021745,1110
1906.9080727043415,1179
1908.869395949332,1132
1910.8302357018065,1073
1912.790592226504,1092
1914.7504657882428,1109
1916.7098566519212,1095
1918.6687650825133,1084
1920.6271913450764,1093
1922.5851357047422,1049
1924.5425984267245,1107
1926.499579776314,1100
1928.4560800188833,1137
1930.4120994198802,1102
1932.367638244833,1119
1934.32269675935,1132
1936.2772752291175,1091
1938.231373919899,1142
1940.1849930975404,1163
1942.1381330279637,1131
1944.0907939771696,1128
1946.0429762112412,1152
1947.9946799963363,1073
1949.9459055986945,1093
1951.896653284633,1095
1953.8469233205478,1096
1955.7967159729142,1089
1957.7460315082863,1091
1959.6948701932974,1077
1961.6432322946594,1117
1963.5911180791632,1110
1965.5385278136787,1100
1967.4854617651545,1071
1969.4319202006182,1122
1971.377903387176,1066
1973.3234115920136,1116
1975.268445082395,1095
1977.2130041256642,1066
1979.1570889892423,1128
1981.1006999406304,1107
1983.04383724741,1086
1984.986501177238,1090
1986.928691997853,1089
1988.8704099770712,1074
1990.811655382789,1074
1992.7524284829801,1076
1994.692729545698,1076
1996.6325588390755,1071
1998.5719166313224,1128
2000.5108031907307,1128
2002.4492187856677,1096
2004.387163684583,1083
2006.3246381560011,1137
2008.2616424685298,1065
2010.1981768908527,1053
2012.1342416917332,1108
2014.069837140014,1114
2016.0049635046162,1079
2017.9396210545406,1104
2019.8738100588666,1049
2021.8075307867502,1123
2023.740783507431,1102
2025.6735684902228,1081
2027.6058860045214,1105
2029.5377363198004,1115
2031.4691197056118,1126
2033.4000364315875,1053
2035.3304867674374,1157
2037.260470982952,1119
2039.189989347998,1112
2041.1190421325232,1087
2043.047629606554,1066
2044.9757520401945,1103
2046.9034097036288,1114
2048.8306028671195,1117
2050.7573318010086,1098
2052.683596775716,1077
2054.609398061742,1131
2056.5347359296647,1077
2058.4596106501403,1119
2060.384022493906,1085
2062.3079717317764,1104
2064.231458634646,1098
2066.1544834734873,1112
2068.077046519352,1069
2069.99914804337,1089
2071.9207883167524,1052
2073.8419676107865,1068
2075.7626861968406,1122
2077.6829443463607,1077
2079.6027423308715,1069
2081.522080421977,1113
2083.440958891362,1111
2085.359378010786,1129
2087.2773380520907,1085
2089.194839287196,1108
2091.111881988101,1135
2093.0284664268825,1120
2094.9445928756973,1049
2096.86026160678,1132
2098.775472892446,1124
2100.690227005088,1103
2102.604524217178,1058
2104.5183648012676,1117
2106.431749029985,1118
2108.34467717604,1116
2110.2571495122206,1126
2112.169166311393,1089
2114.080727846503,1085
2115.9918343905747,1099
2117.902486216711,1045
2119.8126835980956,1080
2121.722426807987,1146
2123.6317161197285,1126
2125.5405518067364,1105
2127.448934142509,1085
2129.356863400624,1097
2131.264339854737,1126
2133.1713637785815,1101
2135.077935445972,1090
2136.9840551308002,1150
2138.889723107037,1085
2140.7949396487334,1145
2142.699705030018,1091
2144.6040195250994,1108
2146.507883408264,1123
2148.4112969538774,1112
2150.3142604363848,1134
2152.2167741303097,1138
2154.1188383102535,1141
2156.0204532508997,1125
2157.9216192270064,1094
2159.822336513414,1093
2161.7226053850413,1112
2163.622426116884,1098
2165.5217989840185,1122
2167.4207242616,1100
2169.319202224862,1129
2171.2172331491165,1093
2173.1148173097563,1076
2175.0119549822507,1108
2176.90864644215,1152
2178.8048919650823,1123
2180.7006918267534,1119
2182.596046302952,1131
2184.4909556695407,1087
2186.3854202024645,1145
2188.279440177746,1138
2190.173015871487,1108
2192.066147559868,1113
2193.958835519149,1104
2195.851080025667,1142
2197.7428813558417,1118
2199.6342397861667,1118
2201.5251555932186,1169
2203.415629053651,1092
2205.3056604441986,1142
2207.19525004167,1134
2209.084398122958,1149
2210.9731049650327,1105
2212.861370844941,1125
2214.749196039812,1175
2216.636580826851,1136
2218.523525483344,1138
2220.410030286655,1201
2222.296095514226,1125
2224.1817214435805,1106
2226.066908352319,1177
2227.951656518121,1144
2229.835966218746,1150
2231.71983773203,1133
2233.6032713358913,1171
2235.486267308324,1163
2237.3688259274036,1123
2239.2509474712824,1196
2241.132632218193,1118
2243.013880446447,1110
2244.8946924344323,1155
2246.7750684606203,1145
2248.6550088035574,1117
2250.534513741871,1116
2252.413583554265,1140
2254.292218519526,1116
2256.170418916517,1133
2258.0481850241786,1163
2259.925517121534,1112
2261.8024154876825,1116
2263.678880401803,1160
2265.5549121431536,1102
2267.430510991071,1148
2269.305677224971,1138
2271.180411124348,1094
2273.0547129687766,1096
2274.9285830379076,1133
2276.8020216114737,1137
2278.6750289692845,1159
2280.5476053912294,1205
2282.4197511572766,1146
2284.2914665474727,1160
2286.162751841943,1161
2288.0336073208937,1155
2289.904033264608,1167
2291.774029953448,1194
2293.6435976678554,1131
2295.5127366883517,1145
2297.381447295534,1089
2299.2497297700825,1118
2301.1175843927526,1102
2302.9850114443825,1030
2304.852011205885,1103
2306.7185839582553,1032
2308.5847299825664,1045
2310.4504495599676,995
2312.3157429716925,1016
2314.1806104990483,997
2316.0450524234247,1026
2317.9090690262888,1042
2319.772660589186,990
2321.635827393742,1009
2323.498569721661,1022
2325.3608878547248,980
2327.2227820747967,1016
2329.0842526638157,996
2330.945299903803,989
2332.805924076857,954
2334.6661254651535,1008
2336.525904350951,980
2338.3852610165827,985
2340.244195744464,999
2342.102708817088,1000
2343.9608005170253,979
2345.8184711269287,974
2347.675720929526,946
2349.532550207628,1007
2351.38895924412,999
2353.24494832197,1024
2355.100517724223,1018
2356.955667734004,1015
2358.810398634514,958
2360.664710709037,985
2362.5186042409337,981
2364.3720795136437,952
2366.225136810686,989
2368.0777764156583,985
2369.929998612237,1005
2371.7818036841777,976
2373.633191915315,962
2375.484163589562,998
2377.3347189909114,981
2379.184858403434,1010
2381.03458211128,961
2382.8838903986775,969
2384.732783549936,978
2386.5812618494406,947
2388.4293255816588,1003
2390.2769750311327,971
2392.1242104824883,958
2393.971032220427,1012
2395.8174405297295,1043
2397.6634356952563,1027
2399.509018001947,968
2401.3541877348193,976
2403.1989451789705,989
2405.043290619576,1004
2406.8872243418905,991
2408.730746631247,1025
2410.5738577730594,991
2412.4165580528183,972
2414.258847756095,985
2416.100727168537,998
2417.9421965758734,1035
2419.783256263912,985
2421.623906518538,970
2423.4641476257157,997
2425.303979871491,1047
2427.143403541984,1024
2428.9824189233977,980
2430.821026302012,966
2432.6592259641866,973
2434.497018196361,1014
2436.33440328505,977
2438.171381516851,988
2440.00795317844,1030
2441.844118556569,1011
2443.6798779380724,953
2445.5152316098606,1017
2447.3501798589255,1004
2449.1847229723357,1014
2451.0188612372403,1011
2452.8525949408663,958
2454.6859243705203,1003
2456.518849813587,980
2458.3513715575314,959
2460.183489889895,987
2462.015205098301,990
2463.8465174704493,959
2465.67742729412,994
2467.5079348571717,1001
2469.338040447542,997
2471.1677443532476,1034
2472.9970468623833,989
2474.825948263123,1000
2476.6544488437207,982
2478.482548892508,1012
2480.310248697896,970
2482.137548548374,1016
2483.9644487325118,985
2485.790949538956,973
2487.617051256433,1017
2489.44275417375,992
2491.26805857979,990
2493.0929647635157,985
2494.917473013971,990
2496.741583620276,954
2498.5652968716304,980
2500.3886130573137,998
2502.2115324666834,1027
2504.0340553891765,966
2505.856182114308,1011
2507.6779129316733,987
2509.499248130945,1005
2511.3201880018764,944
2513.140732834298,957
2514.9608829181198,980
2516.780638543331,932
2518.6,999
2520.418967578273,996
2522.237541568376,1026
2524.0557222606144,950
2525.8735099453706,965
2527.6909049131086,946
2529.507907454368,984
2531.32451785977,934
2533.140736420014,1010
2534.9565634258774,951
2536.771999168218,953
2538.5870439379714,1012
2540.4016980261526,995
2542.2159617238544,913
2544.02983532225,951
2545.8433191125914,999
2547.656413386209,962
2549.4691184345115,974
2551.2814345489874,981
2553.093362021204,991
2554.904901142808,968
2556.716052205523,979
2558.526815501153,986
2560.3371913215824,986
2562.147179958771,964
2563.956781704761,953
2565.7659968516705,995
2567.5748256916986,985
2569.3832685171224,985
2571.1913256202984,973
2572.9989972936614,1008
2574.806283829725,971
2576.613185521084,1001
2578.4197026604074,963
2580.2258355404483,983
2582.031584454035,944
2583.836949694077,1035
2585.6419315535613,976
2587.4465303255533,973
2589.2507463032002,954
2591.0545797797245,999
2592.8580310484303,975
2594.6611004026995,971
2596.463788135992,984
2598.266094541849,973
2600.0680199138874,979
2601.869564545807,1003
2603.670728731383,981
2605.4715127644704,962
2607.2719169390048,963
2609.071941548998,952
2610.8715868885433,988
2612.670853251811,963
2614.469740933052,973
2616.268250226594,1009
2618.0663814268455,964
2619.864134828292,975
2621.6615107255006,992
2623.458509413115,946
2625.2551311858597,958
2627.0513763385347,985
2628.8472451660223,990
2630.6427379632833,956
2632.4378550253564,997
2634.232596647359,977
2636.026963124488,943
2637.8209547520187,942
2639.6145718253065,976
2641.407814639785,1013
2643.200683490966,1000
2644.9931786744414,984
2646.7853004858807,1027
2648.577049221034,971
2650.3684251757277,962
2652.1594286458712,979
2653.9500599274484,942
2655.740319316525,957
2657.5302071092437,959
2659.3197236018286,997
2661.10886909058,972
2662.8976438718782,946
2664.686048242183,951
2666.4740824980327,989
2668.2617469360443,982
2670.0490418529134,978
2671.8359675454153,1035
2673.622524310403,991
2675.408712444811,980
2677.1945322456495,984
2678.979984010009,962
2680.76506803506,1025
2682.5497846180497,970
2684.334134056306,999
2686.1181166472343,983
2687.9017326883213,985
2689.6849824771293,979
2691.4678663113013,967
2693.2503844885596,955
2695.032537306705,970
2696.8143250636167,986
2698.5957480572542,995
2700.3768065856534,979
2702.1575009469316,980
2703.937831439283,979
2705.717798360982,942
2707.4974020103837,972
2709.276642685917,936
2711.055520686095,989
2712.834036309506,951
2714.612189854819,956
2716.389981620782,964
2718.1674119062204,988
2719.944481010041,1030
2721.721189231226,978
2723.4975368688415,942
2725.273524222027,985
2727.0491515900053,1019
2728.824419272075,991
2730.5993275676146,976
2732.3738767760838,1005
2734.148067197016,954
2735.921899130031,990
2737.6953728748194,1009
2739.468488731156,987
2741.2412469988926,1028
2743.0136479779617,1012
2744.785691968372,989
2746.5573792702116,949
2748.3287101836504,963
2750.099685008934,943
2751.870304046388,935
2753.640567596418,967
2755.4104759595057,964
2757.1800294362156,967
2758.949228327187,1001
2760.7180729331412,971
2762.486563554877,993
2764.254700493272,997
2766.022484049284,977
2767.789914523947,1011
2769.5569922183786,985
2771.3237174337705,990
2773.090090471394,997
2774.8561116326036,1005
2776.6217812188274,965
2778.3870995315756,956
2780.1520668724356,948
2781.9166835430747,993
2783.6809498452394,1037
2785.444866080754,1033
2787.2084325515225,1007
2788.971649559527,931
2790.73451740683,955
2792.4970363955713,938
2794.2592068279705,932
2796.0210290063264,1007
2797.7825032330147,972
2799.543629810493,981
2801.304409041296,965
2803.0648412280366,1003
2804.8249266734088,996
2806.5846656801846,1008
2808.344058551212,1003
2810.1031055894246,1027
2811.8618070978273,992
2813.6201633795085,967
2815.378174737636,970
2817.1358414754536,981
2818.893163896285,962
2820.6501423035334,988
2822.4067770006814,1033
2824.1630682912883,1030
2825.9190164789957,1009
2827.6746218675207,990
2829.429884760661,961
2831.184805462294,991
2832.9393842763743,1025
2834.693621506936,1017
2836.4475174580916,1020
2838.201072434034,1025
2839.954286739034,969
2841.707160677441,996
2843.459694553685,981
2845.2118886722724,945
2846.96374333779,1010
2848.7152588549034,978
2850.4664355283567,1009
2852.217273662973,1014
2853.9677735636546,1005
2855.7179355353833,1006
2857.4677598832186,1015
2859.217246912299,978
2860.9663969278427,998
2862.715210235146,1015
2864.4636871395846,984
2866.211827946614,970
2867.9596329617652,1000
2869.7071024906536,971
2871.4542368389684,970
2873.20103631248,987
2874.947501217038,986
2876.6936318585695,982
2878.4394285430812,986
2880.1848915766604,1039
2881.9300212654707,1029
2883.6748179157553,982
2885.4192818338374,1013
2887.1634133261173,1015
2888.907212699077,1012
2890.6506802592744,1012
2892.393816313348,949
2894.1366211680142,953
2895.8790951300693,963
2897.621238506388,978
2899.363051603925,965
2901.1045347297118,975
2902.8456881908596,989
2904.58651229456,1009
2906.327007348081,996
2908.067173658772,991
2909.8070115340597,976
2911.5465212814497,948
2913.285703208527,972
2915.0245576229563,976
2916.7630848324807,990
2918.5012851449196,953
2920.2391588681758,1001
2921.976706310227,1005
2923.7139277791334,1022
2925.4508235830313,1001
2927.187394030137,999
2928.923639428745,949
2930.6595600872306,1009
2932.395156314046,995
2934.1304284177218,990
2935.8653767068713,1000
2937.6000014901815,944
2939.3343030764227,1003
2941.068281774442,981
2942.8019378931644,1033
2944.5352717415976,1033
2946.2682836288236,999
2948.0009738640065,1077
2949.7333427563885,1048
2951.465390615289,1000
2953.1971177501086,998
2954.9285244703265,995
2956.6596110855,966
2958.3903779052657,978
2960.1208252393385,1043
2961.8509533975125,1021
2963.5807626896617,993
2965.3102534257378,1058
2967.0394259157715,961
2968.768280469873,970
2970.496817398232,966
2972.2250370111146,970
2973.952939618869,971
2975.6805255319196,955
2977.4077950607707,959
2979.134748516006,963
2980.861386208289,951
2982.587708448359,970
2984.313715547037,982
2986.039407815222,1013
2987.764785563891,1038
2989.489849104102,1049
2991.2145987469908,982
2992.9390348037705,1010
2994.6631575857346,1023
2996.3869674042576,987
2998.1104645707887,987
2999.83364939686,982
3001.5565221940783,984
3003.2790832741334,997
3005.0013329487924,991
3006.7232715298996,969
3008.4448993293804,972
3010.166216659239,1036
3011.887223831558,979
3013.607921158498,994
3015.3283089522993,1034
3017.0483875252826,984
3018.7681571898443,981
3020.4876182584626,1003
3022.2067710436927,997
3023.9256158581707,954
3025.644153014609,1005
3027.362382825801,1001
3029.0803056046193,941
3030.797921664012,1021
3032.5152313170106,931
3034.2322348767225,1004
3035.9489326563353,987
3037.665324969115,981
3039.3814121284063,937
3041.097194447633,1025
3042.812672240299,983
3044.5278458199855,1007
3046.2427155003525,973
3047.9572815951406,939
3049.671544418167,988
3051.38550428333,965
3053.0991615046073,1009
3054.812516396051,974
3056.5255692717974,965
3058.2383204460575,969
3059.9507702331257,967
3061.662918947372,975
3063.3747669032446,1018
3065.0863144152736,995
3066.7975617980674,947
3068.508509366309,979
3070.219157434767,937
3071.9295063182844,999
3073.639556331785,1003
3075.3493077902704,1003
3077.058761008821,974
3078.7679163025964,963
3080.476773986837,975
3082.1853343768594,988
3083.89359778806,932
3085.6015645359153,957
3087.3092349359786,955
3089.016609303884,970
3090.7236879553434,958
3092.4304712061476,989
3094.136959372166,1033
3095.843152769349,992
3097.5490517137237,939
3099.2546565213966,948
3100.959967508554,972
3102.66498499146,935
3104.3697092864577,953
3106.0741407099695,987
3107.778279578498,1004
3109.482126208622,1001
3111.1856809170004,965
3112.8889440203716,930
3114.5919158355528,987
3116.294596679439,987
3117.996986869006,992
3119.6990867213062,981
3121.4008965534726,968
3123.102416682717,937
3124.803647426329,1011
3126.5045891016784,923
3128.205242026213,944
3129.90560651746,987
3131.605682893025,996
3133.3054714705922,1002
3135.0049725679282,1055
3136.7041865028714,934
3138.4031135933465,990
3140.101754157353,1003
3141.800108512971,955
3143.498176978357,926
3145.1959598717494,993
3146.8934575114636,990
3148.5906702158954,989
3150.2875983035183,965
3151.9842420928853,952
3153.680601902627,989
3155.376678051456,951
3157.07247085816,937
3158.767980641609,986
3160.463207720748,1009
3162.158152414606,988
3163.8528150422862,1052
3165.5471959229726,987
3167.2412953759303,983
3168.9351137204976,943
3170.628651276098,953
3172.3219083622307,957
3174.014885298474,959
3175.707582404485,974
3177.4000000000005,1003
3179.092138404835,990
3180.7839979388846,988
3182.47557892212,1009
3184.166881674594,1010
3185.8579065164386,945
3187.5486537678626,1005
3189.2391237491547,992
3190.9293167806827,991
3192.6192331828934,967
3194.3088732763117,973
3195.998237381542,995
3197.687325819268,988
3199.376138910251,989
3201.064676975334,980
3202.7529403354347,996
3204.4409293115523,973
3206.1286442247647,988
3207.816085396229,967
3209.5032531471825,981
3211.190147798936,982
3212.8767696728846,977
3214.5631190905015,990
3216.2491963733373,997
3217.9350018430214,912
3219.6205358212637,929
3221.305798629851,1006
3222.990790590651,1015
3224.6755120256103,932
3226.359963256751,933
3228.0441446061795,946
3229.7280563960758,935
3231.411698948703,937
3233.0950725863995,986
3234.778177631587,1008
3236.461014406761,931
3238.1435832345005,976
3239.8258844374595,963
3241.507918338374,1001
3243.1896852600576,961
3244.8711855254023,944
3246.552419457381,1002
3248.233387379042,976
3249.914089613516,1016
3251.59452648401,985
3253.274698313813,932
3254.95460542629,947
3256.6342481448855,957
3258.313626793125,974
3259.9927416946084,989
3261.6715931730196,917
3263.3501815521176,921
3265.0285071557437,943
3266.706570307815,940
3268.3843713323286,901
3270.0619105533615,973
3271.739188295068,981
3273.4162048816834,929
3275.0929606375184,924
3276.769455886966,975
3278.445690954498,987
3280.1216661646613,998
3281.797381842087,991
3283.4728383114807,955
3285.1480358976296,1017
3286.8229749253996,974
3288.4976557197333,1015
3290.172078605655,962
3291.846243908266,966
3293.5201519527463,977
3295.193803064357,969
3296.8671975684374,951
3298.5403357904024,965
3300.21321805575,974
3301.8858446900567,970
3303.558216018975,946
3305.23033236824,989
3306.9021940636603,967
3308.57380143113,973
3310.2451547966184,967
3311.916254486174,992
3313.5871008259246,998
3315.2576941420766,993
3316.9280347609147,945
3318.5981230088046,977
3320.2679592121895,981
3321.9375436975924,1009
3323.606876791612,992
3325.27595882093,972
3326.944790112305,991
3328.6133709925753,983
3330.2817017886573,1007
3331.949782827547,954
3333.617614436319,986
3335.2851969421245,936
3336.952530672199,968
3338.619615953853,988
3340.286453114475,984
3341.9530424815357,944
3343.619384382583,975
3345.2854791452437,945
3346.951327097224,1026
3348.6169285663073,962
3350.2822838803577,980
3351.947393367319,1009
3353.61225735521,985
3355.2768761721345,987
3356.9412501462693,920
3358.605379605873,931
3360.2692648792827,988
3361.9329062949146,950
3363.596304181263,951
