CollectionTime,7/3/2024 2:37:53 PM
ExposureUsed,3
CalibratedSpectrum
-962.7078968117929,449
-959.9714848408522,448
-957.2358232597828,471
-954.5009119013725,432
-951.7667505983302,444
-949.0333391832855,448
-946.3006774887896,488
-943.5687653473143,471
-940.837602591253,440
-938.1071890529199,445
-935.3775245645503,451
-932.6486089583007,441
-929.9204420662485,480
-927.1930237203925,441
-924.4663537526524,439
-921.7404319948689,465
-919.0152582788041,458
-916.2908324361409,509
-913.5671542984834,470
-910.8442236973568,467
-908.1220404642074,427
-905.4006044304027,450
-902.679915427231,439
-899.959973285902,421
-897.2407778375464,446
-894.5223289132158,425
-891.8046263438832,440
-889.0876699604426,449
-886.3714595937089,429
-883.6559950744183,422
-880.9412762332282,432
-878.2273029007168,412
-875.5140749073835,455
-872.8015920836489,446
-870.0898542598545,470
-867.3788612662631,439
-864.6686129330585,431
-861.9591090903457,443
-859.2503495681506,436
-856.5423341964203,452
-853.8350628050229,452
-851.1285352237478,441
-848.4227512823054,436
-845.7177108103272,434
-843.0134136373656,446
-840.3098595928943,432
-837.6070485063082,479
-834.9049802069229,488
-832.2036545239757,475
-829.5030712866244,443
-826.8032303239481,459
-824.1041314649472,467
-821.4057745385428,462
-818.7081593735775,476
-816.0112857988148,466
-813.3151536429393,479
-810.6197627345566,453
-807.9251129021936,476
-805.2312039742981,454
-802.5380357792392,467
-799.8456081453069,452
-797.1539209007124,466
-794.462973873588,467
-791.772766891987,489
-789.083299783884,470
-786.3945723771743,456
-783.7065844996748,467
-781.0193359791231,437
-778.3328266431781,450
-775.6470563194197,449
-772.9620248353489,453
-770.2777320183878,445
-767.5941776958798,458
-764.9113616950891,454
-762.2292838432011,491
-759.5479439673222,459
-756.8673418944801,454
-754.1874774516235,465
-751.5083504656222,502
-748.8299607632671,481
-746.15230817127,480
-743.475392516264,465
-740.7992136248035,463
-738.1237713233636,440
-735.4490654383407,456
-732.7750957960521,491
-730.1018622227365,469
-727.4293645445534,466
-724.7576025875837,451
-722.0865761778291,461
-719.4162851412126,484
-716.7467293035781,511
-714.0779084906909,508
-711.409822528237,483
-708.7424712418238,493
-706.0758544569796,500
-703.4099719991541,520
-700.7448236937178,535
-698.0804093659622,497
-695.4167288411002,492
-692.7537819442656,477
-690.0915685005134,484
-687.4300883348199,485
-684.7693412720819,492
-682.1093271371178,466
-679.4500457546669,488
-676.7914969493897,486
-674.1336805458676,476
-671.4765963686034,507
-668.8202442420206,489
-666.1646239904642,510
-663.5097354382001,494
-660.8555784094151,495
-658.2021527282176,501
-655.5494582186366,561
-652.8974947046223,519
-650.2462620100463,535
-647.5957599587009,513
-644.9459883742998,544
-642.2969470804776,502
-639.6486359007902,523
-637.0010546587141,503
-634.3542031776476,477
-631.7080812809096,517
-629.0626887917401,506
-626.4180255333008,502
-623.7740913286734,495
-621.1308860008619,526
-618.4884093727904,525
-615.8466612673046,514
-613.2056415071715,521
-610.5653499150785,537
-607.9257863136347,566
-605.28695052537,557
-602.6488423727357,554
-600.0114616781036,553
-597.3748082637674,528
-594.7388819519412,523
-592.1036825647604,597
-589.4692099242818,637
-586.8354638524829,548
-584.2024441712624,586
-581.5701507024403,617
-578.9385832677575,578
-576.3077416888759,564
-573.6776257873787,571
-571.0482353847704,543
-568.4195703024757,560
-565.7916303618415,580
-563.164415384135,538
-560.5379251905453,535
-557.9121596021815,570
-555.2871184400748,567
-552.6628015251767,583
-550.0392086783606,570
-547.4163397204204,568
-544.794194472071,593
-542.1727727539491,575
-539.5520743866118,637
-536.9320991905377,649
-534.3128469861261,618
-531.6943175936979,597
-529.0765108334947,654
-526.4594265256793,698
-523.8430644903358,772
-521.2274245474689,908
-518.612506517005,1024
-515.9983102187913,1127
-513.3848354725959,1223
-510.77208209810846,1404
-508.16004991493924,1482
-505.5487387426199,1323
-502.9381484006032,1260
-500.3282787082628,1055
-497.71912948489364,904
-495.1107005497117,779
-492.5029917218539,696
-489.8960028203786,664
-487.28973366426493,651
-484.68418407241325,642
-482.07935386364494,643
-479.47524285670266,632
-476.87185087025,683
-474.2691777228715,630
-471.66722323307334,665
-469.0659872192821,624
-466.4654694998459,632
-463.86566989303384,686
-461.26658821703614,663
-458.66822428996414,661
-456.07057792985,662
-453.4736489546475,671
-450.877437182231,652
-448.28194243039627,657
-445.68716451686,659
-443.09310325926003,613
-440.49975847515555,633
-437.9071299820263,625
-435.31521759727354,699
-432.72402113821954,722
-430.13354042210767,733
-427.5437752661022,645
-424.95472548728867,706
-422.36639090267386,696
-419.7787713291855,752
-417.1918665836721,732
-414.60567648290385,774
-412.0202008435715,723
-409.4354394822874,702
-406.8513922155845,739
-404.26805885991723,739
-401.685439231661,727
-399.103533147112,757
-396.522340422488,759
-393.9418608739278,718
-391.3620943174908,692
-388.7830405691583,713
-386.2046994448317,722
-383.6270707603344,692
-381.05015433141045,661
-378.473949973725,629
-375.8984575028645,603
-373.32367673433623,604
-370.74960748356875,574
-368.1762495659117,549
-365.60360279663576,552
-363.03166699093265,506
-360.4604419639154,522
-357.8899275306178,542
-355.32012350599507,523
-352.7510297049233,502
-350.1826459421999,496
-347.61497203254316,483
-345.04800779059235,516
-342.4817530309082,515
-339.91620756797226,505
-337.35137121618743,549
-334.7872437898774,600
-332.22382510328725,594
-329.66111497058273,498
-327.09911320585127,470
-324.53781962310075,483
-321.9772340362607,518
-319.4173562591816,506
-316.8581861056348,527
-314.2997233893127,462
-311.7419679238294,449
-309.1849195227194,502
-306.62857799943856,519
-304.0729431673641,533
-301.51801483979375,570
-298.963792829947,513
-296.41027695096386,510
-293.85746701590574,525
-291.3053628377552,538
-288.7539642294155,554
-286.2032710037115,605
-283.65328297338897,591
-281.1039999511146,586
-278.5554217494762,664
-276.007548180983,660
-273.4603790580651,638
-270.9139141930734,595
-268.3681533982807,584
-265.8230964858798,629
-263.27874326798565,597
-260.7350935566336,595
-258.1921471637804,572
-255.6499039013039,565
-253.10836358100266,621
-250.56752601459698,653
-248.02739101372765,691
-245.48795838995704,638
-242.94922795476816,671
-240.41119951956557,605
-237.8738728956746,660
-235.33724789434166,669
-232.80132432673452,682
-230.2661020039418,617
-227.73158073697357,569
-225.19776033676033,659
-222.66464061415422,706
-220.1322213799284,681
-217.60050244477725,605
-215.06948361931552,588
-212.53916471408013,667
-210.00954553952818,669
-207.48062590603843,645
-204.9524056239104,658
-202.4248845033651,766
-199.8980623545441,756
-197.37193898751036,800
-194.84651421224817,726
-192.32178783866232,734
-189.79775967657952,757
-187.27442953574644,841
-184.7517972258321,737
-182.2298625564256,781
-179.7086253370378,908
-177.18808537710026,793
-174.66824248596583,818
-172.14909647290835,882
-169.6306471471229,855
-167.11289431772548,746
-164.59583779375328,768
-162.07947738416453,871
-159.5638128978386,934
-157.04884414357605,1000
-154.53457093009854,1074
-152.02099306604828,961
-149.50811035998936,823
-146.99592262040665,866
-144.48442965570587,937
-141.97363127421409,1209
-139.46352728417958,1316
-136.95411749377126,1302
-134.44540171107985,1165
-131.93737974411636,1059
-129.43005140081357,1169
-126.92341648902493,1122
-124.41747481652521,1333
-121.91222619101006,1615
-119.40767042009657,2556
-116.90380731132257,2762
-114.40063667214702,2637
-111.8981583099503,2002
-109.3963720320337,1451
-106.89527764561933,1269
-104.39487495785067,1594
-101.89516377579241,2698
-99.39614390642998,4056
-96.89781515667039,3481
-94.40017733334128,3813
-91.90323024319173,5415
-89.40697369289148,8891
-86.91140748903172,11524
-84.41653143812482,9443
-81.92234534660395,5803
-79.42884902082358,4449
-76.93604226705907,9044
-74.4439248915071,19379
-71.95249670028534,25976
-69.46175749943245,26925
-66.97170709490854,23272
-64.48234529259423,19950
-61.99367189829195,17825
-59.50568671772464,19834
-57.01838955653636,21141
-54.53178022029283,19333
-52.045858514480074,17831
-49.560624244506016,17634
-47.07607721569923,15462
-44.59221723330904,15575
-42.10904410250669,16010
-39.62655762838392,15730
-37.14475761595372,12966
-34.66364387015028,11913
-32.18321619582866,10333
-29.70347439776515,8513
-27.224418280657005,8835
-24.74604764912317,10770
-22.26836230770266,15466
-19.7913620608565,29261
-17.315046712966478,55490
-14.83941606833514,65041
-12.36446993118659,65041
-9.89020810566592,65041
-7.416630395839093,65041
-4.94373660569363,65041
-2.471526539137585,65041
-6.821210263296962E-13,65041
2.47084320796705,65041
4.941003281093458,65041
7.410480415786196,65041
9.879274808531363,65041
12.347386655893956,65041
14.814816154518212,65041
17.28156350112681,65041
19.74762889252179,65041
22.21301252558385,65041
24.67771459727237,20666
27.141735304626195,3928
29.605074844762612,2662
32.06773341487792,2639
34.52971121224755,2470
36.99100843422559,2261
39.45162527824516,2086
41.91156194181792,1952
44.370818622535126,1751
46.82939551806646,1577
49.287292826160524,2130
51.74451074464503,2247
54.201049471426245,2061
56.65690920448981,1763
59.112090141899785,1892
61.56659248179983,1793
64.02041642241159,1735
66.4735621620365,1504
68.92602989905402,1201
71.37781983192338,1125
73.82893215918205,1322
76.27936707944684,1537
78.72912479141326,1346
81.17820549385567,1560
83.62660938562783,1641
86.07433666566146,1742
88.5213875329681,1368
90.96776218663751,1237
93.41346082583925,1259
95.85848364982041,1413
98.30283085790859,1270
100.7465026495089,1194
103.18949922410604,1349
105.63182078126385,1238
108.07346752062438,1475
110.51443964190923,1289
112.95473734491827,1071
115.39436082953114,1101
117.83331029570547,1007
120.27158594347827,930
122.7091879729652,1016
125.1461165843615,1166
127.58237197794062,1065
130.01795435405518,1095
132.4528639131364,1188
134.88710085569494,1116
137.32066538231982,968
139.75355769367923,967
142.1857779905207,997
144.61732647366978,911
147.04820334403132,841
149.47840880258934,856
151.90794305040674,889
154.33680628862487,872
156.76499871846443,917
159.19252054122433,1048
161.61937195828352,1216
164.04555317109896,1394
166.47106438120693,1377
168.89590579022217,1380
171.320077599839,1381
173.7435800118302,1437
176.16641322804742,1440
178.58857745042144,1657
181.01007288096173,1692
183.43089972175687,1630
185.85105817497413,1736
188.27054844285988,1683
190.6893707277394,1582
193.10752523201643,1649
195.5250121581745,1645
197.9418317087751,1670
200.3579840864594,1716
202.7734694939469,1770
205.18828813403627,1741
207.6024402096051,1757
210.01592592360964,1860
212.42874547908548,1773
214.84089907914665,1875
217.2523869269868,1874
219.66320922587727,1731
222.0733661791695,1730
224.48285799029293,1662
226.8916848627572,1789
229.29984700014882,1782
231.7073446061355,1909
234.11417788446204,1771
236.520347038953,1766
238.92585227351185,1737
241.33069379212054,1793
243.73487179884035,1743
246.1383864978112,1791
248.541238093252,1806
250.9434267894609,1712
253.34495279081432,1771
255.74581630176783,1794
258.1460175268563,1691
260.54555667069314,1778
262.9444339379703,1657
265.3426495334594,1699
267.7402036620107,1838
270.1370965285529,1769
272.53332833809407,1836
274.9288992957214,1743
277.32380960660055,1813
279.718059475976,1774
282.1116491091717,1826
284.5045787115897,1755
286.89684848871195,1748
289.2884586460981,1780
291.67940938938807,1803
294.0697009242996,1759
296.4593334566299,1835
298.84830719225477,1808
301.23662233712923,1838
303.6242790972866,1826
306.01127767884,1762
308.39761828798066,1720
310.78330113097934,1645
313.16832641418534,1662
315.5526943440269,1646
317.9364051270112,1630
320.3194589697242,1684
322.70185607883093,1617
325.0835966610754,1638
327.4646809232805,1661
329.8451090723478,1627
332.2248813152577,1618
334.6039978590701,1657
336.9824589109231,1592
339.36026467803447,1647
341.7374153677,1560
344.113911187295,1589
346.48975234427337,1507
348.8649390461686,1525
351.2394715005918,1577
353.61334991523415,1496
355.9865744978655,1569
358.35914545633375,1543
360.73106299856715,1561
363.10232733257146,1528
365.47293866643247,1566
367.84289720831396,1561
370.2122031664593,1482
372.5808567491905,1508
374.9488581649083,1451
377.31620762209275,1509
379.6829053293021,1486
382.0489514951745,1469
384.4143463284262,1454
386.7790900378528,1426
389.14318283232853,1493
391.50662492080653,1515
393.86941651231916,1536
396.23155781597745,1515
398.5930490409713,1461
400.9538903965696,1492
403.3140820921202,1535
405.6736243370498,1500
408.03251734086336,1500
410.3907613131465,1385
412.74835646356166,1433
415.10530300185144,1437
417.4616011378372,1444
419.81725108141893,1422
422.1722530425758,1378
424.5266072313656,1425
426.880313857925,1444
429.2333731324701,1357
431.58578526529516,1447
433.9375504667738,1408
436.2886689473588,1380
438.63914091758113,1439
440.9889665880513,1433
443.33814616945835,1407
445.68667987257015,1364
448.03456790823395,1413
450.3818104873759,1388
452.72840782100013,1378
455.07436012019105,1433
457.41966759611057,1383
459.7643304600007,1428
462.10834892318155,1377
464.4517231970525,1359
466.79445349309174,1361
469.1365400228566,1410
471.4779829979826,1364
473.81878263018564,1333
476.15893913125876,1357
478.4984527130747,1392
480.8373235875855,1413
483.17555196682144,1429
485.5131380628919,1436
487.8500820879857,1393
490.1863842543697,1489
492.52204477439034,1546
494.8570638604725,1570
497.1914417251204,1746
499.52517858091653,1862
501.85827464052306,2116
504.19073011668036,2600
506.5225452222086,3334
508.85372017000566,3962
511.18425517304956,4123
513.514150444396,4389
515.8434061971808,4569
518.1720226446176,5160
520.4999999999999,4858
522.8273384766991,4312
525.1540382881666,3631
527.480099647932,3159
529.8055227696037,2580
532.1303078668694,2085
534.454455153496,1724
536.777964843328,1627
539.1008371502907,1542
541.4230722883866,1476
543.744670471698,1475
546.0656319143858,1528
548.3859568306899,1500
550.7056454349294,1549
553.0246979415016,1451
555.3431145648834,1481
557.6608955196306,1459
559.978041020377,1429
562.2945512818363,1418
564.6104265188006,1412
566.9256669461412,1456
569.2402727788082,1484
571.5542442318302,1499
573.8675815203156,1452
576.1802848594508,1526
578.4923544645015,1433
580.8037905508126,1487
583.114593333807,1445
585.4247630289875,1489
587.7342998519354,1411
590.0432040183106,1421
592.3514757438526,1468
594.6591152443794,1415
596.9661227357875,1408
599.2724984340531,1464
601.578242555231,1431
603.8833553154542,1503
606.1878369309362,1429
608.4916876179676,1478
610.7949075929192,1536
613.0974970722403,1496
615.3994562724587,1433
617.7007854101818,1464
620.0014847020951,1495
622.3015543649641,1449
624.6009946156324,1455
626.8998056710224,1457
629.1979877481361,1378
631.4955410640538,1485
633.7924658359349,1429
636.0887622810175,1440
638.3844306166192,1503
640.6794710601358,1485
642.9738838290426,1468
645.2676691408932,1496
647.5608272133207,1444
649.853358264037,1439
652.1452625108324,1505
654.4365401715764,1464
656.7271914642178,1504
659.0172166067838,1477
661.3066158173809,1413
663.5953893141935,1430
665.8835373154867,1427
668.1710600396028,1410
670.4579577049639,1404
672.7442305300709,1419
675.0298787335033,1496
677.3149025339197,1498
679.599302150058,1474
681.8830778007342,1426
684.1662297048437,1484
686.4487580813608,1492
688.7306631493387,1553
691.0119451279091,1461
693.2926042362834,1422
695.5726406937516,1478
697.8520547196814,1511
700.1308465335215,1432
702.4090163547982,1492
704.6865644031171,1401
706.9634908981619,1450
709.2397960596965,1373
711.5154801075631,1376
713.7905432616823,1451
716.0649857420548,1454
718.3388077687592,1480
720.612009561953,1490
722.8845913418733,1522
725.1565533288352,1474
727.427895743234,1466
729.6986188055427,1423
731.9687227363137,1450
734.238207756178,1418
736.5070740858458,1444
738.7753219461066,1470
741.0429515578281,1405
743.3099631419569,1460
745.5763569195191,1461
747.8421331116193,1432
750.1072919394409,1497
752.3718336242467,1482
754.6357583873777,1473
756.8990664502545,1512
759.1617580343765,1431
761.423833361321,1399
763.6852926527457,1454
765.9461361303862,1470
768.206364016058,1480
770.4659765316536,1506
772.7249738991469,1507
774.9833563405886,1507
777.2411240781092,1493
779.4982773339183,1420
781.7548163303044,1513
784.010741289634,1471
786.2660524343538,1566
788.5207499869881,1523
790.7748341701416,1528
793.0283052064964,1434
795.2811633188143,1528
797.5334087299362,1497
799.7850416627813,1548
802.0360623403484,1526
804.2864709857143,1540
806.5362678220353,1582
808.7854530725468,1495
811.0340269605625,1479
813.2819897094754,1472
815.5293415427581,1509
817.77608268396,1576
820.0222133567116,1489
822.2677337847211,1442
824.5126441917765,1460
826.7569448017433,1471
829.0006358385675,1539
831.2437175262731,1459
833.4861900889629,1476
835.7280537508192,1495
837.9693087361026,1509
840.2099552691533,1479
842.4499935743896,1486
844.689423876309,1433
846.9282463994886,1528
849.1664613685833,1517
851.4040690083276,1519
853.6410695435349,1522
855.877463199097,1485
858.1132501999847,1519
860.3484307712487,1535
862.5830051380175,1527
864.8169735254988,1534
867.0503361589791,1475
869.2830932638243,1463
871.5152450654786,1502
873.7467917894654,1546
875.9777336613873,1477
878.2080709069252,1467
880.4378037518389,1535
882.666932421968,1479
884.8954571432301,1467
887.1233781416219,1502
889.3506956432192,1519
891.5774098741766,1552
893.803521060728,1549
896.0290294291852,1459
898.2539352059397,1475
900.4782386174619,1453
902.7019398903011,1455
904.925039251085,1524
907.147536926521,1451
909.3694331433943,1476
911.59072812857,1507
913.8114221089921,1493
916.0315153116827,1494
918.2510079637437,1454
920.4699002923547,1506
922.6881925247761,1524
924.905884888345,1533
927.1229776104793,1515
929.3394709186747,1511
931.555365040506,1509
933.7706602036275,1477
935.9853566357709,1491
938.1994545647489,1528
940.4129542184515,1573
942.6258558248488,1545
944.8381596119883,1517
947.0498658079974,1517
949.2609746410825,1569
951.4714863395287,1537
953.6814011316998,1534
955.8907192460387,1571
958.0994409110671,1512
960.3075663553858,1578
962.5150958076741,1527
964.7220294966913,1565
966.928367651274,1493
969.1341105003388,1473
971.3392582728806,1418
973.5438111979742,1466
975.747769504772,1462
977.9511334225061,1385
980.153903180487,1459
982.3560790081052,1376
984.5576611348289,1336
986.7586497902058,1404
988.9590452038618,1361
991.158847605503,1353
993.3580572249133,1356
995.5566742919558,1340
997.7546990365728,1303
999.952131688785,1332
1002.1489724786926,1253
1004.3452216364743,1303
1006.5408793923874,1261
1008.7359459767691,1241
1010.9304216200343,1277
1013.1243065526781,1330
1015.3176010052733,1257
1017.510305208472,1229
1019.7024193930064,1201
1021.8939437896848,1212
1024.0848786293977,1165
1026.2752241431122,1203
1028.4649805618747,1193
1030.6541481168115,1176
1032.842727039127,1239
1035.0307175601051,1183
1037.2181199111074,1182
1039.4049343235752,1204
1041.591161029029,1171
1043.7768002590683,1171
1045.9618522453698,1150
1048.1463172196918,1128
1050.3301954138697,1124
1052.513487059818,1179
1054.69619238953,1182
1056.8783116350783,1161
1059.0598450286152,1105
1061.2407928023704,1178
1063.4211551886528,1155
1065.6009324198508,1155
1067.780124728432,1103
1069.9587323469414,1168
1072.1367555080046,1159
1074.314194444325,1123
1076.4910493886855,1183
1078.667320573947,1108
1080.843008233051,1139
1083.0181125990161,1112
1085.1926339049414,1097
1087.3665723840027,1141
1089.5399282694575,1160
1091.7127017946405,1063
1093.8848931929647,1129
1096.0565026979243,1099
1098.2275305430899,1076
1100.3979769621128,1104
1102.567842188722,1133
1104.737126456726,1089
1106.9058300000124,1083
1109.0739530525475,1058
1111.2414958483764,1121
1113.4084586216231,1134
1115.5748416064907,1076
1117.7406450372605,1083
1119.9058691482942,1033
1122.0705141740304,1112
1124.2345803489884,1096
1126.3980679077658,1135
1128.5609770850388,1120
1130.7233081155623,1059
1132.8850612341707,1093
1135.0462366757774,1064
1137.2068346753745,1123
1139.3668554680326,1056
1141.526299288901,1114
1143.68516637321,1070
1145.8434569562655,1072
1148.001171273455,1068
1150.158309560244,1074
1152.3148720521767,1044
1154.470858984876,1052
1156.626270594044,1069
1158.7811071154629,1046
1160.9353687849912,1092
1163.089055838569,1040
1165.242168512213,1063
1167.3947070420209,1093
1169.5466716641677,1075
1171.6980626149075,1002
1173.8488801305748,1050
1175.9991244475814,1083
1178.1487958024186,1038
1180.2978944316555,1021
1182.4464205719428,1050
1184.5943744600072,1024
1186.7417563326567,1062
1188.8885664267755,1058
1191.0348049793297,1061
1193.1804722273619,1005
1195.325568407995,1080
1197.4700937584303,1056
1199.614048515948,1066
1201.7574329179074,1080
1203.900247201746,1023
1206.042491604982,1050
1208.1841663652099,1079
1210.3252717201053,1039
1212.465807907422,1118
1214.6057751649923,1053
1216.7451737307279,1071
1218.8840038426192,1045
1221.0222657387353,1077
1223.1599596572241,1058
1225.2970858363137,1120
1227.4336445143094,1064
1229.5696359295966,1003
1231.705060320639,1066
1233.8399179259786,1083
1235.9742089842384,1050
1238.107933734118,1037
1240.2410924143974,1074
1242.373685263935,1032
1244.5057125216676,1030
1246.6371744266116,1001
1248.7680712178621,1039
1250.898403134593,1076
1253.028170416058,1072
1255.1573733015875,1050
1257.2860120305932,1094
1259.4140868425648,1018
1261.54159797707,1067
1263.6685456737569,1092
1265.7949301723515,1055
1267.9207517126597,1068
1270.046010534565,1052
1272.1707068780306,1013
1274.2948409830983,1057
1276.4184130898889,1028
1278.541423438603,1041
1280.6638722695184,1092
1282.785759822993,1069
1284.9070863394636,1055
1287.0278520594447,1058
1289.1480572235314,1055
1291.2677020723963,1070
1293.3867868467923,1084
1295.5053117875495,1099
1297.623277135579,1076
1299.740683131868,1065
1301.8575300174857,1067
1303.973818033578,1087
1306.0895474213703,1083
1308.2047184221678,1007
1310.3193312773528,1057
1312.4333862283888,1081
1314.5468835168163,1098
1316.659823384255,1069
1318.7722060724045,1051
1320.8840318230418,1052
1322.9953008780249,1103
1325.1060134792888,1058
1327.2161698688478,1068
1329.3257702887959,1088
1331.4348149813054,1092
1333.5433041886276,1056
1335.6512381530933,1082
1337.7586171171101,1052
1339.8654413231675,1059
1341.9717110138317,1067
1344.0774264317488,1048
1346.1825878196432,1040
1348.2871954203192,1082
1350.3912494766587,1077
1352.4947502316231,1078
1354.5976979282532,1051
1356.7000928096686,1044
1358.8019351190665,1079
1360.9032250997243,1063
1363.0039629949988,1048
1365.1041490483235,1061
1367.2037835032133,1109
1369.3028666032606,1063
1371.401398592137,1095
1373.4993797135926,1095
1375.5968102114575,1109
1377.6936903296396,1098
1379.7900203121262,1108
1381.8858004029835,1077
1383.9810308463561,1080
1386.075711886469,1077
1388.1698437676241,1105
1390.2634267342032,1072
1392.356461030667,1108
1394.4489469015557,1096
1396.5408845914872,1074
1398.6322743451592,1100
1400.7231164073469,1085
1402.813411022907,1069
1404.903158436773,1119
1406.9923588939578,1130
1409.0810126395531,1178
1411.1691199187303,1116
1413.2566809767386,1095
1415.343696058907,1045
1417.4301654106425,1071
1419.5160892774315,1078
1421.6014679048399,1116
1423.6863015385125,1087
1425.7705904241707,1102
1427.8543348076178,1068
1429.9375349347342,1086
1432.0201910514802,1106
1434.102303403894,1089
1436.1838722380944,1099
1438.2648978002767,1105
1440.3453803367174,1098
1442.4253200937692,1035
1444.5047173178677,1043
1446.5835722555234,1142
1448.6618851533285,1089
1450.739656257952,1114
1452.8168858161434,1123
1454.8935740747306,1100
1456.96972128062,1131
1459.045327680797,1162
1461.120393522327,1134
1463.1949190523528,1166
1465.2689045180973,1123
1467.3423501668608,1086
1469.415256246024,1031
1471.4876230030463,1086
1473.559450685465,1099
1475.6307395408976,1071
1477.7014898170391,1101
1479.771701761665,1096
1481.8413756226287,1134
1483.9105116478618,1145
1485.9791100853772,1119
1488.0471711832643,1111
1490.1146951896926,1109
1492.1816823529098,1076
1494.2481329212433,1129
1496.3140471430984,1114
1498.3794252669609,1063
1500.4442675413939,1111
1502.5085742150404,1164
1504.572345536622,1105
1506.6355817549388,1132
1508.6982831188702,1109
1510.7604498773744,1137
1512.8220822794883,1137
1514.8831805743293,1115
1516.9437450110909,1109
1519.003775839048,1143
1521.0632733075522,1088
1523.1222376660367,1129
1525.1806691640113,1060
1527.2385680510652,1130
1529.2959345768668,1125
1531.3527689911643,1100
1533.4090715437833,1102
1535.4648424846291,1080
1537.5200820636855,1137
1539.5747905310159,1141
1541.6289681367616,1089
1543.6826151311434,1117
1545.7357317644614,1120
1547.7883182870937,1088
1549.8403749494987,1094
1551.8919020022113,1154
1553.9428996958477,1123
1555.9933682811015,1145
1558.0433080087469,1138
1560.0927191296346,1133
1562.1416018946961,1130
1564.1899565549415,1148
1566.2377833614592,1145
1568.2850825654164,1118
1570.3318544180606,1089
1572.3780991707158,1104
1574.423817074788,1099
1576.4690083817595,1111
1578.5136733431923,1109
1580.5578122107272,1080
1582.601425236085,1099
1584.6445126710646,1093
1586.6870747675434,1135
1588.7291117774776,1082
1590.7706239529034,1126
1592.8116115459347,1093
1594.8520748087658,1104
1596.8920139936686,1101
1598.9314293529933,1095
1600.9703211391711,1089
1603.008689604711,1091
1605.0465350022005,1094
1607.0838575843068,1098
1609.1206576037753,1120
1611.1569353134305,1120
1613.1926909661765,1042
1615.2279248149953,1084
1617.2626371129481,1085
1619.2968281131757,1073
1621.3304980688963,1093
1623.3636472334088,1150
1625.39627586009,1132
1627.428384202396,1074
1629.459972513861,1111
1631.4910410480993,1073
1633.5215900588028,1071
1635.551619799744,1126
1637.5811305247717,1091
1639.6101224878166,1138
1641.6385959428862,1106
1643.6665511440683,1074
1645.693988345528,1124
1647.7209078015112,1102
1649.7473097663405,1072
1651.7731944944203,1081
1653.7985622402307,1104
1655.823413258333,1110
1657.847747803366,1093
1659.8715661300494,1106
1661.8948684931793,1088
1663.9176551476316,1137
1665.9399263483624,1120
1667.9616823504057,1093
1669.982923408873,1114
1672.0036497789574,1118
1674.0238617159293,1109
1676.043559475138,1142
1678.0627433120121,1128
1680.081413482059,1109
1682.0995702408654,1060
1684.117213844096,1129
1686.134344547495,1130
1688.1509626068864,1028
1690.1670682781705,1112
1692.182661817329,1115
1694.1977434804217,1104
1696.2123135235875,1121
1698.226372203043,1128
1700.2399197750851,1112
1702.2529564960905,1089
1704.2654826225112,1089
1706.277498410882,1111
1708.2890041178139,1146
1710.2999999999988,1135
1712.3104863142066,1110
1714.3204633172854,1138
1716.329931266163,1123
1718.3388904178469,1148
1720.3473410294214,1165
1722.3552833580516,1077
1724.3627176609807,1096
1726.3696441955308,1083
1728.3760632191033,1112
1730.3819749891782,1078
1732.3873797633146,1071
1734.3922777991502,1078
1736.3966693544012,1095
1738.4005546868639,1105
1740.4039340544127,1090
1742.406807715001,1068
1744.4091759266616,1122
1746.4110389475054,1103
1748.4123970357223,1062
1750.413250449582,1070
1752.4135994474318,1106
1754.4134442876993,1099
1756.4127852288902,1127
1758.4116225295893,1118
1760.4099564484595,1079
1762.407787244244,1093
1764.405115175764,1101
1766.4019405019203,1072
1768.3982634816916,1126
1770.3940843741357,1140
1772.3894034383907,1071
1774.3842209336717,1097
1776.378537119274,1088
1778.372352254571,1072
1780.3656665990156,1088
1782.3584804121397,1127
1784.3507939535534,1123
1786.3426074829463,1082
1788.3339212600863,1122
1790.3247355448211,1120
1792.3150505970766,1060
1794.3048666768573,1092
1796.2941840442477,1030
1798.2830029594106,1138
1800.2713236825884,1120
1802.2591464741004,1122
1804.2464715943465,1081
1806.2332993038058,1093
1808.2196298630352,1120
1810.2054635326708,1102
1812.190800573428,1140
1814.175641246101,1129
1816.1599858115628,1091
1818.1438345307652,1111
1820.127187664738,1148
1822.1100454745924,1100
1824.092408221516,1142
1826.0742761667766,1116
1828.055649571721,1140
1830.0365286977735,1087
1832.0169138064398,1119
1833.9968051593014,1063
1835.9762030180214,1127
1837.9551076443408,1088
1839.9335193000788,1101
1841.9114382471344,1091
1843.888864747485,1085
1845.8657990631878,1056
1847.842241456378,1105
1849.8181921892697,1098
1851.7936515241558,1116
1853.7686197234098,1092
1855.7430970494815,1143
1857.7170837649014,1120
1859.6905801322787,1044
1861.6635864143004,1103
1863.6361028737338,1109
1865.608129773424,1148
1867.5796673762961,1115
1869.5507159453537,1120
1871.521275743678,1142
1873.4913470344313,1151
1875.4609300808534,1109
1877.4300251462632,1138
1879.3986324940588,1101
1881.366752387717,1130
1883.3343850907936,1118
1885.3015308669228,1129
1887.268189979819,1115
1889.2343626932739,1165
1891.2000492711595,1077
1893.1652499774254,1095
1895.1299650761011,1096
1897.0941948312952,1128
1899.0579395071945,1137
1901.0211993680641,1080
1902.98397467825,1111
1904.9462657021745,1108
1906.9080727043415,1139
1908.869395949332,1109
1910.8302357018065,1095
1912.790592226504,1070
1914.7504657882428,1131
1916.7098566519212,1195
1918.6687650825133,1109
1920.6271913450764,1083
1922.5851357047422,1120
1924.5425984267245,1142
1926.499579776314,1128
1928.4560800188833,1124
1930.4120994198802,1124
1932.367638244833,1146
1934.32269675935,1148
1936.2772752291175,1138
1938.231373919899,1105
1940.1849930975404,1092
1942.1381330279637,1138
1944.0907939771696,1173
1946.0429762112412,1130
1947.9946799963363,1169
1949.9459055986945,1149
1951.896653284633,1130
1953.8469233205478,1105
1955.7967159729142,1105
1957.7460315082863,1084
1959.6948701932974,1098
1961.6432322946594,1130
1963.5911180791632,1141
1965.5385278136787,1189
1967.4854617651545,1128
1969.4319202006182,1109
1971.377903387176,1162
1973.3234115920136,1121
1975.268445082395,1217
1977.2130041256642,1191
1979.1570889892423,1096
1981.1006999406304,1112
1983.04383724741,1101
1984.986501177238,1084
1986.928691997853,1058
1988.8704099770712,1160
1990.811655382789,1127
1992.7524284829801,1175
1994.692729545698,1123
1996.6325588390755,1150
1998.5719166313224,1167
2000.5108031907307,1115
2002.4492187856677,1129
2004.387163684583,1069
2006.3246381560011,1107
2008.2616424685298,1151
2010.1981768908527,1106
2012.1342416917332,1149
2014.069837140014,1101
2016.0049635046162,1126
2017.9396210545406,1130
2019.8738100588666,1124
2021.8075307867502,1142
2023.740783507431,1125
2025.6735684902228,1093
2027.6058860045214,1113
2029.5377363198004,1126
2031.4691197056118,1069
2033.4000364315875,1115
2035.3304867674374,1098
2037.260470982952,1107
2039.189989347998,1050
2041.1190421325232,1098
2043.047629606554,1127
2044.9757520401945,1116
2046.9034097036288,1113
2048.8306028671195,1053
2050.7573318010086,1117
2052.683596775716,1129
2054.609398061742,1096
2056.5347359296647,1121
2058.4596106501403,1136
2060.384022493906,1107
2062.3079717317764,1144
2064.231458634646,1123
2066.1544834734873,1127
2068.077046519352,1128
2069.99914804337,1071
2071.9207883167524,1128
2073.8419676107865,1081
2075.7626861968406,1114
2077.6829443463607,1111
2079.6027423308715,1153
2081.522080421977,1080
2083.440958891362,1117
2085.359378010786,1172
2087.2773380520907,1135
2089.194839287196,1080
2091.111881988101,1125
2093.0284664268825,1150
2094.9445928756973,1141
2096.86026160678,1148
2098.775472892446,1104
2100.690227005088,1114
2102.604524217178,1074
2104.5183648012676,1126
2106.431749029985,1137
2108.34467717604,1118
2110.2571495122206,1121
2112.169166311393,1122
2114.080727846503,1119
2115.9918343905747,1130
2117.902486216711,1106
2119.8126835980956,1090
2121.722426807987,1112
2123.6317161197285,1126
2125.5405518067364,1116
2127.448934142509,1107
2129.356863400624,1111
2131.264339854737,1141
2133.1713637785815,1170
2135.077935445972,1150
2136.9840551308002,1134
2138.889723107037,1048
2140.7949396487334,1137
2142.699705030018,1094
2144.6040195250994,1130
2146.507883408264,1141
2148.4112969538774,1141
2150.3142604363848,1135
2152.2167741303097,1091
2154.1188383102535,1146
2156.0204532508997,1106
2157.9216192270064,1071
2159.822336513414,1101
2161.7226053850413,1122
2163.622426116884,1151
2165.5217989840185,1154
2167.4207242616,1128
2169.319202224862,1165
2171.2172331491165,1126
2173.1148173097563,1149
2175.0119549822507,1201
2176.90864644215,1106
2178.8048919650823,1151
2180.7006918267534,1109
2182.596046302952,1121
2184.4909556695407,1132
2186.3854202024645,1130
2188.279440177746,1130
2190.173015871487,1088
2192.066147559868,1139
2193.958835519149,1139
2195.851080025667,1134
2197.7428813558417,1143
2199.6342397861667,1216
2201.5251555932186,1140
2203.415629053651,1155
2205.3056604441986,1195
2207.19525004167,1143
2209.084398122958,1138
2210.9731049650327,1153
2212.861370844941,1133
2214.749196039812,1183
2216.636580826851,1197
2218.523525483344,1161
2220.410030286655,1175
2222.296095514226,1206
2224.1817214435805,1192
2226.066908352319,1172
2227.951656518121,1194
2229.835966218746,1109
2231.71983773203,1116
2233.6032713358913,1149
2235.486267308324,1131
2237.3688259274036,1140
2239.2509474712824,1117
2241.132632218193,1189
2243.013880446447,1161
2244.8946924344323,1173
2246.7750684606203,1174
2248.6550088035574,1187
2250.534513741871,1185
2252.413583554265,1140
2254.292218519526,1192
2256.170418916517,1155
2258.0481850241786,1180
2259.925517121534,1128
2261.8024154876825,1186
2263.678880401803,1155
2265.5549121431536,1187
2267.430510991071,1140
2269.305677224971,1179
2271.180411124348,1111
2273.0547129687766,1166
2274.9285830379076,1171
2276.8020216114737,1125
2278.6750289692845,1121
2280.5476053912294,1169
2282.4197511572766,1182
2284.2914665474727,1179
2286.162751841943,1171
2288.0336073208937,1199
2289.904033264608,1147
2291.774029953448,1168
2293.6435976678554,1205
2295.5127366883517,1185
2297.381447295534,1096
2299.2497297700825,1084
2301.1175843927526,1104
2302.9850114443825,1064
2304.852011205885,1093
2306.7185839582553,1048
2308.5847299825664,1033
2310.4504495599676,1054
2312.3157429716925,1045
2314.1806104990483,991
2316.0450524234247,1035
2317.9090690262888,1025
2319.772660589186,1003
2321.635827393742,977
2323.498569721661,1018
2325.3608878547248,1058
2327.2227820747967,989
2329.0842526638157,1021
2330.945299903803,949
2332.805924076857,1007
2334.6661254651535,978
2336.525904350951,1001
2338.3852610165827,1013
2340.244195744464,969
2342.102708817088,991
2343.9608005170253,982
2345.8184711269287,934
2347.675720929526,995
2349.532550207628,985
2351.38895924412,952
2353.24494832197,1004
2355.100517724223,961
2356.955667734004,1012
2358.810398634514,1025
2360.664710709037,960
2362.5186042409337,1014
2364.3720795136437,1005
2366.225136810686,995
2368.0777764156583,1012
2369.929998612237,1070
2371.7818036841777,1015
2373.633191915315,1033
2375.484163589562,1010
2377.3347189909114,1001
2379.184858403434,984
2381.03458211128,994
2382.8838903986775,989
2384.732783549936,1013
2386.5812618494406,978
2388.4293255816588,971
2390.2769750311327,987
2392.1242104824883,999
2393.971032220427,1007
2395.8174405297295,1022
2397.6634356952563,1017
2399.509018001947,1035
2401.3541877348193,998
2403.1989451789705,997
2405.043290619576,1027
2406.8872243418905,993
2408.730746631247,1029
2410.5738577730594,972
2412.4165580528183,996
2414.258847756095,985
2416.100727168537,1015
2417.9421965758734,988
2419.783256263912,1050
2421.623906518538,1018
2423.4641476257157,988
2425.303979871491,977
2427.143403541984,1019
2428.9824189233977,989
2430.821026302012,1030
2432.6592259641866,1020
2434.497018196361,1049
2436.33440328505,1047
2438.171381516851,1036
2440.00795317844,941
2441.844118556569,1008
2443.6798779380724,992
2445.5152316098606,1031
2447.3501798589255,966
2449.1847229723357,1009
2451.0188612372403,1066
2452.8525949408663,1033
2454.6859243705203,962
2456.518849813587,1009
2458.3513715575314,992
2460.183489889895,983
2462.015205098301,960
2463.8465174704493,995
2465.67742729412,1058
2467.5079348571717,1026
2469.338040447542,1007
2471.1677443532476,1037
2472.9970468623833,988
2474.825948263123,1033
2476.6544488437207,986
2478.482548892508,1001
2480.310248697896,968
2482.137548548374,1025
2483.9644487325118,974
2485.790949538956,1017
2487.617051256433,993
2489.44275417375,1017
2491.26805857979,994
2493.0929647635157,1014
2494.917473013971,982
2496.741583620276,1005
2498.5652968716304,981
2500.3886130573137,1014
2502.2115324666834,988
2504.0340553891765,989
2505.856182114308,1013
2507.6779129316733,1009
2509.499248130945,1022
2511.3201880018764,994
2513.140732834298,1019
2514.9608829181198,977
2516.780638543331,990
2518.6,998
2520.418967578273,1023
2522.237541568376,991
2524.0557222606144,1029
2525.8735099453706,999
2527.6909049131086,971
2529.507907454368,1032
2531.32451785977,969
2533.140736420014,993
2534.9565634258774,1042
2536.771999168218,1009
2538.5870439379714,1033
2540.4016980261526,987
2542.2159617238544,988
2544.02983532225,1012
2545.8433191125914,985
2547.656413386209,952
2549.4691184345115,1032
2551.2814345489874,988
2553.093362021204,1072
2554.904901142808,961
2556.716052205523,996
2558.526815501153,970
2560.3371913215824,949
2562.147179958771,985
2563.956781704761,987
2565.7659968516705,954
2567.5748256916986,974
2569.3832685171224,974
2571.1913256202984,972
2572.9989972936614,980
2574.806283829725,998
2576.613185521084,969
2578.4197026604074,995
2580.2258355404483,979
2582.031584454035,1002
2583.836949694077,1012
2585.6419315535613,1000
2587.4465303255533,1030
2589.2507463032002,970
2591.0545797797245,970
2592.8580310484303,971
2594.6611004026995,967
2596.463788135992,981
2598.266094541849,1040
2600.0680199138874,1011
2601.869564545807,1021
2603.670728731383,1003
2605.4715127644704,1028
2607.2719169390048,991
2609.071941548998,965
2610.8715868885433,1017
2612.670853251811,1040
2614.469740933052,1002
2616.268250226594,991
2618.0663814268455,1001
2619.864134828292,1060
2621.6615107255006,1014
2623.458509413115,1033
2625.2551311858597,1024
2627.0513763385347,927
2628.8472451660223,991
2630.6427379632833,998
2632.4378550253564,998
2634.232596647359,1007
2636.026963124488,999
2637.8209547520187,957
2639.6145718253065,977
2641.407814639785,984
2643.200683490966,981
2644.9931786744414,1017
2646.7853004858807,994
2648.577049221034,994
2650.3684251757277,952
2652.1594286458712,923
2653.9500599274484,1000
2655.740319316525,961
2657.5302071092437,1020
2659.3197236018286,962
2661.10886909058,997
2662.8976438718782,971
2664.686048242183,1041
2666.4740824980327,995
2668.2617469360443,998
2670.0490418529134,969
2671.8359675454153,1017
2673.622524310403,1033
2675.408712444811,983
2677.1945322456495,1009
2678.979984010009,974
2680.76506803506,1025
2682.5497846180497,985
2684.334134056306,949
2686.1181166472343,969
2687.9017326883213,939
2689.6849824771293,955
2691.4678663113013,1028
2693.2503844885596,980
2695.032537306705,1028
2696.8143250636167,1002
2698.5957480572542,999
2700.3768065856534,988
2702.1575009469316,992
2703.937831439283,1001
2705.717798360982,993
2707.4974020103837,980
2709.276642685917,1005
2711.055520686095,1023
2712.834036309506,989
2714.612189854819,1023
2716.389981620782,991
2718.1674119062204,981
2719.944481010041,1015
2721.721189231226,1040
2723.4975368688415,1021
2725.273524222027,1028
2727.0491515900053,1011
2728.824419272075,999
2730.5993275676146,993
2732.3738767760838,1001
2734.148067197016,1056
2735.921899130031,1019
2737.6953728748194,1019
2739.468488731156,987
2741.2412469988926,1020
2743.0136479779617,1017
2744.785691968372,992
2746.5573792702116,968
2748.3287101836504,1038
2750.099685008934,981
2751.870304046388,1011
2753.640567596418,995
2755.4104759595057,967
2757.1800294362156,1009
2758.949228327187,983
2760.7180729331412,1000
2762.486563554877,1027
2764.254700493272,979
2766.022484049284,981
2767.789914523947,996
2769.5569922183786,1007
2771.3237174337705,995
2773.090090471394,996
2774.8561116326036,966
2776.6217812188274,1017
2778.3870995315756,973
2780.1520668724356,955
2781.9166835430747,977
2783.6809498452394,987
2785.444866080754,1071
2787.2084325515225,973
2788.971649559527,975
2790.73451740683,935
2792.4970363955713,983
2794.2592068279705,975
2796.0210290063264,1003
2797.7825032330147,1000
2799.543629810493,1002
2801.304409041296,979
2803.0648412280366,977
2804.8249266734088,957
2806.5846656801846,974
2808.344058551212,1007
2810.1031055894246,1002
2811.8618070978273,1000
2813.6201633795085,972
2815.378174737636,1033
2817.1358414754536,978
2818.893163896285,996
2820.6501423035334,1002
2822.4067770006814,990
2824.1630682912883,1006
2825.9190164789957,1046
2827.6746218675207,978
2829.429884760661,958
2831.184805462294,1025
2832.9393842763743,985
2834.693621506936,1011
2836.4475174580916,1023
2838.201072434034,1039
2839.954286739034,1003
2841.707160677441,999
2843.459694553685,1002
2845.2118886722724,1003
2846.96374333779,1017
2848.7152588549034,967
2850.4664355283567,988
2852.217273662973,1007
2853.9677735636546,1021
2855.7179355353833,979
2857.4677598832186,991
2859.217246912299,1016
2860.9663969278427,1026
2862.715210235146,996
2864.4636871395846,990
2866.211827946614,981
2867.9596329617652,1011
2869.7071024906536,977
2871.4542368389684,974
2873.20103631248,994
2874.947501217038,993
2876.6936318585695,1010
2878.4394285430812,1046
2880.1848915766604,931
2881.9300212654707,999
2883.6748179157553,985
2885.4192818338374,1014
2887.1634133261173,971
2888.907212699077,1029
2890.6506802592744,1015
2892.393816313348,990
2894.1366211680142,1023
2895.8790951300693,998
2897.621238506388,968
2899.363051603925,1012
2901.1045347297118,983
2902.8456881908596,1016
2904.58651229456,1055
2906.327007348081,963
2908.067173658772,999
2909.8070115340597,975
2911.5465212814497,1001
2913.285703208527,1018
2915.0245576229563,988
2916.7630848324807,1015
2918.5012851449196,988
2920.2391588681758,996
2921.976706310227,980
2923.7139277791334,983
2925.4508235830313,964
2927.187394030137,1035
2928.923639428745,963
2930.6595600872306,1036
2932.395156314046,1031
2934.1304284177218,1010
2935.8653767068713,1032
2937.6000014901815,988
2939.3343030764227,1021
2941.068281774442,979
2942.8019378931644,1030
2944.5352717415976,1052
2946.2682836288236,995
2948.0009738640065,988
2949.7333427563885,963
2951.465390615289,933
2953.1971177501086,994
2954.9285244703265,959
2956.6596110855,1010
2958.3903779052657,1026
2960.1208252393385,1051
2961.8509533975125,1017
2963.5807626896617,976
2965.3102534257378,991
2967.0394259157715,989
2968.768280469873,1028
2970.496817398232,990
2972.2250370111146,983
2973.952939618869,1048
2975.6805255319196,1001
2977.4077950607707,1035
2979.134748516006,996
2980.861386208289,984
2982.587708448359,946
2984.313715547037,985
2986.039407815222,1032
2987.764785563891,990
2989.489849104102,1007
2991.2145987469908,1030
2992.9390348037705,965
2994.6631575857346,979
2996.3869674042576,984
2998.1104645707887,1004
2999.83364939686,1001
3001.5565221940783,1016
3003.2790832741334,980
3005.0013329487924,993
3006.7232715298996,956
3008.4448993293804,986
3010.166216659239,989
3011.887223831558,954
3013.607921158498,1012
3015.3283089522993,950
3017.0483875252826,1000
3018.7681571898443,983
3020.4876182584626,949
3022.2067710436927,999
3023.9256158581707,943
3025.644153014609,994
3027.362382825801,1008
3029.0803056046193,993
3030.797921664012,1003
3032.5152313170106,1056
3034.2322348767225,1007
3035.9489326563353,965
3037.665324969115,1008
3039.3814121284063,993
3041.097194447633,951
3042.812672240299,960
3044.5278458199855,999
3046.2427155003525,992
3047.9572815951406,1015
3049.671544418167,992
3051.38550428333,999
3053.0991615046073,1005
3054.812516396051,978
3056.5255692717974,1001
3058.2383204460575,989
3059.9507702331257,1012
3061.662918947372,993
3063.3747669032446,982
3065.0863144152736,1009
3066.7975617980674,1008
3068.508509366309,967
3070.219157434767,999
3071.9295063182844,1024
3073.639556331785,989
3075.3493077902704,1023
3077.058761008821,1029
3078.7679163025964,1023
3080.476773986837,966
3082.1853343768594,1017
3083.89359778806,979
3085.6015645359153,961
3087.3092349359786,990
3089.016609303884,991
3090.7236879553434,1002
3092.4304712061476,944
3094.136959372166,947
3095.843152769349,1009
3097.5490517137237,964
3099.2546565213966,949
3100.959967508554,1038
3102.66498499146,993
3104.3697092864577,1041
3106.0741407099695,926
3107.778279578498,991
3109.482126208622,1013
3111.1856809170004,1029
3112.8889440203716,973
3114.5919158355528,991
3116.294596679439,990
3117.996986869006,1030
3119.6990867213062,984
3121.4008965534726,971
3123.102416682717,993
3124.803647426329,969
3126.5045891016784,979
3128.205242026213,958
3129.90560651746,964
3131.605682893025,996
3133.3054714705922,959
3135.0049725679282,1011
3136.7041865028714,986
3138.4031135933465,1004
3140.101754157353,971
3141.800108512971,972
3143.498176978357,944
3145.1959598717494,985
3146.8934575114636,973
3148.5906702158954,1024
3150.2875983035183,1027
3151.9842420928853,938
3153.680601902627,1074
3155.376678051456,996
3157.07247085816,984
3158.767980641609,1001
3160.463207720748,978
3162.158152414606,1023
3163.8528150422862,1016
3165.5471959229726,962
3167.2412953759303,997
3168.9351137204976,943
3170.628651276098,955
3172.3219083622307,974
3174.014885298474,1013
3175.707582404485,999
3177.4000000000005,1024
3179.092138404835,1011
3180.7839979388846,982
3182.47557892212,1031
3184.166881674594,1005
3185.8579065164386,980
3187.5486537678626,991
3189.2391237491547,965
3190.9293167806827,1019
3192.6192331828934,958
3194.3088732763117,986
3195.998237381542,1009
3197.687325819268,965
3199.376138910251,997
3201.064676975334,967
3202.7529403354347,1055
3204.4409293115523,990
3206.1286442247647,969
3207.816085396229,1010
3209.5032531471825,965
3211.190147798936,956
3212.8767696728846,950
3214.5631190905015,961
3216.2491963733373,975
3217.9350018430214,999
3219.6205358212637,971
3221.305798629851,969
3222.990790590651,988
3224.6755120256103,959
3226.359963256751,919
3228.0441446061795,971
3229.7280563960758,981
3231.411698948703,966
3233.0950725863995,933
3234.778177631587,994
3236.461014406761,992
3238.1435832345005,955
3239.8258844374595,964
3241.507918338374,988
3243.1896852600576,999
3244.8711855254023,990
3246.552419457381,985
3248.233387379042,1036
3249.914089613516,981
3251.59452648401,977
3253.274698313813,1028
3254.95460542629,980
3256.6342481448855,965
3258.313626793125,965
3259.9927416946084,1012
3261.6715931730196,975
3263.3501815521176,970
3265.0285071557437,964
3266.706570307815,953
3268.3843713323286,1005
3270.0619105533615,1022
3271.739188295068,1012
3273.4162048816834,950
3275.0929606375184,976
3276.769455886966,975
3278.445690954498,1000
3280.1216661646613,986
3281.797381842087,1016
3283.4728383114807,950
3285.1480358976296,994
3286.8229749253996,976
3288.4976557197333,983
3290.172078605655,1000
3291.846243908266,973
3293.5201519527463,940
3295.193803064357,992
3296.8671975684374,940
3298.5403357904024,941
3300.21321805575,994
3301.8858446900567,957
3303.558216018975,977
3305.23033236824,959
3306.9021940636603,1014
3308.57380143113,968
3310.2451547966184,972
3311.916254486174,985
3313.5871008259246,983
3315.2576941420766,999
3316.9280347609147,988
3318.5981230088046,971
3320.2679592121895,937
3321.9375436975924,935
3323.606876791612,942
3325.27595882093,968
3326.944790112305,982
3328.6133709925753,994
3330.2817017886573,973
3331.949782827547,1016
3333.617614436319,1003
3335.2851969421245,1027
3336.952530672199,963
3338.619615953853,998
3340.286453114475,949
3341.9530424815357,1001
3343.619384382583,1012
3345.2854791452437,1028
3346.951327097224,987
3348.6169285663073,953
3350.2822838803577,1035
3351.947393367319,977
3353.61225735521,990
3355.2768761721345,943
3356.9412501462693,960
3358.605379605873,995
3360.2692648792827,1013
3361.9329062949146,947
3363.596304181263,982
