CollectionTime,7/9/2024 11:19:00 AM
ExposureUsed,3
CalibratedSpectrum
-962.7078968117929,478
-959.9714848408522,519
-957.2358232597828,539
-954.5009119013725,514
-951.7667505983302,530
-949.0333391832855,517
-946.3006774887896,524
-943.5687653473143,539
-940.837602591253,521
-938.1071890529199,487
-935.3775245645503,525
-932.6486089583007,549
-929.9204420662485,585
-927.1930237203925,548
-924.4663537526524,553
-921.7404319948689,555
-919.0152582788041,558
-916.2908324361409,597
-913.5671542984834,542
-910.8442236973568,529
-908.1220404642074,519
-905.4006044304027,533
-902.679915427231,553
-899.959973285902,527
-897.2407778375464,518
-894.5223289132158,497
-891.8046263438832,519
-889.0876699604426,491
-886.3714595937089,499
-883.6559950744183,532
-880.9412762332282,488
-878.2273029007168,498
-875.5140749073835,505
-872.8015920836489,519
-870.0898542598545,550
-867.3788612662631,520
-864.6686129330585,535
-861.9591090903457,526
-859.2503495681506,505
-856.5423341964203,538
-853.8350628050229,521
-851.1285352237478,550
-848.4227512823054,518
-845.7177108103272,512
-843.0134136373656,519
-840.3098595928943,546
-837.6070485063082,562
-834.9049802069229,527
-832.2036545239757,541
-829.5030712866244,538
-826.8032303239481,531
-824.1041314649472,550
-821.4057745385428,522
-818.7081593735775,538
-816.0112857988148,499
-813.3151536429393,536
-810.6197627345566,544
-807.9251129021936,535
-805.2312039742981,557
-802.5380357792392,537
-799.8456081453069,525
-797.1539209007124,541
-794.462973873588,568
-791.772766891987,563
-789.083299783884,585
-786.3945723771743,556
-783.7065844996748,519
-781.0193359791231,554
-778.3328266431781,559
-775.6470563194197,542
-772.9620248353489,564
-770.2777320183878,530
-767.5941776958798,545
-764.9113616950891,545
-762.2292838432011,543
-759.5479439673222,540
-756.8673418944801,552
-754.1874774516235,544
-751.5083504656222,561
-748.8299607632671,538
-746.15230817127,555
-743.475392516264,557
-740.7992136248035,576
-738.1237713233636,565
-735.4490654383407,557
-732.7750957960521,546
-730.1018622227365,571
-727.4293645445534,558
-724.7576025875837,568
-722.0865761778291,587
-719.4162851412126,555
-716.7467293035781,575
-714.0779084906909,558
-711.409822528237,587
-708.7424712418238,558
-706.0758544569796,557
-703.4099719991541,586
-700.7448236937178,593
-698.0804093659622,594
-695.4167288411002,569
-692.7537819442656,586
-690.0915685005134,601
-687.4300883348199,569
-684.7693412720819,566
-682.1093271371178,568
-679.4500457546669,586
-676.7914969493897,611
-674.1336805458676,579
-671.4765963686034,612
-668.8202442420206,608
-666.1646239904642,593
-663.5097354382001,599
-660.8555784094151,607
-658.2021527282176,565
-655.5494582186366,606
-652.8974947046223,591
-650.2462620100463,619
-647.5957599587009,612
-644.9459883742998,637
-642.2969470804776,592
-639.6486359007902,604
-637.0010546587141,642
-634.3542031776476,607
-631.7080812809096,608
-629.0626887917401,605
-626.4180255333008,659
-623.7740913286734,621
-621.1308860008619,647
-618.4884093727904,633
-615.8466612673046,654
-613.2056415071715,656
-610.5653499150785,656
-607.9257863136347,681
-605.28695052537,672
-602.6488423727357,643
-600.0114616781036,623
-597.3748082637674,621
-594.7388819519412,666
-592.1036825647604,666
-589.4692099242818,702
-586.8354638524829,684
-584.2024441712624,666
-581.5701507024403,704
-578.9385832677575,696
-576.3077416888759,687
-573.6776257873787,645
-571.0482353847704,681
-568.4195703024757,674
-565.7916303618415,678
-563.164415384135,661
-560.5379251905453,671
-557.9121596021815,616
-555.2871184400748,667
-552.6628015251767,719
-550.0392086783606,665
-547.4163397204204,709
-544.794194472071,700
-542.1727727539491,688
-539.5520743866118,696
-536.9320991905377,713
-534.3128469861261,772
-531.6943175936979,756
-529.0765108334947,781
-526.4594265256793,870
-523.8430644903358,949
-521.2274245474689,1044
-518.612506517005,1160
-515.9983102187913,1140
-513.3848354725959,1164
-510.77208209810846,1284
-508.16004991493924,1397
-505.5487387426199,1568
-502.9381484006032,1790
-500.3282787082628,1749
-497.71912948489364,1707
-495.1107005497117,1520
-492.5029917218539,1386
-489.8960028203786,1156
-487.28973366426493,1103
-484.68418407241325,977
-482.07935386364494,972
-479.47524285670266,905
-476.87185087025,866
-474.2691777228715,830
-471.66722323307334,841
-469.0659872192821,884
-466.4654694998459,847
-463.86566989303384,869
-461.26658821703614,895
-458.66822428996414,870
-456.07057792985,849
-453.4736489546475,856
-450.877437182231,825
-448.28194243039627,836
-445.68716451686,856
-443.09310325926003,860
-440.49975847515555,834
-437.9071299820263,823
-435.31521759727354,829
-432.72402113821954,903
-430.13354042210767,935
-427.5437752661022,878
-424.95472548728867,881
-422.36639090267386,878
-419.7787713291855,908
-417.1918665836721,995
-414.60567648290385,987
-412.0202008435715,904
-409.4354394822874,931
-406.8513922155845,940
-404.26805885991723,998
-401.685439231661,956
-399.103533147112,962
-396.522340422488,957
-393.9418608739278,905
-391.3620943174908,943
-388.7830405691583,956
-386.2046994448317,871
-383.6270707603344,896
-381.05015433141045,780
-378.473949973725,798
-375.8984575028645,734
-373.32367673433623,681
-370.74960748356875,667
-368.1762495659117,661
-365.60360279663576,588
-363.03166699093265,559
-360.4604419639154,544
-357.8899275306178,493
-355.32012350599507,508
-352.7510297049233,527
-350.1826459421999,508
-347.61497203254316,496
-345.04800779059235,512
-342.4817530309082,487
-339.91620756797226,481
-337.35137121618743,492
-334.7872437898774,554
-332.22382510328725,606
-329.66111497058273,509
-327.09911320585127,507
-324.53781962310075,548
-321.9772340362607,545
-319.4173562591816,497
-316.8581861056348,514
-314.2997233893127,508
-311.7419679238294,527
-309.1849195227194,507
-306.62857799943856,515
-304.0729431673641,565
-301.51801483979375,567
-298.963792829947,585
-296.41027695096386,565
-293.85746701590574,613
-291.3053628377552,567
-288.7539642294155,588
-286.2032710037115,599
-283.65328297338897,609
-281.1039999511146,692
-278.5554217494762,684
-276.007548180983,666
-273.4603790580651,652
-270.9139141930734,641
-268.3681533982807,626
-265.8230964858798,641
-263.27874326798565,641
-260.7350935566336,633
-258.1921471637804,716
-255.6499039013039,733
-253.10836358100266,633
-250.56752601459698,649
-248.02739101372765,660
-245.48795838995704,693
-242.94922795476816,644
-240.41119951956557,653
-237.8738728956746,699
-235.33724789434166,783
-232.80132432673452,741
-230.2661020039418,680
-227.73158073697357,739
-225.19776033676033,714
-222.66464061415422,798
-220.1322213799284,734
-217.60050244477725,717
-215.06948361931552,727
-212.53916471408013,757
-210.00954553952818,782
-207.48062590603843,747
-204.9524056239104,823
-202.4248845033651,915
-199.8980623545441,840
-197.37193898751036,832
-194.84651421224817,844
-192.32178783866232,816
-189.79775967657952,909
-187.27442953574644,1008
-184.7517972258321,961
-182.2298625564256,845
-179.7086253370378,866
-177.18808537710026,922
-174.66824248596583,855
-172.14909647290835,895
-169.6306471471229,977
-167.11289431772548,880
-164.59583779375328,835
-162.07947738416453,920
-159.5638128978386,1057
-157.04884414357605,1265
-154.53457093009854,1513
-152.02099306604828,1470
-149.50811035998936,1091
-146.99592262040665,1048
-144.48442965570587,1032
-141.97363127421409,1167
-139.46352728417958,1417
-136.95411749377126,1608
-134.44540171107985,1394
-131.93737974411636,1098
-129.43005140081357,1142
-126.92341648902493,1643
-124.41747481652521,1960
-121.91222619101006,2125
-119.40767042009657,2679
-116.90380731132257,3112
-114.40063667214702,3293
-111.8981583099503,2685
-109.3963720320337,2023
-106.89527764561933,1819
-104.39487495785067,2009
-101.89516377579241,3008
-99.39614390642998,3884
-96.89781515667039,4268
-94.40017733334128,4344
-91.90323024319173,5271
-89.40697369289148,6870
-86.91140748903172,8032
-84.41653143812482,7482
-81.92234534660395,5271
-79.42884902082358,3625
-76.93604226705907,5716
-74.4439248915071,10560
-71.95249670028534,15690
-69.46175749943245,17275
-66.97170709490854,16080
-64.48234529259423,14687
-61.99367189829195,12929
-59.50568671772464,10893
-57.01838955653636,9828
-54.53178022029283,11139
-52.045858514480074,12940
-49.560624244506016,13960
-47.07607721569923,14930
-44.59221723330904,15749
-42.10904410250669,15900
-39.62655762838392,14349
-37.14475761595372,12270
-34.66364387015028,11434
-32.18321619582866,10621
-29.70347439776515,10148
-27.224418280657005,11057
-24.74604764912317,11937
-22.26836230770266,17667
-19.7913620608565,32924
-17.315046712966478,61014
-14.83941606833514,65039
-12.36446993118659,65039
-9.89020810566592,65039
-7.416630395839093,65039
-4.94373660569363,65039
-2.471526539137585,65039
-6.821210263296962E-13,65039
2.47084320796705,65039
4.941003281093458,65039
7.410480415786196,65039
9.879274808531363,65039
12.347386655893956,65039
14.814816154518212,65039
17.28156350112681,65039
19.74762889252179,65039
22.21301252558385,65039
24.67771459727237,22383
27.141735304626195,4866
29.605074844762612,2836
32.06773341487792,2705
34.52971121224755,3167
36.99100843422559,2856
39.45162527824516,2225
41.91156194181792,1992
44.370818622535126,1857
46.82939551806646,1470
49.287292826160524,1349
51.74451074464503,1553
54.201049471426245,1646
56.65690920448981,1760
59.112090141899785,1469
61.56659248179983,1237
64.02041642241159,1255
66.4735621620365,1302
68.92602989905402,1379
71.37781983192338,1299
73.82893215918205,1342
76.27936707944684,1516
78.72912479141326,1513
81.17820549385567,1298
83.62660938562783,1390
86.07433666566146,1337
88.5213875329681,1108
90.96776218663751,1078
93.41346082583925,1090
95.85848364982041,1122
98.30283085790859,1145
100.7465026495089,1248
103.18949922410604,1395
105.63182078126385,1406
108.07346752062438,1455
110.51443964190923,1126
112.95473734491827,1036
115.39436082953114,1098
117.83331029570547,1149
120.27158594347827,1182
122.7091879729652,1199
125.1461165843615,1176
127.58237197794062,1001
130.01795435405518,1033
132.4528639131364,1214
134.88710085569494,1235
137.32066538231982,1061
139.75355769367923,1007
142.1857779905207,1028
144.61732647366978,1040
147.04820334403132,1031
149.47840880258934,1070
151.90794305040674,1133
154.33680628862487,1197
156.76499871846443,1311
159.19252054122433,1399
161.61937195828352,1496
164.04555317109896,1575
166.47106438120693,1710
168.89590579022217,1951
171.320077599839,2081
173.7435800118302,2168
176.16641322804742,2097
178.58857745042144,2365
181.01007288096173,2720
183.43089972175687,2564
185.85105817497413,2447
188.27054844285988,2483
190.6893707277394,2366
193.10752523201643,2455
195.5250121581745,2523
197.9418317087751,2557
200.3579840864594,2515
202.7734694939469,2528
205.18828813403627,2612
207.6024402096051,2805
210.01592592360964,2797
212.42874547908548,2817
214.84089907914665,2742
217.2523869269868,2673
219.66320922587727,2652
222.0733661791695,2655
224.48285799029293,2681
226.8916848627572,2622
229.29984700014882,2702
231.7073446061355,2760
234.11417788446204,2566
236.520347038953,2602
238.92585227351185,2695
241.33069379212054,2585
243.73487179884035,2665
246.1383864978112,2774
248.541238093252,2756
250.9434267894609,2651
253.34495279081432,2639
255.74581630176783,2696
258.1460175268563,2708
260.54555667069314,2707
262.9444339379703,2808
265.3426495334594,2677
267.7402036620107,2727
270.1370965285529,2796
272.53332833809407,2638
274.9288992957214,2618
277.32380960660055,2573
279.718059475976,2576
282.1116491091717,2588
284.5045787115897,2708
286.89684848871195,2578
289.2884586460981,2698
291.67940938938807,2614
294.0697009242996,2612
296.4593334566299,2599
298.84830719225477,2641
301.23662233712923,2680
303.6242790972866,2623
306.01127767884,2520
308.39761828798066,2486
310.78330113097934,2488
313.16832641418534,2553
315.5526943440269,2499
317.9364051270112,2399
320.3194589697242,2419
322.70185607883093,2424
325.0835966610754,2409
327.4646809232805,2381
329.8451090723478,2298
332.2248813152577,2248
334.6039978590701,2264
336.9824589109231,2287
339.36026467803447,2219
341.7374153677,2172
344.113911187295,2204
346.48975234427337,2240
348.8649390461686,2248
351.2394715005918,2234
353.61334991523415,2309
355.9865744978655,2274
358.35914545633375,2243
360.73106299856715,2249
363.10232733257146,2210
365.47293866643247,2127
367.84289720831396,2227
370.2122031664593,2247
372.5808567491905,2213
374.9488581649083,2158
377.31620762209275,2077
379.6829053293021,2107
382.0489514951745,2094
384.4143463284262,2043
386.7790900378528,2097
389.14318283232853,2042
391.50662492080653,2096
393.86941651231916,2167
396.23155781597745,2140
398.5930490409713,2114
400.9538903965696,2051
403.3140820921202,2101
405.6736243370498,2103
408.03251734086336,2123
410.3907613131465,2070
412.74835646356166,2013
415.10530300185144,2015
417.4616011378372,2134
419.81725108141893,2048
422.1722530425758,1962
424.5266072313656,1964
426.880313857925,2072
429.2333731324701,2076
431.58578526529516,2040
433.9375504667738,2058
436.2886689473588,2002
438.63914091758113,2008
440.9889665880513,2000
443.33814616945835,1974
445.68667987257015,1965
448.03456790823395,1956
450.3818104873759,1952
452.72840782100013,1936
455.07436012019105,1939
457.41966759611057,1984
459.7643304600007,1980
462.10834892318155,2036
464.4517231970525,1967
466.79445349309174,1967
469.1365400228566,1980
471.4779829979826,2051
473.81878263018564,1996
476.15893913125876,2042
478.4984527130747,2116
480.8373235875855,2183
483.17555196682144,2131
485.5131380628919,2253
487.8500820879857,2346
490.1863842543697,2512
492.52204477439034,2597
494.8570638604725,2924
497.1914417251204,3246
499.52517858091653,3778
501.85827464052306,3961
504.19073011668036,4138
506.5225452222086,4149
508.85372017000566,4001
511.18425517304956,3920
513.514150444396,3872
515.8434061971808,4650
518.1720226446176,5794
520.4999999999999,5652
522.8273384766991,5445
525.1540382881666,4871
527.480099647932,4206
529.8055227696037,3547
532.1303078668694,2886
534.454455153496,2467
536.777964843328,2333
539.1008371502907,2243
541.4230722883866,2283
543.744670471698,2211
546.0656319143858,2225
548.3859568306899,2155
550.7056454349294,2158
553.0246979415016,2125
555.3431145648834,2052
557.6608955196306,2131
559.978041020377,2106
562.2945512818363,2119
564.6104265188006,2095
566.9256669461412,2106
569.2402727788082,2175
571.5542442318302,2141
573.8675815203156,2185
576.1802848594508,2201
578.4923544645015,2201
580.8037905508126,2190
583.114593333807,2201
585.4247630289875,2256
587.7342998519354,2129
590.0432040183106,2152
592.3514757438526,2183
594.6591152443794,2155
596.9661227357875,2144
599.2724984340531,2160
601.578242555231,2144
603.8833553154542,2237
606.1878369309362,2196
608.4916876179676,2168
610.7949075929192,2176
613.0974970722403,2088
615.3994562724587,2090
617.7007854101818,2120
620.0014847020951,2071
622.3015543649641,2155
624.6009946156324,2127
626.8998056710224,2128
629.1979877481361,2169
631.4955410640538,2131
633.7924658359349,2108
636.0887622810175,2134
638.3844306166192,2056
640.6794710601358,2154
642.9738838290426,2138
645.2676691408932,2115
647.5608272133207,2113
649.853358264037,2080
652.1452625108324,2145
654.4365401715764,2076
656.7271914642178,2121
659.0172166067838,2122
661.3066158173809,2043
663.5953893141935,2186
665.8835373154867,2140
668.1710600396028,2115
670.4579577049639,2100
672.7442305300709,2134
675.0298787335033,2075
677.3149025339197,2139
679.599302150058,2095
681.8830778007342,2054
684.1662297048437,2060
686.4487580813608,2083
688.7306631493387,2097
691.0119451279091,2146
693.2926042362834,2117
695.5726406937516,2104
697.8520547196814,2055
700.1308465335215,2076
702.4090163547982,2076
704.6865644031171,1981
706.9634908981619,2077
709.2397960596965,2076
711.5154801075631,2066
713.7905432616823,2093
716.0649857420548,2071
718.3388077687592,2084
720.612009561953,2104
722.8845913418733,2090
725.1565533288352,1998
727.427895743234,2170
729.6986188055427,2175
731.9687227363137,2087
734.238207756178,2135
736.5070740858458,2104
738.7753219461066,2059
741.0429515578281,2079
743.3099631419569,2037
745.5763569195191,2078
747.8421331116193,2086
750.1072919394409,2104
752.3718336242467,2061
754.6357583873777,2118
756.8990664502545,2076
759.1617580343765,2065
761.423833361321,2075
763.6852926527457,2088
765.9461361303862,2039
768.206364016058,2086
770.4659765316536,2099
772.7249738991469,2124
774.9833563405886,2208
777.2411240781092,2221
779.4982773339183,2163
781.7548163303044,2137
784.010741289634,2105
786.2660524343538,2179
788.5207499869881,2121
790.7748341701416,2113
793.0283052064964,2147
795.2811633188143,2100
797.5334087299362,2116
799.7850416627813,2082
802.0360623403484,2142
804.2864709857143,2155
806.5362678220353,2145
808.7854530725468,2169
811.0340269605625,2145
813.2819897094754,2189
815.5293415427581,2128
817.77608268396,2252
820.0222133567116,2080
822.2677337847211,2165
824.5126441917765,2220
826.7569448017433,2138
829.0006358385675,2213
831.2437175262731,2246
833.4861900889629,2102
835.7280537508192,2118
837.9693087361026,2043
840.2099552691533,2120
842.4499935743896,2082
844.689423876309,2093
846.9282463994886,2107
849.1664613685833,2218
851.4040690083276,2150
853.6410695435349,2107
855.877463199097,2107
858.1132501999847,2103
860.3484307712487,2142
862.5830051380175,2126
864.8169735254988,2143
867.0503361589791,2209
869.2830932638243,2155
871.5152450654786,2215
873.7467917894654,2195
875.9777336613873,2096
878.2080709069252,2164
880.4378037518389,2170
882.666932421968,2186
884.8954571432301,2188
887.1233781416219,2182
889.3506956432192,2199
891.5774098741766,2185
893.803521060728,2253
896.0290294291852,2219
898.2539352059397,2263
900.4782386174619,2219
902.7019398903011,2194
904.925039251085,2233
907.147536926521,2198
909.3694331433943,2188
911.59072812857,2165
913.8114221089921,2140
916.0315153116827,2213
918.2510079637437,2170
920.4699002923547,2160
922.6881925247761,2184
924.905884888345,2180
927.1229776104793,2122
929.3394709186747,2115
931.555365040506,2120
933.7706602036275,2200
935.9853566357709,2152
938.1994545647489,2105
940.4129542184515,2151
942.6258558248488,2093
944.8381596119883,2175
947.0498658079974,2174
949.2609746410825,2128
951.4714863395287,2136
953.6814011316998,2118
955.8907192460387,2096
958.0994409110671,2122
960.3075663553858,2164
962.5150958076741,2107
964.7220294966913,2140
966.928367651274,2075
969.1341105003388,2060
971.3392582728806,2052
973.5438111979742,2057
975.747769504772,2015
977.9511334225061,2049
980.153903180487,1985
982.3560790081052,2018
984.5576611348289,2013
986.7586497902058,1983
988.9590452038618,1996
991.158847605503,1979
993.3580572249133,1964
995.5566742919558,1891
997.7546990365728,1871
999.952131688785,1803
1002.1489724786926,1833
1004.3452216364743,1840
1006.5408793923874,1831
1008.7359459767691,1818
1010.9304216200343,1824
1013.1243065526781,1800
1015.3176010052733,1752
1017.510305208472,1696
1019.7024193930064,1740
1021.8939437896848,1783
1024.0848786293977,1835
1026.2752241431122,1742
1028.4649805618747,1810
1030.6541481168115,1736
1032.842727039127,1735
1035.0307175601051,1751
1037.2181199111074,1741
1039.4049343235752,1687
1041.591161029029,1701
1043.7768002590683,1697
1045.9618522453698,1754
1048.1463172196918,1720
1050.3301954138697,1717
1052.513487059818,1760
1054.69619238953,1707
1056.8783116350783,1759
1059.0598450286152,1726
1061.2407928023704,1691
1063.4211551886528,1696
1065.6009324198508,1686
1067.780124728432,1660
1069.9587323469414,1730
1072.1367555080046,1657
1074.314194444325,1704
1076.4910493886855,1659
1078.667320573947,1613
1080.843008233051,1680
1083.0181125990161,1634
1085.1926339049414,1624
1087.3665723840027,1656
1089.5399282694575,1679
1091.7127017946405,1606
1093.8848931929647,1639
1096.0565026979243,1646
1098.2275305430899,1593
1100.3979769621128,1695
1102.567842188722,1647
1104.737126456726,1651
1106.9058300000124,1571
1109.0739530525475,1616
1111.2414958483764,1688
1113.4084586216231,1533
1115.5748416064907,1595
1117.7406450372605,1587
1119.9058691482942,1587
1122.0705141740304,1637
1124.2345803489884,1622
1126.3980679077658,1605
1128.5609770850388,1533
1130.7233081155623,1555
1132.8850612341707,1511
1135.0462366757774,1555
1137.2068346753745,1585
1139.3668554680326,1573
1141.526299288901,1596
1143.68516637321,1533
1145.8434569562655,1612
1148.001171273455,1605
1150.158309560244,1594
1152.3148720521767,1547
1154.470858984876,1570
1156.626270594044,1539
1158.7811071154629,1536
1160.9353687849912,1542
1163.089055838569,1559
1165.242168512213,1598
1167.3947070420209,1539
1169.5466716641677,1555
1171.6980626149075,1546
1173.8488801305748,1521
1175.9991244475814,1507
1178.1487958024186,1520
1180.2978944316555,1536
1182.4464205719428,1535
1184.5943744600072,1580
1186.7417563326567,1530
1188.8885664267755,1525
1191.0348049793297,1542
1193.1804722273619,1486
1195.325568407995,1510
1197.4700937584303,1540
1199.614048515948,1560
1201.7574329179074,1551
1203.900247201746,1502
1206.042491604982,1525
1208.1841663652099,1515
1210.3252717201053,1603
1212.465807907422,1624
1214.6057751649923,1555
1216.7451737307279,1569
1218.8840038426192,1494
1221.0222657387353,1548
1223.1599596572241,1525
1225.2970858363137,1510
1227.4336445143094,1556
1229.5696359295966,1565
1231.705060320639,1603
1233.8399179259786,1564
1235.9742089842384,1652
1238.107933734118,1576
1240.2410924143974,1610
1242.373685263935,1569
1244.5057125216676,1600
1246.6371744266116,1565
1248.7680712178621,1539
1250.898403134593,1583
1253.028170416058,1570
1255.1573733015875,1628
1257.2860120305932,1545
1259.4140868425648,1574
1261.54159797707,1662
1263.6685456737569,1559
1265.7949301723515,1588
1267.9207517126597,1624
1270.046010534565,1591
1272.1707068780306,1592
1274.2948409830983,1559
1276.4184130898889,1606
1278.541423438603,1536
1280.6638722695184,1619
1282.785759822993,1618
1284.9070863394636,1621
1287.0278520594447,1611
1289.1480572235314,1599
1291.2677020723963,1633
1293.3867868467923,1632
1295.5053117875495,1711
1297.623277135579,1650
1299.740683131868,1650
1301.8575300174857,1677
1303.973818033578,1653
1306.0895474213703,1658
1308.2047184221678,1720
1310.3193312773528,1752
1312.4333862283888,1673
1314.5468835168163,1658
1316.659823384255,1760
1318.7722060724045,1640
1320.8840318230418,1640
1322.9953008780249,1646
1325.1060134792888,1661
1327.2161698688478,1694
1329.3257702887959,1608
1331.4348149813054,1622
1333.5433041886276,1646
1335.6512381530933,1661
1337.7586171171101,1682
1339.8654413231675,1664
1341.9717110138317,1659
1344.0774264317488,1618
1346.1825878196432,1651
1348.2871954203192,1661
1350.3912494766587,1650
1352.4947502316231,1635
1354.5976979282532,1685
1356.7000928096686,1672
1358.8019351190665,1651
1360.9032250997243,1596
1363.0039629949988,1664
1365.1041490483235,1637
1367.2037835032133,1636
1369.3028666032606,1637
1371.401398592137,1654
1373.4993797135926,1686
1375.5968102114575,1653
1377.6936903296396,1622
1379.7900203121262,1721
1381.8858004029835,1633
1383.9810308463561,1619
1386.075711886469,1631
1388.1698437676241,1637
1390.2634267342032,1655
1392.356461030667,1648
1394.4489469015557,1758
1396.5408845914872,1693
1398.6322743451592,1684
1400.7231164073469,1596
1402.813411022907,1744
1404.903158436773,1730
1406.9923588939578,1719
1409.0810126395531,1723
1411.1691199187303,1704
1413.2566809767386,1768
1415.343696058907,1738
1417.4301654106425,1704
1419.5160892774315,1750
1421.6014679048399,1736
1423.6863015385125,1791
1425.7705904241707,1780
1427.8543348076178,1731
1429.9375349347342,1678
1432.0201910514802,1751
1434.102303403894,1760
1436.1838722380944,1802
1438.2648978002767,1786
1440.3453803367174,1815
1442.4253200937692,1801
1444.5047173178677,1737
1446.5835722555234,1739
1448.6618851533285,1862
1450.739656257952,1859
1452.8168858161434,1852
1454.8935740747306,1945
1456.96972128062,1899
1459.045327680797,1827
1461.120393522327,1935
1463.1949190523528,1946
1465.2689045180973,2005
1467.3423501668608,1985
1469.415256246024,1964
1471.4876230030463,1978
1473.559450685465,1994
1475.6307395408976,2094
1477.7014898170391,1973
1479.771701761665,2056
1481.8413756226287,2060
1483.9105116478618,2063
1485.9791100853772,2059
1488.0471711832643,2102
1490.1146951896926,2168
1492.1816823529098,2130
1494.2481329212433,2098
1496.3140471430984,2172
1498.3794252669609,2231
1500.4442675413939,2208
1502.5085742150404,2232
1504.572345536622,2195
1506.6355817549388,2206
1508.6982831188702,2209
1510.7604498773744,2293
1512.8220822794883,2288
1514.8831805743293,2227
1516.9437450110909,2233
1519.003775839048,2278
1521.0632733075522,2367
1523.1222376660367,2338
1525.1806691640113,2347
1527.2385680510652,2359
1529.2959345768668,2350
1531.3527689911643,2445
1533.4090715437833,2461
1535.4648424846291,2397
1537.5200820636855,2503
1539.5747905310159,2570
1541.6289681367616,2551
1543.6826151311434,2510
1545.7357317644614,2652
1547.7883182870937,2630
1549.8403749494987,2721
1551.8919020022113,2746
1553.9428996958477,2706
1555.9933682811015,2690
1558.0433080087469,2844
1560.0927191296346,2805
1562.1416018946961,2879
1564.1899565549415,2927
1566.2377833614592,2885
1568.2850825654164,3064
1570.3318544180606,2997
1572.3780991707158,2945
1574.423817074788,2861
1576.4690083817595,2946
1578.5136733431923,2879
1580.5578122107272,2660
1582.601425236085,2555
1584.6445126710646,2653
1586.6870747675434,2426
1588.7291117774776,2366
1590.7706239529034,2297
1592.8116115459347,2235
1594.8520748087658,2177
1596.8920139936686,2198
1598.9314293529933,2074
1600.9703211391711,2023
1603.008689604711,1995
1605.0465350022005,2013
1607.0838575843068,1924
1609.1206576037753,1808
1611.1569353134305,1889
1613.1926909661765,1877
1615.2279248149953,1817
1617.2626371129481,1802
1619.2968281131757,1675
1621.3304980688963,1793
1623.3636472334088,1736
1625.39627586009,1707
1627.428384202396,1758
1629.459972513861,1704
1631.4910410480993,1691
1633.5215900588028,1644
1635.551619799744,1722
1637.5811305247717,1640
1639.6101224878166,1685
1641.6385959428862,1655
1643.6665511440683,1651
1645.693988345528,1606
1647.7209078015112,1657
1649.7473097663405,1660
1651.7731944944203,1592
1653.7985622402307,1645
1655.823413258333,1653
1657.847747803366,1629
1659.8715661300494,1695
1661.8948684931793,1639
1663.9176551476316,1647
1665.9399263483624,1628
1667.9616823504057,1638
1669.982923408873,1681
1672.0036497789574,1634
1674.0238617159293,1709
1676.043559475138,1553
1678.0627433120121,1619
1680.081413482059,1667
1682.0995702408654,1576
1684.117213844096,1663
1686.134344547495,1628
1688.1509626068864,1665
1690.1670682781705,1618
1692.182661817329,1655
1694.1977434804217,1637
1696.2123135235875,1658
1698.226372203043,1641
1700.2399197750851,1698
1702.2529564960905,1625
1704.2654826225112,1642
1706.277498410882,1671
1708.2890041178139,1678
1710.2999999999988,1656
1712.3104863142066,1615
1714.3204633172854,1558
1716.329931266163,1678
1718.3388904178469,1593
1720.3473410294214,1582
1722.3552833580516,1624
1724.3627176609807,1568
1726.3696441955308,1595
1728.3760632191033,1684
1730.3819749891782,1675
1732.3873797633146,1639
1734.3922777991502,1597
1736.3966693544012,1552
1738.4005546868639,1612
1740.4039340544127,1593
1742.406807715001,1643
1744.4091759266616,1644
1746.4110389475054,1559
1748.4123970357223,1604
1750.413250449582,1608
1752.4135994474318,1564
1754.4134442876993,1648
1756.4127852288902,1578
1758.4116225295893,1592
1760.4099564484595,1565
1762.407787244244,1602
1764.405115175764,1570
1766.4019405019203,1600
1768.3982634816916,1635
1770.3940843741357,1553
1772.3894034383907,1594
1774.3842209336717,1635
1776.378537119274,1605
1778.372352254571,1586
1780.3656665990156,1526
1782.3584804121397,1577
1784.3507939535534,1617
1786.3426074829463,1555
1788.3339212600863,1570
1790.3247355448211,1586
1792.3150505970766,1544
1794.3048666768573,1528
1796.2941840442477,1603
1798.2830029594106,1551
1800.2713236825884,1587
1802.2591464741004,1565
1804.2464715943465,1618
1806.2332993038058,1538
1808.2196298630352,1610
1810.2054635326708,1575
1812.190800573428,1610
1814.175641246101,1586
1816.1599858115628,1628
1818.1438345307652,1621
1820.127187664738,1542
1822.1100454745924,1604
1824.092408221516,1537
1826.0742761667766,1608
1828.055649571721,1585
1830.0365286977735,1520
1832.0169138064398,1527
1833.9968051593014,1587
1835.9762030180214,1594
1837.9551076443408,1601
1839.9335193000788,1624
1841.9114382471344,1531
1843.888864747485,1573
1845.8657990631878,1577
1847.842241456378,1540
1849.8181921892697,1577
1851.7936515241558,1564
1853.7686197234098,1511
1855.7430970494815,1590
1857.7170837649014,1599
1859.6905801322787,1595
1861.6635864143004,1523
1863.6361028737338,1564
1865.608129773424,1585
1867.5796673762961,1555
1869.5507159453537,1535
1871.521275743678,1563
1873.4913470344313,1626
1875.4609300808534,1574
1877.4300251462632,1575
1879.3986324940588,1662
1881.366752387717,1611
1883.3343850907936,1619
1885.3015308669228,1611
1887.268189979819,1637
1889.2343626932739,1620
1891.2000492711595,1642
1893.1652499774254,1619
1895.1299650761011,1683
1897.0941948312952,1623
1899.0579395071945,1637
1901.0211993680641,1659
1902.98397467825,1602
1904.9462657021745,1653
1906.9080727043415,1590
1908.869395949332,1619
1910.8302357018065,1630
1912.790592226504,1607
1914.7504657882428,1623
1916.7098566519212,1566
1918.6687650825133,1640
1920.6271913450764,1619
1922.5851357047422,1551
1924.5425984267245,1583
1926.499579776314,1557
1928.4560800188833,1560
1930.4120994198802,1599
1932.367638244833,1651
1934.32269675935,1552
1936.2772752291175,1583
1938.231373919899,1627
1940.1849930975404,1555
1942.1381330279637,1595
1944.0907939771696,1582
1946.0429762112412,1608
1947.9946799963363,1638
1949.9459055986945,1568
1951.896653284633,1564
1953.8469233205478,1593
1955.7967159729142,1566
1957.7460315082863,1621
1959.6948701932974,1570
1961.6432322946594,1541
1963.5911180791632,1522
1965.5385278136787,1556
1967.4854617651545,1518
1969.4319202006182,1602
1971.377903387176,1601
1973.3234115920136,1605
1975.268445082395,1599
1977.2130041256642,1633
1979.1570889892423,1526
1981.1006999406304,1563
1983.04383724741,1559
1984.986501177238,1591
1986.928691997853,1627
1988.8704099770712,1596
1990.811655382789,1553
1992.7524284829801,1624
1994.692729545698,1511
1996.6325588390755,1513
1998.5719166313224,1561
2000.5108031907307,1587
2002.4492187856677,1568
2004.387163684583,1551
2006.3246381560011,1551
2008.2616424685298,1537
2010.1981768908527,1594
2012.1342416917332,1546
2014.069837140014,1603
2016.0049635046162,1577
2017.9396210545406,1490
2019.8738100588666,1509
2021.8075307867502,1545
2023.740783507431,1563
2025.6735684902228,1582
2027.6058860045214,1548
2029.5377363198004,1503
2031.4691197056118,1535
2033.4000364315875,1605
2035.3304867674374,1495
2037.260470982952,1514
2039.189989347998,1516
2041.1190421325232,1576
2043.047629606554,1517
2044.9757520401945,1533
2046.9034097036288,1518
2048.8306028671195,1556
2050.7573318010086,1528
2052.683596775716,1552
2054.609398061742,1499
2056.5347359296647,1531
2058.4596106501403,1516
2060.384022493906,1569
2062.3079717317764,1487
2064.231458634646,1645
2066.1544834734873,1538
2068.077046519352,1513
2069.99914804337,1604
2071.9207883167524,1531
2073.8419676107865,1588
2075.7626861968406,1475
2077.6829443463607,1527
2079.6027423308715,1603
2081.522080421977,1493
2083.440958891362,1581
2085.359378010786,1572
2087.2773380520907,1567
2089.194839287196,1497
2091.111881988101,1593
2093.0284664268825,1517
2094.9445928756973,1583
2096.86026160678,1531
2098.775472892446,1585
2100.690227005088,1519
2102.604524217178,1490
2104.5183648012676,1543
2106.431749029985,1504
2108.34467717604,1608
2110.2571495122206,1579
2112.169166311393,1508
2114.080727846503,1567
2115.9918343905747,1626
2117.902486216711,1572
2119.8126835980956,1573
2121.722426807987,1589
2123.6317161197285,1608
2125.5405518067364,1597
2127.448934142509,1601
2129.356863400624,1514
2131.264339854737,1575
2133.1713637785815,1610
2135.077935445972,1594
2136.9840551308002,1585
2138.889723107037,1558
2140.7949396487334,1621
2142.699705030018,1570
2144.6040195250994,1570
2146.507883408264,1629
2148.4112969538774,1562
2150.3142604363848,1637
2152.2167741303097,1554
2154.1188383102535,1605
2156.0204532508997,1623
2157.9216192270064,1601
2159.822336513414,1658
2161.7226053850413,1612
2163.622426116884,1706
2165.5217989840185,1587
2167.4207242616,1629
2169.319202224862,1638
2171.2172331491165,1607
2173.1148173097563,1610
2175.0119549822507,1539
2176.90864644215,1617
2178.8048919650823,1631
2180.7006918267534,1643
2182.596046302952,1693
2184.4909556695407,1654
2186.3854202024645,1605
2188.279440177746,1682
2190.173015871487,1709
2192.066147559868,1690
2193.958835519149,1682
2195.851080025667,1660
2197.7428813558417,1635
2199.6342397861667,1665
2201.5251555932186,1646
2203.415629053651,1637
2205.3056604441986,1771
2207.19525004167,1633
2209.084398122958,1653
2210.9731049650327,1706
2212.861370844941,1763
2214.749196039812,1694
2216.636580826851,1725
2218.523525483344,1736
2220.410030286655,1677
2222.296095514226,1666
2224.1817214435805,1676
2226.066908352319,1723
2227.951656518121,1701
2229.835966218746,1711
2231.71983773203,1666
2233.6032713358913,1700
2235.486267308324,1725
2237.3688259274036,1692
2239.2509474712824,1737
2241.132632218193,1701
2243.013880446447,1707
2244.8946924344323,1672
2246.7750684606203,1676
2248.6550088035574,1648
2250.534513741871,1731
2252.413583554265,1756
2254.292218519526,1687
2256.170418916517,1720
2258.0481850241786,1707
2259.925517121534,1650
2261.8024154876825,1637
2263.678880401803,1744
2265.5549121431536,1677
2267.430510991071,1636
2269.305677224971,1634
2271.180411124348,1655
2273.0547129687766,1642
2274.9285830379076,1686
2276.8020216114737,1633
2278.6750289692845,1594
2280.5476053912294,1668
2282.4197511572766,1677
2284.2914665474727,1682
2286.162751841943,1669
2288.0336073208937,1731
2289.904033264608,1727
2291.774029953448,1795
2293.6435976678554,1647
2295.5127366883517,1669
2297.381447295534,1573
2299.2497297700825,1580
2301.1175843927526,1590
2302.9850114443825,1503
2304.852011205885,1469
2306.7185839582553,1417
2308.5847299825664,1438
2310.4504495599676,1473
2312.3157429716925,1383
2314.1806104990483,1352
2316.0450524234247,1408
2317.9090690262888,1409
2319.772660589186,1443
2321.635827393742,1397
2323.498569721661,1440
2325.3608878547248,1352
2327.2227820747967,1405
2329.0842526638157,1410
2330.945299903803,1376
2332.805924076857,1335
2334.6661254651535,1367
2336.525904350951,1369
2338.3852610165827,1368
2340.244195744464,1412
2342.102708817088,1370
2343.9608005170253,1330
2345.8184711269287,1416
2347.675720929526,1399
2349.532550207628,1392
2351.38895924412,1358
2353.24494832197,1402
2355.100517724223,1392
2356.955667734004,1382
2358.810398634514,1372
2360.664710709037,1405
2362.5186042409337,1365
2364.3720795136437,1396
2366.225136810686,1415
2368.0777764156583,1411
2369.929998612237,1403
2371.7818036841777,1392
2373.633191915315,1399
2375.484163589562,1430
2377.3347189909114,1377
2379.184858403434,1395
2381.03458211128,1380
2382.8838903986775,1377
2384.732783549936,1449
2386.5812618494406,1429
2388.4293255816588,1424
2390.2769750311327,1400
2392.1242104824883,1412
2393.971032220427,1405
2395.8174405297295,1440
2397.6634356952563,1422
2399.509018001947,1375
2401.3541877348193,1397
2403.1989451789705,1432
2405.043290619576,1446
2406.8872243418905,1368
2408.730746631247,1431
2410.5738577730594,1371
2412.4165580528183,1417
2414.258847756095,1376
2416.100727168537,1445
2417.9421965758734,1452
2419.783256263912,1468
2421.623906518538,1428
2423.4641476257157,1424
2425.303979871491,1408
2427.143403541984,1406
2428.9824189233977,1436
2430.821026302012,1459
2432.6592259641866,1483
2434.497018196361,1425
2436.33440328505,1431
2438.171381516851,1455
2440.00795317844,1445
2441.844118556569,1455
2443.6798779380724,1417
2445.5152316098606,1462
2447.3501798589255,1450
2449.1847229723357,1471
2451.0188612372403,1456
2452.8525949408663,1466
2454.6859243705203,1483
2456.518849813587,1417
2458.3513715575314,1382
2460.183489889895,1401
2462.015205098301,1457
2463.8465174704493,1478
2465.67742729412,1385
2467.5079348571717,1421
2469.338040447542,1440
2471.1677443532476,1391
2472.9970468623833,1438
2474.825948263123,1448
2476.6544488437207,1435
2478.482548892508,1380
2480.310248697896,1451
2482.137548548374,1430
2483.9644487325118,1426
2485.790949538956,1475
2487.617051256433,1511
2489.44275417375,1430
2491.26805857979,1493
2493.0929647635157,1417
2494.917473013971,1461
2496.741583620276,1465
2498.5652968716304,1464
2500.3886130573137,1472
2502.2115324666834,1490
2504.0340553891765,1407
2505.856182114308,1466
2507.6779129316733,1495
2509.499248130945,1460
2511.3201880018764,1473
2513.140732834298,1460
2514.9608829181198,1492
2516.780638543331,1477
2518.6,1388
2520.418967578273,1496
2522.237541568376,1399
2524.0557222606144,1488
2525.8735099453706,1467
2527.6909049131086,1534
2529.507907454368,1492
2531.32451785977,1514
2533.140736420014,1470
2534.9565634258774,1542
2536.771999168218,1552
2538.5870439379714,1503
2540.4016980261526,1472
2542.2159617238544,1580
2544.02983532225,1542
2545.8433191125914,1603
2547.656413386209,1558
2549.4691184345115,1530
2551.2814345489874,1573
2553.093362021204,1550
2554.904901142808,1556
2556.716052205523,1620
2558.526815501153,1676
2560.3371913215824,1571
2562.147179958771,1632
2563.956781704761,1598
2565.7659968516705,1671
2567.5748256916986,1593
2569.3832685171224,1647
2571.1913256202984,1584
2572.9989972936614,1654
2574.806283829725,1611
2576.613185521084,1680
2578.4197026604074,1730
2580.2258355404483,1705
2582.031584454035,1605
2583.836949694077,1706
2585.6419315535613,1721
2587.4465303255533,1723
2589.2507463032002,1671
2591.0545797797245,1709
2592.8580310484303,1688
2594.6611004026995,1743
2596.463788135992,1743
2598.266094541849,1712
2600.0680199138874,1729
2601.869564545807,1646
2603.670728731383,1712
2605.4715127644704,1717
2607.2719169390048,1714
2609.071941548998,1690
2610.8715868885433,1777
2612.670853251811,1724
2614.469740933052,1684
2616.268250226594,1688
2618.0663814268455,1663
2619.864134828292,1733
2621.6615107255006,1618
2623.458509413115,1648
2625.2551311858597,1658
2627.0513763385347,1700
2628.8472451660223,1652
2630.6427379632833,1678
2632.4378550253564,1649
2634.232596647359,1654
2636.026963124488,1664
2637.8209547520187,1601
2639.6145718253065,1593
2641.407814639785,1551
2643.200683490966,1597
2644.9931786744414,1557
2646.7853004858807,1571
2648.577049221034,1627
2650.3684251757277,1591
2652.1594286458712,1564
2653.9500599274484,1610
2655.740319316525,1557
2657.5302071092437,1572
2659.3197236018286,1532
2661.10886909058,1558
2662.8976438718782,1546
2664.686048242183,1551
2666.4740824980327,1497
2668.2617469360443,1545
2670.0490418529134,1485
2671.8359675454153,1490
2673.622524310403,1465
2675.408712444811,1530
2677.1945322456495,1426
2678.979984010009,1560
2680.76506803506,1434
2682.5497846180497,1497
2684.334134056306,1445
2686.1181166472343,1496
2687.9017326883213,1473
2689.6849824771293,1472
2691.4678663113013,1427
2693.2503844885596,1416
2695.032537306705,1470
2696.8143250636167,1455
2698.5957480572542,1423
2700.3768065856534,1472
2702.1575009469316,1441
2703.937831439283,1457
2705.717798360982,1451
2707.4974020103837,1424
2709.276642685917,1433
2711.055520686095,1435
2712.834036309506,1433
2714.612189854819,1485
2716.389981620782,1390
2718.1674119062204,1415
2719.944481010041,1416
2721.721189231226,1424
2723.4975368688415,1451
2725.273524222027,1417
2727.0491515900053,1397
2728.824419272075,1484
2730.5993275676146,1437
2732.3738767760838,1451
2734.148067197016,1325
2735.921899130031,1399
2737.6953728748194,1358
2739.468488731156,1459
2741.2412469988926,1393
2743.0136479779617,1383
2744.785691968372,1364
2746.5573792702116,1345
2748.3287101836504,1319
2750.099685008934,1392
2751.870304046388,1432
2753.640567596418,1416
2755.4104759595057,1384
2757.1800294362156,1416
2758.949228327187,1341
2760.7180729331412,1428
2762.486563554877,1443
2764.254700493272,1367
2766.022484049284,1306
2767.789914523947,1357
2769.5569922183786,1414
2771.3237174337705,1451
2773.090090471394,1398
2774.8561116326036,1412
2776.6217812188274,1376
2778.3870995315756,1419
2780.1520668724356,1363
2781.9166835430747,1448
2783.6809498452394,1411
2785.444866080754,1453
2787.2084325515225,1366
2788.971649559527,1435
2790.73451740683,1438
2792.4970363955713,1366
2794.2592068279705,1355
2796.0210290063264,1321
2797.7825032330147,1374
2799.543629810493,1378
2801.304409041296,1389
2803.0648412280366,1365
2804.8249266734088,1360
2806.5846656801846,1416
2808.344058551212,1430
2810.1031055894246,1417
2811.8618070978273,1398
2813.6201633795085,1416
2815.378174737636,1398
2817.1358414754536,1351
2818.893163896285,1378
2820.6501423035334,1301
2822.4067770006814,1400
2824.1630682912883,1392
2825.9190164789957,1368
2827.6746218675207,1384
2829.429884760661,1396
2831.184805462294,1366
2832.9393842763743,1408
2834.693621506936,1419
2836.4475174580916,1430
2838.201072434034,1466
2839.954286739034,1378
2841.707160677441,1425
2843.459694553685,1415
2845.2118886722724,1401
2846.96374333779,1412
2848.7152588549034,1448
2850.4664355283567,1423
2852.217273662973,1417
2853.9677735636546,1402
2855.7179355353833,1396
2857.4677598832186,1361
2859.217246912299,1420
2860.9663969278427,1425
2862.715210235146,1394
2864.4636871395846,1395
2866.211827946614,1400
2867.9596329617652,1379
2869.7071024906536,1334
2871.4542368389684,1356
2873.20103631248,1398
2874.947501217038,1414
2876.6936318585695,1389
2878.4394285430812,1327
2880.1848915766604,1417
2881.9300212654707,1424
2883.6748179157553,1465
2885.4192818338374,1421
2887.1634133261173,1365
2888.907212699077,1372
2890.6506802592744,1398
2892.393816313348,1447
2894.1366211680142,1354
2895.8790951300693,1410
2897.621238506388,1383
2899.363051603925,1391
2901.1045347297118,1349
2902.8456881908596,1381
2904.58651229456,1324
2906.327007348081,1415
2908.067173658772,1379
2909.8070115340597,1423
2911.5465212814497,1393
2913.285703208527,1367
2915.0245576229563,1337
2916.7630848324807,1385
2918.5012851449196,1354
2920.2391588681758,1417
2921.976706310227,1436
2923.7139277791334,1346
2925.4508235830313,1354
2927.187394030137,1340
2928.923639428745,1381
2930.6595600872306,1449
2932.395156314046,1398
2934.1304284177218,1358
2935.8653767068713,1326
2937.6000014901815,1416
2939.3343030764227,1364
2941.068281774442,1400
2942.8019378931644,1396
2944.5352717415976,1388
2946.2682836288236,1390
2948.0009738640065,1377
2949.7333427563885,1385
2951.465390615289,1380
2953.1971177501086,1377
2954.9285244703265,1379
2956.6596110855,1422
2958.3903779052657,1387
2960.1208252393385,1378
2961.8509533975125,1376
2963.5807626896617,1439
2965.3102534257378,1438
2967.0394259157715,1353
2968.768280469873,1403
2970.496817398232,1433
2972.2250370111146,1393
2973.952939618869,1361
2975.6805255319196,1466
2977.4077950607707,1391
2979.134748516006,1412
2980.861386208289,1445
2982.587708448359,1437
2984.313715547037,1378
2986.039407815222,1444
2987.764785563891,1363
2989.489849104102,1382
2991.2145987469908,1371
2992.9390348037705,1295
2994.6631575857346,1398
2996.3869674042576,1357
2998.1104645707887,1344
2999.83364939686,1352
3001.5565221940783,1316
3003.2790832741334,1367
3005.0013329487924,1332
3006.7232715298996,1412
3008.4448993293804,1342
3010.166216659239,1313
3011.887223831558,1415
3013.607921158498,1404
3015.3283089522993,1345
3017.0483875252826,1398
3018.7681571898443,1427
3020.4876182584626,1391
3022.2067710436927,1364
3023.9256158581707,1332
3025.644153014609,1340
3027.362382825801,1379
3029.0803056046193,1375
3030.797921664012,1291
3032.5152313170106,1353
3034.2322348767225,1352
3035.9489326563353,1390
3037.665324969115,1405
3039.3814121284063,1360
3041.097194447633,1362
3042.812672240299,1384
3044.5278458199855,1383
3046.2427155003525,1336
3047.9572815951406,1347
3049.671544418167,1359
3051.38550428333,1359
3053.0991615046073,1359
3054.812516396051,1381
3056.5255692717974,1326
3058.2383204460575,1359
3059.9507702331257,1361
3061.662918947372,1369
3063.3747669032446,1355
3065.0863144152736,1338
3066.7975617980674,1373
3068.508509366309,1345
3070.219157434767,1333
3071.9295063182844,1338
3073.639556331785,1361
3075.3493077902704,1311
3077.058761008821,1383
3078.7679163025964,1328
3080.476773986837,1387
3082.1853343768594,1379
3083.89359778806,1363
3085.6015645359153,1377
3087.3092349359786,1353
3089.016609303884,1324
3090.7236879553434,1365
3092.4304712061476,1334
3094.136959372166,1394
3095.843152769349,1388
3097.5490517137237,1340
3099.2546565213966,1380
3100.959967508554,1347
3102.66498499146,1398
3104.3697092864577,1367
3106.0741407099695,1394
3107.778279578498,1396
3109.482126208622,1364
3111.1856809170004,1418
3112.8889440203716,1421
3114.5919158355528,1433
3116.294596679439,1379
3117.996986869006,1427
3119.6990867213062,1389
3121.4008965534726,1353
3123.102416682717,1404
3124.803647426329,1397
3126.5045891016784,1399
3128.205242026213,1409
3129.90560651746,1410
3131.605682893025,1368
3133.3054714705922,1393
3135.0049725679282,1412
3136.7041865028714,1397
3138.4031135933465,1418
3140.101754157353,1383
3141.800108512971,1427
3143.498176978357,1361
3145.1959598717494,1369
3146.8934575114636,1374
3148.5906702158954,1390
3150.2875983035183,1406
3151.9842420928853,1358
3153.680601902627,1388
3155.376678051456,1394
3157.07247085816,1352
3158.767980641609,1302
3160.463207720748,1404
3162.158152414606,1375
3163.8528150422862,1414
3165.5471959229726,1365
3167.2412953759303,1372
3168.9351137204976,1413
3170.628651276098,1325
3172.3219083622307,1410
3174.014885298474,1356
3175.707582404485,1417
3177.4000000000005,1364
3179.092138404835,1379
3180.7839979388846,1403
3182.47557892212,1359
3184.166881674594,1362
3185.8579065164386,1373
3187.5486537678626,1372
3189.2391237491547,1376
3190.9293167806827,1353
3192.6192331828934,1333
3194.3088732763117,1331
3195.998237381542,1331
3197.687325819268,1399
3199.376138910251,1337
3201.064676975334,1361
3202.7529403354347,1361
3204.4409293115523,1357
3206.1286442247647,1415
3207.816085396229,1308
3209.5032531471825,1363
3211.190147798936,1379
3212.8767696728846,1352
3214.5631190905015,1400
3216.2491963733373,1342
3217.9350018430214,1322
3219.6205358212637,1353
3221.305798629851,1245
3222.990790590651,1264
3224.6755120256103,1344
3226.359963256751,1311
3228.0441446061795,1379
3229.7280563960758,1324
3231.411698948703,1326
3233.0950725863995,1331
3234.778177631587,1380
3236.461014406761,1339
3238.1435832345005,1327
3239.8258844374595,1342
3241.507918338374,1399
3243.1896852600576,1367
3244.8711855254023,1400
3246.552419457381,1315
3248.233387379042,1378
3249.914089613516,1370
3251.59452648401,1406
3253.274698313813,1391
3254.95460542629,1303
3256.6342481448855,1367
3258.313626793125,1375
3259.9927416946084,1387
3261.6715931730196,1317
3263.3501815521176,1336
3265.0285071557437,1342
3266.706570307815,1313
3268.3843713323286,1309
3270.0619105533615,1345
3271.739188295068,1354
3273.4162048816834,1350
3275.0929606375184,1395
3276.769455886966,1365
3278.445690954498,1403
3280.1216661646613,1380
3281.797381842087,1360
3283.4728383114807,1407
3285.1480358976296,1371
3286.8229749253996,1314
3288.4976557197333,1352
3290.172078605655,1339
3291.846243908266,1296
3293.5201519527463,1265
3295.193803064357,1316
3296.8671975684374,1345
3298.5403357904024,1362
3300.21321805575,1324
3301.8858446900567,1314
3303.558216018975,1346
3305.23033236824,1382
3306.9021940636603,1356
3308.57380143113,1304
3310.2451547966184,1306
3311.916254486174,1361
3313.5871008259246,1336
3315.2576941420766,1366
3316.9280347609147,1347
3318.5981230088046,1305
3320.2679592121895,1398
3321.9375436975924,1242
3323.606876791612,1344
3325.27595882093,1340
3326.944790112305,1274
3328.6133709925753,1342
3330.2817017886573,1338
3331.949782827547,1349
3333.617614436319,1396
3335.2851969421245,1311
3336.952530672199,1365
3338.619615953853,1370
3340.286453114475,1346
3341.9530424815357,1377
3343.619384382583,1381
3345.2854791452437,1338
3346.951327097224,1338
3348.6169285663073,1327
3350.2822838803577,1361
3351.947393367319,1379
3353.61225735521,1324
3355.2768761721345,1335
3356.9412501462693,1332
3358.605379605873,1356
3360.2692648792827,1375
3361.9329062949146,1369
3363.596304181263,1306
