CollectionTime,7/9/2024 11:20:12 AM
ExposureUsed,3
CalibratedSpectrum
-962.7078968117929,567
-959.9714848408522,609
-957.2358232597828,628
-954.5009119013725,586
-951.7667505983302,598
-949.0333391832855,599
-946.3006774887896,629
-943.5687653473143,622
-940.837602591253,604
-938.1071890529199,612
-935.3775245645503,577
-932.6486089583007,607
-929.9204420662485,635
-927.1930237203925,601
-924.4663537526524,585
-921.7404319948689,603
-919.0152582788041,611
-916.2908324361409,657
-913.5671542984834,632
-910.8442236973568,612
-908.1220404642074,631
-905.4006044304027,631
-902.679915427231,594
-899.959973285902,619
-897.2407778375464,596
-894.5223289132158,609
-891.8046263438832,619
-889.0876699604426,577
-886.3714595937089,584
-883.6559950744183,617
-880.9412762332282,629
-878.2273029007168,613
-875.5140749073835,613
-872.8015920836489,613
-870.0898542598545,590
-867.3788612662631,596
-864.6686129330585,587
-861.9591090903457,632
-859.2503495681506,609
-856.5423341964203,586
-853.8350628050229,576
-851.1285352237478,546
-848.4227512823054,589
-845.7177108103272,601
-843.0134136373656,591
-840.3098595928943,618
-837.6070485063082,616
-834.9049802069229,592
-832.2036545239757,617
-829.5030712866244,617
-826.8032303239481,636
-824.1041314649472,573
-821.4057745385428,576
-818.7081593735775,595
-816.0112857988148,590
-813.3151536429393,634
-810.6197627345566,611
-807.9251129021936,585
-805.2312039742981,617
-802.5380357792392,609
-799.8456081453069,598
-797.1539209007124,620
-794.462973873588,603
-791.772766891987,654
-789.083299783884,618
-786.3945723771743,620
-783.7065844996748,618
-781.0193359791231,600
-778.3328266431781,630
-775.6470563194197,651
-772.9620248353489,615
-770.2777320183878,636
-767.5941776958798,628
-764.9113616950891,633
-762.2292838432011,655
-759.5479439673222,629
-756.8673418944801,613
-754.1874774516235,655
-751.5083504656222,652
-748.8299607632671,677
-746.15230817127,624
-743.475392516264,641
-740.7992136248035,650
-738.1237713233636,645
-735.4490654383407,626
-732.7750957960521,641
-730.1018622227365,644
-727.4293645445534,637
-724.7576025875837,640
-722.0865761778291,673
-719.4162851412126,639
-716.7467293035781,666
-714.0779084906909,690
-711.409822528237,688
-708.7424712418238,684
-706.0758544569796,688
-703.4099719991541,681
-700.7448236937178,672
-698.0804093659622,691
-695.4167288411002,690
-692.7537819442656,653
-690.0915685005134,732
-687.4300883348199,700
-684.7693412720819,673
-682.1093271371178,673
-679.4500457546669,684
-676.7914969493897,686
-674.1336805458676,665
-671.4765963686034,711
-668.8202442420206,719
-666.1646239904642,725
-663.5097354382001,752
-660.8555784094151,710
-658.2021527282176,708
-655.5494582186366,715
-652.8974947046223,722
-650.2462620100463,732
-647.5957599587009,740
-644.9459883742998,736
-642.2969470804776,700
-639.6486359007902,745
-637.0010546587141,725
-634.3542031776476,723
-631.7080812809096,748
-629.0626887917401,722
-626.4180255333008,704
-623.7740913286734,743
-621.1308860008619,746
-618.4884093727904,756
-615.8466612673046,734
-613.2056415071715,734
-610.5653499150785,749
-607.9257863136347,720
-605.28695052537,759
-602.6488423727357,743
-600.0114616781036,719
-597.3748082637674,772
-594.7388819519412,712
-592.1036825647604,759
-589.4692099242818,788
-586.8354638524829,789
-584.2024441712624,816
-581.5701507024403,735
-578.9385832677575,776
-576.3077416888759,751
-573.6776257873787,780
-571.0482353847704,774
-568.4195703024757,793
-565.7916303618415,767
-563.164415384135,772
-560.5379251905453,756
-557.9121596021815,747
-555.2871184400748,753
-552.6628015251767,706
-550.0392086783606,757
-547.4163397204204,733
-544.794194472071,777
-542.1727727539491,793
-539.5520743866118,788
-536.9320991905377,832
-534.3128469861261,844
-531.6943175936979,852
-529.0765108334947,855
-526.4594265256793,938
-523.8430644903358,1030
-521.2274245474689,1169
-518.612506517005,1197
-515.9983102187913,1141
-513.3848354725959,1121
-510.77208209810846,1200
-508.16004991493924,1266
-505.5487387426199,1369
-502.9381484006032,1530
-500.3282787082628,1655
-497.71912948489364,1617
-495.1107005497117,1386
-492.5029917218539,1330
-489.8960028203786,1196
-487.28973366426493,1130
-484.68418407241325,1074
-482.07935386364494,974
-479.47524285670266,977
-476.87185087025,913
-474.2691777228715,991
-471.66722323307334,1022
-469.0659872192821,1044
-466.4654694998459,957
-463.86566989303384,990
-461.26658821703614,933
-458.66822428996414,942
-456.07057792985,993
-453.4736489546475,924
-450.877437182231,959
-448.28194243039627,946
-445.68716451686,940
-443.09310325926003,953
-440.49975847515555,928
-437.9071299820263,884
-435.31521759727354,918
-432.72402113821954,972
-430.13354042210767,1007
-427.5437752661022,996
-424.95472548728867,972
-422.36639090267386,999
-419.7787713291855,1012
-417.1918665836721,1076
-414.60567648290385,1047
-412.0202008435715,1003
-409.4354394822874,1051
-406.8513922155845,1045
-404.26805885991723,1065
-401.685439231661,1053
-399.103533147112,1088
-396.522340422488,1069
-393.9418608739278,1062
-391.3620943174908,1084
-388.7830405691583,1050
-386.2046994448317,962
-383.6270707603344,983
-381.05015433141045,860
-378.473949973725,843
-375.8984575028645,813
-373.32367673433623,724
-370.74960748356875,688
-368.1762495659117,642
-365.60360279663576,611
-363.03166699093265,556
-360.4604419639154,552
-357.8899275306178,531
-355.32012350599507,487
-352.7510297049233,512
-350.1826459421999,488
-347.61497203254316,498
-345.04800779059235,461
-342.4817530309082,500
-339.91620756797226,556
-337.35137121618743,500
-334.7872437898774,491
-332.22382510328725,508
-329.66111497058273,478
-327.09911320585127,491
-324.53781962310075,512
-321.9772340362607,509
-319.4173562591816,489
-316.8581861056348,496
-314.2997233893127,487
-311.7419679238294,476
-309.1849195227194,462
-306.62857799943856,534
-304.0729431673641,520
-301.51801483979375,548
-298.963792829947,527
-296.41027695096386,511
-293.85746701590574,621
-291.3053628377552,572
-288.7539642294155,577
-286.2032710037115,556
-283.65328297338897,538
-281.1039999511146,615
-278.5554217494762,620
-276.007548180983,587
-273.4603790580651,582
-270.9139141930734,601
-268.3681533982807,554
-265.8230964858798,540
-263.27874326798565,568
-260.7350935566336,572
-258.1921471637804,601
-255.6499039013039,561
-253.10836358100266,615
-250.56752601459698,592
-248.02739101372765,599
-245.48795838995704,633
-242.94922795476816,602
-240.41119951956557,589
-237.8738728956746,653
-235.33724789434166,681
-232.80132432673452,610
-230.2661020039418,610
-227.73158073697357,641
-225.19776033676033,816
-222.66464061415422,814
-220.1322213799284,728
-217.60050244477725,661
-215.06948361931552,651
-212.53916471408013,676
-210.00954553952818,771
-207.48062590603843,712
-204.9524056239104,663
-202.4248845033651,782
-199.8980623545441,723
-197.37193898751036,739
-194.84651421224817,710
-192.32178783866232,701
-189.79775967657952,711
-187.27442953574644,855
-184.7517972258321,850
-182.2298625564256,823
-179.7086253370378,804
-177.18808537710026,740
-174.66824248596583,724
-172.14909647290835,833
-169.6306471471229,872
-167.11289431772548,815
-164.59583779375328,866
-162.07947738416453,878
-159.5638128978386,944
-157.04884414357605,1055
-154.53457093009854,1125
-152.02099306604828,1084
-149.50811035998936,811
-146.99592262040665,797
-144.48442965570587,859
-141.97363127421409,936
-139.46352728417958,1094
-136.95411749377126,1277
-134.44540171107985,1123
-131.93737974411636,907
-129.43005140081357,911
-126.92341648902493,1149
-124.41747481652521,1388
-121.91222619101006,1739
-119.40767042009657,2054
-116.90380731132257,2500
-114.40063667214702,2249
-111.8981583099503,1885
-109.3963720320337,1452
-106.89527764561933,1380
-104.39487495785067,1461
-101.89516377579241,2169
-99.39614390642998,2693
-96.89781515667039,2862
-94.40017733334128,3118
-91.90323024319173,3642
-89.40697369289148,4818
-86.91140748903172,5576
-84.41653143812482,5515
-81.92234534660395,4081
-79.42884902082358,3128
-76.93604226705907,4964
-74.4439248915071,8912
-71.95249670028534,13122
-69.46175749943245,14660
-66.97170709490854,14743
-64.48234529259423,13432
-61.99367189829195,11698
-59.50568671772464,8965
-57.01838955653636,8124
-54.53178022029283,7940
-52.045858514480074,7464
-49.560624244506016,8089
-47.07607721569923,9869
-44.59221723330904,12057
-42.10904410250669,12964
-39.62655762838392,12037
-37.14475761595372,12847
-34.66364387015028,12826
-32.18321619582866,12011
-29.70347439776515,12546
-27.224418280657005,13110
-24.74604764912317,13163
-22.26836230770266,17835
-19.7913620608565,30940
-17.315046712966478,55914
-14.83941606833514,65040
-12.36446993118659,65040
-9.89020810566592,65040
-7.416630395839093,65040
-4.94373660569363,65040
-2.471526539137585,65040
-6.821210263296962E-13,65040
2.47084320796705,65040
4.941003281093458,65040
7.410480415786196,65040
9.879274808531363,65040
12.347386655893956,65040
14.814816154518212,65040
17.28156350112681,65040
19.74762889252179,65040
22.21301252558385,65040
24.67771459727237,21402
27.141735304626195,4153
29.605074844762612,2918
32.06773341487792,2493
34.52971121224755,2443
36.99100843422559,2241
39.45162527824516,2035
41.91156194181792,1857
44.370818622535126,1695
46.82939551806646,1397
49.287292826160524,1343
51.74451074464503,1649
54.201049471426245,1496
56.65690920448981,1355
59.112090141899785,1235
61.56659248179983,1182
64.02041642241159,1129
66.4735621620365,1123
68.92602989905402,1083
71.37781983192338,1204
73.82893215918205,1232
76.27936707944684,1169
78.72912479141326,1210
81.17820549385567,1212
83.62660938562783,1392
86.07433666566146,1364
88.5213875329681,1212
90.96776218663751,1140
93.41346082583925,1082
95.85848364982041,978
98.30283085790859,1145
100.7465026495089,1194
103.18949922410604,1074
105.63182078126385,1059
108.07346752062438,1047
110.51443964190923,836
112.95473734491827,876
115.39436082953114,1077
117.83331029570547,1082
120.27158594347827,908
122.7091879729652,998
125.1461165843615,978
127.58237197794062,882
130.01795435405518,871
132.4528639131364,939
134.88710085569494,935
137.32066538231982,923
139.75355769367923,846
142.1857779905207,817
144.61732647366978,844
147.04820334403132,1034
149.47840880258934,1047
151.90794305040674,1075
154.33680628862487,1142
156.76499871846443,1426
159.19252054122433,1529
161.61937195828352,1674
164.04555317109896,1804
166.47106438120693,2056
168.89590579022217,2376
171.320077599839,2567
173.7435800118302,2627
176.16641322804742,2792
178.58857745042144,2924
181.01007288096173,3074
183.43089972175687,3108
185.85105817497413,2953
188.27054844285988,3032
190.6893707277394,2923
193.10752523201643,3047
195.5250121581745,3113
197.9418317087751,3117
200.3579840864594,3094
202.7734694939469,3129
205.18828813403627,3151
207.6024402096051,3283
210.01592592360964,3327
212.42874547908548,3313
214.84089907914665,3245
217.2523869269868,3097
219.66320922587727,3103
222.0733661791695,3009
224.48285799029293,3049
226.8916848627572,3049
229.29984700014882,3195
231.7073446061355,3188
234.11417788446204,3149
236.520347038953,3150
238.92585227351185,3248
241.33069379212054,3322
243.73487179884035,3444
246.1383864978112,3482
248.541238093252,3453
250.9434267894609,3303
253.34495279081432,3366
255.74581630176783,3402
258.1460175268563,3412
260.54555667069314,3455
262.9444339379703,3343
265.3426495334594,3211
267.7402036620107,3124
270.1370965285529,3163
272.53332833809407,3091
274.9288992957214,2942
277.32380960660055,2898
279.718059475976,2805
282.1116491091717,2885
284.5045787115897,2809
286.89684848871195,2817
289.2884586460981,2811
291.67940938938807,2819
294.0697009242996,2771
296.4593334566299,2843
298.84830719225477,2741
301.23662233712923,2794
303.6242790972866,2730
306.01127767884,2717
308.39761828798066,2636
310.78330113097934,2652
313.16832641418534,2584
315.5526943440269,2570
317.9364051270112,2589
320.3194589697242,2617
322.70185607883093,2625
325.0835966610754,2473
327.4646809232805,2494
329.8451090723478,2476
332.2248813152577,2450
334.6039978590701,2375
336.9824589109231,2328
339.36026467803447,2374
341.7374153677,2365
344.113911187295,2351
346.48975234427337,2340
348.8649390461686,2373
351.2394715005918,2373
353.61334991523415,2308
355.9865744978655,2399
358.35914545633375,2306
360.73106299856715,2279
363.10232733257146,2344
365.47293866643247,2285
367.84289720831396,2266
370.2122031664593,2249
372.5808567491905,2256
374.9488581649083,2238
377.31620762209275,2203
379.6829053293021,2221
382.0489514951745,2227
384.4143463284262,2195
386.7790900378528,2214
389.14318283232853,2248
391.50662492080653,2193
393.86941651231916,2193
396.23155781597745,2189
398.5930490409713,2241
400.9538903965696,2246
403.3140820921202,2064
405.6736243370498,2152
408.03251734086336,2155
410.3907613131465,2156
412.74835646356166,2130
415.10530300185144,2205
417.4616011378372,2147
419.81725108141893,2188
422.1722530425758,2129
424.5266072313656,2107
426.880313857925,2121
429.2333731324701,2127
431.58578526529516,2113
433.9375504667738,2152
436.2886689473588,2191
438.63914091758113,2113
440.9889665880513,2067
443.33814616945835,2072
445.68667987257015,2075
448.03456790823395,2074
450.3818104873759,2097
452.72840782100013,2101
455.07436012019105,2046
457.41966759611057,2074
459.7643304600007,2086
462.10834892318155,2102
464.4517231970525,2116
466.79445349309174,2015
469.1365400228566,2106
471.4779829979826,2110
473.81878263018564,2043
476.15893913125876,2020
478.4984527130747,2126
480.8373235875855,2158
483.17555196682144,2141
485.5131380628919,2316
487.8500820879857,2409
490.1863842543697,2448
492.52204477439034,2686
494.8570638604725,2841
497.1914417251204,3121
499.52517858091653,3379
501.85827464052306,3669
504.19073011668036,3722
506.5225452222086,3632
508.85372017000566,3551
511.18425517304956,3433
513.514150444396,3680
515.8434061971808,4415
518.1720226446176,5306
520.4999999999999,5571
522.8273384766991,5300
525.1540382881666,4587
527.480099647932,4109
529.8055227696037,3561
532.1303078668694,2788
534.454455153496,2506
536.777964843328,2367
539.1008371502907,2366
541.4230722883866,2320
543.744670471698,2284
546.0656319143858,2244
548.3859568306899,2228
550.7056454349294,2235
553.0246979415016,2132
555.3431145648834,2111
557.6608955196306,2153
559.978041020377,2189
562.2945512818363,2081
564.6104265188006,2152
566.9256669461412,2213
569.2402727788082,2201
571.5542442318302,2213
573.8675815203156,2221
576.1802848594508,2164
578.4923544645015,2191
580.8037905508126,2291
583.114593333807,2224
585.4247630289875,2227
587.7342998519354,2205
590.0432040183106,2209
592.3514757438526,2261
594.6591152443794,2214
596.9661227357875,2213
599.2724984340531,2305
601.578242555231,2245
603.8833553154542,2178
606.1878369309362,2237
608.4916876179676,2217
610.7949075929192,2232
613.0974970722403,2158
615.3994562724587,2155
617.7007854101818,2257
620.0014847020951,2170
622.3015543649641,2218
624.6009946156324,2184
626.8998056710224,2177
629.1979877481361,2168
631.4955410640538,2224
633.7924658359349,2226
636.0887622810175,2302
638.3844306166192,2208
640.6794710601358,2218
642.9738838290426,2231
645.2676691408932,2295
647.5608272133207,2270
649.853358264037,2223
652.1452625108324,2207
654.4365401715764,2248
656.7271914642178,2224
659.0172166067838,2375
661.3066158173809,2278
663.5953893141935,2190
665.8835373154867,2249
668.1710600396028,2208
670.4579577049639,2175
672.7442305300709,2282
675.0298787335033,2221
677.3149025339197,2216
679.599302150058,2239
681.8830778007342,2199
684.1662297048437,2232
686.4487580813608,2182
688.7306631493387,2192
691.0119451279091,2201
693.2926042362834,2173
695.5726406937516,2274
697.8520547196814,2166
700.1308465335215,2162
702.4090163547982,2200
704.6865644031171,2147
706.9634908981619,2139
709.2397960596965,2098
711.5154801075631,2262
713.7905432616823,2264
716.0649857420548,2241
718.3388077687592,2136
720.612009561953,2188
722.8845913418733,2196
725.1565533288352,2234
727.427895743234,2229
729.6986188055427,2251
731.9687227363137,2174
734.238207756178,2187
736.5070740858458,2229
738.7753219461066,2182
741.0429515578281,2131
743.3099631419569,2222
745.5763569195191,2273
747.8421331116193,2187
750.1072919394409,2203
752.3718336242467,2204
754.6357583873777,2218
756.8990664502545,2173
759.1617580343765,2168
761.423833361321,2096
763.6852926527457,2241
765.9461361303862,2262
768.206364016058,2257
770.4659765316536,2190
772.7249738991469,2189
774.9833563405886,2152
777.2411240781092,2279
779.4982773339183,2213
781.7548163303044,2261
784.010741289634,2236
786.2660524343538,2327
788.5207499869881,2256
790.7748341701416,2182
793.0283052064964,2192
795.2811633188143,2257
797.5334087299362,2271
799.7850416627813,2261
802.0360623403484,2215
804.2864709857143,2180
806.5362678220353,2239
808.7854530725468,2228
811.0340269605625,2248
813.2819897094754,2227
815.5293415427581,2279
817.77608268396,2239
820.0222133567116,2192
822.2677337847211,2272
824.5126441917765,2312
826.7569448017433,2253
829.0006358385675,2292
831.2437175262731,2274
833.4861900889629,2188
835.7280537508192,2161
837.9693087361026,2229
840.2099552691533,2212
842.4499935743896,2242
844.689423876309,2228
846.9282463994886,2282
849.1664613685833,2231
851.4040690083276,2244
853.6410695435349,2263
855.877463199097,2195
858.1132501999847,2233
860.3484307712487,2215
862.5830051380175,2313
864.8169735254988,2343
867.0503361589791,2318
869.2830932638243,2340
871.5152450654786,2327
873.7467917894654,2354
875.9777336613873,2235
878.2080709069252,2296
880.4378037518389,2289
882.666932421968,2248
884.8954571432301,2319
887.1233781416219,2327
889.3506956432192,2385
891.5774098741766,2379
893.803521060728,2339
896.0290294291852,2322
898.2539352059397,2347
900.4782386174619,2328
902.7019398903011,2347
904.925039251085,2423
907.147536926521,2312
909.3694331433943,2376
911.59072812857,2338
913.8114221089921,2267
916.0315153116827,2288
918.2510079637437,2301
920.4699002923547,2295
922.6881925247761,2247
924.905884888345,2325
927.1229776104793,2323
929.3394709186747,2267
931.555365040506,2299
933.7706602036275,2250
935.9853566357709,2219
938.1994545647489,2291
940.4129542184515,2355
942.6258558248488,2325
944.8381596119883,2250
947.0498658079974,2292
949.2609746410825,2249
951.4714863395287,2220
953.6814011316998,2281
955.8907192460387,2227
958.0994409110671,2247
960.3075663553858,2161
962.5150958076741,2331
964.7220294966913,2188
966.928367651274,2167
969.1341105003388,2124
971.3392582728806,2089
973.5438111979742,2205
975.747769504772,2194
977.9511334225061,2138
980.153903180487,2171
982.3560790081052,2150
984.5576611348289,2073
986.7586497902058,2032
988.9590452038618,2085
991.158847605503,2075
993.3580572249133,2049
995.5566742919558,2030
997.7546990365728,2014
999.952131688785,1965
1002.1489724786926,1945
1004.3452216364743,1939
1006.5408793923874,1890
1008.7359459767691,1926
1010.9304216200343,1955
1013.1243065526781,1852
1015.3176010052733,1893
1017.510305208472,1832
1019.7024193930064,1891
1021.8939437896848,1919
1024.0848786293977,1885
1026.2752241431122,1859
1028.4649805618747,1932
1030.6541481168115,1791
1032.842727039127,1885
1035.0307175601051,1878
1037.2181199111074,1871
1039.4049343235752,1810
1041.591161029029,1862
1043.7768002590683,1911
1045.9618522453698,1864
1048.1463172196918,1806
1050.3301954138697,1825
1052.513487059818,1840
1054.69619238953,1861
1056.8783116350783,1883
1059.0598450286152,1856
1061.2407928023704,1903
1063.4211551886528,1802
1065.6009324198508,1808
1067.780124728432,1817
1069.9587323469414,1870
1072.1367555080046,1779
1074.314194444325,1771
1076.4910493886855,1734
1078.667320573947,1712
1080.843008233051,1781
1083.0181125990161,1782
1085.1926339049414,1779
1087.3665723840027,1773
1089.5399282694575,1776
1091.7127017946405,1752
1093.8848931929647,1765
1096.0565026979243,1782
1098.2275305430899,1761
1100.3979769621128,1741
1102.567842188722,1734
1104.737126456726,1742
1106.9058300000124,1709
1109.0739530525475,1697
1111.2414958483764,1699
1113.4084586216231,1721
1115.5748416064907,1671
1117.7406450372605,1740
1119.9058691482942,1739
1122.0705141740304,1681
1124.2345803489884,1745
1126.3980679077658,1706
1128.5609770850388,1658
1130.7233081155623,1714
1132.8850612341707,1697
1135.0462366757774,1681
1137.2068346753745,1706
1139.3668554680326,1706
1141.526299288901,1650
1143.68516637321,1660
1145.8434569562655,1643
1148.001171273455,1668
1150.158309560244,1636
1152.3148720521767,1727
1154.470858984876,1635
1156.626270594044,1638
1158.7811071154629,1703
1160.9353687849912,1698
1163.089055838569,1697
1165.242168512213,1788
1167.3947070420209,1719
1169.5466716641677,1627
1171.6980626149075,1640
1173.8488801305748,1645
1175.9991244475814,1665
1178.1487958024186,1639
1180.2978944316555,1684
1182.4464205719428,1718
1184.5943744600072,1629
1186.7417563326567,1606
1188.8885664267755,1668
1191.0348049793297,1587
1193.1804722273619,1608
1195.325568407995,1715
1197.4700937584303,1671
1199.614048515948,1661
1201.7574329179074,1707
1203.900247201746,1609
1206.042491604982,1667
1208.1841663652099,1620
1210.3252717201053,1687
1212.465807907422,1687
1214.6057751649923,1692
1216.7451737307279,1684
1218.8840038426192,1727
1221.0222657387353,1733
1223.1599596572241,1675
1225.2970858363137,1586
1227.4336445143094,1688
1229.5696359295966,1667
1231.705060320639,1635
1233.8399179259786,1708
1235.9742089842384,1738
1238.107933734118,1708
1240.2410924143974,1704
1242.373685263935,1682
1244.5057125216676,1692
1246.6371744266116,1694
1248.7680712178621,1736
1250.898403134593,1760
1253.028170416058,1716
1255.1573733015875,1753
1257.2860120305932,1707
1259.4140868425648,1776
1261.54159797707,1766
1263.6685456737569,1744
1265.7949301723515,1780
1267.9207517126597,1787
1270.046010534565,1758
1272.1707068780306,1760
1274.2948409830983,1787
1276.4184130898889,1762
1278.541423438603,1780
1280.6638722695184,1765
1282.785759822993,1840
1284.9070863394636,1778
1287.0278520594447,1789
1289.1480572235314,1873
1291.2677020723963,1800
1293.3867868467923,1761
1295.5053117875495,1775
1297.623277135579,1827
1299.740683131868,1842
1301.8575300174857,1799
1303.973818033578,1833
1306.0895474213703,1838
1308.2047184221678,1788
1310.3193312773528,1839
1312.4333862283888,1864
1314.5468835168163,1888
1316.659823384255,1908
1318.7722060724045,1873
1320.8840318230418,1937
1322.9953008780249,1867
1325.1060134792888,1833
1327.2161698688478,1878
1329.3257702887959,1928
1331.4348149813054,1848
1333.5433041886276,1894
1335.6512381530933,1888
1337.7586171171101,1826
1339.8654413231675,1856
1341.9717110138317,1836
1344.0774264317488,1815
1346.1825878196432,1820
1348.2871954203192,1864
1350.3912494766587,1878
1352.4947502316231,1930
1354.5976979282532,1894
1356.7000928096686,1857
1358.8019351190665,1862
1360.9032250997243,1857
1363.0039629949988,1891
1365.1041490483235,1921
1367.2037835032133,1922
1369.3028666032606,1837
1371.401398592137,1876
1373.4993797135926,1914
1375.5968102114575,1871
1377.6936903296396,1931
1379.7900203121262,1858
1381.8858004029835,1901
1383.9810308463561,1871
1386.075711886469,1913
1388.1698437676241,1927
1390.2634267342032,1945
1392.356461030667,2063
1394.4489469015557,1952
1396.5408845914872,1936
1398.6322743451592,1964
1400.7231164073469,2000
1402.813411022907,1989
1404.903158436773,1967
1406.9923588939578,2013
1409.0810126395531,1991
1411.1691199187303,2110
1413.2566809767386,2067
1415.343696058907,2054
1417.4301654106425,2072
1419.5160892774315,2056
1421.6014679048399,2064
1423.6863015385125,2110
1425.7705904241707,2222
1427.8543348076178,2170
1429.9375349347342,2172
1432.0201910514802,2093
1434.102303403894,2230
1436.1838722380944,2217
1438.2648978002767,2319
1440.3453803367174,2252
1442.4253200937692,2283
1444.5047173178677,2324
1446.5835722555234,2351
1448.6618851533285,2393
1450.739656257952,2413
1452.8168858161434,2510
1454.8935740747306,2520
1456.96972128062,2596
1459.045327680797,2603
1461.120393522327,2588
1463.1949190523528,2737
1465.2689045180973,2735
1467.3423501668608,2800
1469.415256246024,2751
1471.4876230030463,2915
1473.559450685465,3013
1475.6307395408976,2957
1477.7014898170391,3013
1479.771701761665,3086
1481.8413756226287,3139
1483.9105116478618,3292
1485.9791100853772,3137
1488.0471711832643,3275
1490.1146951896926,3356
1492.1816823529098,3287
1494.2481329212433,3374
1496.3140471430984,3362
1498.3794252669609,3573
1500.4442675413939,3510
1502.5085742150404,3664
1504.572345536622,3626
1506.6355817549388,3714
1508.6982831188702,3650
1510.7604498773744,3762
1512.8220822794883,3726
1514.8831805743293,3868
1516.9437450110909,3830
1519.003775839048,3897
1521.0632733075522,3986
1523.1222376660367,4083
1525.1806691640113,4043
1527.2385680510652,4060
1529.2959345768668,4104
1531.3527689911643,4244
1533.4090715437833,4271
1535.4648424846291,4316
1537.5200820636855,4370
1539.5747905310159,4560
1541.6289681367616,4584
1543.6826151311434,4598
1545.7357317644614,4709
1547.7883182870937,4585
1549.8403749494987,4853
1551.8919020022113,5054
1553.9428996958477,5123
1555.9933682811015,5094
1558.0433080087469,5183
1560.0927191296346,5263
1562.1416018946961,5478
1564.1899565549415,5453
1566.2377833614592,5502
1568.2850825654164,5336
1570.3318544180606,5161
1572.3780991707158,5073
1574.423817074788,4842
1576.4690083817595,4617
1578.5136733431923,4427
1580.5578122107272,4260
1582.601425236085,3790
1584.6445126710646,3848
1586.6870747675434,3541
1588.7291117774776,3411
1590.7706239529034,3284
1592.8116115459347,3100
1594.8520748087658,2919
1596.8920139936686,2766
1598.9314293529933,2729
1600.9703211391711,2516
1603.008689604711,2563
1605.0465350022005,2525
1607.0838575843068,2370
1609.1206576037753,2421
1611.1569353134305,2358
1613.1926909661765,2267
1615.2279248149953,2171
1617.2626371129481,2147
1619.2968281131757,2202
1621.3304980688963,2050
1623.3636472334088,2066
1625.39627586009,2025
1627.428384202396,2030
1629.459972513861,2085
1631.4910410480993,1965
1633.5215900588028,1964
1635.551619799744,1949
1637.5811305247717,1986
1639.6101224878166,1913
1641.6385959428862,1925
1643.6665511440683,1877
1645.693988345528,1880
1647.7209078015112,1901
1649.7473097663405,1835
1651.7731944944203,1930
1653.7985622402307,1892
1655.823413258333,1880
1657.847747803366,1839
1659.8715661300494,1894
1661.8948684931793,1796
1663.9176551476316,1804
1665.9399263483624,1750
1667.9616823504057,1845
1669.982923408873,1839
1672.0036497789574,1830
1674.0238617159293,1839
1676.043559475138,1870
1678.0627433120121,1813
1680.081413482059,1857
1682.0995702408654,1775
1684.117213844096,1849
1686.134344547495,1845
1688.1509626068864,1772
1690.1670682781705,1819
1692.182661817329,1814
1694.1977434804217,1855
1696.2123135235875,1846
1698.226372203043,1820
1700.2399197750851,1852
1702.2529564960905,1875
1704.2654826225112,1850
1706.277498410882,1770
1708.2890041178139,1814
1710.2999999999988,1773
1712.3104863142066,1809
1714.3204633172854,1788
1716.329931266163,1808
1718.3388904178469,1758
1720.3473410294214,1766
1722.3552833580516,1712
1724.3627176609807,1791
1726.3696441955308,1724
1728.3760632191033,1849
1730.3819749891782,1742
1732.3873797633146,1765
1734.3922777991502,1728
1736.3966693544012,1727
1738.4005546868639,1708
1740.4039340544127,1726
1742.406807715001,1768
1744.4091759266616,1758
1746.4110389475054,1731
1748.4123970357223,1685
1750.413250449582,1659
1752.4135994474318,1712
1754.4134442876993,1689
1756.4127852288902,1729
1758.4116225295893,1713
1760.4099564484595,1711
1762.407787244244,1686
1764.405115175764,1712
1766.4019405019203,1667
1768.3982634816916,1621
1770.3940843741357,1651
1772.3894034383907,1623
1774.3842209336717,1631
1776.378537119274,1631
1778.372352254571,1646
1780.3656665990156,1626
1782.3584804121397,1627
1784.3507939535534,1677
1786.3426074829463,1683
1788.3339212600863,1622
1790.3247355448211,1611
1792.3150505970766,1665
1794.3048666768573,1573
1796.2941840442477,1571
1798.2830029594106,1611
1800.2713236825884,1661
1802.2591464741004,1593
1804.2464715943465,1667
1806.2332993038058,1671
1808.2196298630352,1615
1810.2054635326708,1675
1812.190800573428,1621
1814.175641246101,1581
1816.1599858115628,1570
1818.1438345307652,1651
1820.127187664738,1634
1822.1100454745924,1630
1824.092408221516,1604
1826.0742761667766,1694
1828.055649571721,1686
1830.0365286977735,1631
1832.0169138064398,1612
1833.9968051593014,1614
1835.9762030180214,1608
1837.9551076443408,1591
1839.9335193000788,1503
1841.9114382471344,1620
1843.888864747485,1552
1845.8657990631878,1614
1847.842241456378,1555
1849.8181921892697,1559
1851.7936515241558,1601
1853.7686197234098,1509
1855.7430970494815,1586
1857.7170837649014,1602
1859.6905801322787,1595
1861.6635864143004,1584
1863.6361028737338,1636
1865.608129773424,1573
1867.5796673762961,1575
1869.5507159453537,1581
1871.521275743678,1559
1873.4913470344313,1593
1875.4609300808534,1592
1877.4300251462632,1618
1879.3986324940588,1685
1881.366752387717,1569
1883.3343850907936,1610
1885.3015308669228,1557
1887.268189979819,1600
1889.2343626932739,1606
1891.2000492711595,1613
1893.1652499774254,1618
1895.1299650761011,1649
1897.0941948312952,1667
1899.0579395071945,1632
1901.0211993680641,1652
1902.98397467825,1627
1904.9462657021745,1652
1906.9080727043415,1654
1908.869395949332,1573
1910.8302357018065,1640
1912.790592226504,1591
1914.7504657882428,1623
1916.7098566519212,1573
1918.6687650825133,1597
1920.6271913450764,1582
1922.5851357047422,1584
1924.5425984267245,1541
1926.499579776314,1545
1928.4560800188833,1629
1930.4120994198802,1590
1932.367638244833,1572
1934.32269675935,1567
1936.2772752291175,1583
1938.231373919899,1588
1940.1849930975404,1580
1942.1381330279637,1553
1944.0907939771696,1570
1946.0429762112412,1535
1947.9946799963363,1606
1949.9459055986945,1580
1951.896653284633,1571
1953.8469233205478,1558
1955.7967159729142,1596
1957.7460315082863,1528
1959.6948701932974,1524
1961.6432322946594,1537
1963.5911180791632,1549
1965.5385278136787,1532
1967.4854617651545,1562
1969.4319202006182,1558
1971.377903387176,1553
1973.3234115920136,1522
1975.268445082395,1540
1977.2130041256642,1536
1979.1570889892423,1597
1981.1006999406304,1616
1983.04383724741,1580
1984.986501177238,1494
1986.928691997853,1515
1988.8704099770712,1581
1990.811655382789,1511
1992.7524284829801,1553
1994.692729545698,1523
1996.6325588390755,1480
1998.5719166313224,1534
2000.5108031907307,1497
2002.4492187856677,1501
2004.387163684583,1457
2006.3246381560011,1540
2008.2616424685298,1482
2010.1981768908527,1510
2012.1342416917332,1493
2014.069837140014,1496
2016.0049635046162,1466
2017.9396210545406,1541
2019.8738100588666,1453
2021.8075307867502,1518
2023.740783507431,1428
2025.6735684902228,1453
2027.6058860045214,1510
2029.5377363198004,1492
2031.4691197056118,1490
2033.4000364315875,1459
2035.3304867674374,1559
2037.260470982952,1485
2039.189989347998,1472
2041.1190421325232,1460
2043.047629606554,1489
2044.9757520401945,1395
2046.9034097036288,1477
2048.8306028671195,1473
2050.7573318010086,1510
2052.683596775716,1560
2054.609398061742,1509
2056.5347359296647,1473
2058.4596106501403,1490
2060.384022493906,1414
2062.3079717317764,1445
2064.231458634646,1422
2066.1544834734873,1439
2068.077046519352,1507
2069.99914804337,1482
2071.9207883167524,1493
2073.8419676107865,1495
2075.7626861968406,1497
2077.6829443463607,1520
2079.6027423308715,1491
2081.522080421977,1422
2083.440958891362,1513
2085.359378010786,1457
2087.2773380520907,1419
2089.194839287196,1449
2091.111881988101,1449
2093.0284664268825,1489
2094.9445928756973,1505
2096.86026160678,1500
2098.775472892446,1488
2100.690227005088,1469
2102.604524217178,1468
2104.5183648012676,1507
2106.431749029985,1495
2108.34467717604,1521
2110.2571495122206,1508
2112.169166311393,1522
2114.080727846503,1469
2115.9918343905747,1450
2117.902486216711,1460
2119.8126835980956,1502
2121.722426807987,1489
2123.6317161197285,1516
2125.5405518067364,1500
2127.448934142509,1516
2129.356863400624,1503
2131.264339854737,1480
2133.1713637785815,1531
2135.077935445972,1510
2136.9840551308002,1501
2138.889723107037,1558
2140.7949396487334,1518
2142.699705030018,1482
2144.6040195250994,1570
2146.507883408264,1503
2148.4112969538774,1522
2150.3142604363848,1516
2152.2167741303097,1576
2154.1188383102535,1519
2156.0204532508997,1540
2157.9216192270064,1487
2159.822336513414,1592
2161.7226053850413,1563
2163.622426116884,1573
2165.5217989840185,1566
2167.4207242616,1582
2169.319202224862,1523
2171.2172331491165,1510
2173.1148173097563,1492
2175.0119549822507,1623
2176.90864644215,1665
2178.8048919650823,1569
2180.7006918267534,1598
2182.596046302952,1631
2184.4909556695407,1558
2186.3854202024645,1596
2188.279440177746,1566
2190.173015871487,1593
2192.066147559868,1604
2193.958835519149,1603
2195.851080025667,1607
2197.7428813558417,1581
2199.6342397861667,1588
2201.5251555932186,1645
2203.415629053651,1604
2205.3056604441986,1590
2207.19525004167,1620
2209.084398122958,1670
2210.9731049650327,1639
2212.861370844941,1683
2214.749196039812,1620
2216.636580826851,1683
2218.523525483344,1671
2220.410030286655,1662
2222.296095514226,1608
2224.1817214435805,1605
2226.066908352319,1626
2227.951656518121,1582
2229.835966218746,1624
2231.71983773203,1630
2233.6032713358913,1659
2235.486267308324,1672
2237.3688259274036,1603
2239.2509474712824,1592
2241.132632218193,1571
2243.013880446447,1643
2244.8946924344323,1670
2246.7750684606203,1628
2248.6550088035574,1629
2250.534513741871,1593
2252.413583554265,1659
2254.292218519526,1705
2256.170418916517,1583
2258.0481850241786,1573
2259.925517121534,1622
2261.8024154876825,1622
2263.678880401803,1617
2265.5549121431536,1652
2267.430510991071,1659
2269.305677224971,1622
2271.180411124348,1659
2273.0547129687766,1646
2274.9285830379076,1604
2276.8020216114737,1586
2278.6750289692845,1560
2280.5476053912294,1653
2282.4197511572766,1536
2284.2914665474727,1698
2286.162751841943,1721
2288.0336073208937,1712
2289.904033264608,1691
2291.774029953448,1706
2293.6435976678554,1717
2295.5127366883517,1633
2297.381447295534,1611
2299.2497297700825,1548
2301.1175843927526,1550
2302.9850114443825,1542
2304.852011205885,1505
2306.7185839582553,1443
2308.5847299825664,1449
2310.4504495599676,1379
2312.3157429716925,1385
2314.1806104990483,1426
2316.0450524234247,1437
2317.9090690262888,1369
2319.772660589186,1361
2321.635827393742,1362
2323.498569721661,1378
2325.3608878547248,1407
2327.2227820747967,1388
2329.0842526638157,1391
2330.945299903803,1397
2332.805924076857,1362
2334.6661254651535,1377
2336.525904350951,1407
2338.3852610165827,1369
2340.244195744464,1397
2342.102708817088,1373
2343.9608005170253,1410
2345.8184711269287,1353
2347.675720929526,1343
2349.532550207628,1338
2351.38895924412,1398
2353.24494832197,1428
2355.100517724223,1360
2356.955667734004,1347
2358.810398634514,1433
2360.664710709037,1383
2362.5186042409337,1396
2364.3720795136437,1447
2366.225136810686,1441
2368.0777764156583,1428
2369.929998612237,1457
2371.7818036841777,1405
2373.633191915315,1375
2375.484163589562,1449
2377.3347189909114,1434
2379.184858403434,1383
2381.03458211128,1435
2382.8838903986775,1473
2384.732783549936,1406
2386.5812618494406,1419
2388.4293255816588,1443
2390.2769750311327,1411
2392.1242104824883,1472
2393.971032220427,1426
2395.8174405297295,1447
2397.6634356952563,1432
2399.509018001947,1425
2401.3541877348193,1441
2403.1989451789705,1448
2405.043290619576,1414
2406.8872243418905,1435
2408.730746631247,1422
2410.5738577730594,1411
2412.4165580528183,1414
2414.258847756095,1433
2416.100727168537,1422
2417.9421965758734,1424
2419.783256263912,1498
2421.623906518538,1471
2423.4641476257157,1452
2425.303979871491,1483
2427.143403541984,1459
2428.9824189233977,1463
2430.821026302012,1455
2432.6592259641866,1414
2434.497018196361,1434
2436.33440328505,1502
2438.171381516851,1489
2440.00795317844,1396
2441.844118556569,1480
2443.6798779380724,1439
2445.5152316098606,1476
2447.3501798589255,1404
2449.1847229723357,1477
2451.0188612372403,1450
2452.8525949408663,1455
2454.6859243705203,1471
2456.518849813587,1457
2458.3513715575314,1450
2460.183489889895,1435
2462.015205098301,1464
2463.8465174704493,1470
2465.67742729412,1459
2467.5079348571717,1492
2469.338040447542,1452
2471.1677443532476,1454
2472.9970468623833,1453
2474.825948263123,1446
2476.6544488437207,1491
2478.482548892508,1443
2480.310248697896,1438
2482.137548548374,1448
2483.9644487325118,1421
2485.790949538956,1437
2487.617051256433,1475
2489.44275417375,1534
2491.26805857979,1482
2493.0929647635157,1551
2494.917473013971,1499
2496.741583620276,1528
2498.5652968716304,1443
2500.3886130573137,1553
2502.2115324666834,1491
2504.0340553891765,1540
2505.856182114308,1532
2507.6779129316733,1550
2509.499248130945,1537
2511.3201880018764,1514
2513.140732834298,1545
2514.9608829181198,1502
2516.780638543331,1519
2518.6,1592
2520.418967578273,1521
2522.237541568376,1626
2524.0557222606144,1594
2525.8735099453706,1579
2527.6909049131086,1573
2529.507907454368,1527
2531.32451785977,1544
2533.140736420014,1569
2534.9565634258774,1664
2536.771999168218,1645
2538.5870439379714,1689
2540.4016980261526,1690
2542.2159617238544,1695
2544.02983532225,1700
2545.8433191125914,1587
2547.656413386209,1656
2549.4691184345115,1601
2551.2814345489874,1720
2553.093362021204,1753
2554.904901142808,1692
2556.716052205523,1763
2558.526815501153,1748
2560.3371913215824,1758
2562.147179958771,1816
2563.956781704761,1769
2565.7659968516705,1818
2567.5748256916986,1852
2569.3832685171224,1850
2571.1913256202984,1850
2572.9989972936614,1818
2574.806283829725,1848
2576.613185521084,1878
2578.4197026604074,1940
2580.2258355404483,1917
2582.031584454035,1901
2583.836949694077,1905
2585.6419315535613,1906
2587.4465303255533,1944
2589.2507463032002,1932
2591.0545797797245,1959
2592.8580310484303,1965
2594.6611004026995,1931
2596.463788135992,2010
2598.266094541849,2037
2600.0680199138874,1963
2601.869564545807,1938
2603.670728731383,1965
2605.4715127644704,1972
2607.2719169390048,1987
2609.071941548998,1971
2610.8715868885433,2020
2612.670853251811,2063
2614.469740933052,2020
2616.268250226594,1960
2618.0663814268455,2028
2619.864134828292,2018
2621.6615107255006,1972
2623.458509413115,1934
2625.2551311858597,1919
2627.0513763385347,1905
2628.8472451660223,1864
2630.6427379632833,1869
2632.4378550253564,1905
2634.232596647359,1891
2636.026963124488,1890
2637.8209547520187,1885
2639.6145718253065,1834
2641.407814639785,1796
2643.200683490966,1864
2644.9931786744414,1873
2646.7853004858807,1804
2648.577049221034,1818
2650.3684251757277,1726
2652.1594286458712,1740
2653.9500599274484,1750
2655.740319316525,1713
2657.5302071092437,1719
2659.3197236018286,1648
2661.10886909058,1656
2662.8976438718782,1698
2664.686048242183,1684
2666.4740824980327,1648
2668.2617469360443,1646
2670.0490418529134,1582
2671.8359675454153,1649
2673.622524310403,1579
2675.408712444811,1506
2677.1945322456495,1653
2678.979984010009,1612
2680.76506803506,1491
2682.5497846180497,1522
2684.334134056306,1465
2686.1181166472343,1534
2687.9017326883213,1530
2689.6849824771293,1474
2691.4678663113013,1471
2693.2503844885596,1496
2695.032537306705,1541
2696.8143250636167,1438
2698.5957480572542,1438
2700.3768065856534,1543
2702.1575009469316,1546
2703.937831439283,1498
2705.717798360982,1427
2707.4974020103837,1478
2709.276642685917,1481
2711.055520686095,1452
2712.834036309506,1375
2714.612189854819,1455
2716.389981620782,1507
2718.1674119062204,1462
2719.944481010041,1384
2721.721189231226,1381
2723.4975368688415,1404
2725.273524222027,1382
2727.0491515900053,1434
2728.824419272075,1447
2730.5993275676146,1401
2732.3738767760838,1412
2734.148067197016,1415
2735.921899130031,1404
2737.6953728748194,1400
2739.468488731156,1410
2741.2412469988926,1401
2743.0136479779617,1399
2744.785691968372,1411
2746.5573792702116,1382
2748.3287101836504,1442
2750.099685008934,1361
2751.870304046388,1377
2753.640567596418,1397
2755.4104759595057,1390
2757.1800294362156,1379
2758.949228327187,1414
2760.7180729331412,1396
2762.486563554877,1387
2764.254700493272,1369
2766.022484049284,1358
2767.789914523947,1340
2769.5569922183786,1419
2771.3237174337705,1403
2773.090090471394,1404
2774.8561116326036,1449
2776.6217812188274,1412
2778.3870995315756,1366
2780.1520668724356,1429
2781.9166835430747,1358
2783.6809498452394,1337
2785.444866080754,1417
2787.2084325515225,1386
2788.971649559527,1359
2790.73451740683,1342
2792.4970363955713,1341
2794.2592068279705,1313
2796.0210290063264,1340
2797.7825032330147,1376
2799.543629810493,1366
2801.304409041296,1360
2803.0648412280366,1380
2804.8249266734088,1380
2806.5846656801846,1371
2808.344058551212,1367
2810.1031055894246,1389
2811.8618070978273,1351
2813.6201633795085,1361
2815.378174737636,1398
2817.1358414754536,1386
2818.893163896285,1353
2820.6501423035334,1347
2822.4067770006814,1328
2824.1630682912883,1353
2825.9190164789957,1346
2827.6746218675207,1371
2829.429884760661,1375
2831.184805462294,1371
2832.9393842763743,1402
2834.693621506936,1396
2836.4475174580916,1344
2838.201072434034,1344
2839.954286739034,1388
2841.707160677441,1362
2843.459694553685,1311
2845.2118886722724,1319
2846.96374333779,1337
2848.7152588549034,1408
2850.4664355283567,1411
2852.217273662973,1379
2853.9677735636546,1370
2855.7179355353833,1434
2857.4677598832186,1367
2859.217246912299,1321
2860.9663969278427,1333
2862.715210235146,1308
2864.4636871395846,1367
2866.211827946614,1357
2867.9596329617652,1356
2869.7071024906536,1304
2871.4542368389684,1336
2873.20103631248,1363
2874.947501217038,1311
2876.6936318585695,1342
2878.4394285430812,1387
2880.1848915766604,1386
2881.9300212654707,1389
2883.6748179157553,1352
2885.4192818338374,1339
2887.1634133261173,1315
2888.907212699077,1334
2890.6506802592744,1350
2892.393816313348,1419
2894.1366211680142,1405
2895.8790951300693,1379
2897.621238506388,1392
2899.363051603925,1377
2901.1045347297118,1344
2902.8456881908596,1248
2904.58651229456,1354
2906.327007348081,1354
2908.067173658772,1331
2909.8070115340597,1380
2911.5465212814497,1345
2913.285703208527,1268
2915.0245576229563,1304
2916.7630848324807,1361
2918.5012851449196,1294
2920.2391588681758,1337
2921.976706310227,1364
2923.7139277791334,1356
2925.4508235830313,1360
2927.187394030137,1328
2928.923639428745,1383
2930.6595600872306,1333
2932.395156314046,1348
2934.1304284177218,1368
2935.8653767068713,1348
2937.6000014901815,1354
2939.3343030764227,1349
2941.068281774442,1322
2942.8019378931644,1409
2944.5352717415976,1333
2946.2682836288236,1373
2948.0009738640065,1411
2949.7333427563885,1352
2951.465390615289,1329
2953.1971177501086,1327
2954.9285244703265,1322
2956.6596110855,1333
2958.3903779052657,1370
2960.1208252393385,1388
2961.8509533975125,1358
2963.5807626896617,1334
2965.3102534257378,1376
2967.0394259157715,1361
2968.768280469873,1296
2970.496817398232,1336
2972.2250370111146,1356
2973.952939618869,1322
2975.6805255319196,1339
2977.4077950607707,1359
2979.134748516006,1404
2980.861386208289,1414
2982.587708448359,1392
2984.313715547037,1329
2986.039407815222,1345
2987.764785563891,1385
2989.489849104102,1329
2991.2145987469908,1296
2992.9390348037705,1312
2994.6631575857346,1304
2996.3869674042576,1359
2998.1104645707887,1346
2999.83364939686,1360
3001.5565221940783,1339
3003.2790832741334,1405
3005.0013329487924,1317
3006.7232715298996,1334
3008.4448993293804,1270
3010.166216659239,1357
3011.887223831558,1311
3013.607921158498,1344
3015.3283089522993,1322
3017.0483875252826,1385
3018.7681571898443,1314
3020.4876182584626,1380
3022.2067710436927,1337
3023.9256158581707,1339
3025.644153014609,1394
3027.362382825801,1392
3029.0803056046193,1374
3030.797921664012,1337
3032.5152313170106,1300
3034.2322348767225,1365
3035.9489326563353,1388
3037.665324969115,1385
3039.3814121284063,1359
3041.097194447633,1404
3042.812672240299,1375
3044.5278458199855,1316
3046.2427155003525,1355
3047.9572815951406,1295
3049.671544418167,1349
3051.38550428333,1409
3053.0991615046073,1407
3054.812516396051,1400
3056.5255692717974,1389
3058.2383204460575,1381
3059.9507702331257,1306
3061.662918947372,1296
3063.3747669032446,1311
3065.0863144152736,1336
3066.7975617980674,1322
3068.508509366309,1333
3070.219157434767,1345
3071.9295063182844,1377
3073.639556331785,1348
3075.3493077902704,1341
3077.058761008821,1351
3078.7679163025964,1381
3080.476773986837,1334
3082.1853343768594,1301
3083.89359778806,1387
3085.6015645359153,1411
3087.3092349359786,1377
3089.016609303884,1356
3090.7236879553434,1374
3092.4304712061476,1359
3094.136959372166,1357
3095.843152769349,1351
3097.5490517137237,1336
3099.2546565213966,1367
3100.959967508554,1424
3102.66498499146,1382
3104.3697092864577,1366
3106.0741407099695,1329
3107.778279578498,1356
3109.482126208622,1389
3111.1856809170004,1362
3112.8889440203716,1340
3114.5919158355528,1399
3116.294596679439,1382
3117.996986869006,1302
3119.6990867213062,1354
3121.4008965534726,1399
3123.102416682717,1394
3124.803647426329,1372
3126.5045891016784,1383
3128.205242026213,1373
3129.90560651746,1376
3131.605682893025,1371
3133.3054714705922,1377
3135.0049725679282,1410
3136.7041865028714,1309
3138.4031135933465,1377
3140.101754157353,1379
3141.800108512971,1387
3143.498176978357,1409
3145.1959598717494,1363
3146.8934575114636,1335
3148.5906702158954,1362
3150.2875983035183,1394
3151.9842420928853,1372
3153.680601902627,1335
3155.376678051456,1416
3157.07247085816,1384
3158.767980641609,1371
3160.463207720748,1375
3162.158152414606,1329
3163.8528150422862,1300
3165.5471959229726,1395
3167.2412953759303,1354
3168.9351137204976,1361
3170.628651276098,1402
3172.3219083622307,1329
3174.014885298474,1350
3175.707582404485,1362
3177.4000000000005,1287
3179.092138404835,1362
3180.7839979388846,1376
3182.47557892212,1347
3184.166881674594,1367
3185.8579065164386,1372
3187.5486537678626,1325
3189.2391237491547,1421
3190.9293167806827,1377
3192.6192331828934,1286
3194.3088732763117,1316
3195.998237381542,1307
3197.687325819268,1255
3199.376138910251,1340
3201.064676975334,1380
3202.7529403354347,1288
3204.4409293115523,1301
3206.1286442247647,1308
3207.816085396229,1288
3209.5032531471825,1373
3211.190147798936,1333
3212.8767696728846,1309
3214.5631190905015,1294
3216.2491963733373,1332
3217.9350018430214,1300
3219.6205358212637,1324
3221.305798629851,1329
3222.990790590651,1260
3224.6755120256103,1272
3226.359963256751,1258
3228.0441446061795,1321
3229.7280563960758,1302
3231.411698948703,1360
3233.0950725863995,1274
3234.778177631587,1340
3236.461014406761,1254
3238.1435832345005,1350
3239.8258844374595,1342
3241.507918338374,1298
3243.1896852600576,1310
3244.8711855254023,1316
3246.552419457381,1324
3248.233387379042,1329
3249.914089613516,1318
3251.59452648401,1320
3253.274698313813,1334
3254.95460542629,1331
3256.6342481448855,1327
3258.313626793125,1303
3259.9927416946084,1268
3261.6715931730196,1273
3263.3501815521176,1235
3265.0285071557437,1290
3266.706570307815,1275
3268.3843713323286,1297
3270.0619105533615,1258
3271.739188295068,1322
3273.4162048816834,1323
3275.0929606375184,1310
3276.769455886966,1283
3278.445690954498,1336
3280.1216661646613,1322
3281.797381842087,1369
3283.4728383114807,1238
3285.1480358976296,1338
3286.8229749253996,1326
3288.4976557197333,1326
3290.172078605655,1323
3291.846243908266,1303
3293.5201519527463,1311
3295.193803064357,1293
3296.8671975684374,1278
3298.5403357904024,1300
3300.21321805575,1306
3301.8858446900567,1286
3303.558216018975,1296
3305.23033236824,1297
3306.9021940636603,1284
3308.57380143113,1309
3310.2451547966184,1270
3311.916254486174,1305
3313.5871008259246,1346
3315.2576941420766,1288
3316.9280347609147,1367
3318.5981230088046,1308
3320.2679592121895,1270
3321.9375436975924,1307
3323.606876791612,1311
3325.27595882093,1307
3326.944790112305,1291
3328.6133709925753,1303
3330.2817017886573,1271
3331.949782827547,1317
3333.617614436319,1315
3335.2851969421245,1276
3336.952530672199,1341
3338.619615953853,1356
3340.286453114475,1291
3341.9530424815357,1325
3343.619384382583,1350
3345.2854791452437,1366
3346.951327097224,1333
3348.6169285663073,1308
3350.2822838803577,1277
3351.947393367319,1302
3353.61225735521,1352
3355.2768761721345,1290
3356.9412501462693,1236
3358.605379605873,1316
3360.2692648792827,1320
3361.9329062949146,1317
3363.596304181263,1283
