CollectionTime,7/9/2024 11:21:25 AM
ExposureUsed,3
CalibratedSpectrum
-962.7078968117929,594
-959.9714848408522,599
-957.2358232597828,606
-954.5009119013725,617
-951.7667505983302,609
-949.0333391832855,621
-946.3006774887896,624
-943.5687653473143,614
-940.837602591253,584
-938.1071890529199,563
-935.3775245645503,601
-932.6486089583007,619
-929.9204420662485,616
-927.1930237203925,630
-924.4663537526524,611
-921.7404319948689,645
-919.0152582788041,636
-916.2908324361409,676
-913.5671542984834,647
-910.8442236973568,633
-908.1220404642074,569
-905.4006044304027,632
-902.679915427231,642
-899.959973285902,610
-897.2407778375464,629
-894.5223289132158,629
-891.8046263438832,608
-889.0876699604426,608
-886.3714595937089,582
-883.6559950744183,576
-880.9412762332282,639
-878.2273029007168,604
-875.5140749073835,612
-872.8015920836489,604
-870.0898542598545,608
-867.3788612662631,601
-864.6686129330585,606
-861.9591090903457,618
-859.2503495681506,630
-856.5423341964203,595
-853.8350628050229,590
-851.1285352237478,618
-848.4227512823054,603
-845.7177108103272,594
-843.0134136373656,588
-840.3098595928943,591
-837.6070485063082,606
-834.9049802069229,614
-832.2036545239757,590
-829.5030712866244,591
-826.8032303239481,587
-824.1041314649472,608
-821.4057745385428,632
-818.7081593735775,601
-816.0112857988148,578
-813.3151536429393,587
-810.6197627345566,610
-807.9251129021936,602
-805.2312039742981,617
-802.5380357792392,634
-799.8456081453069,656
-797.1539209007124,622
-794.462973873588,626
-791.772766891987,617
-789.083299783884,633
-786.3945723771743,625
-783.7065844996748,633
-781.0193359791231,615
-778.3328266431781,600
-775.6470563194197,600
-772.9620248353489,577
-770.2777320183878,611
-767.5941776958798,616
-764.9113616950891,652
-762.2292838432011,638
-759.5479439673222,647
-756.8673418944801,630
-754.1874774516235,619
-751.5083504656222,612
-748.8299607632671,670
-746.15230817127,653
-743.475392516264,647
-740.7992136248035,664
-738.1237713233636,661
-735.4490654383407,663
-732.7750957960521,641
-730.1018622227365,656
-727.4293645445534,670
-724.7576025875837,702
-722.0865761778291,705
-719.4162851412126,654
-716.7467293035781,676
-714.0779084906909,675
-711.409822528237,690
-708.7424712418238,653
-706.0758544569796,689
-703.4099719991541,709
-700.7448236937178,689
-698.0804093659622,700
-695.4167288411002,698
-692.7537819442656,721
-690.0915685005134,700
-687.4300883348199,692
-684.7693412720819,686
-682.1093271371178,673
-679.4500457546669,684
-676.7914969493897,712
-674.1336805458676,719
-671.4765963686034,736
-668.8202442420206,718
-666.1646239904642,691
-663.5097354382001,709
-660.8555784094151,688
-658.2021527282176,751
-655.5494582186366,704
-652.8974947046223,758
-650.2462620100463,737
-647.5957599587009,721
-644.9459883742998,745
-642.2969470804776,770
-639.6486359007902,762
-637.0010546587141,743
-634.3542031776476,709
-631.7080812809096,767
-629.0626887917401,747
-626.4180255333008,771
-623.7740913286734,747
-621.1308860008619,739
-618.4884093727904,712
-615.8466612673046,756
-613.2056415071715,711
-610.5653499150785,745
-607.9257863136347,732
-605.28695052537,734
-602.6488423727357,765
-600.0114616781036,746
-597.3748082637674,753
-594.7388819519412,743
-592.1036825647604,755
-589.4692099242818,822
-586.8354638524829,785
-584.2024441712624,768
-581.5701507024403,761
-578.9385832677575,788
-576.3077416888759,785
-573.6776257873787,749
-571.0482353847704,748
-568.4195703024757,781
-565.7916303618415,779
-563.164415384135,795
-560.5379251905453,750
-557.9121596021815,739
-555.2871184400748,793
-552.6628015251767,788
-550.0392086783606,729
-547.4163397204204,761
-544.794194472071,762
-542.1727727539491,807
-539.5520743866118,795
-536.9320991905377,827
-534.3128469861261,818
-531.6943175936979,849
-529.0765108334947,889
-526.4594265256793,931
-523.8430644903358,1030
-521.2274245474689,1088
-518.612506517005,1199
-515.9983102187913,1153
-513.3848354725959,1169
-510.77208209810846,1205
-508.16004991493924,1272
-505.5487387426199,1400
-502.9381484006032,1595
-500.3282787082628,1596
-497.71912948489364,1536
-495.1107005497117,1555
-492.5029917218539,1371
-489.8960028203786,1241
-487.28973366426493,1142
-484.68418407241325,1046
-482.07935386364494,1012
-479.47524285670266,982
-476.87185087025,952
-474.2691777228715,946
-471.66722323307334,968
-469.0659872192821,970
-466.4654694998459,1022
-463.86566989303384,961
-461.26658821703614,971
-458.66822428996414,967
-456.07057792985,996
-453.4736489546475,990
-450.877437182231,962
-448.28194243039627,959
-445.68716451686,939
-443.09310325926003,966
-440.49975847515555,944
-437.9071299820263,916
-435.31521759727354,962
-432.72402113821954,980
-430.13354042210767,963
-427.5437752661022,984
-424.95472548728867,1031
-422.36639090267386,984
-419.7787713291855,1098
-417.1918665836721,1143
-414.60567648290385,1066
-412.0202008435715,1046
-409.4354394822874,1023
-406.8513922155845,1094
-404.26805885991723,1082
-401.685439231661,1083
-399.103533147112,1090
-396.522340422488,1064
-393.9418608739278,1038
-391.3620943174908,1041
-388.7830405691583,1020
-386.2046994448317,957
-383.6270707603344,933
-381.05015433141045,888
-378.473949973725,842
-375.8984575028645,787
-373.32367673433623,721
-370.74960748356875,687
-368.1762495659117,696
-365.60360279663576,591
-363.03166699093265,529
-360.4604419639154,511
-357.8899275306178,486
-355.32012350599507,492
-352.7510297049233,463
-350.1826459421999,486
-347.61497203254316,472
-345.04800779059235,466
-342.4817530309082,447
-339.91620756797226,464
-337.35137121618743,490
-334.7872437898774,527
-332.22382510328725,516
-329.66111497058273,478
-327.09911320585127,486
-324.53781962310075,524
-321.9772340362607,498
-319.4173562591816,468
-316.8581861056348,482
-314.2997233893127,474
-311.7419679238294,491
-309.1849195227194,468
-306.62857799943856,511
-304.0729431673641,539
-301.51801483979375,574
-298.963792829947,542
-296.41027695096386,529
-293.85746701590574,557
-291.3053628377552,516
-288.7539642294155,527
-286.2032710037115,552
-283.65328297338897,508
-281.1039999511146,558
-278.5554217494762,574
-276.007548180983,571
-273.4603790580651,598
-270.9139141930734,566
-268.3681533982807,559
-265.8230964858798,591
-263.27874326798565,591
-260.7350935566336,566
-258.1921471637804,602
-255.6499039013039,606
-253.10836358100266,608
-250.56752601459698,589
-248.02739101372765,613
-245.48795838995704,630
-242.94922795476816,571
-240.41119951956557,589
-237.8738728956746,650
-235.33724789434166,683
-232.80132432673452,658
-230.2661020039418,615
-227.73158073697357,619
-225.19776033676033,638
-222.66464061415422,717
-220.1322213799284,620
-217.60050244477725,639
-215.06948361931552,662
-212.53916471408013,684
-210.00954553952818,700
-207.48062590603843,684
-204.9524056239104,683
-202.4248845033651,759
-199.8980623545441,759
-197.37193898751036,766
-194.84651421224817,732
-192.32178783866232,723
-189.79775967657952,756
-187.27442953574644,814
-184.7517972258321,793
-182.2298625564256,739
-179.7086253370378,705
-177.18808537710026,769
-174.66824248596583,817
-172.14909647290835,846
-169.6306471471229,848
-167.11289431772548,820
-164.59583779375328,786
-162.07947738416453,753
-159.5638128978386,880
-157.04884414357605,1037
-154.53457093009854,1176
-152.02099306604828,1162
-149.50811035998936,944
-146.99592262040665,860
-144.48442965570587,857
-141.97363127421409,930
-139.46352728417958,1060
-136.95411749377126,1203
-134.44540171107985,1160
-131.93737974411636,930
-129.43005140081357,891
-126.92341648902493,1152
-124.41747481652521,1349
-121.91222619101006,1548
-119.40767042009657,1930
-116.90380731132257,2141
-114.40063667214702,2262
-111.8981583099503,1883
-109.3963720320337,1506
-106.89527764561933,1388
-104.39487495785067,1568
-101.89516377579241,2133
-99.39614390642998,2361
-96.89781515667039,2851
-94.40017733334128,2968
-91.90323024319173,3552
-89.40697369289148,4486
-86.91140748903172,4997
-84.41653143812482,4964
-81.92234534660395,3610
-79.42884902082358,2602
-76.93604226705907,4136
-74.4439248915071,7191
-71.95249670028534,10770
-69.46175749943245,11663
-66.97170709490854,11724
-64.48234529259423,11232
-61.99367189829195,10068
-59.50568671772464,8685
-57.01838955653636,8820
-54.53178022029283,9401
-52.045858514480074,9412
-49.560624244506016,9604
-47.07607721569923,9559
-44.59221723330904,9703
-42.10904410250669,10009
-39.62655762838392,8763
-37.14475761595372,8963
-34.66364387015028,9712
-32.18321619582866,9534
-29.70347439776515,9974
-27.224418280657005,10504
-24.74604764912317,12012
-22.26836230770266,16412
-19.7913620608565,29092
-17.315046712966478,52927
-14.83941606833514,65040
-12.36446993118659,65040
-9.89020810566592,65040
-7.416630395839093,65040
-4.94373660569363,65040
-2.471526539137585,65040
-6.821210263296962E-13,65040
2.47084320796705,65040
4.941003281093458,65040
7.410480415786196,65040
9.879274808531363,65040
12.347386655893956,65040
14.814816154518212,65040
17.28156350112681,65040
19.74762889252179,65040
22.21301252558385,65040
24.67771459727237,21312
27.141735304626195,4171
29.605074844762612,2351
32.06773341487792,2147
34.52971121224755,2292
36.99100843422559,2046
39.45162527824516,1828
41.91156194181792,1608
44.370818622535126,1488
46.82939551806646,1195
49.287292826160524,1291
51.74451074464503,1349
54.201049471426245,1365
56.65690920448981,1324
59.112090141899785,1189
61.56659248179983,1149
64.02041642241159,1110
66.4735621620365,1025
68.92602989905402,1162
71.37781983192338,1160
73.82893215918205,1207
76.27936707944684,1302
78.72912479141326,1317
81.17820549385567,1251
83.62660938562783,1199
86.07433666566146,1153
88.5213875329681,936
90.96776218663751,1040
93.41346082583925,965
95.85848364982041,938
98.30283085790859,1040
100.7465026495089,1107
103.18949922410604,1021
105.63182078126385,1142
108.07346752062438,1166
110.51443964190923,990
112.95473734491827,905
115.39436082953114,982
117.83331029570547,922
120.27158594347827,976
122.7091879729652,1056
125.1461165843615,1091
127.58237197794062,966
130.01795435405518,934
132.4528639131364,1008
134.88710085569494,983
137.32066538231982,990
139.75355769367923,858
142.1857779905207,883
144.61732647366978,890
147.04820334403132,855
149.47840880258934,945
151.90794305040674,1059
154.33680628862487,1171
156.76499871846443,1238
159.19252054122433,1411
161.61937195828352,1625
164.04555317109896,1812
166.47106438120693,1978
168.89590579022217,2193
171.320077599839,2519
173.7435800118302,2502
176.16641322804742,2564
178.58857745042144,2739
181.01007288096173,2994
183.43089972175687,2902
185.85105817497413,3009
188.27054844285988,2922
190.6893707277394,3000
193.10752523201643,3051
195.5250121581745,3137
197.9418317087751,3060
200.3579840864594,3029
202.7734694939469,3043
205.18828813403627,3170
207.6024402096051,3208
210.01592592360964,3246
212.42874547908548,3150
214.84089907914665,3168
217.2523869269868,3217
219.66320922587727,3110
222.0733661791695,3157
224.48285799029293,3082
226.8916848627572,3118
229.29984700014882,3196
231.7073446061355,3178
234.11417788446204,3110
236.520347038953,3202
238.92585227351185,3273
241.33069379212054,3272
243.73487179884035,3340
246.1383864978112,3501
248.541238093252,3396
250.9434267894609,3387
253.34495279081432,3308
255.74581630176783,3389
258.1460175268563,3409
260.54555667069314,3356
262.9444339379703,3491
265.3426495334594,3367
267.7402036620107,3266
270.1370965285529,3116
272.53332833809407,3016
274.9288992957214,2952
277.32380960660055,2815
279.718059475976,2855
282.1116491091717,2903
284.5045787115897,2826
286.89684848871195,2756
289.2884586460981,2894
291.67940938938807,2828
294.0697009242996,2810
296.4593334566299,2773
298.84830719225477,2642
301.23662233712923,2771
303.6242790972866,2730
306.01127767884,2651
308.39761828798066,2633
310.78330113097934,2574
313.16832641418534,2634
315.5526943440269,2518
317.9364051270112,2539
320.3194589697242,2542
322.70185607883093,2492
325.0835966610754,2609
327.4646809232805,2412
329.8451090723478,2456
332.2248813152577,2381
334.6039978590701,2379
336.9824589109231,2414
339.36026467803447,2387
341.7374153677,2308
344.113911187295,2418
346.48975234427337,2412
348.8649390461686,2264
351.2394715005918,2424
353.61334991523415,2342
355.9865744978655,2332
358.35914545633375,2341
360.73106299856715,2283
363.10232733257146,2274
365.47293866643247,2304
367.84289720831396,2210
370.2122031664593,2237
372.5808567491905,2273
374.9488581649083,2254
377.31620762209275,2257
379.6829053293021,2246
382.0489514951745,2204
384.4143463284262,2175
386.7790900378528,2209
389.14318283232853,2206
391.50662492080653,2211
393.86941651231916,2239
396.23155781597745,2269
398.5930490409713,2124
400.9538903965696,2172
403.3140820921202,2174
405.6736243370498,2180
408.03251734086336,2117
410.3907613131465,2114
412.74835646356166,2153
415.10530300185144,2143
417.4616011378372,2140
419.81725108141893,2128
422.1722530425758,2135
424.5266072313656,2112
426.880313857925,2129
429.2333731324701,2176
431.58578526529516,2117
433.9375504667738,2089
436.2886689473588,2105
438.63914091758113,2140
440.9889665880513,2087
443.33814616945835,2074
445.68667987257015,2023
448.03456790823395,2053
450.3818104873759,2074
452.72840782100013,2067
455.07436012019105,2056
457.41966759611057,2104
459.7643304600007,2066
462.10834892318155,2077
464.4517231970525,2057
466.79445349309174,2103
469.1365400228566,2041
471.4779829979826,2100
473.81878263018564,2080
476.15893913125876,2137
478.4984527130747,2200
480.8373235875855,2113
483.17555196682144,2224
485.5131380628919,2257
487.8500820879857,2296
490.1863842543697,2425
492.52204477439034,2584
494.8570638604725,2839
497.1914417251204,3078
499.52517858091653,3350
501.85827464052306,3574
504.19073011668036,3473
506.5225452222086,3438
508.85372017000566,3304
511.18425517304956,3381
513.514150444396,3518
515.8434061971808,4206
518.1720226446176,5225
520.4999999999999,5603
522.8273384766991,5055
525.1540382881666,4685
527.480099647932,4161
529.8055227696037,3487
532.1303078668694,2872
534.454455153496,2572
536.777964843328,2373
539.1008371502907,2361
541.4230722883866,2387
543.744670471698,2294
546.0656319143858,2184
548.3859568306899,2235
550.7056454349294,2236
553.0246979415016,2178
555.3431145648834,2104
557.6608955196306,2120
559.978041020377,2177
562.2945512818363,2122
564.6104265188006,2190
566.9256669461412,2179
569.2402727788082,2257
571.5542442318302,2178
573.8675815203156,2186
576.1802848594508,2174
578.4923544645015,2282
580.8037905508126,2270
583.114593333807,2216
585.4247630289875,2187
587.7342998519354,2229
590.0432040183106,2103
592.3514757438526,2102
594.6591152443794,2298
596.9661227357875,2190
599.2724984340531,2247
601.578242555231,2238
603.8833553154542,2147
606.1878369309362,2192
608.4916876179676,2165
610.7949075929192,2145
613.0974970722403,2107
615.3994562724587,2116
617.7007854101818,2174
620.0014847020951,2222
622.3015543649641,2156
624.6009946156324,2151
626.8998056710224,2125
629.1979877481361,2138
631.4955410640538,2148
633.7924658359349,2253
636.0887622810175,2188
638.3844306166192,2221
640.6794710601358,2230
642.9738838290426,2260
645.2676691408932,2214
647.5608272133207,2238
649.853358264037,2242
652.1452625108324,2178
654.4365401715764,2241
656.7271914642178,2248
659.0172166067838,2269
661.3066158173809,2228
663.5953893141935,2206
665.8835373154867,2185
668.1710600396028,2260
670.4579577049639,2213
672.7442305300709,2220
675.0298787335033,2249
677.3149025339197,2179
679.599302150058,2214
681.8830778007342,2173
684.1662297048437,2145
686.4487580813608,2180
688.7306631493387,2241
691.0119451279091,2198
693.2926042362834,2238
695.5726406937516,2206
697.8520547196814,2237
700.1308465335215,2198
702.4090163547982,2163
704.6865644031171,2196
706.9634908981619,2186
709.2397960596965,2185
711.5154801075631,2183
713.7905432616823,2110
716.0649857420548,2189
718.3388077687592,2160
720.612009561953,2163
722.8845913418733,2242
725.1565533288352,2192
727.427895743234,2160
729.6986188055427,2143
731.9687227363137,2234
734.238207756178,2223
736.5070740858458,2210
738.7753219461066,2155
741.0429515578281,2187
743.3099631419569,2258
745.5763569195191,2212
747.8421331116193,2138
750.1072919394409,2233
752.3718336242467,2192
754.6357583873777,2199
756.8990664502545,2195
759.1617580343765,2145
761.423833361321,2226
763.6852926527457,2173
765.9461361303862,2155
768.206364016058,2221
770.4659765316536,2123
772.7249738991469,2178
774.9833563405886,2137
777.2411240781092,2252
779.4982773339183,2255
781.7548163303044,2196
784.010741289634,2212
786.2660524343538,2295
788.5207499869881,2231
790.7748341701416,2223
793.0283052064964,2235
795.2811633188143,2197
797.5334087299362,2151
799.7850416627813,2178
802.0360623403484,2186
804.2864709857143,2228
806.5362678220353,2260
808.7854530725468,2264
811.0340269605625,2283
813.2819897094754,2223
815.5293415427581,2129
817.77608268396,2233
820.0222133567116,2217
822.2677337847211,2267
824.5126441917765,2235
826.7569448017433,2270
829.0006358385675,2229
831.2437175262731,2236
833.4861900889629,2230
835.7280537508192,2266
837.9693087361026,2251
840.2099552691533,2236
842.4499935743896,2239
844.689423876309,2293
846.9282463994886,2285
849.1664613685833,2264
851.4040690083276,2211
853.6410695435349,2192
855.877463199097,2248
858.1132501999847,2193
860.3484307712487,2206
862.5830051380175,2209
864.8169735254988,2243
867.0503361589791,2272
869.2830932638243,2257
871.5152450654786,2265
873.7467917894654,2224
875.9777336613873,2277
878.2080709069252,2275
880.4378037518389,2208
882.666932421968,2320
884.8954571432301,2330
887.1233781416219,2279
889.3506956432192,2287
891.5774098741766,2366
893.803521060728,2296
896.0290294291852,2306
898.2539352059397,2308
900.4782386174619,2407
902.7019398903011,2346
904.925039251085,2298
907.147536926521,2263
909.3694331433943,2318
911.59072812857,2321
913.8114221089921,2272
916.0315153116827,2317
918.2510079637437,2309
920.4699002923547,2362
922.6881925247761,2328
924.905884888345,2338
927.1229776104793,2265
929.3394709186747,2255
931.555365040506,2269
933.7706602036275,2246
935.9853566357709,2244
938.1994545647489,2329
940.4129542184515,2316
942.6258558248488,2302
944.8381596119883,2310
947.0498658079974,2242
949.2609746410825,2225
951.4714863395287,2257
953.6814011316998,2307
955.8907192460387,2253
958.0994409110671,2182
960.3075663553858,2259
962.5150958076741,2168
964.7220294966913,2170
966.928367651274,2216
969.1341105003388,2220
971.3392582728806,2163
973.5438111979742,2171
975.747769504772,2155
977.9511334225061,2112
980.153903180487,2110
982.3560790081052,2107
984.5576611348289,2063
986.7586497902058,2123
988.9590452038618,2083
991.158847605503,2089
993.3580572249133,2061
995.5566742919558,2054
997.7546990365728,2035
999.952131688785,1919
1002.1489724786926,2019
1004.3452216364743,1957
1006.5408793923874,1976
1008.7359459767691,1911
1010.9304216200343,1924
1013.1243065526781,1929
1015.3176010052733,1859
1017.510305208472,1862
1019.7024193930064,1879
1021.8939437896848,1884
1024.0848786293977,1883
1026.2752241431122,1814
1028.4649805618747,1863
1030.6541481168115,1908
1032.842727039127,1902
1035.0307175601051,1918
1037.2181199111074,1849
1039.4049343235752,1940
1041.591161029029,1901
1043.7768002590683,1850
1045.9618522453698,1832
1048.1463172196918,1820
1050.3301954138697,1865
1052.513487059818,1850
1054.69619238953,1813
1056.8783116350783,1783
1059.0598450286152,1775
1061.2407928023704,1909
1063.4211551886528,1844
1065.6009324198508,1830
1067.780124728432,1849
1069.9587323469414,1860
1072.1367555080046,1813
1074.314194444325,1868
1076.4910493886855,1795
1078.667320573947,1740
1080.843008233051,1805
1083.0181125990161,1791
1085.1926339049414,1725
1087.3665723840027,1722
1089.5399282694575,1823
1091.7127017946405,1752
1093.8848931929647,1815
1096.0565026979243,1783
1098.2275305430899,1720
1100.3979769621128,1781
1102.567842188722,1698
1104.737126456726,1745
1106.9058300000124,1727
1109.0739530525475,1733
1111.2414958483764,1706
1113.4084586216231,1755
1115.5748416064907,1709
1117.7406450372605,1671
1119.9058691482942,1749
1122.0705141740304,1732
1124.2345803489884,1714
1126.3980679077658,1742
1128.5609770850388,1709
1130.7233081155623,1668
1132.8850612341707,1691
1135.0462366757774,1717
1137.2068346753745,1758
1139.3668554680326,1732
1141.526299288901,1750
1143.68516637321,1640
1145.8434569562655,1715
1148.001171273455,1710
1150.158309560244,1635
1152.3148720521767,1680
1154.470858984876,1680
1156.626270594044,1693
1158.7811071154629,1560
1160.9353687849912,1645
1163.089055838569,1712
1165.242168512213,1669
1167.3947070420209,1630
1169.5466716641677,1641
1171.6980626149075,1659
1173.8488801305748,1664
1175.9991244475814,1646
1178.1487958024186,1683
1180.2978944316555,1671
1182.4464205719428,1677
1184.5943744600072,1607
1186.7417563326567,1696
1188.8885664267755,1664
1191.0348049793297,1579
1193.1804722273619,1671
1195.325568407995,1708
1197.4700937584303,1626
1199.614048515948,1631
1201.7574329179074,1643
1203.900247201746,1621
1206.042491604982,1658
1208.1841663652099,1637
1210.3252717201053,1662
1212.465807907422,1564
1214.6057751649923,1669
1216.7451737307279,1672
1218.8840038426192,1599
1221.0222657387353,1682
1223.1599596572241,1650
1225.2970858363137,1685
1227.4336445143094,1680
1229.5696359295966,1703
1231.705060320639,1680
1233.8399179259786,1730
1235.9742089842384,1778
1238.107933734118,1740
1240.2410924143974,1713
1242.373685263935,1731
1244.5057125216676,1737
1246.6371744266116,1673
1248.7680712178621,1733
1250.898403134593,1791
1253.028170416058,1732
1255.1573733015875,1759
1257.2860120305932,1748
1259.4140868425648,1774
1261.54159797707,1752
1263.6685456737569,1755
1265.7949301723515,1740
1267.9207517126597,1711
1270.046010534565,1688
1272.1707068780306,1791
1274.2948409830983,1820
1276.4184130898889,1718
1278.541423438603,1720
1280.6638722695184,1783
1282.785759822993,1781
1284.9070863394636,1810
1287.0278520594447,1777
1289.1480572235314,1844
1291.2677020723963,1850
1293.3867868467923,1845
1295.5053117875495,1837
1297.623277135579,1843
1299.740683131868,1857
1301.8575300174857,1841
1303.973818033578,1827
1306.0895474213703,1855
1308.2047184221678,1926
1310.3193312773528,1872
1312.4333862283888,1923
1314.5468835168163,1849
1316.659823384255,1914
1318.7722060724045,1907
1320.8840318230418,1857
1322.9953008780249,1861
1325.1060134792888,1888
1327.2161698688478,1853
1329.3257702887959,1856
1331.4348149813054,1887
1333.5433041886276,1906
1335.6512381530933,1859
1337.7586171171101,1868
1339.8654413231675,1817
1341.9717110138317,1912
1344.0774264317488,1840
1346.1825878196432,1892
1348.2871954203192,1868
1350.3912494766587,1842
1352.4947502316231,1881
1354.5976979282532,1860
1356.7000928096686,1888
1358.8019351190665,1890
1360.9032250997243,1921
1363.0039629949988,1794
1365.1041490483235,1850
1367.2037835032133,1893
1369.3028666032606,1855
1371.401398592137,1892
1373.4993797135926,1930
1375.5968102114575,1855
1377.6936903296396,1887
1379.7900203121262,1929
1381.8858004029835,1930
1383.9810308463561,1909
1386.075711886469,1890
1388.1698437676241,1986
1390.2634267342032,1951
1392.356461030667,1931
1394.4489469015557,1948
1396.5408845914872,1960
1398.6322743451592,1993
1400.7231164073469,1905
1402.813411022907,2051
1404.903158436773,1983
1406.9923588939578,2082
1409.0810126395531,2014
1411.1691199187303,2052
1413.2566809767386,2067
1415.343696058907,2042
1417.4301654106425,2102
1419.5160892774315,2167
1421.6014679048399,2097
1423.6863015385125,2113
1425.7705904241707,2203
1427.8543348076178,2139
1429.9375349347342,2218
1432.0201910514802,2167
1434.102303403894,2203
1436.1838722380944,2277
1438.2648978002767,2254
1440.3453803367174,2299
1442.4253200937692,2324
1444.5047173178677,2438
1446.5835722555234,2472
1448.6618851533285,2496
1450.739656257952,2387
1452.8168858161434,2507
1454.8935740747306,2528
1456.96972128062,2612
1459.045327680797,2716
1461.120393522327,2695
1463.1949190523528,2652
1465.2689045180973,2748
1467.3423501668608,2727
1469.415256246024,2925
1471.4876230030463,2920
1473.559450685465,2935
1475.6307395408976,3077
1477.7014898170391,2989
1479.771701761665,3130
1481.8413756226287,3108
1483.9105116478618,3286
1485.9791100853772,3278
1488.0471711832643,3261
1490.1146951896926,3381
1492.1816823529098,3428
1494.2481329212433,3505
1496.3140471430984,3585
1498.3794252669609,3571
1500.4442675413939,3586
1502.5085742150404,3651
1504.572345536622,3753
1506.6355817549388,3912
1508.6982831188702,3901
1510.7604498773744,3825
1512.8220822794883,3836
1514.8831805743293,3929
1516.9437450110909,4014
1519.003775839048,4131
1521.0632733075522,4076
1523.1222376660367,4251
1525.1806691640113,4242
1527.2385680510652,4353
1529.2959345768668,4338
1531.3527689911643,4501
1533.4090715437833,4565
1535.4648424846291,4550
1537.5200820636855,4693
1539.5747905310159,4740
1541.6289681367616,4844
1543.6826151311434,4888
1545.7357317644614,4944
1547.7883182870937,5033
1549.8403749494987,5124
1551.8919020022113,5176
1553.9428996958477,5354
1555.9933682811015,5531
1558.0433080087469,5593
1560.0927191296346,5699
1562.1416018946961,5769
1564.1899565549415,5783
1566.2377833614592,5622
1568.2850825654164,5463
1570.3318544180606,5423
1572.3780991707158,5234
1574.423817074788,5014
1576.4690083817595,4861
1578.5136733431923,4486
1580.5578122107272,4163
1582.601425236085,4015
1584.6445126710646,3879
1586.6870747675434,3523
1588.7291117774776,3499
1590.7706239529034,3287
1592.8116115459347,3190
1594.8520748087658,3092
1596.8920139936686,2860
1598.9314293529933,2716
1600.9703211391711,2689
1603.008689604711,2612
1605.0465350022005,2499
1607.0838575843068,2484
1609.1206576037753,2362
1611.1569353134305,2332
1613.1926909661765,2301
1615.2279248149953,2236
1617.2626371129481,2216
1619.2968281131757,2123
1621.3304980688963,2058
1623.3636472334088,2092
1625.39627586009,2017
1627.428384202396,2040
1629.459972513861,2060
1631.4910410480993,1993
1633.5215900588028,1953
1635.551619799744,1977
1637.5811305247717,1876
1639.6101224878166,1927
1641.6385959428862,1912
1643.6665511440683,1876
1645.693988345528,1840
1647.7209078015112,1897
1649.7473097663405,1880
1651.7731944944203,1831
1653.7985622402307,1856
1655.823413258333,1833
1657.847747803366,1821
1659.8715661300494,1860
1661.8948684931793,1857
1663.9176551476316,1808
1665.9399263483624,1875
1667.9616823504057,1729
1669.982923408873,1804
1672.0036497789574,1842
1674.0238617159293,1816
1676.043559475138,1803
1678.0627433120121,1765
1680.081413482059,1765
1682.0995702408654,1800
1684.117213844096,1869
1686.134344547495,1773
1688.1509626068864,1782
1690.1670682781705,1881
1692.182661817329,1837
1694.1977434804217,1816
1696.2123135235875,1779
1698.226372203043,1700
1700.2399197750851,1763
1702.2529564960905,1806
1704.2654826225112,1827
1706.277498410882,1815
1708.2890041178139,1774
1710.2999999999988,1802
1712.3104863142066,1740
1714.3204633172854,1766
1716.329931266163,1742
1718.3388904178469,1747
1720.3473410294214,1790
1722.3552833580516,1755
1724.3627176609807,1762
1726.3696441955308,1742
1728.3760632191033,1716
1730.3819749891782,1751
1732.3873797633146,1758
1734.3922777991502,1677
1736.3966693544012,1730
1738.4005546868639,1748
1740.4039340544127,1712
1742.406807715001,1736
1744.4091759266616,1671
1746.4110389475054,1695
1748.4123970357223,1625
1750.413250449582,1666
1752.4135994474318,1714
1754.4134442876993,1649
1756.4127852288902,1731
1758.4116225295893,1689
1760.4099564484595,1646
1762.407787244244,1610
1764.405115175764,1650
1766.4019405019203,1646
1768.3982634816916,1682
1770.3940843741357,1645
1772.3894034383907,1671
1774.3842209336717,1611
1776.378537119274,1621
1778.372352254571,1584
1780.3656665990156,1627
1782.3584804121397,1602
1784.3507939535534,1599
1786.3426074829463,1623
1788.3339212600863,1618
1790.3247355448211,1644
1792.3150505970766,1627
1794.3048666768573,1606
1796.2941840442477,1585
1798.2830029594106,1582
1800.2713236825884,1588
1802.2591464741004,1556
1804.2464715943465,1620
1806.2332993038058,1558
1808.2196298630352,1591
1810.2054635326708,1587
1812.190800573428,1547
1814.175641246101,1569
1816.1599858115628,1493
1818.1438345307652,1556
1820.127187664738,1536
1822.1100454745924,1583
1824.092408221516,1584
1826.0742761667766,1690
1828.055649571721,1627
1830.0365286977735,1620
1832.0169138064398,1620
1833.9968051593014,1602
1835.9762030180214,1538
1837.9551076443408,1572
1839.9335193000788,1649
1841.9114382471344,1567
1843.888864747485,1607
1845.8657990631878,1534
1847.842241456378,1539
1849.8181921892697,1576
1851.7936515241558,1499
1853.7686197234098,1561
1855.7430970494815,1525
1857.7170837649014,1544
1859.6905801322787,1534
1861.6635864143004,1543
1863.6361028737338,1477
1865.608129773424,1471
1867.5796673762961,1574
1869.5507159453537,1585
1871.521275743678,1532
1873.4913470344313,1577
1875.4609300808534,1579
1877.4300251462632,1558
1879.3986324940588,1603
1881.366752387717,1557
1883.3343850907936,1611
1885.3015308669228,1548
1887.268189979819,1572
1889.2343626932739,1567
1891.2000492711595,1577
1893.1652499774254,1565
1895.1299650761011,1632
1897.0941948312952,1549
1899.0579395071945,1589
1901.0211993680641,1597
1902.98397467825,1607
1904.9462657021745,1643
1906.9080727043415,1612
1908.869395949332,1565
1910.8302357018065,1616
1912.790592226504,1600
1914.7504657882428,1610
1916.7098566519212,1540
1918.6687650825133,1561
1920.6271913450764,1602
1922.5851357047422,1566
1924.5425984267245,1607
1926.499579776314,1603
1928.4560800188833,1553
1930.4120994198802,1708
1932.367638244833,1571
1934.32269675935,1537
1936.2772752291175,1583
1938.231373919899,1525
1940.1849930975404,1571
1942.1381330279637,1570
1944.0907939771696,1533
1946.0429762112412,1564
1947.9946799963363,1601
1949.9459055986945,1589
1951.896653284633,1502
1953.8469233205478,1589
1955.7967159729142,1529
1957.7460315082863,1505
1959.6948701932974,1547
1961.6432322946594,1559
1963.5911180791632,1469
1965.5385278136787,1512
1967.4854617651545,1536
1969.4319202006182,1503
1971.377903387176,1516
1973.3234115920136,1530
1975.268445082395,1508
1977.2130041256642,1502
1979.1570889892423,1513
1981.1006999406304,1509
1983.04383724741,1546
1984.986501177238,1536
1986.928691997853,1517
1988.8704099770712,1520
1990.811655382789,1545
1992.7524284829801,1453
1994.692729545698,1530
1996.6325588390755,1523
1998.5719166313224,1512
2000.5108031907307,1488
2002.4492187856677,1483
2004.387163684583,1496
2006.3246381560011,1516
2008.2616424685298,1427
2010.1981768908527,1468
2012.1342416917332,1499
2014.069837140014,1454
2016.0049635046162,1486
2017.9396210545406,1436
2019.8738100588666,1501
2021.8075307867502,1506
2023.740783507431,1468
2025.6735684902228,1486
2027.6058860045214,1498
2029.5377363198004,1437
2031.4691197056118,1521
2033.4000364315875,1514
2035.3304867674374,1510
2037.260470982952,1419
2039.189989347998,1482
2041.1190421325232,1450
2043.047629606554,1511
2044.9757520401945,1490
2046.9034097036288,1477
2048.8306028671195,1466
2050.7573318010086,1515
2052.683596775716,1411
2054.609398061742,1384
2056.5347359296647,1430
2058.4596106501403,1469
2060.384022493906,1472
2062.3079717317764,1471
2064.231458634646,1487
2066.1544834734873,1409
2068.077046519352,1484
2069.99914804337,1498
2071.9207883167524,1507
2073.8419676107865,1472
2075.7626861968406,1475
2077.6829443463607,1492
2079.6027423308715,1535
2081.522080421977,1527
2083.440958891362,1505
2085.359378010786,1490
2087.2773380520907,1512
2089.194839287196,1458
2091.111881988101,1457
2093.0284664268825,1422
2094.9445928756973,1392
2096.86026160678,1449
2098.775472892446,1448
2100.690227005088,1404
2102.604524217178,1510
2104.5183648012676,1480
2106.431749029985,1508
2108.34467717604,1493
2110.2571495122206,1498
2112.169166311393,1493
2114.080727846503,1471
2115.9918343905747,1486
2117.902486216711,1507
2119.8126835980956,1467
2121.722426807987,1471
2123.6317161197285,1504
2125.5405518067364,1437
2127.448934142509,1550
2129.356863400624,1480
2131.264339854737,1567
2133.1713637785815,1487
2135.077935445972,1574
2136.9840551308002,1492
2138.889723107037,1520
2140.7949396487334,1510
2142.699705030018,1550
2144.6040195250994,1543
2146.507883408264,1488
2148.4112969538774,1581
2150.3142604363848,1544
2152.2167741303097,1511
2154.1188383102535,1467
2156.0204532508997,1477
2157.9216192270064,1552
2159.822336513414,1597
2161.7226053850413,1522
2163.622426116884,1569
2165.5217989840185,1589
2167.4207242616,1512
2169.319202224862,1559
2171.2172331491165,1584
2173.1148173097563,1540
2175.0119549822507,1575
2176.90864644215,1607
2178.8048919650823,1509
2180.7006918267534,1557
2182.596046302952,1540
2184.4909556695407,1660
2186.3854202024645,1547
2188.279440177746,1605
2190.173015871487,1584
2192.066147559868,1604
2193.958835519149,1611
2195.851080025667,1633
2197.7428813558417,1577
2199.6342397861667,1637
2201.5251555932186,1539
2203.415629053651,1599
2205.3056604441986,1648
2207.19525004167,1626
2209.084398122958,1602
2210.9731049650327,1589
2212.861370844941,1601
2214.749196039812,1618
2216.636580826851,1691
2218.523525483344,1651
2220.410030286655,1619
2222.296095514226,1595
2224.1817214435805,1655
2226.066908352319,1612
2227.951656518121,1646
2229.835966218746,1616
2231.71983773203,1621
2233.6032713358913,1677
2235.486267308324,1664
2237.3688259274036,1655
2239.2509474712824,1630
2241.132632218193,1612
2243.013880446447,1652
2244.8946924344323,1673
2246.7750684606203,1629
2248.6550088035574,1673
2250.534513741871,1650
2252.413583554265,1602
2254.292218519526,1700
2256.170418916517,1628
2258.0481850241786,1637
2259.925517121534,1677
2261.8024154876825,1660
2263.678880401803,1591
2265.5549121431536,1629
2267.430510991071,1616
2269.305677224971,1643
2271.180411124348,1561
2273.0547129687766,1587
2274.9285830379076,1620
2276.8020216114737,1604
2278.6750289692845,1580
2280.5476053912294,1559
2282.4197511572766,1601
2284.2914665474727,1649
2286.162751841943,1692
2288.0336073208937,1666
2289.904033264608,1678
2291.774029953448,1732
2293.6435976678554,1642
2295.5127366883517,1588
2297.381447295534,1586
2299.2497297700825,1535
2301.1175843927526,1595
2302.9850114443825,1534
2304.852011205885,1497
2306.7185839582553,1467
2308.5847299825664,1444
2310.4504495599676,1365
2312.3157429716925,1420
2314.1806104990483,1363
2316.0450524234247,1395
2317.9090690262888,1381
2319.772660589186,1415
2321.635827393742,1386
2323.498569721661,1385
2325.3608878547248,1371
2327.2227820747967,1341
2329.0842526638157,1356
2330.945299903803,1348
2332.805924076857,1358
2334.6661254651535,1355
2336.525904350951,1344
2338.3852610165827,1378
2340.244195744464,1406
2342.102708817088,1433
2343.9608005170253,1418
2345.8184711269287,1389
2347.675720929526,1388
2349.532550207628,1384
2351.38895924412,1363
2353.24494832197,1435
2355.100517724223,1403
2356.955667734004,1397
2358.810398634514,1370
2360.664710709037,1432
2362.5186042409337,1357
2364.3720795136437,1448
2366.225136810686,1435
2368.0777764156583,1413
2369.929998612237,1436
2371.7818036841777,1420
2373.633191915315,1424
2375.484163589562,1430
2377.3347189909114,1393
2379.184858403434,1450
2381.03458211128,1438
2382.8838903986775,1405
2384.732783549936,1373
2386.5812618494406,1439
2388.4293255816588,1472
2390.2769750311327,1490
2392.1242104824883,1439
2393.971032220427,1432
2395.8174405297295,1474
2397.6634356952563,1447
2399.509018001947,1452
2401.3541877348193,1485
2403.1989451789705,1379
2405.043290619576,1416
2406.8872243418905,1427
2408.730746631247,1407
2410.5738577730594,1429
2412.4165580528183,1456
2414.258847756095,1443
2416.100727168537,1397
2417.9421965758734,1457
2419.783256263912,1468
2421.623906518538,1472
2423.4641476257157,1469
2425.303979871491,1448
2427.143403541984,1457
2428.9824189233977,1457
2430.821026302012,1508
2432.6592259641866,1413
2434.497018196361,1448
2436.33440328505,1441
2438.171381516851,1477
2440.00795317844,1417
2441.844118556569,1487
2443.6798779380724,1431
2445.5152316098606,1526
2447.3501798589255,1475
2449.1847229723357,1436
2451.0188612372403,1464
2452.8525949408663,1427
2454.6859243705203,1475
2456.518849813587,1442
2458.3513715575314,1485
2460.183489889895,1505
2462.015205098301,1452
2463.8465174704493,1419
2465.67742729412,1475
2467.5079348571717,1456
2469.338040447542,1432
2471.1677443532476,1520
2472.9970468623833,1473
2474.825948263123,1470
2476.6544488437207,1514
2478.482548892508,1512
2480.310248697896,1479
2482.137548548374,1498
2483.9644487325118,1466
2485.790949538956,1494
2487.617051256433,1496
2489.44275417375,1495
2491.26805857979,1475
2493.0929647635157,1475
2494.917473013971,1480
2496.741583620276,1540
2498.5652968716304,1506
2500.3886130573137,1500
2502.2115324666834,1571
2504.0340553891765,1494
2505.856182114308,1596
2507.6779129316733,1558
2509.499248130945,1581
2511.3201880018764,1576
2513.140732834298,1489
2514.9608829181198,1537
2516.780638543331,1607
2518.6,1553
2520.418967578273,1560
2522.237541568376,1594
2524.0557222606144,1557
2525.8735099453706,1576
2527.6909049131086,1631
2529.507907454368,1589
2531.32451785977,1588
2533.140736420014,1578
2534.9565634258774,1619
2536.771999168218,1659
2538.5870439379714,1681
2540.4016980261526,1681
2542.2159617238544,1653
2544.02983532225,1667
2545.8433191125914,1686
2547.656413386209,1729
2549.4691184345115,1721
2551.2814345489874,1751
2553.093362021204,1771
2554.904901142808,1753
2556.716052205523,1786
2558.526815501153,1763
2560.3371913215824,1745
2562.147179958771,1808
2563.956781704761,1783
2565.7659968516705,1822
2567.5748256916986,1777
2569.3832685171224,1821
2571.1913256202984,1882
2572.9989972936614,1872
2574.806283829725,1827
2576.613185521084,1800
2578.4197026604074,1888
2580.2258355404483,1900
2582.031584454035,1871
2583.836949694077,1830
2585.6419315535613,1886
2587.4465303255533,1943
2589.2507463032002,1956
2591.0545797797245,1956
2592.8580310484303,2037
2594.6611004026995,1992
2596.463788135992,1996
2598.266094541849,1997
2600.0680199138874,1965
2601.869564545807,2071
2603.670728731383,1972
2605.4715127644704,2001
2607.2719169390048,2013
2609.071941548998,2017
2610.8715868885433,2006
2612.670853251811,1988
2614.469740933052,1999
2616.268250226594,2087
2618.0663814268455,2044
2619.864134828292,2044
2621.6615107255006,1999
2623.458509413115,1946
2625.2551311858597,1988
2627.0513763385347,1960
2628.8472451660223,1914
2630.6427379632833,1947
2632.4378550253564,1976
2634.232596647359,1884
2636.026963124488,1917
2637.8209547520187,1886
2639.6145718253065,1890
2641.407814639785,1838
2643.200683490966,1806
2644.9931786744414,1794
2646.7853004858807,1768
2648.577049221034,1805
2650.3684251757277,1734
2652.1594286458712,1795
2653.9500599274484,1749
2655.740319316525,1709
2657.5302071092437,1763
2659.3197236018286,1671
2661.10886909058,1690
2662.8976438718782,1729
2664.686048242183,1723
2666.4740824980327,1641
2668.2617469360443,1653
2670.0490418529134,1645
2671.8359675454153,1631
2673.622524310403,1665
2675.408712444811,1618
2677.1945322456495,1558
2678.979984010009,1517
2680.76506803506,1571
2682.5497846180497,1566
2684.334134056306,1543
2686.1181166472343,1529
2687.9017326883213,1550
2689.6849824771293,1495
2691.4678663113013,1508
2693.2503844885596,1608
2695.032537306705,1560
2696.8143250636167,1582
2698.5957480572542,1503
2700.3768065856534,1523
2702.1575009469316,1454
2703.937831439283,1504
2705.717798360982,1434
2707.4974020103837,1506
2709.276642685917,1471
2711.055520686095,1449
2712.834036309506,1491
2714.612189854819,1467
2716.389981620782,1456
2718.1674119062204,1394
2719.944481010041,1434
2721.721189231226,1463
2723.4975368688415,1412
2725.273524222027,1471
2727.0491515900053,1397
2728.824419272075,1496
2730.5993275676146,1432
2732.3738767760838,1410
2734.148067197016,1381
2735.921899130031,1397
2737.6953728748194,1435
2739.468488731156,1407
2741.2412469988926,1368
2743.0136479779617,1388
2744.785691968372,1377
2746.5573792702116,1402
2748.3287101836504,1387
2750.099685008934,1366
2751.870304046388,1383
2753.640567596418,1369
2755.4104759595057,1387
2757.1800294362156,1397
2758.949228327187,1380
2760.7180729331412,1337
2762.486563554877,1352
2764.254700493272,1347
2766.022484049284,1379
2767.789914523947,1397
2769.5569922183786,1369
2771.3237174337705,1427
2773.090090471394,1333
2774.8561116326036,1375
2776.6217812188274,1382
2778.3870995315756,1344
2780.1520668724356,1419
2781.9166835430747,1327
2783.6809498452394,1382
2785.444866080754,1403
2787.2084325515225,1347
2788.971649559527,1378
2790.73451740683,1363
2792.4970363955713,1350
2794.2592068279705,1377
2796.0210290063264,1392
2797.7825032330147,1412
2799.543629810493,1354
2801.304409041296,1342
2803.0648412280366,1334
2804.8249266734088,1340
2806.5846656801846,1393
2808.344058551212,1329
2810.1031055894246,1396
2811.8618070978273,1340
2813.6201633795085,1384
2815.378174737636,1365
2817.1358414754536,1299
2818.893163896285,1374
2820.6501423035334,1406
2822.4067770006814,1352
2824.1630682912883,1400
2825.9190164789957,1339
2827.6746218675207,1382
2829.429884760661,1375
2831.184805462294,1367
2832.9393842763743,1397
2834.693621506936,1410
2836.4475174580916,1410
2838.201072434034,1371
2839.954286739034,1342
2841.707160677441,1385
2843.459694553685,1365
2845.2118886722724,1380
2846.96374333779,1381
2848.7152588549034,1331
2850.4664355283567,1353
2852.217273662973,1396
2853.9677735636546,1367
2855.7179355353833,1325
2857.4677598832186,1340
2859.217246912299,1362
2860.9663969278427,1416
2862.715210235146,1398
2864.4636871395846,1357
2866.211827946614,1375
2867.9596329617652,1380
2869.7071024906536,1340
2871.4542368389684,1323
2873.20103631248,1374
2874.947501217038,1336
2876.6936318585695,1357
2878.4394285430812,1385
2880.1848915766604,1413
2881.9300212654707,1370
2883.6748179157553,1391
2885.4192818338374,1375
2887.1634133261173,1356
2888.907212699077,1368
2890.6506802592744,1349
2892.393816313348,1356
2894.1366211680142,1390
2895.8790951300693,1368
2897.621238506388,1323
2899.363051603925,1304
2901.1045347297118,1365
2902.8456881908596,1378
2904.58651229456,1342
2906.327007348081,1369
2908.067173658772,1376
2909.8070115340597,1386
2911.5465212814497,1362
2913.285703208527,1392
2915.0245576229563,1354
2916.7630848324807,1337
2918.5012851449196,1346
2920.2391588681758,1363
2921.976706310227,1344
2923.7139277791334,1344
2925.4508235830313,1407
2927.187394030137,1378
2928.923639428745,1320
2930.6595600872306,1337
2932.395156314046,1311
2934.1304284177218,1348
2935.8653767068713,1350
2937.6000014901815,1305
2939.3343030764227,1353
2941.068281774442,1376
2942.8019378931644,1336
2944.5352717415976,1341
2946.2682836288236,1379
2948.0009738640065,1363
2949.7333427563885,1391
2951.465390615289,1375
2953.1971177501086,1315
2954.9285244703265,1392
2956.6596110855,1339
2958.3903779052657,1330
2960.1208252393385,1411
2961.8509533975125,1359
2963.5807626896617,1345
2965.3102534257378,1356
2967.0394259157715,1369
2968.768280469873,1321
2970.496817398232,1378
2972.2250370111146,1344
2973.952939618869,1402
2975.6805255319196,1312
2977.4077950607707,1358
2979.134748516006,1403
2980.861386208289,1378
2982.587708448359,1316
2984.313715547037,1399
2986.039407815222,1364
2987.764785563891,1374
2989.489849104102,1333
2991.2145987469908,1364
2992.9390348037705,1312
2994.6631575857346,1338
2996.3869674042576,1349
2998.1104645707887,1353
2999.83364939686,1393
3001.5565221940783,1332
3003.2790832741334,1283
3005.0013329487924,1372
3006.7232715298996,1289
3008.4448993293804,1350
3010.166216659239,1287
3011.887223831558,1352
3013.607921158498,1315
3015.3283089522993,1373
3017.0483875252826,1352
3018.7681571898443,1334
3020.4876182584626,1332
3022.2067710436927,1370
3023.9256158581707,1362
3025.644153014609,1336
3027.362382825801,1377
3029.0803056046193,1316
3030.797921664012,1319
3032.5152313170106,1337
3034.2322348767225,1357
3035.9489326563353,1315
3037.665324969115,1331
3039.3814121284063,1327
3041.097194447633,1323
3042.812672240299,1370
3044.5278458199855,1331
3046.2427155003525,1313
3047.9572815951406,1371
3049.671544418167,1330
3051.38550428333,1380
3053.0991615046073,1394
3054.812516396051,1368
3056.5255692717974,1377
3058.2383204460575,1312
3059.9507702331257,1306
3061.662918947372,1347
3063.3747669032446,1375
3065.0863144152736,1339
3066.7975617980674,1396
3068.508509366309,1340
3070.219157434767,1366
3071.9295063182844,1327
3073.639556331785,1293
3075.3493077902704,1346
3077.058761008821,1375
3078.7679163025964,1354
3080.476773986837,1321
3082.1853343768594,1377
3083.89359778806,1384
3085.6015645359153,1363
3087.3092349359786,1339
3089.016609303884,1372
3090.7236879553434,1389
3092.4304712061476,1368
3094.136959372166,1342
3095.843152769349,1361
3097.5490517137237,1323
3099.2546565213966,1391
3100.959967508554,1343
3102.66498499146,1354
3104.3697092864577,1338
3106.0741407099695,1407
3107.778279578498,1416
3109.482126208622,1383
3111.1856809170004,1375
3112.8889440203716,1362
3114.5919158355528,1352
3116.294596679439,1375
3117.996986869006,1307
3119.6990867213062,1377
3121.4008965534726,1365
3123.102416682717,1327
3124.803647426329,1384
3126.5045891016784,1396
3128.205242026213,1394
3129.90560651746,1372
3131.605682893025,1349
3133.3054714705922,1374
3135.0049725679282,1323
3136.7041865028714,1369
3138.4031135933465,1370
3140.101754157353,1377
3141.800108512971,1348
3143.498176978357,1406
3145.1959598717494,1355
3146.8934575114636,1382
3148.5906702158954,1386
3150.2875983035183,1344
3151.9842420928853,1299
3153.680601902627,1380
3155.376678051456,1314
3157.07247085816,1319
3158.767980641609,1302
3160.463207720748,1329
3162.158152414606,1310
3163.8528150422862,1321
3165.5471959229726,1316
3167.2412953759303,1368
3168.9351137204976,1398
3170.628651276098,1433
3172.3219083622307,1332
3174.014885298474,1387
3175.707582404485,1294
3177.4000000000005,1288
3179.092138404835,1330
3180.7839979388846,1330
3182.47557892212,1337
3184.166881674594,1405
3185.8579065164386,1301
3187.5486537678626,1401
3189.2391237491547,1342
3190.9293167806827,1329
3192.6192331828934,1300
3194.3088732763117,1285
3195.998237381542,1297
3197.687325819268,1327
3199.376138910251,1342
3201.064676975334,1324
3202.7529403354347,1316
3204.4409293115523,1350
3206.1286442247647,1367
3207.816085396229,1327
3209.5032531471825,1286
3211.190147798936,1321
3212.8767696728846,1318
3214.5631190905015,1279
3216.2491963733373,1259
3217.9350018430214,1309
3219.6205358212637,1284
3221.305798629851,1289
3222.990790590651,1265
3224.6755120256103,1301
3226.359963256751,1308
3228.0441446061795,1281
3229.7280563960758,1368
3231.411698948703,1305
3233.0950725863995,1303
3234.778177631587,1332
3236.461014406761,1326
3238.1435832345005,1311
3239.8258844374595,1317
3241.507918338374,1334
3243.1896852600576,1331
3244.8711855254023,1302
3246.552419457381,1306
3248.233387379042,1362
3249.914089613516,1287
3251.59452648401,1343
3253.274698313813,1305
3254.95460542629,1357
3256.6342481448855,1310
3258.313626793125,1306
3259.9927416946084,1246
3261.6715931730196,1336
3263.3501815521176,1285
3265.0285071557437,1266
3266.706570307815,1281
3268.3843713323286,1324
3270.0619105533615,1270
3271.739188295068,1317
3273.4162048816834,1292
3275.0929606375184,1306
3276.769455886966,1307
3278.445690954498,1365
3280.1216661646613,1326
3281.797381842087,1336
3283.4728383114807,1320
3285.1480358976296,1322
3286.8229749253996,1366
3288.4976557197333,1367
3290.172078605655,1310
3291.846243908266,1291
3293.5201519527463,1283
3295.193803064357,1282
3296.8671975684374,1306
3298.5403357904024,1324
3300.21321805575,1265
3301.8858446900567,1328
3303.558216018975,1355
3305.23033236824,1276
3306.9021940636603,1343
3308.57380143113,1377
3310.2451547966184,1287
3311.916254486174,1309
3313.5871008259246,1260
3315.2576941420766,1350
3316.9280347609147,1295
3318.5981230088046,1284
3320.2679592121895,1256
3321.9375436975924,1218
3323.606876791612,1261
3325.27595882093,1313
3326.944790112305,1303
3328.6133709925753,1293
3330.2817017886573,1298
3331.949782827547,1354
3333.617614436319,1295
3335.2851969421245,1266
3336.952530672199,1277
3338.619615953853,1302
3340.286453114475,1354
3341.9530424815357,1313
3343.619384382583,1272
3345.2854791452437,1313
3346.951327097224,1249
3348.6169285663073,1288
3350.2822838803577,1328
3351.947393367319,1298
3353.61225735521,1308
3355.2768761721345,1232
3356.9412501462693,1316
3358.605379605873,1286
3360.2692648792827,1253
3361.9329062949146,1302
3363.596304181263,1320
