CollectionTime,9/19/2024 10:53:29 AM
ExposureUsed,3
CalibratedSpectrum
-962.7078968117929,580
-959.9714848408522,611
-957.2358232597828,652
-954.5009119013725,643
-951.7667505983302,668
-949.0333391832855,650
-946.3006774887896,648
-943.5687653473143,630
-940.837602591253,660
-938.1071890529199,656
-935.3775245645503,680
-932.6486089583007,642
-929.9204420662485,627
-927.1930237203925,675
-924.4663537526524,628
-921.7404319948689,658
-919.0152582788041,636
-916.2908324361409,700
-913.5671542984834,651
-910.8442236973568,635
-908.1220404642074,609
-905.4006044304027,625
-902.679915427231,600
-899.959973285902,592
-897.2407778375464,638
-894.5223289132158,637
-891.8046263438832,632
-889.0876699604426,618
-886.3714595937089,593
-883.6559950744183,591
-880.9412762332282,596
-878.2273029007168,608
-875.5140749073835,647
-872.8015920836489,612
-870.0898542598545,601
-867.3788612662631,616
-864.6686129330585,625
-861.9591090903457,628
-859.2503495681506,602
-856.5423341964203,582
-853.8350628050229,601
-851.1285352237478,594
-848.4227512823054,605
-845.7177108103272,627
-843.0134136373656,613
-840.3098595928943,607
-837.6070485063082,614
-834.9049802069229,598
-832.2036545239757,594
-829.5030712866244,615
-826.8032303239481,622
-824.1041314649472,615
-821.4057745385428,616
-818.7081593735775,625
-816.0112857988148,603
-813.3151536429393,606
-810.6197627345566,634
-807.9251129021936,620
-805.2312039742981,585
-802.5380357792392,592
-799.8456081453069,644
-797.1539209007124,603
-794.462973873588,593
-791.772766891987,608
-789.083299783884,642
-786.3945723771743,623
-783.7065844996748,635
-781.0193359791231,616
-778.3328266431781,612
-775.6470563194197,634
-772.9620248353489,657
-770.2777320183878,661
-767.5941776958798,652
-764.9113616950891,644
-762.2292838432011,608
-759.5479439673222,608
-756.8673418944801,632
-754.1874774516235,657
-751.5083504656222,631
-748.8299607632671,641
-746.15230817127,653
-743.475392516264,657
-740.7992136248035,634
-738.1237713233636,624
-735.4490654383407,643
-732.7750957960521,656
-730.1018622227365,649
-727.4293645445534,649
-724.7576025875837,656
-722.0865761778291,675
-719.4162851412126,719
-716.7467293035781,661
-714.0779084906909,675
-711.409822528237,655
-708.7424712418238,653
-706.0758544569796,687
-703.4099719991541,703
-700.7448236937178,677
-698.0804093659622,676
-695.4167288411002,684
-692.7537819442656,713
-690.0915685005134,705
-687.4300883348199,719
-684.7693412720819,735
-682.1093271371178,732
-679.4500457546669,669
-676.7914969493897,667
-674.1336805458676,679
-671.4765963686034,692
-668.8202442420206,693
-666.1646239904642,665
-663.5097354382001,690
-660.8555784094151,704
-658.2021527282176,695
-655.5494582186366,696
-652.8974947046223,711
-650.2462620100463,686
-647.5957599587009,717
-644.9459883742998,755
-642.2969470804776,692
-639.6486359007902,770
-637.0010546587141,774
-634.3542031776476,742
-631.7080812809096,692
-629.0626887917401,729
-626.4180255333008,739
-623.7740913286734,737
-621.1308860008619,755
-618.4884093727904,710
-615.8466612673046,734
-613.2056415071715,703
-610.5653499150785,765
-607.9257863136347,788
-605.28695052537,762
-602.6488423727357,735
-600.0114616781036,754
-597.3748082637674,781
-594.7388819519412,805
-592.1036825647604,816
-589.4692099242818,756
-586.8354638524829,778
-584.2024441712624,770
-581.5701507024403,772
-578.9385832677575,793
-576.3077416888759,751
-573.6776257873787,799
-571.0482353847704,761
-568.4195703024757,762
-565.7916303618415,813
-563.164415384135,796
-560.5379251905453,780
-557.9121596021815,753
-555.2871184400748,791
-552.6628015251767,830
-550.0392086783606,875
-547.4163397204204,860
-544.794194472071,867
-542.1727727539491,863
-539.5520743866118,785
-536.9320991905377,851
-534.3128469861261,857
-531.6943175936979,920
-529.0765108334947,951
-526.4594265256793,1051
-523.8430644903358,1273
-521.2274245474689,1388
-518.612506517005,1481
-515.9983102187913,1438
-513.3848354725959,1592
-510.77208209810846,1528
-508.16004991493924,1581
-505.5487387426199,1643
-502.9381484006032,1690
-500.3282787082628,1721
-497.71912948489364,1632
-495.1107005497117,1524
-492.5029917218539,1349
-489.8960028203786,1235
-487.28973366426493,1147
-484.68418407241325,1038
-482.07935386364494,1009
-479.47524285670266,962
-476.87185087025,995
-474.2691777228715,972
-471.66722323307334,965
-469.0659872192821,986
-466.4654694998459,975
-463.86566989303384,979
-461.26658821703614,968
-458.66822428996414,955
-456.07057792985,977
-453.4736489546475,977
-450.877437182231,929
-448.28194243039627,925
-445.68716451686,932
-443.09310325926003,917
-440.49975847515555,938
-437.9071299820263,895
-435.31521759727354,956
-432.72402113821954,959
-430.13354042210767,974
-427.5437752661022,994
-424.95472548728867,998
-422.36639090267386,1051
-419.7787713291855,1099
-417.1918665836721,1045
-414.60567648290385,1040
-412.0202008435715,986
-409.4354394822874,1052
-406.8513922155845,992
-404.26805885991723,1059
-401.685439231661,1051
-399.103533147112,1030
-396.522340422488,1026
-393.9418608739278,1044
-391.3620943174908,1003
-388.7830405691583,1008
-386.2046994448317,927
-383.6270707603344,921
-381.05015433141045,889
-378.473949973725,834
-375.8984575028645,771
-373.32367673433623,765
-370.74960748356875,759
-368.1762495659117,728
-365.60360279663576,627
-363.03166699093265,556
-360.4604419639154,563
-357.8899275306178,571
-355.32012350599507,564
-352.7510297049233,565
-350.1826459421999,547
-347.61497203254316,528
-345.04800779059235,511
-342.4817530309082,589
-339.91620756797226,597
-337.35137121618743,575
-334.7872437898774,547
-332.22382510328725,527
-329.66111497058273,533
-327.09911320585127,558
-324.53781962310075,495
-321.9772340362607,496
-319.4173562591816,520
-316.8581861056348,563
-314.2997233893127,574
-311.7419679238294,568
-309.1849195227194,533
-306.62857799943856,552
-304.0729431673641,537
-301.51801483979375,573
-298.963792829947,581
-296.41027695096386,574
-293.85746701590574,616
-291.3053628377552,633
-288.7539642294155,651
-286.2032710037115,643
-283.65328297338897,695
-281.1039999511146,725
-278.5554217494762,680
-276.007548180983,658
-273.4603790580651,651
-270.9139141930734,621
-268.3681533982807,698
-265.8230964858798,772
-263.27874326798565,831
-260.7350935566336,804
-258.1921471637804,822
-255.6499039013039,937
-253.10836358100266,863
-250.56752601459698,782
-248.02739101372765,801
-245.48795838995704,788
-242.94922795476816,801
-240.41119951956557,735
-237.8738728956746,773
-235.33724789434166,828
-232.80132432673452,776
-230.2661020039418,737
-227.73158073697357,855
-225.19776033676033,883
-222.66464061415422,921
-220.1322213799284,881
-217.60050244477725,794
-215.06948361931552,922
-212.53916471408013,1016
-210.00954553952818,1030
-207.48062590603843,934
-204.9524056239104,891
-202.4248845033651,941
-199.8980623545441,1088
-197.37193898751036,1162
-194.84651421224817,1028
-192.32178783866232,911
-189.79775967657952,975
-187.27442953574644,1155
-184.7517972258321,1187
-182.2298625564256,980
-179.7086253370378,931
-177.18808537710026,1013
-174.66824248596583,1205
-172.14909647290835,1228
-169.6306471471229,1187
-167.11289431772548,1055
-164.59583779375328,1104
-162.07947738416453,1284
-159.5638128978386,1451
-157.04884414357605,1455
-154.53457093009854,1472
-152.02099306604828,1250
-149.50811035998936,1189
-146.99592262040665,1424
-144.48442965570587,1595
-141.97363127421409,1843
-139.46352728417958,1938
-136.95411749377126,1753
-134.44540171107985,1405
-131.93737974411636,1227
-129.43005140081357,1223
-126.92341648902493,1592
-124.41747481652521,2105
-121.91222619101006,2653
-119.40767042009657,2741
-116.90380731132257,2524
-114.40063667214702,2546
-111.8981583099503,3326
-109.3963720320337,5129
-106.89527764561933,7740
-104.39487495785067,10032
-101.89516377579241,12957
-99.39614390642998,18004
-96.89781515667039,24214
-94.40017733334128,26204
-91.90323024319173,21013
-89.40697369289148,14575
-86.91140748903172,9021
-84.41653143812482,6881
-81.92234534660395,11227
-79.42884902082358,17332
-76.93604226705907,21900
-74.4439248915071,21101
-71.95249670028534,17644
-69.46175749943245,13400
-66.97170709490854,9723
-64.48234529259423,6774
-61.99367189829195,6692
-59.50568671772464,9690
-57.01838955653636,12404
-54.53178022029283,12403
-52.045858514480074,11754
-49.560624244506016,14403
-47.07607721569923,16158
-44.59221723330904,14355
-42.10904410250669,13711
-39.62655762838392,14459
-37.14475761595372,16924
-34.66364387015028,18228
-32.18321619582866,21986
-29.70347439776515,21788
-27.224418280657005,23653
-24.74604764912317,35311
-22.26836230770266,62829
-19.7913620608565,65033
-17.315046712966478,65033
-14.83941606833514,65033
-12.36446993118659,65033
-9.89020810566592,65033
-7.416630395839093,65033
-4.94373660569363,65033
-2.471526539137585,65033
-6.821210263296962E-13,65033
2.47084320796705,65033
4.941003281093458,65033
7.410480415786196,65033
9.879274808531363,65033
12.347386655893956,65033
14.814816154518212,65033
17.28156350112681,65033
19.74762889252179,65033
22.21301252558385,23694
24.67771459727237,6880
27.141735304626195,6878
29.605074844762612,7696
32.06773341487792,7646
34.52971121224755,6906
36.99100843422559,5809
39.45162527824516,4581
41.91156194181792,4892
44.370818622535126,4714
46.82939551806646,4894
49.287292826160524,7771
51.74451074464503,7091
54.201049471426245,4569
56.65690920448981,2652
59.112090141899785,2226
61.56659248179983,3053
64.02041642241159,3186
66.4735621620365,3582
68.92602989905402,4506
71.37781983192338,4265
73.82893215918205,3020
76.27936707944684,2197
78.72912479141326,2558
81.17820549385567,2635
83.62660938562783,2293
86.07433666566146,1843
88.5213875329681,2012
90.96776218663751,2234
93.41346082583925,2249
95.85848364982041,2526
98.30283085790859,2237
100.7465026495089,1932
103.18949922410604,1721
105.63182078126385,1690
108.07346752062438,1375
110.51443964190923,1215
112.95473734491827,1217
115.39436082953114,1508
117.83331029570547,1619
120.27158594347827,1581
122.7091879729652,1459
125.1461165843615,1310
127.58237197794062,1269
130.01795435405518,1448
132.4528639131364,1469
134.88710085569494,1367
137.32066538231982,1569
139.75355769367923,1680
142.1857779905207,1425
144.61732647366978,1209
147.04820334403132,1319
149.47840880258934,1286
151.90794305040674,1378
154.33680628862487,1573
156.76499871846443,1549
159.19252054122433,1566
161.61937195828352,1633
164.04555317109896,1874
166.47106438120693,2097
168.89590579022217,2147
171.320077599839,2301
173.7435800118302,2487
176.16641322804742,2613
178.58857745042144,2527
181.01007288096173,2460
183.43089972175687,2660
185.85105817497413,2650
188.27054844285988,2603
190.6893707277394,2576
193.10752523201643,2672
195.5250121581745,2878
197.9418317087751,2772
200.3579840864594,2723
202.7734694939469,2972
205.18828813403627,2977
207.6024402096051,2887
210.01592592360964,2930
212.42874547908548,2882
214.84089907914665,2885
217.2523869269868,2798
219.66320922587727,2835
222.0733661791695,2843
224.48285799029293,2912
226.8916848627572,3013
229.29984700014882,2961
231.7073446061355,3007
234.11417788446204,2985
236.520347038953,3048
238.92585227351185,3121
241.33069379212054,3215
243.73487179884035,3293
246.1383864978112,3231
248.541238093252,3329
250.9434267894609,3266
253.34495279081432,3258
255.74581630176783,3286
258.1460175268563,3239
260.54555667069314,3261
262.9444339379703,3303
265.3426495334594,3288
267.7402036620107,3215
270.1370965285529,3096
272.53332833809407,3026
274.9288992957214,2792
277.32380960660055,2753
279.718059475976,2851
282.1116491091717,2827
284.5045787115897,2814
286.89684848871195,2761
289.2884586460981,2767
291.67940938938807,2881
294.0697009242996,2880
296.4593334566299,2780
298.84830719225477,2687
301.23662233712923,2711
303.6242790972866,2694
306.01127767884,2746
308.39761828798066,2652
310.78330113097934,2684
313.16832641418534,2576
315.5526943440269,2533
317.9364051270112,2562
320.3194589697242,2550
322.70185607883093,2541
325.0835966610754,2448
327.4646809232805,2449
329.8451090723478,2486
332.2248813152577,2347
334.6039978590701,2401
336.9824589109231,2311
339.36026467803447,2281
341.7374153677,2282
344.113911187295,2228
346.48975234427337,2296
348.8649390461686,2338
351.2394715005918,2342
353.61334991523415,2247
355.9865744978655,2336
358.35914545633375,2411
360.73106299856715,2375
363.10232733257146,2285
365.47293866643247,2275
367.84289720831396,2185
370.2122031664593,2255
372.5808567491905,2260
374.9488581649083,2183
377.31620762209275,2170
379.6829053293021,2104
382.0489514951745,2178
384.4143463284262,2148
386.7790900378528,2094
389.14318283232853,2061
391.50662492080653,2110
393.86941651231916,2192
396.23155781597745,2100
398.5930490409713,2161
400.9538903965696,2073
403.3140820921202,2103
405.6736243370498,2158
408.03251734086336,2097
410.3907613131465,2035
412.74835646356166,2134
415.10530300185144,2102
417.4616011378372,2068
419.81725108141893,2083
422.1722530425758,2082
424.5266072313656,2050
426.880313857925,2121
429.2333731324701,1991
431.58578526529516,2038
433.9375504667738,2097
436.2886689473588,2086
438.63914091758113,2046
440.9889665880513,2021
443.33814616945835,2096
445.68667987257015,2027
448.03456790823395,2024
450.3818104873759,1998
452.72840782100013,1958
455.07436012019105,2029
457.41966759611057,2052
459.7643304600007,1985
462.10834892318155,1892
464.4517231970525,2006
466.79445349309174,1938
469.1365400228566,2008
471.4779829979826,2117
473.81878263018564,2108
476.15893913125876,2054
478.4984527130747,2083
480.8373235875855,2132
483.17555196682144,2176
485.5131380628919,2272
487.8500820879857,2265
490.1863842543697,2488
492.52204477439034,2618
494.8570638604725,2826
497.1914417251204,3132
499.52517858091653,3365
501.85827464052306,3647
504.19073011668036,3771
506.5225452222086,3855
508.85372017000566,3742
511.18425517304956,4091
513.514150444396,5056
515.8434061971808,6709
518.1720226446176,7393
520.4999999999999,7445
522.8273384766991,7044
525.1540382881666,6625
527.480099647932,5918
529.8055227696037,4379
532.1303078668694,3278
534.454455153496,2678
536.777964843328,2403
539.1008371502907,2349
541.4230722883866,2274
543.744670471698,2270
546.0656319143858,2175
548.3859568306899,2207
550.7056454349294,2155
553.0246979415016,2149
555.3431145648834,2078
557.6608955196306,2057
559.978041020377,2060
562.2945512818363,2009
564.6104265188006,2120
566.9256669461412,2070
569.2402727788082,2049
571.5542442318302,2122
573.8675815203156,2062
576.1802848594508,2124
578.4923544645015,2067
580.8037905508126,2091
583.114593333807,2084
585.4247630289875,2090
587.7342998519354,2036
590.0432040183106,2060
592.3514757438526,2062
594.6591152443794,2128
596.9661227357875,2122
599.2724984340531,2107
601.578242555231,2112
603.8833553154542,2087
606.1878369309362,1989
608.4916876179676,2067
610.7949075929192,2045
613.0974970722403,2086
615.3994562724587,2090
617.7007854101818,2105
620.0014847020951,2088
622.3015543649641,2075
624.6009946156324,2100
626.8998056710224,2056
629.1979877481361,2084
631.4955410640538,2099
633.7924658359349,2020
636.0887622810175,2131
638.3844306166192,2157
640.6794710601358,2170
642.9738838290426,2183
645.2676691408932,2146
647.5608272133207,2133
649.853358264037,2138
652.1452625108324,2129
654.4365401715764,2099
656.7271914642178,2094
659.0172166067838,2154
661.3066158173809,2096
663.5953893141935,2170
665.8835373154867,2114
668.1710600396028,2083
670.4579577049639,2128
672.7442305300709,2153
675.0298787335033,2153
677.3149025339197,2180
679.599302150058,2111
681.8830778007342,2155
684.1662297048437,2108
686.4487580813608,2106
688.7306631493387,2106
691.0119451279091,2098
693.2926042362834,2105
695.5726406937516,2052
697.8520547196814,2039
700.1308465335215,2040
702.4090163547982,2011
704.6865644031171,2050
706.9634908981619,2050
709.2397960596965,2131
711.5154801075631,2163
713.7905432616823,2086
716.0649857420548,2136
718.3388077687592,2107
720.612009561953,2123
722.8845913418733,2078
725.1565533288352,2101
727.427895743234,2065
729.6986188055427,2054
731.9687227363137,2076
734.238207756178,2068
736.5070740858458,2015
738.7753219461066,2063
741.0429515578281,2059
743.3099631419569,2084
745.5763569195191,2076
747.8421331116193,2134
750.1072919394409,2044
752.3718336242467,2116
754.6357583873777,2059
756.8990664502545,2084
759.1617580343765,2002
761.423833361321,1989
763.6852926527457,2084
765.9461361303862,2071
768.206364016058,2026
770.4659765316536,2099
772.7249738991469,2060
774.9833563405886,2112
777.2411240781092,2070
779.4982773339183,2037
781.7548163303044,2065
784.010741289634,2113
786.2660524343538,2075
788.5207499869881,2140
790.7748341701416,2139
793.0283052064964,2132
795.2811633188143,2181
797.5334087299362,2094
799.7850416627813,2125
802.0360623403484,2079
804.2864709857143,2133
806.5362678220353,2129
808.7854530725468,2181
811.0340269605625,2090
813.2819897094754,2155
815.5293415427581,2153
817.77608268396,2093
820.0222133567116,2144
822.2677337847211,2080
824.5126441917765,2047
826.7569448017433,2131
829.0006358385675,2142
831.2437175262731,2145
833.4861900889629,2162
835.7280537508192,2061
837.9693087361026,2209
840.2099552691533,2148
842.4499935743896,2078
844.689423876309,2114
846.9282463994886,2138
849.1664613685833,2159
851.4040690083276,2112
853.6410695435349,2094
855.877463199097,2139
858.1132501999847,2218
860.3484307712487,2219
862.5830051380175,2210
864.8169735254988,2262
867.0503361589791,2125
869.2830932638243,2154
871.5152450654786,2113
873.7467917894654,2145
875.9777336613873,2130
878.2080709069252,2215
880.4378037518389,2196
882.666932421968,2206
884.8954571432301,2186
887.1233781416219,2162
889.3506956432192,2176
891.5774098741766,2157
893.803521060728,2110
896.0290294291852,2124
898.2539352059397,2173
900.4782386174619,2190
902.7019398903011,2178
904.925039251085,2228
907.147536926521,2226
909.3694331433943,2159
911.59072812857,2083
913.8114221089921,2097
916.0315153116827,2151
918.2510079637437,2134
920.4699002923547,2108
922.6881925247761,2133
924.905884888345,2211
927.1229776104793,2052
929.3394709186747,2164
931.555365040506,2154
933.7706602036275,2146
935.9853566357709,2163
938.1994545647489,2219
940.4129542184515,2255
942.6258558248488,2240
944.8381596119883,2227
947.0498658079974,2222
949.2609746410825,2209
951.4714863395287,2253
953.6814011316998,2180
955.8907192460387,2262
958.0994409110671,2170
960.3075663553858,2174
962.5150958076741,2274
964.7220294966913,2216
966.928367651274,2173
969.1341105003388,2174
971.3392582728806,2151
973.5438111979742,2123
975.747769504772,2061
977.9511334225061,2141
980.153903180487,2098
982.3560790081052,2098
984.5576611348289,2106
986.7586497902058,2065
988.9590452038618,2069
991.158847605503,2054
993.3580572249133,2053
995.5566742919558,1973
997.7546990365728,1906
999.952131688785,1868
1002.1489724786926,1876
1004.3452216364743,1904
1006.5408793923874,1845
1008.7359459767691,1851
1010.9304216200343,1885
1013.1243065526781,1776
1015.3176010052733,1802
1017.510305208472,1802
1019.7024193930064,1829
1021.8939437896848,1869
1024.0848786293977,1801
1026.2752241431122,1788
1028.4649805618747,1849
1030.6541481168115,1754
1032.842727039127,1748
1035.0307175601051,1805
1037.2181199111074,1734
1039.4049343235752,1693
1041.591161029029,1655
1043.7768002590683,1728
1045.9618522453698,1767
1048.1463172196918,1735
1050.3301954138697,1758
1052.513487059818,1754
1054.69619238953,1717
1056.8783116350783,1742
1059.0598450286152,1725
1061.2407928023704,1762
1063.4211551886528,1699
1065.6009324198508,1726
1067.780124728432,1687
1069.9587323469414,1696
1072.1367555080046,1693
1074.314194444325,1739
1076.4910493886855,1653
1078.667320573947,1709
1080.843008233051,1663
1083.0181125990161,1710
1085.1926339049414,1667
1087.3665723840027,1664
1089.5399282694575,1651
1091.7127017946405,1608
1093.8848931929647,1724
1096.0565026979243,1614
1098.2275305430899,1625
1100.3979769621128,1688
1102.567842188722,1610
1104.737126456726,1595
1106.9058300000124,1620
1109.0739530525475,1589
1111.2414958483764,1582
1113.4084586216231,1552
1115.5748416064907,1588
1117.7406450372605,1553
1119.9058691482942,1597
1122.0705141740304,1593
1124.2345803489884,1607
1126.3980679077658,1520
1128.5609770850388,1574
1130.7233081155623,1634
1132.8850612341707,1577
1135.0462366757774,1647
1137.2068346753745,1624
1139.3668554680326,1546
1141.526299288901,1633
1143.68516637321,1564
1145.8434569562655,1538
1148.001171273455,1605
1150.158309560244,1603
1152.3148720521767,1523
1154.470858984876,1566
1156.626270594044,1582
1158.7811071154629,1545
1160.9353687849912,1541
1163.089055838569,1590
1165.242168512213,1571
1167.3947070420209,1559
1169.5466716641677,1587
1171.6980626149075,1521
1173.8488801305748,1580
1175.9991244475814,1571
1178.1487958024186,1576
1180.2978944316555,1564
1182.4464205719428,1550
1184.5943744600072,1546
1186.7417563326567,1567
1188.8885664267755,1529
1191.0348049793297,1551
1193.1804722273619,1571
1195.325568407995,1558
1197.4700937584303,1592
1199.614048515948,1459
1201.7574329179074,1538
1203.900247201746,1609
1206.042491604982,1588
1208.1841663652099,1584
1210.3252717201053,1630
1212.465807907422,1620
1214.6057751649923,1572
1216.7451737307279,1586
1218.8840038426192,1581
1221.0222657387353,1652
1223.1599596572241,1637
1225.2970858363137,1618
1227.4336445143094,1604
1229.5696359295966,1647
1231.705060320639,1644
1233.8399179259786,1602
1235.9742089842384,1683
1238.107933734118,1572
1240.2410924143974,1674
1242.373685263935,1676
1244.5057125216676,1606
1246.6371744266116,1649
1248.7680712178621,1647
1250.898403134593,1674
1253.028170416058,1687
1255.1573733015875,1700
1257.2860120305932,1647
1259.4140868425648,1697
1261.54159797707,1683
1263.6685456737569,1694
1265.7949301723515,1611
1267.9207517126597,1694
1270.046010534565,1649
1272.1707068780306,1683
1274.2948409830983,1686
1276.4184130898889,1698
1278.541423438603,1730
1280.6638722695184,1742
1282.785759822993,1688
1284.9070863394636,1713
1287.0278520594447,1651
1289.1480572235314,1694
1291.2677020723963,1708
1293.3867868467923,1784
1295.5053117875495,1771
1297.623277135579,1761
1299.740683131868,1781
1301.8575300174857,1739
1303.973818033578,1826
1306.0895474213703,1768
1308.2047184221678,1828
1310.3193312773528,1799
1312.4333862283888,1844
1314.5468835168163,1820
1316.659823384255,1812
1318.7722060724045,1821
1320.8840318230418,1873
1322.9953008780249,1837
1325.1060134792888,1860
1327.2161698688478,1792
1329.3257702887959,1841
1331.4348149813054,1859
1333.5433041886276,1791
1335.6512381530933,1890
1337.7586171171101,1799
1339.8654413231675,1830
1341.9717110138317,1829
1344.0774264317488,1801
1346.1825878196432,1788
1348.2871954203192,1796
1350.3912494766587,1774
1352.4947502316231,1818
1354.5976979282532,1795
1356.7000928096686,1816
1358.8019351190665,1793
1360.9032250997243,1736
1363.0039629949988,1762
1365.1041490483235,1792
1367.2037835032133,1766
1369.3028666032606,1743
1371.401398592137,1709
1373.4993797135926,1785
1375.5968102114575,1697
1377.6936903296396,1758
1379.7900203121262,1810
1381.8858004029835,1711
1383.9810308463561,1797
1386.075711886469,1808
1388.1698437676241,1783
1390.2634267342032,1817
1392.356461030667,1873
1394.4489469015557,1826
1396.5408845914872,1814
1398.6322743451592,1801
1400.7231164073469,1827
1402.813411022907,1828
1404.903158436773,1875
1406.9923588939578,1834
1409.0810126395531,1819
1411.1691199187303,1902
1413.2566809767386,1850
1415.343696058907,1860
1417.4301654106425,1901
1419.5160892774315,1904
1421.6014679048399,1926
1423.6863015385125,1900
1425.7705904241707,1969
1427.8543348076178,1872
1429.9375349347342,2021
1432.0201910514802,1970
1434.102303403894,1947
1436.1838722380944,1996
1438.2648978002767,1998
1440.3453803367174,1951
1442.4253200937692,2009
1444.5047173178677,1978
1446.5835722555234,2078
1448.6618851533285,2048
1450.739656257952,2167
1452.8168858161434,2226
1454.8935740747306,2117
1456.96972128062,2152
1459.045327680797,2159
1461.120393522327,2188
1463.1949190523528,2195
1465.2689045180973,2297
1467.3423501668608,2336
1469.415256246024,2304
1471.4876230030463,2327
1473.559450685465,2411
1475.6307395408976,2416
1477.7014898170391,2428
1479.771701761665,2518
1481.8413756226287,2583
1483.9105116478618,2545
1485.9791100853772,2518
1488.0471711832643,2480
1490.1146951896926,2644
1492.1816823529098,2639
1494.2481329212433,2712
1496.3140471430984,2739
1498.3794252669609,2663
1500.4442675413939,2765
1502.5085742150404,2801
1504.572345536622,2737
1506.6355817549388,2781
1508.6982831188702,2686
1510.7604498773744,2858
1512.8220822794883,2821
1514.8831805743293,2789
1516.9437450110909,2844
1519.003775839048,2857
1521.0632733075522,2840
1523.1222376660367,2885
1525.1806691640113,2903
1527.2385680510652,2846
1529.2959345768668,2870
1531.3527689911643,2929
1533.4090715437833,2899
1535.4648424846291,2898
1537.5200820636855,3004
1539.5747905310159,3040
1541.6289681367616,3068
1543.6826151311434,3110
1545.7357317644614,3153
1547.7883182870937,3272
1549.8403749494987,3255
1551.8919020022113,3336
1553.9428996958477,3467
1555.9933682811015,3449
1558.0433080087469,3412
1560.0927191296346,3410
1562.1416018946961,3408
1564.1899565549415,3436
1566.2377833614592,3396
1568.2850825654164,3370
1570.3318544180606,3225
1572.3780991707158,3164
1574.423817074788,3122
1576.4690083817595,3063
1578.5136733431923,2892
1580.5578122107272,2817
1582.601425236085,2698
1584.6445126710646,2678
1586.6870747675434,2557
1588.7291117774776,2406
1590.7706239529034,2368
1592.8116115459347,2340
1594.8520748087658,2285
1596.8920139936686,2203
1598.9314293529933,2158
1600.9703211391711,2141
1603.008689604711,2136
1605.0465350022005,2038
1607.0838575843068,1948
1609.1206576037753,1921
1611.1569353134305,1931
1613.1926909661765,1915
1615.2279248149953,1951
1617.2626371129481,1863
1619.2968281131757,1843
1621.3304980688963,1759
1623.3636472334088,1885
1625.39627586009,1757
1627.428384202396,1807
1629.459972513861,1737
1631.4910410480993,1766
1633.5215900588028,1711
1635.551619799744,1730
1637.5811305247717,1698
1639.6101224878166,1680
1641.6385959428862,1670
1643.6665511440683,1702
1645.693988345528,1672
1647.7209078015112,1653
1649.7473097663405,1700
1651.7731944944203,1691
1653.7985622402307,1623
1655.823413258333,1650
1657.847747803366,1616
1659.8715661300494,1591
1661.8948684931793,1679
1663.9176551476316,1635
1665.9399263483624,1620
1667.9616823504057,1675
1669.982923408873,1606
1672.0036497789574,1587
1674.0238617159293,1628
1676.043559475138,1618
1678.0627433120121,1589
1680.081413482059,1586
1682.0995702408654,1649
1684.117213844096,1653
1686.134344547495,1641
1688.1509626068864,1603
1690.1670682781705,1583
1692.182661817329,1604
1694.1977434804217,1601
1696.2123135235875,1557
1698.226372203043,1650
1700.2399197750851,1616
1702.2529564960905,1575
1704.2654826225112,1627
1706.277498410882,1560
1708.2890041178139,1568
1710.2999999999988,1545
1712.3104863142066,1578
1714.3204633172854,1597
1716.329931266163,1534
1718.3388904178469,1532
1720.3473410294214,1626
1722.3552833580516,1591
1724.3627176609807,1533
1726.3696441955308,1569
1728.3760632191033,1560
1730.3819749891782,1560
1732.3873797633146,1570
1734.3922777991502,1487
1736.3966693544012,1533
1738.4005546868639,1516
1740.4039340544127,1539
1742.406807715001,1533
1744.4091759266616,1512
1746.4110389475054,1490
1748.4123970357223,1526
1750.413250449582,1502
1752.4135994474318,1544
1754.4134442876993,1487
1756.4127852288902,1549
1758.4116225295893,1481
1760.4099564484595,1522
1762.407787244244,1434
1764.405115175764,1502
1766.4019405019203,1444
1768.3982634816916,1549
1770.3940843741357,1492
1772.3894034383907,1435
1774.3842209336717,1457
1776.378537119274,1457
1778.372352254571,1475
1780.3656665990156,1504
1782.3584804121397,1434
1784.3507939535534,1549
1786.3426074829463,1469
1788.3339212600863,1476
1790.3247355448211,1472
1792.3150505970766,1476
1794.3048666768573,1494
1796.2941840442477,1507
1798.2830029594106,1483
1800.2713236825884,1495
1802.2591464741004,1429
1804.2464715943465,1516
1806.2332993038058,1460
1808.2196298630352,1503
1810.2054635326708,1447
1812.190800573428,1497
1814.175641246101,1443
1816.1599858115628,1466
1818.1438345307652,1517
1820.127187664738,1507
1822.1100454745924,1462
1824.092408221516,1426
1826.0742761667766,1452
1828.055649571721,1480
1830.0365286977735,1454
1832.0169138064398,1391
1833.9968051593014,1503
1835.9762030180214,1482
1837.9551076443408,1450
1839.9335193000788,1418
1841.9114382471344,1503
1843.888864747485,1515
1845.8657990631878,1473
1847.842241456378,1470
1849.8181921892697,1415
1851.7936515241558,1474
1853.7686197234098,1472
1855.7430970494815,1441
1857.7170837649014,1459
1859.6905801322787,1490
1861.6635864143004,1464
1863.6361028737338,1484
1865.608129773424,1498
1867.5796673762961,1465
1869.5507159453537,1527
1871.521275743678,1459
1873.4913470344313,1468
1875.4609300808534,1515
1877.4300251462632,1440
1879.3986324940588,1519
1881.366752387717,1460
1883.3343850907936,1457
1885.3015308669228,1480
1887.268189979819,1455
1889.2343626932739,1444
1891.2000492711595,1515
1893.1652499774254,1457
1895.1299650761011,1514
1897.0941948312952,1504
1899.0579395071945,1455
1901.0211993680641,1490
1902.98397467825,1487
1904.9462657021745,1491
1906.9080727043415,1516
1908.869395949332,1493
1910.8302357018065,1502
1912.790592226504,1465
1914.7504657882428,1481
1916.7098566519212,1459
1918.6687650825133,1522
1920.6271913450764,1458
1922.5851357047422,1507
1924.5425984267245,1472
1926.499579776314,1493
1928.4560800188833,1498
1930.4120994198802,1497
1932.367638244833,1495
1934.32269675935,1509
1936.2772752291175,1480
1938.231373919899,1481
1940.1849930975404,1422
1942.1381330279637,1468
1944.0907939771696,1438
1946.0429762112412,1490
1947.9946799963363,1507
1949.9459055986945,1473
1951.896653284633,1504
1953.8469233205478,1486
1955.7967159729142,1465
1957.7460315082863,1515
1959.6948701932974,1452
1961.6432322946594,1443
1963.5911180791632,1467
1965.5385278136787,1449
1967.4854617651545,1509
1969.4319202006182,1381
1971.377903387176,1465
1973.3234115920136,1397
1975.268445082395,1417
1977.2130041256642,1456
1979.1570889892423,1491
1981.1006999406304,1511
1983.04383724741,1432
1984.986501177238,1441
1986.928691997853,1465
1988.8704099770712,1479
1990.811655382789,1441
1992.7524284829801,1462
1994.692729545698,1433
1996.6325588390755,1442
1998.5719166313224,1402
2000.5108031907307,1368
2002.4492187856677,1466
2004.387163684583,1473
2006.3246381560011,1494
2008.2616424685298,1397
2010.1981768908527,1513
2012.1342416917332,1388
2014.069837140014,1408
2016.0049635046162,1430
2017.9396210545406,1447
2019.8738100588666,1402
2021.8075307867502,1444
2023.740783507431,1436
2025.6735684902228,1401
2027.6058860045214,1435
2029.5377363198004,1426
2031.4691197056118,1392
2033.4000364315875,1447
2035.3304867674374,1433
2037.260470982952,1443
2039.189989347998,1449
2041.1190421325232,1405
2043.047629606554,1418
2044.9757520401945,1437
2046.9034097036288,1419
2048.8306028671195,1367
2050.7573318010086,1415
2052.683596775716,1442
2054.609398061742,1463
2056.5347359296647,1405
2058.4596106501403,1400
2060.384022493906,1408
2062.3079717317764,1391
2064.231458634646,1399
2066.1544834734873,1418
2068.077046519352,1439
2069.99914804337,1387
2071.9207883167524,1365
2073.8419676107865,1444
2075.7626861968406,1418
2077.6829443463607,1395
2079.6027423308715,1336
2081.522080421977,1438
2083.440958891362,1410
2085.359378010786,1379
2087.2773380520907,1414
2089.194839287196,1425
2091.111881988101,1445
2093.0284664268825,1402
2094.9445928756973,1382
2096.86026160678,1420
2098.775472892446,1451
2100.690227005088,1416
2102.604524217178,1400
2104.5183648012676,1486
2106.431749029985,1449
2108.34467717604,1423
2110.2571495122206,1418
2112.169166311393,1427
2114.080727846503,1406
2115.9918343905747,1438
2117.902486216711,1429
2119.8126835980956,1414
2121.722426807987,1457
2123.6317161197285,1428
2125.5405518067364,1434
2127.448934142509,1429
2129.356863400624,1427
2131.264339854737,1480
2133.1713637785815,1437
2135.077935445972,1489
2136.9840551308002,1423
2138.889723107037,1381
2140.7949396487334,1485
2142.699705030018,1435
2144.6040195250994,1466
2146.507883408264,1495
2148.4112969538774,1477
2150.3142604363848,1512
2152.2167741303097,1483
2154.1188383102535,1470
2156.0204532508997,1497
2157.9216192270064,1511
2159.822336513414,1480
2161.7226053850413,1508
2163.622426116884,1474
2165.5217989840185,1507
2167.4207242616,1499
2169.319202224862,1472
2171.2172331491165,1501
2173.1148173097563,1521
2175.0119549822507,1452
2176.90864644215,1482
2178.8048919650823,1488
2180.7006918267534,1501
2182.596046302952,1500
2184.4909556695407,1465
2186.3854202024645,1445
2188.279440177746,1485
2190.173015871487,1476
2192.066147559868,1487
2193.958835519149,1538
2195.851080025667,1471
2197.7428813558417,1538
2199.6342397861667,1508
2201.5251555932186,1489
2203.415629053651,1526
2205.3056604441986,1491
2207.19525004167,1540
2209.084398122958,1519
2210.9731049650327,1540
2212.861370844941,1492
2214.749196039812,1489
2216.636580826851,1497
2218.523525483344,1587
2220.410030286655,1501
2222.296095514226,1525
2224.1817214435805,1504
2226.066908352319,1457
2227.951656518121,1488
2229.835966218746,1493
2231.71983773203,1470
2233.6032713358913,1557
2235.486267308324,1569
2237.3688259274036,1486
2239.2509474712824,1484
2241.132632218193,1532
2243.013880446447,1577
2244.8946924344323,1484
2246.7750684606203,1493
2248.6550088035574,1487
2250.534513741871,1565
2252.413583554265,1536
2254.292218519526,1568
2256.170418916517,1488
2258.0481850241786,1511
2259.925517121534,1479
2261.8024154876825,1492
2263.678880401803,1462
2265.5549121431536,1530
2267.430510991071,1490
2269.305677224971,1485
2271.180411124348,1499
2273.0547129687766,1510
2274.9285830379076,1453
2276.8020216114737,1482
2278.6750289692845,1545
2280.5476053912294,1491
2282.4197511572766,1541
2284.2914665474727,1524
2286.162751841943,1529
2288.0336073208937,1553
2289.904033264608,1561
2291.774029953448,1504
2293.6435976678554,1485
2295.5127366883517,1512
2297.381447295534,1433
2299.2497297700825,1488
2301.1175843927526,1401
2302.9850114443825,1457
2304.852011205885,1402
2306.7185839582553,1343
2308.5847299825664,1381
2310.4504495599676,1354
2312.3157429716925,1377
2314.1806104990483,1367
2316.0450524234247,1340
2317.9090690262888,1338
2319.772660589186,1341
2321.635827393742,1335
2323.498569721661,1354
2325.3608878547248,1378
2327.2227820747967,1311
2329.0842526638157,1282
2330.945299903803,1314
2332.805924076857,1301
2334.6661254651535,1345
2336.525904350951,1332
2338.3852610165827,1326
2340.244195744464,1339
2342.102708817088,1346
2343.9608005170253,1369
2345.8184711269287,1335
2347.675720929526,1404
2349.532550207628,1333
2351.38895924412,1352
2353.24494832197,1350
2355.100517724223,1300
2356.955667734004,1324
2358.810398634514,1398
2360.664710709037,1350
2362.5186042409337,1349
2364.3720795136437,1387
2366.225136810686,1374
2368.0777764156583,1377
2369.929998612237,1333
2371.7818036841777,1323
2373.633191915315,1301
2375.484163589562,1364
2377.3347189909114,1402
2379.184858403434,1337
2381.03458211128,1356
2382.8838903986775,1348
2384.732783549936,1368
2386.5812618494406,1379
2388.4293255816588,1365
2390.2769750311327,1339
2392.1242104824883,1358
2393.971032220427,1339
2395.8174405297295,1316
2397.6634356952563,1364
2399.509018001947,1330
2401.3541877348193,1381
2403.1989451789705,1403
2405.043290619576,1362
2406.8872243418905,1334
2408.730746631247,1373
2410.5738577730594,1342
2412.4165580528183,1330
2414.258847756095,1363
2416.100727168537,1319
2417.9421965758734,1318
2419.783256263912,1408
2421.623906518538,1394
2423.4641476257157,1340
2425.303979871491,1387
2427.143403541984,1371
2428.9824189233977,1385
2430.821026302012,1360
2432.6592259641866,1374
2434.497018196361,1389
2436.33440328505,1417
2438.171381516851,1397
2440.00795317844,1447
2441.844118556569,1415
2443.6798779380724,1374
2445.5152316098606,1367
2447.3501798589255,1342
2449.1847229723357,1363
2451.0188612372403,1363
2452.8525949408663,1355
2454.6859243705203,1381
2456.518849813587,1326
2458.3513715575314,1372
2460.183489889895,1355
2462.015205098301,1363
2463.8465174704493,1377
2465.67742729412,1401
2467.5079348571717,1384
2469.338040447542,1419
2471.1677443532476,1388
2472.9970468623833,1362
2474.825948263123,1364
2476.6544488437207,1366
2478.482548892508,1413
2480.310248697896,1389
2482.137548548374,1399
2483.9644487325118,1412
2485.790949538956,1378
2487.617051256433,1354
2489.44275417375,1338
2491.26805857979,1354
2493.0929647635157,1367
2494.917473013971,1421
2496.741583620276,1415
2498.5652968716304,1444
2500.3886130573137,1382
2502.2115324666834,1471
2504.0340553891765,1458
2505.856182114308,1418
2507.6779129316733,1435
2509.499248130945,1457
2511.3201880018764,1452
2513.140732834298,1415
2514.9608829181198,1418
2516.780638543331,1440
2518.6,1476
2520.418967578273,1406
2522.237541568376,1449
2524.0557222606144,1444
2525.8735099453706,1425
2527.6909049131086,1461
2529.507907454368,1476
2531.32451785977,1459
2533.140736420014,1490
2534.9565634258774,1492
2536.771999168218,1458
2538.5870439379714,1599
2540.4016980261526,1503
2542.2159617238544,1540
2544.02983532225,1485
2545.8433191125914,1558
2547.656413386209,1581
2549.4691184345115,1538
2551.2814345489874,1498
2553.093362021204,1527
2554.904901142808,1551
2556.716052205523,1568
2558.526815501153,1575
2560.3371913215824,1558
2562.147179958771,1596
2563.956781704761,1619
2565.7659968516705,1604
2567.5748256916986,1606
2569.3832685171224,1593
2571.1913256202984,1576
2572.9989972936614,1689
2574.806283829725,1642
2576.613185521084,1624
2578.4197026604074,1658
2580.2258355404483,1677
2582.031584454035,1656
2583.836949694077,1652
2585.6419315535613,1632
2587.4465303255533,1661
2589.2507463032002,1691
2591.0545797797245,1672
2592.8580310484303,1633
2594.6611004026995,1625
2596.463788135992,1668
2598.266094541849,1634
2600.0680199138874,1677
2601.869564545807,1606
2603.670728731383,1706
2605.4715127644704,1623
2607.2719169390048,1645
2609.071941548998,1658
2610.8715868885433,1601
2612.670853251811,1649
2614.469740933052,1662
2616.268250226594,1634
2618.0663814268455,1618
2619.864134828292,1587
2621.6615107255006,1567
2623.458509413115,1621
2625.2551311858597,1537
2627.0513763385347,1600
2628.8472451660223,1496
2630.6427379632833,1574
2632.4378550253564,1589
2634.232596647359,1557
2636.026963124488,1528
2637.8209547520187,1616
2639.6145718253065,1546
2641.407814639785,1522
2643.200683490966,1583
2644.9931786744414,1527
2646.7853004858807,1530
2648.577049221034,1485
2650.3684251757277,1573
2652.1594286458712,1461
2653.9500599274484,1520
2655.740319316525,1483
2657.5302071092437,1497
2659.3197236018286,1432
2661.10886909058,1499
2662.8976438718782,1472
2664.686048242183,1455
2666.4740824980327,1497
2668.2617469360443,1432
2670.0490418529134,1466
2671.8359675454153,1403
2673.622524310403,1400
2675.408712444811,1417
2677.1945322456495,1397
2678.979984010009,1429
2680.76506803506,1436
2682.5497846180497,1406
2684.334134056306,1435
2686.1181166472343,1353
2687.9017326883213,1397
2689.6849824771293,1353
2691.4678663113013,1361
2693.2503844885596,1334
2695.032537306705,1413
2696.8143250636167,1376
2698.5957480572542,1383
2700.3768065856534,1359
2702.1575009469316,1339
2703.937831439283,1324
2705.717798360982,1368
2707.4974020103837,1375
2709.276642685917,1383
2711.055520686095,1427
2712.834036309506,1402
2714.612189854819,1339
2716.389981620782,1351
2718.1674119062204,1420
2719.944481010041,1381
2721.721189231226,1354
2723.4975368688415,1355
2725.273524222027,1310
2727.0491515900053,1343
2728.824419272075,1357
2730.5993275676146,1319
2732.3738767760838,1263
2734.148067197016,1332
2735.921899130031,1315
2737.6953728748194,1277
2739.468488731156,1285
2741.2412469988926,1336
2743.0136479779617,1274
2744.785691968372,1368
2746.5573792702116,1352
2748.3287101836504,1319
2750.099685008934,1254
2751.870304046388,1302
2753.640567596418,1302
2755.4104759595057,1383
2757.1800294362156,1324
2758.949228327187,1333
2760.7180729331412,1306
2762.486563554877,1300
2764.254700493272,1331
2766.022484049284,1312
2767.789914523947,1347
2769.5569922183786,1323
2771.3237174337705,1330
2773.090090471394,1289
2774.8561116326036,1304
2776.6217812188274,1302
2778.3870995315756,1308
2780.1520668724356,1303
2781.9166835430747,1347
2783.6809498452394,1290
2785.444866080754,1376
2787.2084325515225,1325
2788.971649559527,1272
2790.73451740683,1305
2792.4970363955713,1321
2794.2592068279705,1251
2796.0210290063264,1250
2797.7825032330147,1288
2799.543629810493,1293
2801.304409041296,1301
2803.0648412280366,1354
2804.8249266734088,1297
2806.5846656801846,1312
2808.344058551212,1309
2810.1031055894246,1311
2811.8618070978273,1313
2813.6201633795085,1329
2815.378174737636,1359
2817.1358414754536,1293
2818.893163896285,1306
2820.6501423035334,1274
2822.4067770006814,1272
2824.1630682912883,1335
2825.9190164789957,1317
2827.6746218675207,1285
2829.429884760661,1296
2831.184805462294,1285
2832.9393842763743,1372
2834.693621506936,1291
2836.4475174580916,1286
2838.201072434034,1315
2839.954286739034,1290
2841.707160677441,1278
2843.459694553685,1318
2845.2118886722724,1324
2846.96374333779,1287
2848.7152588549034,1284
2850.4664355283567,1274
2852.217273662973,1345
2853.9677735636546,1310
2855.7179355353833,1274
2857.4677598832186,1276
2859.217246912299,1351
2860.9663969278427,1247
2862.715210235146,1260
2864.4636871395846,1246
2866.211827946614,1281
2867.9596329617652,1311
2869.7071024906536,1310
2871.4542368389684,1288
2873.20103631248,1307
2874.947501217038,1320
2876.6936318585695,1292
2878.4394285430812,1287
2880.1848915766604,1320
2881.9300212654707,1297
2883.6748179157553,1274
2885.4192818338374,1323
2887.1634133261173,1316
2888.907212699077,1341
2890.6506802592744,1263
2892.393816313348,1315
2894.1366211680142,1314
2895.8790951300693,1333
2897.621238506388,1314
2899.363051603925,1303
2901.1045347297118,1271
2902.8456881908596,1267
2904.58651229456,1241
2906.327007348081,1287
2908.067173658772,1281
2909.8070115340597,1319
2911.5465212814497,1316
2913.285703208527,1271
2915.0245576229563,1315
2916.7630848324807,1270
2918.5012851449196,1273
2920.2391588681758,1324
2921.976706310227,1307
2923.7139277791334,1279
2925.4508235830313,1275
2927.187394030137,1237
2928.923639428745,1296
2930.6595600872306,1320
2932.395156314046,1334
2934.1304284177218,1314
2935.8653767068713,1274
2937.6000014901815,1272
2939.3343030764227,1276
2941.068281774442,1297
2942.8019378931644,1320
2944.5352717415976,1293
2946.2682836288236,1368
2948.0009738640065,1298
2949.7333427563885,1338
2951.465390615289,1257
2953.1971177501086,1281
2954.9285244703265,1325
2956.6596110855,1321
2958.3903779052657,1312
2960.1208252393385,1312
2961.8509533975125,1290
2963.5807626896617,1295
2965.3102534257378,1324
2967.0394259157715,1303
2968.768280469873,1291
2970.496817398232,1247
2972.2250370111146,1271
2973.952939618869,1272
2975.6805255319196,1311
2977.4077950607707,1350
2979.134748516006,1306
2980.861386208289,1361
2982.587708448359,1318
2984.313715547037,1316
2986.039407815222,1263
2987.764785563891,1276
2989.489849104102,1280
2991.2145987469908,1329
2992.9390348037705,1273
2994.6631575857346,1339
2996.3869674042576,1330
2998.1104645707887,1274
2999.83364939686,1288
3001.5565221940783,1226
3003.2790832741334,1245
3005.0013329487924,1315
3006.7232715298996,1279
3008.4448993293804,1281
3010.166216659239,1242
3011.887223831558,1353
3013.607921158498,1313
3015.3283089522993,1249
3017.0483875252826,1292
3018.7681571898443,1238
3020.4876182584626,1300
3022.2067710436927,1262
3023.9256158581707,1308
3025.644153014609,1326
3027.362382825801,1301
3029.0803056046193,1238
3030.797921664012,1274
3032.5152313170106,1271
3034.2322348767225,1258
3035.9489326563353,1231
3037.665324969115,1296
3039.3814121284063,1285
3041.097194447633,1260
3042.812672240299,1263
3044.5278458199855,1270
3046.2427155003525,1265
3047.9572815951406,1298
3049.671544418167,1323
3051.38550428333,1271
3053.0991615046073,1241
3054.812516396051,1244
3056.5255692717974,1308
3058.2383204460575,1244
3059.9507702331257,1281
3061.662918947372,1250
3063.3747669032446,1279
3065.0863144152736,1274
3066.7975617980674,1255
3068.508509366309,1230
3070.219157434767,1246
3071.9295063182844,1250
3073.639556331785,1296
3075.3493077902704,1281
3077.058761008821,1300
3078.7679163025964,1314
3080.476773986837,1253
3082.1853343768594,1225
3083.89359778806,1304
3085.6015645359153,1279
3087.3092349359786,1269
3089.016609303884,1297
3090.7236879553434,1298
3092.4304712061476,1260
3094.136959372166,1258
3095.843152769349,1294
3097.5490517137237,1277
3099.2546565213966,1283
3100.959967508554,1268
3102.66498499146,1301
3104.3697092864577,1292
3106.0741407099695,1245
3107.778279578498,1233
3109.482126208622,1296
3111.1856809170004,1253
3112.8889440203716,1214
3114.5919158355528,1226
3116.294596679439,1285
3117.996986869006,1279
3119.6990867213062,1310
3121.4008965534726,1294
3123.102416682717,1285
3124.803647426329,1275
3126.5045891016784,1273
3128.205242026213,1266
3129.90560651746,1312
3131.605682893025,1332
3133.3054714705922,1283
3135.0049725679282,1273
3136.7041865028714,1241
3138.4031135933465,1260
3140.101754157353,1309
3141.800108512971,1269
3143.498176978357,1266
3145.1959598717494,1318
3146.8934575114636,1253
3148.5906702158954,1206
3150.2875983035183,1320
3151.9842420928853,1227
3153.680601902627,1280
3155.376678051456,1271
3157.07247085816,1181
3158.767980641609,1289
3160.463207720748,1236
3162.158152414606,1253
3163.8528150422862,1263
3165.5471959229726,1244
3167.2412953759303,1278
3168.9351137204976,1222
3170.628651276098,1281
3172.3219083622307,1299
3174.014885298474,1282
3175.707582404485,1258
3177.4000000000005,1276
3179.092138404835,1285
3180.7839979388846,1316
3182.47557892212,1279
3184.166881674594,1231
3185.8579065164386,1275
3187.5486537678626,1284
3189.2391237491547,1262
3190.9293167806827,1251
3192.6192331828934,1264
3194.3088732763117,1308
3195.998237381542,1235
3197.687325819268,1232
3199.376138910251,1266
3201.064676975334,1202
3202.7529403354347,1304
3204.4409293115523,1270
3206.1286442247647,1241
3207.816085396229,1285
3209.5032531471825,1227
3211.190147798936,1204
3212.8767696728846,1217
3214.5631190905015,1212
3216.2491963733373,1227
3217.9350018430214,1233
3219.6205358212637,1264
3221.305798629851,1231
3222.990790590651,1243
3224.6755120256103,1313
3226.359963256751,1214
3228.0441446061795,1216
3229.7280563960758,1268
3231.411698948703,1263
3233.0950725863995,1249
3234.778177631587,1209
3236.461014406761,1279
3238.1435832345005,1283
3239.8258844374595,1266
3241.507918338374,1270
3243.1896852600576,1212
3244.8711855254023,1278
3246.552419457381,1256
3248.233387379042,1237
3249.914089613516,1279
3251.59452648401,1221
3253.274698313813,1246
3254.95460542629,1233
3256.6342481448855,1255
3258.313626793125,1218
3259.9927416946084,1197
3261.6715931730196,1139
3263.3501815521176,1271
3265.0285071557437,1251
3266.706570307815,1214
3268.3843713323286,1245
3270.0619105533615,1219
3271.739188295068,1184
3273.4162048816834,1251
3275.0929606375184,1237
3276.769455886966,1186
3278.445690954498,1295
3280.1216661646613,1251
3281.797381842087,1215
3283.4728383114807,1261
3285.1480358976296,1240
3286.8229749253996,1239
3288.4976557197333,1255
3290.172078605655,1236
3291.846243908266,1273
3293.5201519527463,1208
3295.193803064357,1173
3296.8671975684374,1233
3298.5403357904024,1214
3300.21321805575,1209
3301.8858446900567,1188
3303.558216018975,1189
3305.23033236824,1190
3306.9021940636603,1211
3308.57380143113,1239
3310.2451547966184,1237
3311.916254486174,1229
3313.5871008259246,1278
3315.2576941420766,1233
3316.9280347609147,1243
3318.5981230088046,1252
3320.2679592121895,1220
3321.9375436975924,1248
3323.606876791612,1183
3325.27595882093,1223
3326.944790112305,1191
3328.6133709925753,1222
3330.2817017886573,1286
3331.949782827547,1277
3333.617614436319,1228
3335.2851969421245,1243
3336.952530672199,1194
3338.619615953853,1252
3340.286453114475,1209
3341.9530424815357,1280
3343.619384382583,1251
3345.2854791452437,1258
3346.951327097224,1238
3348.6169285663073,1219
3350.2822838803577,1237
3351.947393367319,1272
3353.61225735521,1220
3355.2768761721345,1214
3356.9412501462693,1239
3358.605379605873,1208
3360.2692648792827,1245
3361.9329062949146,1240
3363.596304181263,1179
