CollectionTime,9/19/2024 10:56:01 AM
ExposureUsed,3
CalibratedSpectrum
-962.7078968117929,1293
-959.9714848408522,1430
-957.2358232597828,1452
-954.5009119013725,1450
-951.7667505983302,1398
-949.0333391832855,1393
-946.3006774887896,1375
-943.5687653473143,1409
-940.837602591253,1427
-938.1071890529199,1396
-935.3775245645503,1446
-932.6486089583007,1436
-929.9204420662485,1393
-927.1930237203925,1428
-924.4663537526524,1459
-921.7404319948689,1413
-919.0152582788041,1444
-916.2908324361409,1456
-913.5671542984834,1487
-910.8442236973568,1443
-908.1220404642074,1415
-905.4006044304027,1453
-902.679915427231,1395
-899.959973285902,1410
-897.2407778375464,1383
-894.5223289132158,1467
-891.8046263438832,1384
-889.0876699604426,1427
-886.3714595937089,1455
-883.6559950744183,1386
-880.9412762332282,1413
-878.2273029007168,1423
-875.5140749073835,1450
-872.8015920836489,1399
-870.0898542598545,1399
-867.3788612662631,1398
-864.6686129330585,1446
-861.9591090903457,1409
-859.2503495681506,1387
-856.5423341964203,1365
-853.8350628050229,1390
-851.1285352237478,1446
-848.4227512823054,1405
-845.7177108103272,1487
-843.0134136373656,1392
-840.3098595928943,1441
-837.6070485063082,1429
-834.9049802069229,1453
-832.2036545239757,1401
-829.5030712866244,1399
-826.8032303239481,1424
-824.1041314649472,1477
-821.4057745385428,1471
-818.7081593735775,1463
-816.0112857988148,1414
-813.3151536429393,1382
-810.6197627345566,1368
-807.9251129021936,1415
-805.2312039742981,1485
-802.5380357792392,1417
-799.8456081453069,1450
-797.1539209007124,1355
-794.462973873588,1435
-791.772766891987,1525
-789.083299783884,1412
-786.3945723771743,1423
-783.7065844996748,1504
-781.0193359791231,1425
-778.3328266431781,1415
-775.6470563194197,1440
-772.9620248353489,1445
-770.2777320183878,1491
-767.5941776958798,1467
-764.9113616950891,1500
-762.2292838432011,1469
-759.5479439673222,1473
-756.8673418944801,1452
-754.1874774516235,1445
-751.5083504656222,1415
-748.8299607632671,1455
-746.15230817127,1489
-743.475392516264,1495
-740.7992136248035,1485
-738.1237713233636,1506
-735.4490654383407,1426
-732.7750957960521,1480
-730.1018622227365,1467
-727.4293645445534,1384
-724.7576025875837,1462
-722.0865761778291,1519
-719.4162851412126,1529
-716.7467293035781,1511
-714.0779084906909,1466
-711.409822528237,1479
-708.7424712418238,1501
-706.0758544569796,1554
-703.4099719991541,1535
-700.7448236937178,1557
-698.0804093659622,1520
-695.4167288411002,1588
-692.7537819442656,1505
-690.0915685005134,1552
-687.4300883348199,1534
-684.7693412720819,1579
-682.1093271371178,1601
-679.4500457546669,1513
-676.7914969493897,1508
-674.1336805458676,1517
-671.4765963686034,1527
-668.8202442420206,1612
-666.1646239904642,1594
-663.5097354382001,1640
-660.8555784094151,1531
-658.2021527282176,1539
-655.5494582186366,1590
-652.8974947046223,1574
-650.2462620100463,1595
-647.5957599587009,1629
-644.9459883742998,1577
-642.2969470804776,1560
-639.6486359007902,1606
-637.0010546587141,1513
-634.3542031776476,1619
-631.7080812809096,1616
-629.0626887917401,1593
-626.4180255333008,1637
-623.7740913286734,1729
-621.1308860008619,1626
-618.4884093727904,1645
-615.8466612673046,1551
-613.2056415071715,1627
-610.5653499150785,1669
-607.9257863136347,1717
-605.28695052537,1623
-602.6488423727357,1548
-600.0114616781036,1605
-597.3748082637674,1652
-594.7388819519412,1749
-592.1036825647604,1695
-589.4692099242818,1661
-586.8354638524829,1693
-584.2024441712624,1729
-581.5701507024403,1614
-578.9385832677575,1714
-576.3077416888759,1679
-573.6776257873787,1633
-571.0482353847704,1708
-568.4195703024757,1665
-565.7916303618415,1615
-563.164415384135,1626
-560.5379251905453,1683
-557.9121596021815,1659
-555.2871184400748,1683
-552.6628015251767,1719
-550.0392086783606,1682
-547.4163397204204,1694
-544.794194472071,1735
-542.1727727539491,1789
-539.5520743866118,1740
-536.9320991905377,1695
-534.3128469861261,1802
-531.6943175936979,1784
-529.0765108334947,1802
-526.4594265256793,2006
-523.8430644903358,2119
-521.2274245474689,2232
-518.612506517005,2226
-515.9983102187913,2270
-513.3848354725959,2336
-510.77208209810846,2318
-508.16004991493924,2262
-505.5487387426199,2365
-502.9381484006032,2340
-500.3282787082628,2320
-497.71912948489364,2401
-495.1107005497117,2204
-492.5029917218539,2127
-489.8960028203786,1989
-487.28973366426493,1911
-484.68418407241325,1868
-482.07935386364494,1933
-479.47524285670266,1871
-476.87185087025,1876
-474.2691777228715,1850
-471.66722323307334,1973
-469.0659872192821,1821
-466.4654694998459,1932
-463.86566989303384,1917
-461.26658821703614,1892
-458.66822428996414,1894
-456.07057792985,1826
-453.4736489546475,1924
-450.877437182231,1916
-448.28194243039627,1859
-445.68716451686,1806
-443.09310325926003,1841
-440.49975847515555,1869
-437.9071299820263,1891
-435.31521759727354,1903
-432.72402113821954,1868
-430.13354042210767,1860
-427.5437752661022,1846
-424.95472548728867,1885
-422.36639090267386,1902
-419.7787713291855,2007
-417.1918665836721,1974
-414.60567648290385,1984
-412.0202008435715,1937
-409.4354394822874,2010
-406.8513922155845,1975
-404.26805885991723,2023
-401.685439231661,2019
-399.103533147112,1951
-396.522340422488,2011
-393.9418608739278,1942
-391.3620943174908,1868
-388.7830405691583,1715
-386.2046994448317,1690
-383.6270707603344,1697
-381.05015433141045,1613
-378.473949973725,1432
-375.8984575028645,1324
-373.32367673433623,1185
-370.74960748356875,1115
-368.1762495659117,1070
-365.60360279663576,853
-363.03166699093265,807
-360.4604419639154,738
-357.8899275306178,675
-355.32012350599507,636
-352.7510297049233,584
-350.1826459421999,541
-347.61497203254316,533
-345.04800779059235,515
-342.4817530309082,502
-339.91620756797226,587
-337.35137121618743,586
-334.7872437898774,543
-332.22382510328725,508
-329.66111497058273,567
-327.09911320585127,549
-324.53781962310075,538
-321.9772340362607,501
-319.4173562591816,490
-316.8581861056348,516
-314.2997233893127,525
-311.7419679238294,535
-309.1849195227194,563
-306.62857799943856,589
-304.0729431673641,579
-301.51801483979375,590
-298.963792829947,570
-296.41027695096386,564
-293.85746701590574,574
-291.3053628377552,602
-288.7539642294155,616
-286.2032710037115,647
-283.65328297338897,702
-281.1039999511146,720
-278.5554217494762,656
-276.007548180983,592
-273.4603790580651,603
-270.9139141930734,595
-268.3681533982807,637
-265.8230964858798,711
-263.27874326798565,707
-260.7350935566336,607
-258.1921471637804,684
-255.6499039013039,755
-253.10836358100266,781
-250.56752601459698,736
-248.02739101372765,803
-245.48795838995704,842
-242.94922795476816,780
-240.41119951956557,748
-237.8738728956746,719
-235.33724789434166,746
-232.80132432673452,791
-230.2661020039418,723
-227.73158073697357,782
-225.19776033676033,823
-222.66464061415422,874
-220.1322213799284,814
-217.60050244477725,735
-215.06948361931552,789
-212.53916471408013,985
-210.00954553952818,953
-207.48062590603843,860
-204.9524056239104,818
-202.4248845033651,903
-199.8980623545441,983
-197.37193898751036,1044
-194.84651421224817,991
-192.32178783866232,877
-189.79775967657952,882
-187.27442953574644,1040
-184.7517972258321,1187
-182.2298625564256,985
-179.7086253370378,853
-177.18808537710026,894
-174.66824248596583,1128
-172.14909647290835,1132
-169.6306471471229,1021
-167.11289431772548,961
-164.59583779375328,1031
-162.07947738416453,1047
-159.5638128978386,1339
-157.04884414357605,1431
-154.53457093009854,1400
-152.02099306604828,1086
-149.50811035998936,1062
-146.99592262040665,1435
-144.48442965570587,1606
-141.97363127421409,1795
-139.46352728417958,2021
-136.95411749377126,1685
-134.44540171107985,1301
-131.93737974411636,1125
-129.43005140081357,1192
-126.92341648902493,1571
-124.41747481652521,2304
-121.91222619101006,2949
-119.40767042009657,2598
-116.90380731132257,1866
-114.40063667214702,2108
-111.8981583099503,2467
-109.3963720320337,3733
-106.89527764561933,7045
-104.39487495785067,11268
-101.89516377579241,16818
-99.39614390642998,19659
-96.89781515667039,21340
-94.40017733334128,23677
-91.90323024319173,26438
-89.40697369289148,23234
-86.91140748903172,15197
-84.41653143812482,11598
-81.92234534660395,13327
-79.42884902082358,18554
-76.93604226705907,24195
-74.4439248915071,23761
-71.95249670028534,18957
-69.46175749943245,15166
-66.97170709490854,13156
-64.48234529259423,13566
-61.99367189829195,14120
-59.50568671772464,12413
-57.01838955653636,9998
-54.53178022029283,11234
-52.045858514480074,11179
-49.560624244506016,13627
-47.07607721569923,14668
-44.59221723330904,14520
-42.10904410250669,17059
-39.62655762838392,17128
-37.14475761595372,18327
-34.66364387015028,19687
-32.18321619582866,18078
-29.70347439776515,18531
-27.224418280657005,20474
-24.74604764912317,25425
-22.26836230770266,43872
-19.7913620608565,65035
-17.315046712966478,65035
-14.83941606833514,65035
-12.36446993118659,65035
-9.89020810566592,65035
-7.416630395839093,65035
-4.94373660569363,65035
-2.471526539137585,65035
-6.821210263296962E-13,65035
2.47084320796705,65035
4.941003281093458,65035
7.410480415786196,65035
9.879274808531363,65035
12.347386655893956,65035
14.814816154518212,65035
17.28156350112681,65035
19.74762889252179,65035
22.21301252558385,24865
24.67771459727237,6978
27.141735304626195,7267
29.605074844762612,7433
32.06773341487792,6877
34.52971121224755,6156
36.99100843422559,5526
39.45162527824516,4072
41.91156194181792,4845
44.370818622535126,5463
46.82939551806646,4474
49.287292826160524,6857
51.74451074464503,6204
54.201049471426245,4439
56.65690920448981,2921
59.112090141899785,2350
61.56659248179983,2556
64.02041642241159,2683
66.4735621620365,3304
68.92602989905402,3946
71.37781983192338,4229
73.82893215918205,3206
76.27936707944684,2417
78.72912479141326,2870
81.17820549385567,2908
83.62660938562783,2284
86.07433666566146,1593
88.5213875329681,1595
90.96776218663751,1863
93.41346082583925,2230
95.85848364982041,2675
98.30283085790859,2284
100.7465026495089,1877
103.18949922410604,1731
105.63182078126385,1393
108.07346752062438,1389
110.51443964190923,1168
112.95473734491827,1327
115.39436082953114,1726
117.83331029570547,1591
120.27158594347827,1353
122.7091879729652,1529
125.1461165843615,1564
127.58237197794062,1299
130.01795435405518,1263
132.4528639131364,1374
134.88710085569494,1165
137.32066538231982,1432
139.75355769367923,1716
142.1857779905207,1527
144.61732647366978,1193
147.04820334403132,1254
149.47840880258934,1205
151.90794305040674,1330
154.33680628862487,1489
156.76499871846443,1587
159.19252054122433,1667
161.61937195828352,1889
164.04555317109896,2234
166.47106438120693,2617
168.89590579022217,2667
171.320077599839,2871
173.7435800118302,3004
176.16641322804742,3213
178.58857745042144,3354
181.01007288096173,3262
183.43089972175687,3267
185.85105817497413,3347
188.27054844285988,3456
190.6893707277394,3537
193.10752523201643,3703
195.5250121581745,3794
197.9418317087751,3874
200.3579840864594,3777
202.7734694939469,3986
205.18828813403627,4183
207.6024402096051,4107
210.01592592360964,3983
212.42874547908548,3977
214.84089907914665,3944
217.2523869269868,3959
219.66320922587727,4021
222.0733661791695,3895
224.48285799029293,4030
226.8916848627572,4143
229.29984700014882,4223
231.7073446061355,4011
234.11417788446204,4154
236.520347038953,4207
238.92585227351185,4217
241.33069379212054,4244
243.73487179884035,4349
246.1383864978112,4245
248.541238093252,4416
250.9434267894609,4370
253.34495279081432,4233
255.74581630176783,4271
258.1460175268563,4364
260.54555667069314,4290
262.9444339379703,4350
265.3426495334594,4354
267.7402036620107,4310
270.1370965285529,4145
272.53332833809407,3960
274.9288992957214,3946
277.32380960660055,3961
279.718059475976,4009
282.1116491091717,3964
284.5045787115897,3885
286.89684848871195,3990
289.2884586460981,3944
291.67940938938807,3975
294.0697009242996,4008
296.4593334566299,4145
298.84830719225477,3953
301.23662233712923,3908
303.6242790972866,3932
306.01127767884,3933
308.39761828798066,3873
310.78330113097934,3846
313.16832641418534,3860
315.5526943440269,3823
317.9364051270112,3861
320.3194589697242,3673
322.70185607883093,3805
325.0835966610754,3731
327.4646809232805,3668
329.8451090723478,3762
332.2248813152577,3703
334.6039978590701,3590
336.9824589109231,3697
339.36026467803447,3678
341.7374153677,3499
344.113911187295,3500
346.48975234427337,3621
348.8649390461686,3645
351.2394715005918,3697
353.61334991523415,3666
355.9865744978655,3631
358.35914545633375,3604
360.73106299856715,3584
363.10232733257146,3555
365.47293866643247,3525
367.84289720831396,3608
370.2122031664593,3577
372.5808567491905,3564
374.9488581649083,3591
377.31620762209275,3679
379.6829053293021,3521
382.0489514951745,3536
384.4143463284262,3541
386.7790900378528,3523
389.14318283232853,3470
391.50662492080653,3661
393.86941651231916,3501
396.23155781597745,3488
398.5930490409713,3601
400.9538903965696,3565
403.3140820921202,3473
405.6736243370498,3447
408.03251734086336,3409
410.3907613131465,3519
412.74835646356166,3523
415.10530300185144,3536
417.4616011378372,3527
419.81725108141893,3405
422.1722530425758,3407
424.5266072313656,3475
426.880313857925,3388
429.2333731324701,3403
431.58578526529516,3465
433.9375504667738,3578
436.2886689473588,3483
438.63914091758113,3397
440.9889665880513,3443
443.33814616945835,3400
445.68667987257015,3328
448.03456790823395,3423
450.3818104873759,3359
452.72840782100013,3465
455.07436012019105,3365
457.41966759611057,3328
459.7643304600007,3444
462.10834892318155,3394
464.4517231970525,3391
466.79445349309174,3432
469.1365400228566,3475
471.4779829979826,3424
473.81878263018564,3332
476.15893913125876,3420
478.4984527130747,3445
480.8373235875855,3580
483.17555196682144,3460
485.5131380628919,3592
487.8500820879857,3610
490.1863842543697,3703
492.52204477439034,3816
494.8570638604725,3861
497.1914417251204,4081
499.52517858091653,4363
501.85827464052306,4467
504.19073011668036,4536
506.5225452222086,4642
508.85372017000566,4772
511.18425517304956,5153
513.514150444396,5894
515.8434061971808,7216
518.1720226446176,7726
520.4999999999999,8006
522.8273384766991,7660
525.1540382881666,7292
527.480099647932,6743
529.8055227696037,5525
532.1303078668694,4399
534.454455153496,3973
536.777964843328,3762
539.1008371502907,3684
541.4230722883866,3574
543.744670471698,3554
546.0656319143858,3464
548.3859568306899,3464
550.7056454349294,3412
553.0246979415016,3520
555.3431145648834,3478
557.6608955196306,3385
559.978041020377,3423
562.2945512818363,3414
564.6104265188006,3525
566.9256669461412,3487
569.2402727788082,3385
571.5542442318302,3551
573.8675815203156,3488
576.1802848594508,3413
578.4923544645015,3490
580.8037905508126,3556
583.114593333807,3537
585.4247630289875,3474
587.7342998519354,3383
590.0432040183106,3418
592.3514757438526,3515
594.6591152443794,3454
596.9661227357875,3425
599.2724984340531,3524
601.578242555231,3329
603.8833553154542,3407
606.1878369309362,3459
608.4916876179676,3305
610.7949075929192,3415
613.0974970722403,3395
615.3994562724587,3359
617.7007854101818,3399
620.0014847020951,3372
622.3015543649641,3352
624.6009946156324,3427
626.8998056710224,3366
629.1979877481361,3367
631.4955410640538,3457
633.7924658359349,3550
636.0887622810175,3431
638.3844306166192,3492
640.6794710601358,3543
642.9738838290426,3465
645.2676691408932,3459
647.5608272133207,3477
649.853358264037,3479
652.1452625108324,3490
654.4365401715764,3469
656.7271914642178,3463
659.0172166067838,3516
661.3066158173809,3418
663.5953893141935,3579
665.8835373154867,3461
668.1710600396028,3541
670.4579577049639,3496
672.7442305300709,3352
675.0298787335033,3495
677.3149025339197,3442
679.599302150058,3555
681.8830778007342,3538
684.1662297048437,3514
686.4487580813608,3538
688.7306631493387,3489
691.0119451279091,3582
693.2926042362834,3436
695.5726406937516,3587
697.8520547196814,3527
700.1308465335215,3523
702.4090163547982,3441
704.6865644031171,3482
706.9634908981619,3403
709.2397960596965,3473
711.5154801075631,3493
713.7905432616823,3555
716.0649857420548,3515
718.3388077687592,3433
720.612009561953,3484
722.8845913418733,3409
725.1565533288352,3438
727.427895743234,3376
729.6986188055427,3441
731.9687227363137,3374
734.238207756178,3424
736.5070740858458,3533
738.7753219461066,3364
741.0429515578281,3471
743.3099631419569,3510
745.5763569195191,3490
747.8421331116193,3521
750.1072919394409,3553
752.3718336242467,3481
754.6357583873777,3470
756.8990664502545,3422
759.1617580343765,3463
761.423833361321,3562
763.6852926527457,3572
765.9461361303862,3564
768.206364016058,3556
770.4659765316536,3482
772.7249738991469,3412
774.9833563405886,3453
777.2411240781092,3513
779.4982773339183,3487
781.7548163303044,3458
784.010741289634,3483
786.2660524343538,3564
788.5207499869881,3473
790.7748341701416,3537
793.0283052064964,3536
795.2811633188143,3501
797.5334087299362,3472
799.7850416627813,3424
802.0360623403484,3412
804.2864709857143,3597
806.5362678220353,3679
808.7854530725468,3525
811.0340269605625,3541
813.2819897094754,3484
815.5293415427581,3572
817.77608268396,3570
820.0222133567116,3507
822.2677337847211,3439
824.5126441917765,3552
826.7569448017433,3528
829.0006358385675,3510
831.2437175262731,3555
833.4861900889629,3505
835.7280537508192,3458
837.9693087361026,3537
840.2099552691533,3554
842.4499935743896,3528
844.689423876309,3432
846.9282463994886,3604
849.1664613685833,3479
851.4040690083276,3448
853.6410695435349,3508
855.877463199097,3513
858.1132501999847,3439
860.3484307712487,3618
862.5830051380175,3506
864.8169735254988,3539
867.0503361589791,3430
869.2830932638243,3586
871.5152450654786,3573
873.7467917894654,3592
875.9777336613873,3536
878.2080709069252,3511
880.4378037518389,3546
882.666932421968,3600
884.8954571432301,3570
887.1233781416219,3625
889.3506956432192,3565
891.5774098741766,3615
893.803521060728,3546
896.0290294291852,3538
898.2539352059397,3558
900.4782386174619,3541
902.7019398903011,3450
904.925039251085,3475
907.147536926521,3570
909.3694331433943,3606
911.59072812857,3454
913.8114221089921,3517
916.0315153116827,3555
918.2510079637437,3635
920.4699002923547,3630
922.6881925247761,3460
924.905884888345,3600
927.1229776104793,3402
929.3394709186747,3528
931.555365040506,3536
933.7706602036275,3554
935.9853566357709,3559
938.1994545647489,3513
940.4129542184515,3612
942.6258558248488,3551
944.8381596119883,3557
947.0498658079974,3647
949.2609746410825,3515
951.4714863395287,3482
953.6814011316998,3517
955.8907192460387,3586
958.0994409110671,3577
960.3075663553858,3590
962.5150958076741,3504
964.7220294966913,3545
966.928367651274,3521
969.1341105003388,3560
971.3392582728806,3578
973.5438111979742,3430
975.747769504772,3521
977.9511334225061,3569
980.153903180487,3480
982.3560790081052,3441
984.5576611348289,3482
986.7586497902058,3469
988.9590452038618,3488
991.158847605503,3313
993.3580572249133,3418
995.5566742919558,3331
997.7546990365728,3356
999.952131688785,3308
1002.1489724786926,3366
1004.3452216364743,3271
1006.5408793923874,3352
1008.7359459767691,3327
1010.9304216200343,3214
1013.1243065526781,3239
1015.3176010052733,3332
1017.510305208472,3239
1019.7024193930064,3246
1021.8939437896848,3242
1024.0848786293977,3204
1026.2752241431122,3232
1028.4649805618747,3303
1030.6541481168115,3189
1032.842727039127,3243
1035.0307175601051,3260
1037.2181199111074,3218
1039.4049343235752,3201
1041.591161029029,3215
1043.7768002590683,3155
1045.9618522453698,3241
1048.1463172196918,3291
1050.3301954138697,3273
1052.513487059818,3183
1054.69619238953,3202
1056.8783116350783,3145
1059.0598450286152,3203
1061.2407928023704,3239
1063.4211551886528,3268
1065.6009324198508,3161
1067.780124728432,3209
1069.9587323469414,3205
1072.1367555080046,3200
1074.314194444325,3204
1076.4910493886855,3091
1078.667320573947,3182
1080.843008233051,3171
1083.0181125990161,3136
1085.1926339049414,3219
1087.3665723840027,3197
1089.5399282694575,3244
1091.7127017946405,3182
1093.8848931929647,3141
1096.0565026979243,3087
1098.2275305430899,3185
1100.3979769621128,3130
1102.567842188722,3168
1104.737126456726,3119
1106.9058300000124,3138
1109.0739530525475,3167
1111.2414958483764,3072
1113.4084586216231,3091
1115.5748416064907,3214
1117.7406450372605,3110
1119.9058691482942,3086
1122.0705141740304,3212
1124.2345803489884,3191
1126.3980679077658,3184
1128.5609770850388,3250
1130.7233081155623,3209
1132.8850612341707,3094
1135.0462366757774,3223
1137.2068346753745,3133
1139.3668554680326,3066
1141.526299288901,3144
1143.68516637321,3034
1145.8434569562655,3139
1148.001171273455,3121
1150.158309560244,3142
1152.3148720521767,3192
1154.470858984876,3116
1156.626270594044,3148
1158.7811071154629,3086
1160.9353687849912,3029
1163.089055838569,3070
1165.242168512213,3082
1167.3947070420209,3071
1169.5466716641677,3164
1171.6980626149075,3160
1173.8488801305748,3158
1175.9991244475814,3169
1178.1487958024186,3146
1180.2978944316555,3071
1182.4464205719428,3085
1184.5943744600072,3082
1186.7417563326567,3075
1188.8885664267755,3147
1191.0348049793297,3073
1193.1804722273619,3097
1195.325568407995,3095
1197.4700937584303,3086
1199.614048515948,3091
1201.7574329179074,3101
1203.900247201746,3069
1206.042491604982,3204
1208.1841663652099,3128
1210.3252717201053,3184
1212.465807907422,3269
1214.6057751649923,3258
1216.7451737307279,3216
1218.8840038426192,3171
1221.0222657387353,3138
1223.1599596572241,3103
1225.2970858363137,3241
1227.4336445143094,3183
1229.5696359295966,3158
1231.705060320639,3189
1233.8399179259786,3195
1235.9742089842384,3207
1238.107933734118,3190
1240.2410924143974,3232
1242.373685263935,3185
1244.5057125216676,3184
1246.6371744266116,3260
1248.7680712178621,3242
1250.898403134593,3317
1253.028170416058,3322
1255.1573733015875,3225
1257.2860120305932,3163
1259.4140868425648,3277
1261.54159797707,3266
1263.6685456737569,3283
1265.7949301723515,3252
1267.9207517126597,3309
1270.046010534565,3273
1272.1707068780306,3259
1274.2948409830983,3346
1276.4184130898889,3382
1278.541423438603,3314
1280.6638722695184,3367
1282.785759822993,3345
1284.9070863394636,3367
1287.0278520594447,3370
1289.1480572235314,3372
1291.2677020723963,3363
1293.3867868467923,3373
1295.5053117875495,3500
1297.623277135579,3502
1299.740683131868,3462
1301.8575300174857,3336
1303.973818033578,3553
1306.0895474213703,3536
1308.2047184221678,3480
1310.3193312773528,3496
1312.4333862283888,3583
1314.5468835168163,3586
1316.659823384255,3486
1318.7722060724045,3564
1320.8840318230418,3571
1322.9953008780249,3645
1325.1060134792888,3605
1327.2161698688478,3534
1329.3257702887959,3551
1331.4348149813054,3483
1333.5433041886276,3588
1335.6512381530933,3487
1337.7586171171101,3514
1339.8654413231675,3481
1341.9717110138317,3483
1344.0774264317488,3525
1346.1825878196432,3575
1348.2871954203192,3425
1350.3912494766587,3449
1352.4947502316231,3405
1354.5976979282532,3408
1356.7000928096686,3434
1358.8019351190665,3442
1360.9032250997243,3457
1363.0039629949988,3419
1365.1041490483235,3425
1367.2037835032133,3557
1369.3028666032606,3390
1371.401398592137,3404
1373.4993797135926,3492
1375.5968102114575,3549
1377.6936903296396,3470
1379.7900203121262,3574
1381.8858004029835,3433
1383.9810308463561,3492
1386.075711886469,3488
1388.1698437676241,3524
1390.2634267342032,3516
1392.356461030667,3523
1394.4489469015557,3535
1396.5408845914872,3571
1398.6322743451592,3547
1400.7231164073469,3509
1402.813411022907,3574
1404.903158436773,3487
1406.9923588939578,3540
1409.0810126395531,3438
1411.1691199187303,3516
1413.2566809767386,3536
1415.343696058907,3554
1417.4301654106425,3469
1419.5160892774315,3641
1421.6014679048399,3540
1423.6863015385125,3607
1425.7705904241707,3708
1427.8543348076178,3587
1429.9375349347342,3624
1432.0201910514802,3578
1434.102303403894,3609
1436.1838722380944,3568
1438.2648978002767,3685
1440.3453803367174,3699
1442.4253200937692,3668
1444.5047173178677,3696
1446.5835722555234,3701
1448.6618851533285,3837
1450.739656257952,3822
1452.8168858161434,3908
1454.8935740747306,3937
1456.96972128062,3927
1459.045327680797,3965
1461.120393522327,3927
1463.1949190523528,3919
1465.2689045180973,3890
1467.3423501668608,4110
1469.415256246024,4060
1471.4876230030463,4131
1473.559450685465,4124
1475.6307395408976,4208
1477.7014898170391,4128
1479.771701761665,4200
1481.8413756226287,4227
1483.9105116478618,4348
1485.9791100853772,4283
1488.0471711832643,4364
1490.1146951896926,4288
1492.1816823529098,4428
1494.2481329212433,4456
1496.3140471430984,4446
1498.3794252669609,4439
1500.4442675413939,4480
1502.5085742150404,4429
1504.572345536622,4519
1506.6355817549388,4499
1508.6982831188702,4641
1510.7604498773744,4624
1512.8220822794883,4625
1514.8831805743293,4626
1516.9437450110909,4621
1519.003775839048,4661
1521.0632733075522,4613
1523.1222376660367,4625
1525.1806691640113,4704
1527.2385680510652,4710
1529.2959345768668,4816
1531.3527689911643,4780
1533.4090715437833,4866
1535.4648424846291,4832
1537.5200820636855,4937
1539.5747905310159,4943
1541.6289681367616,4935
1543.6826151311434,4931
1545.7357317644614,5141
1547.7883182870937,5171
1549.8403749494987,5183
1551.8919020022113,5140
1553.9428996958477,5250
1555.9933682811015,5258
1558.0433080087469,5250
1560.0927191296346,5331
1562.1416018946961,5454
1564.1899565549415,5143
1566.2377833614592,5331
1568.2850825654164,5219
1570.3318544180606,5142
1572.3780991707158,5114
1574.423817074788,4980
1576.4690083817595,4866
1578.5136733431923,4864
1580.5578122107272,4609
1582.601425236085,4564
1584.6445126710646,4511
1586.6870747675434,4579
1588.7291117774776,4364
1590.7706239529034,4310
1592.8116115459347,4204
1594.8520748087658,4148
1596.8920139936686,4137
1598.9314293529933,3953
1600.9703211391711,4000
1603.008689604711,3914
1605.0465350022005,3795
1607.0838575843068,3802
1609.1206576037753,3820
1611.1569353134305,3874
1613.1926909661765,3791
1615.2279248149953,3749
1617.2626371129481,3745
1619.2968281131757,3690
1621.3304980688963,3658
1623.3636472334088,3756
1625.39627586009,3635
1627.428384202396,3643
1629.459972513861,3624
1631.4910410480993,3630
1633.5215900588028,3624
1635.551619799744,3660
1637.5811305247717,3643
1639.6101224878166,3627
1641.6385959428862,3602
1643.6665511440683,3611
1645.693988345528,3595
1647.7209078015112,3668
1649.7473097663405,3553
1651.7731944944203,3670
1653.7985622402307,3530
1655.823413258333,3567
1657.847747803366,3587
1659.8715661300494,3535
1661.8948684931793,3532
1663.9176551476316,3484
1665.9399263483624,3532
1667.9616823504057,3439
1669.982923408873,3553
1672.0036497789574,3532
1674.0238617159293,3505
1676.043559475138,3587
1678.0627433120121,3495
1680.081413482059,3495
1682.0995702408654,3543
1684.117213844096,3591
1686.134344547495,3573
1688.1509626068864,3580
1690.1670682781705,3579
1692.182661817329,3554
1694.1977434804217,3479
1696.2123135235875,3568
1698.226372203043,3503
1700.2399197750851,3648
1702.2529564960905,3490
1704.2654826225112,3555
1706.277498410882,3572
1708.2890041178139,3378
1710.2999999999988,3479
1712.3104863142066,3478
1714.3204633172854,3507
1716.329931266163,3511
1718.3388904178469,3527
1720.3473410294214,3515
1722.3552833580516,3529
1724.3627176609807,3535
1726.3696441955308,3520
1728.3760632191033,3497
1730.3819749891782,3551
1732.3873797633146,3550
1734.3922777991502,3488
1736.3966693544012,3427
1738.4005546868639,3398
1740.4039340544127,3594
1742.406807715001,3466
1744.4091759266616,3411
1746.4110389475054,3424
1748.4123970357223,3436
1750.413250449582,3495
1752.4135994474318,3429
1754.4134442876993,3420
1756.4127852288902,3434
1758.4116225295893,3487
1760.4099564484595,3381
1762.407787244244,3443
1764.405115175764,3430
1766.4019405019203,3405
1768.3982634816916,3470
1770.3940843741357,3439
1772.3894034383907,3390
1774.3842209336717,3419
1776.378537119274,3427
1778.372352254571,3435
1780.3656665990156,3447
1782.3584804121397,3496
1784.3507939535534,3409
1786.3426074829463,3494
1788.3339212600863,3373
1790.3247355448211,3418
1792.3150505970766,3466
1794.3048666768573,3543
1796.2941840442477,3448
1798.2830029594106,3404
1800.2713236825884,3470
1802.2591464741004,3469
1804.2464715943465,3534
1806.2332993038058,3457
1808.2196298630352,3438
1810.2054635326708,3478
1812.190800573428,3538
1814.175641246101,3382
1816.1599858115628,3457
1818.1438345307652,3420
1820.127187664738,3439
1822.1100454745924,3376
1824.092408221516,3502
1826.0742761667766,3497
1828.055649571721,3379
1830.0365286977735,3529
1832.0169138064398,3441
1833.9968051593014,3480
1835.9762030180214,3369
1837.9551076443408,3360
1839.9335193000788,3462
1841.9114382471344,3448
1843.888864747485,3441
1845.8657990631878,3382
1847.842241456378,3433
1849.8181921892697,3375
1851.7936515241558,3381
1853.7686197234098,3338
1855.7430970494815,3405
1857.7170837649014,3382
1859.6905801322787,3469
1861.6635864143004,3535
1863.6361028737338,3507
1865.608129773424,3439
1867.5796673762961,3399
1869.5507159453537,3410
1871.521275743678,3398
1873.4913470344313,3361
1875.4609300808534,3396
1877.4300251462632,3410
1879.3986324940588,3478
1881.366752387717,3432
1883.3343850907936,3393
1885.3015308669228,3466
1887.268189979819,3482
1889.2343626932739,3557
1891.2000492711595,3526
1893.1652499774254,3497
1895.1299650761011,3455
1897.0941948312952,3437
1899.0579395071945,3458
1901.0211993680641,3360
1902.98397467825,3574
1904.9462657021745,3474
1906.9080727043415,3494
1908.869395949332,3437
1910.8302357018065,3437
1912.790592226504,3543
1914.7504657882428,3431
1916.7098566519212,3478
1918.6687650825133,3496
1920.6271913450764,3470
1922.5851357047422,3344
1924.5425984267245,3407
1926.499579776314,3390
1928.4560800188833,3405
1930.4120994198802,3401
1932.367638244833,3436
1934.32269675935,3476
1936.2772752291175,3409
1938.231373919899,3457
1940.1849930975404,3347
1942.1381330279637,3420
1944.0907939771696,3345
1946.0429762112412,3357
1947.9946799963363,3441
1949.9459055986945,3389
1951.896653284633,3472
1953.8469233205478,3406
1955.7967159729142,3494
1957.7460315082863,3463
1959.6948701932974,3463
1961.6432322946594,3437
1963.5911180791632,3391
1965.5385278136787,3371
1967.4854617651545,3434
1969.4319202006182,3420
1971.377903387176,3397
1973.3234115920136,3411
1975.268445082395,3447
1977.2130041256642,3481
1979.1570889892423,3376
1981.1006999406304,3395
1983.04383724741,3395
1984.986501177238,3368
1986.928691997853,3376
1988.8704099770712,3473
1990.811655382789,3448
1992.7524284829801,3343
1994.692729545698,3343
1996.6325588390755,3326
1998.5719166313224,3382
2000.5108031907307,3381
2002.4492187856677,3396
2004.387163684583,3399
2006.3246381560011,3309
2008.2616424685298,3428
2010.1981768908527,3443
2012.1342416917332,3456
2014.069837140014,3383
2016.0049635046162,3467
2017.9396210545406,3376
2019.8738100588666,3227
2021.8075307867502,3439
2023.740783507431,3388
2025.6735684902228,3337
2027.6058860045214,3305
2029.5377363198004,3290
2031.4691197056118,3364
2033.4000364315875,3324
2035.3304867674374,3415
2037.260470982952,3387
2039.189989347998,3291
2041.1190421325232,3398
2043.047629606554,3311
2044.9757520401945,3325
2046.9034097036288,3264
2048.8306028671195,3331
2050.7573318010086,3360
2052.683596775716,3345
2054.609398061742,3293
2056.5347359296647,3404
2058.4596106501403,3475
2060.384022493906,3403
2062.3079717317764,3475
2064.231458634646,3314
2066.1544834734873,3351
2068.077046519352,3320
2069.99914804337,3331
2071.9207883167524,3395
2073.8419676107865,3408
2075.7626861968406,3407
2077.6829443463607,3454
2079.6027423308715,3439
2081.522080421977,3273
2083.440958891362,3379
2085.359378010786,3326
2087.2773380520907,3415
2089.194839287196,3436
2091.111881988101,3244
2093.0284664268825,3332
2094.9445928756973,3362
2096.86026160678,3408
2098.775472892446,3280
2100.690227005088,3365
2102.604524217178,3314
2104.5183648012676,3289
2106.431749029985,3239
2108.34467717604,3289
2110.2571495122206,3314
2112.169166311393,3376
2114.080727846503,3344
2115.9918343905747,3298
2117.902486216711,3350
2119.8126835980956,3356
2121.722426807987,3399
2123.6317161197285,3231
2125.5405518067364,3318
2127.448934142509,3279
2129.356863400624,3328
2131.264339854737,3323
2133.1713637785815,3318
2135.077935445972,3429
2136.9840551308002,3290
2138.889723107037,3356
2140.7949396487334,3364
2142.699705030018,3340
2144.6040195250994,3304
2146.507883408264,3283
2148.4112969538774,3356
2150.3142604363848,3358
2152.2167741303097,3368
2154.1188383102535,3362
2156.0204532508997,3384
2157.9216192270064,3297
2159.822336513414,3352
2161.7226053850413,3395
2163.622426116884,3340
2165.5217989840185,3220
2167.4207242616,3328
2169.319202224862,3252
2171.2172331491165,3314
2173.1148173097563,3441
2175.0119549822507,3267
2176.90864644215,3291
2178.8048919650823,3249
2180.7006918267534,3308
2182.596046302952,3378
2184.4909556695407,3345
2186.3854202024645,3408
2188.279440177746,3368
2190.173015871487,3260
2192.066147559868,3256
2193.958835519149,3330
2195.851080025667,3330
2197.7428813558417,3300
2199.6342397861667,3229
2201.5251555932186,3316
2203.415629053651,3369
2205.3056604441986,3342
2207.19525004167,3394
2209.084398122958,3319
2210.9731049650327,3388
2212.861370844941,3365
2214.749196039812,3303
2216.636580826851,3486
2218.523525483344,3237
2220.410030286655,3403
2222.296095514226,3283
2224.1817214435805,3392
2226.066908352319,3438
2227.951656518121,3335
2229.835966218746,3292
2231.71983773203,3313
2233.6032713358913,3416
2235.486267308324,3263
2237.3688259274036,3286
2239.2509474712824,3356
2241.132632218193,3361
2243.013880446447,3389
2244.8946924344323,3348
2246.7750684606203,3410
2248.6550088035574,3282
2250.534513741871,3380
2252.413583554265,3348
2254.292218519526,3263
2256.170418916517,3321
2258.0481850241786,3307
2259.925517121534,3282
2261.8024154876825,3398
2263.678880401803,3332
2265.5549121431536,3202
2267.430510991071,3341
2269.305677224971,3288
2271.180411124348,3351
2273.0547129687766,3312
2274.9285830379076,3341
2276.8020216114737,3278
2278.6750289692845,3276
2280.5476053912294,3238
2282.4197511572766,3250
2284.2914665474727,3358
2286.162751841943,3345
2288.0336073208937,3351
2289.904033264608,3284
2291.774029953448,3290
2293.6435976678554,3304
2295.5127366883517,3385
2297.381447295534,3302
2299.2497297700825,3200
2301.1175843927526,3287
2302.9850114443825,3127
2304.852011205885,3201
2306.7185839582553,3142
2308.5847299825664,3031
2310.4504495599676,3042
2312.3157429716925,3047
2314.1806104990483,3111
2316.0450524234247,3095
2317.9090690262888,3189
2319.772660589186,3286
2321.635827393742,3126
2323.498569721661,3106
2325.3608878547248,3098
2327.2227820747967,3138
2329.0842526638157,3170
2330.945299903803,3116
2332.805924076857,3070
2334.6661254651535,3101
2336.525904350951,3142
2338.3852610165827,3101
2340.244195744464,3112
2342.102708817088,3119
2343.9608005170253,3157
2345.8184711269287,3063
2347.675720929526,3063
2349.532550207628,3091
2351.38895924412,3179
2353.24494832197,3089
2355.100517724223,2989
2356.955667734004,3120
2358.810398634514,3223
2360.664710709037,3098
2362.5186042409337,3163
2364.3720795136437,3081
2366.225136810686,3207
2368.0777764156583,3155
2369.929998612237,3124
2371.7818036841777,3066
2373.633191915315,3225
2375.484163589562,3081
2377.3347189909114,3058
2379.184858403434,3198
2381.03458211128,3095
2382.8838903986775,3140
2384.732783549936,3062
2386.5812618494406,3236
2388.4293255816588,3123
2390.2769750311327,3102
2392.1242104824883,3155
2393.971032220427,3182
2395.8174405297295,3138
2397.6634356952563,3086
2399.509018001947,3106
2401.3541877348193,3139
2403.1989451789705,3027
2405.043290619576,3145
2406.8872243418905,3049
2408.730746631247,3072
2410.5738577730594,3055
2412.4165580528183,3001
2414.258847756095,3076
2416.100727168537,3146
2417.9421965758734,3002
2419.783256263912,3085
2421.623906518538,3171
2423.4641476257157,3057
2425.303979871491,3074
2427.143403541984,3154
2428.9824189233977,3087
2430.821026302012,3148
2432.6592259641866,3031
2434.497018196361,3116
2436.33440328505,3157
2438.171381516851,3060
2440.00795317844,3189
2441.844118556569,3126
2443.6798779380724,3134
2445.5152316098606,3087
2447.3501798589255,3085
2449.1847229723357,3045
2451.0188612372403,3100
2452.8525949408663,3079
2454.6859243705203,3070
2456.518849813587,3049
2458.3513715575314,3086
2460.183489889895,3227
2462.015205098301,3078
2463.8465174704493,3104
2465.67742729412,3054
2467.5079348571717,3110
2469.338040447542,3063
2471.1677443532476,3091
2472.9970468623833,3063
2474.825948263123,3078
2476.6544488437207,3101
2478.482548892508,3111
2480.310248697896,3142
2482.137548548374,3089
2483.9644487325118,3181
2485.790949538956,3177
2487.617051256433,3145
2489.44275417375,3061
2491.26805857979,3127
2493.0929647635157,3134
2494.917473013971,3073
2496.741583620276,3189
2498.5652968716304,3056
2500.3886130573137,3228
2502.2115324666834,3177
2504.0340553891765,3168
2505.856182114308,3204
2507.6779129316733,3236
2509.499248130945,3218
2511.3201880018764,2994
2513.140732834298,3055
2514.9608829181198,3132
2516.780638543331,3035
2518.6,3064
2520.418967578273,3097
2522.237541568376,3134
2524.0557222606144,3017
2525.8735099453706,3154
2527.6909049131086,3167
2529.507907454368,3173
2531.32451785977,3210
2533.140736420014,3167
2534.9565634258774,3171
2536.771999168218,3175
2538.5870439379714,3201
2540.4016980261526,3219
2542.2159617238544,3241
2544.02983532225,3178
2545.8433191125914,3233
2547.656413386209,3199
2549.4691184345115,3175
2551.2814345489874,3106
2553.093362021204,3170
2554.904901142808,3244
2556.716052205523,3221
2558.526815501153,3212
2560.3371913215824,3268
2562.147179958771,3205
2563.956781704761,3226
2565.7659968516705,3237
2567.5748256916986,3264
2569.3832685171224,3297
2571.1913256202984,3315
2572.9989972936614,3353
2574.806283829725,3304
2576.613185521084,3284
2578.4197026604074,3222
2580.2258355404483,3280
2582.031584454035,3282
2583.836949694077,3318
2585.6419315535613,3321
2587.4465303255533,3284
2589.2507463032002,3319
2591.0545797797245,3340
2592.8580310484303,3243
2594.6611004026995,3241
2596.463788135992,3397
2598.266094541849,3447
2600.0680199138874,3352
2601.869564545807,3215
2603.670728731383,3348
2605.4715127644704,3416
2607.2719169390048,3339
2609.071941548998,3255
2610.8715868885433,3370
2612.670853251811,3300
2614.469740933052,3310
2616.268250226594,3351
2618.0663814268455,3313
2619.864134828292,3367
2621.6615107255006,3322
2623.458509413115,3246
2625.2551311858597,3299
2627.0513763385347,3254
2628.8472451660223,3309
2630.6427379632833,3222
2632.4378550253564,3266
2634.232596647359,3205
2636.026963124488,3148
2637.8209547520187,3179
2639.6145718253065,3180
2641.407814639785,3239
2643.200683490966,3145
2644.9931786744414,3262
2646.7853004858807,3150
2648.577049221034,3185
2650.3684251757277,3189
2652.1594286458712,3149
2653.9500599274484,3157
2655.740319316525,3184
2657.5302071092437,3215
2659.3197236018286,3117
2661.10886909058,3114
2662.8976438718782,3175
2664.686048242183,3178
2666.4740824980327,3201
2668.2617469360443,3184
2670.0490418529134,3199
2671.8359675454153,3114
2673.622524310403,3096
2675.408712444811,3111
2677.1945322456495,3115
2678.979984010009,3150
2680.76506803506,3093
2682.5497846180497,3077
2684.334134056306,3030
2686.1181166472343,3114
2687.9017326883213,3107
2689.6849824771293,3032
2691.4678663113013,3095
2693.2503844885596,3110
2695.032537306705,3051
2696.8143250636167,3112
2698.5957480572542,2969
2700.3768065856534,3121
2702.1575009469316,3004
2703.937831439283,2999
2705.717798360982,2995
2707.4974020103837,3106
2709.276642685917,2988
2711.055520686095,2992
2712.834036309506,2978
2714.612189854819,3110
2716.389981620782,2921
2718.1674119062204,3004
2719.944481010041,2968
2721.721189231226,2940
2723.4975368688415,2955
2725.273524222027,2936
2727.0491515900053,2979
2728.824419272075,2982
2730.5993275676146,2985
2732.3738767760838,3038
2734.148067197016,3015
2735.921899130031,3028
2737.6953728748194,2948
2739.468488731156,2942
2741.2412469988926,2981
2743.0136479779617,2910
2744.785691968372,3019
2746.5573792702116,2953
2748.3287101836504,2936
2750.099685008934,2983
2751.870304046388,3024
2753.640567596418,3042
2755.4104759595057,2991
2757.1800294362156,3000
2758.949228327187,3012
2760.7180729331412,2989
2762.486563554877,3038
2764.254700493272,3016
2766.022484049284,2938
2767.789914523947,2921
2769.5569922183786,2977
2771.3237174337705,2954
2773.090090471394,3059
2774.8561116326036,2987
2776.6217812188274,2960
2778.3870995315756,2895
2780.1520668724356,2931
2781.9166835430747,2929
2783.6809498452394,2942
2785.444866080754,3013
2787.2084325515225,2855
2788.971649559527,2979
2790.73451740683,2918
2792.4970363955713,2991
2794.2592068279705,2931
2796.0210290063264,3027
2797.7825032330147,3069
2799.543629810493,2985
2801.304409041296,2938
2803.0648412280366,2973
2804.8249266734088,3044
2806.5846656801846,3024
2808.344058551212,2916
2810.1031055894246,2965
2811.8618070978273,2933
2813.6201633795085,2975
2815.378174737636,2969
2817.1358414754536,3017
2818.893163896285,2961
2820.6501423035334,3033
2822.4067770006814,3091
2824.1630682912883,2977
2825.9190164789957,3063
2827.6746218675207,3031
2829.429884760661,3058
2831.184805462294,3070
2832.9393842763743,3083
2834.693621506936,3055
2836.4475174580916,3131
2838.201072434034,3040
2839.954286739034,3011
2841.707160677441,3023
2843.459694553685,3078
2845.2118886722724,3086
2846.96374333779,2962
2848.7152588549034,3007
2850.4664355283567,3111
2852.217273662973,3033
2853.9677735636546,3052
2855.7179355353833,3025
2857.4677598832186,2894
2859.217246912299,2995
2860.9663969278427,2979
2862.715210235146,2953
2864.4636871395846,3097
2866.211827946614,2994
2867.9596329617652,3060
2869.7071024906536,3016
2871.4542368389684,3037
2873.20103631248,2925
2874.947501217038,2963
2876.6936318585695,3018
2878.4394285430812,3111
2880.1848915766604,2919
2881.9300212654707,2985
2883.6748179157553,3114
2885.4192818338374,3041
2887.1634133261173,3015
2888.907212699077,3000
2890.6506802592744,3046
2892.393816313348,3006
2894.1366211680142,3004
2895.8790951300693,3087
2897.621238506388,3016
2899.363051603925,3101
2901.1045347297118,3041
2902.8456881908596,2952
2904.58651229456,2991
2906.327007348081,2958
2908.067173658772,3056
2909.8070115340597,2990
2911.5465212814497,3046
2913.285703208527,3139
2915.0245576229563,2974
2916.7630848324807,3025
2918.5012851449196,3001
2920.2391588681758,3012
2921.976706310227,2967
2923.7139277791334,2992
2925.4508235830313,2977
2927.187394030137,2977
2928.923639428745,3093
2930.6595600872306,3080
2932.395156314046,3033
2934.1304284177218,3116
2935.8653767068713,3018
2937.6000014901815,3026
2939.3343030764227,3028
2941.068281774442,3115
2942.8019378931644,3080
2944.5352717415976,3131
2946.2682836288236,3133
2948.0009738640065,3126
2949.7333427563885,3159
2951.465390615289,3129
2953.1971177501086,3041
2954.9285244703265,3134
2956.6596110855,3052
2958.3903779052657,3050
2960.1208252393385,3035
2961.8509533975125,3067
2963.5807626896617,3117
2965.3102534257378,3065
2967.0394259157715,3020
2968.768280469873,3118
2970.496817398232,3164
2972.2250370111146,3112
2973.952939618869,3063
2975.6805255319196,3055
2977.4077950607707,3117
2979.134748516006,3105
2980.861386208289,3037
2982.587708448359,3110
2984.313715547037,3008
2986.039407815222,3136
2987.764785563891,3117
2989.489849104102,3070
2991.2145987469908,3079
2992.9390348037705,3195
2994.6631575857346,3216
2996.3869674042576,3201
2998.1104645707887,3134
2999.83364939686,3048
3001.5565221940783,3103
3003.2790832741334,3096
3005.0013329487924,3002
3006.7232715298996,3121
3008.4448993293804,3045
3010.166216659239,3069
3011.887223831558,3057
3013.607921158498,3086
3015.3283089522993,3091
3017.0483875252826,3058
3018.7681571898443,3074
3020.4876182584626,3063
3022.2067710436927,3078
3023.9256158581707,2993
3025.644153014609,3146
3027.362382825801,3180
3029.0803056046193,3151
3030.797921664012,3139
3032.5152313170106,2975
3034.2322348767225,3162
3035.9489326563353,3022
3037.665324969115,3057
3039.3814121284063,3011
3041.097194447633,3094
3042.812672240299,3086
3044.5278458199855,3148
3046.2427155003525,3022
3047.9572815951406,3100
3049.671544418167,3139
3051.38550428333,3070
3053.0991615046073,3171
3054.812516396051,3110
3056.5255692717974,3074
3058.2383204460575,3028
3059.9507702331257,3135
3061.662918947372,3202
3063.3747669032446,3027
3065.0863144152736,3085
3066.7975617980674,3120
3068.508509366309,3098
3070.219157434767,3146
3071.9295063182844,3175
3073.639556331785,3144
3075.3493077902704,3135
3077.058761008821,3105
3078.7679163025964,3183
3080.476773986837,3167
3082.1853343768594,3154
3083.89359778806,3259
3085.6015645359153,3159
3087.3092349359786,3031
3089.016609303884,3060
3090.7236879553434,3099
3092.4304712061476,3144
3094.136959372166,3120
3095.843152769349,3196
3097.5490517137237,3109
3099.2546565213966,3134
3100.959967508554,3103
3102.66498499146,3082
3104.3697092864577,3130
3106.0741407099695,3209
3107.778279578498,3283
3109.482126208622,3138
3111.1856809170004,3135
3112.8889440203716,3190
3114.5919158355528,3147
3116.294596679439,3109
3117.996986869006,3198
3119.6990867213062,3185
3121.4008965534726,3284
3123.102416682717,3125
3124.803647426329,3162
3126.5045891016784,3281
3128.205242026213,3173
3129.90560651746,3083
3131.605682893025,3245
3133.3054714705922,3174
3135.0049725679282,3158
3136.7041865028714,3217
3138.4031135933465,3081
3140.101754157353,3200
3141.800108512971,3226
3143.498176978357,3180
3145.1959598717494,3203
3146.8934575114636,3148
3148.5906702158954,3154
3150.2875983035183,3090
3151.9842420928853,3171
3153.680601902627,3154
3155.376678051456,3201
3157.07247085816,3173
3158.767980641609,3187
3160.463207720748,3130
3162.158152414606,3165
3163.8528150422862,3308
3165.5471959229726,3223
3167.2412953759303,3179
3168.9351137204976,3187
3170.628651276098,3228
3172.3219083622307,3188
3174.014885298474,3224
3175.707582404485,3110
3177.4000000000005,3180
3179.092138404835,3324
3180.7839979388846,3125
3182.47557892212,3146
3184.166881674594,3258
3185.8579065164386,3225
3187.5486537678626,3200
3189.2391237491547,3202
3190.9293167806827,3095
3192.6192331828934,3159
3194.3088732763117,3210
3195.998237381542,3162
3197.687325819268,3155
3199.376138910251,3160
3201.064676975334,3155
3202.7529403354347,3104
3204.4409293115523,3147
3206.1286442247647,3151
3207.816085396229,3130
3209.5032531471825,3150
3211.190147798936,3171
3212.8767696728846,3071
3214.5631190905015,3154
3216.2491963733373,3198
3217.9350018430214,3140
3219.6205358212637,3056
3221.305798629851,3090
3222.990790590651,3138
3224.6755120256103,3010
3226.359963256751,3144
3228.0441446061795,3204
3229.7280563960758,3149
3231.411698948703,3128
3233.0950725863995,3240
3234.778177631587,3212
3236.461014406761,3151
3238.1435832345005,3092
3239.8258844374595,3162
3241.507918338374,3109
3243.1896852600576,3100
3244.8711855254023,3099
3246.552419457381,3216
3248.233387379042,3154
3249.914089613516,3180
3251.59452648401,3151
3253.274698313813,3172
3254.95460542629,3100
3256.6342481448855,3094
3258.313626793125,3115
3259.9927416946084,3191
3261.6715931730196,3139
3263.3501815521176,3100
3265.0285071557437,3210
3266.706570307815,3174
3268.3843713323286,3098
3270.0619105533615,3194
3271.739188295068,3166
3273.4162048816834,3092
3275.0929606375184,3192
3276.769455886966,3265
3278.445690954498,3209
3280.1216661646613,3114
3281.797381842087,3274
3283.4728383114807,3167
3285.1480358976296,3170
3286.8229749253996,3150
3288.4976557197333,3120
3290.172078605655,3238
3291.846243908266,3093
3293.5201519527463,3099
3295.193803064357,3146
3296.8671975684374,3071
3298.5403357904024,3101
3300.21321805575,3104
3301.8858446900567,3128
3303.558216018975,3134
3305.23033236824,3192
3306.9021940636603,3095
3308.57380143113,3200
3310.2451547966184,3183
3311.916254486174,3096
3313.5871008259246,3105
3315.2576941420766,3116
3316.9280347609147,3072
3318.5981230088046,3095
3320.2679592121895,3098
3321.9375436975924,3028
3323.606876791612,2954
3325.27595882093,3110
3326.944790112305,3111
3328.6133709925753,3123
3330.2817017886573,3145
3331.949782827547,3152
3333.617614436319,3198
3335.2851969421245,3151
3336.952530672199,3206
3338.619615953853,3134
3340.286453114475,3096
3341.9530424815357,3216
3343.619384382583,3217
3345.2854791452437,3112
3346.951327097224,3249
3348.6169285663073,3234
3350.2822838803577,3212
3351.947393367319,3161
3353.61225735521,3182
3355.2768761721345,3226
3356.9412501462693,3292
3358.605379605873,3231
3360.2692648792827,3199
3361.9329062949146,3166
3363.596304181263,3203
