CollectionTime,9/19/2024 10:54:45 AM
ExposureUsed,3
CalibratedSpectrum
-962.7078968117929,572
-959.9714848408522,584
-957.2358232597828,582
-954.5009119013725,603
-951.7667505983302,643
-949.0333391832855,641
-946.3006774887896,599
-943.5687653473143,612
-940.837602591253,594
-938.1071890529199,603
-935.3775245645503,601
-932.6486089583007,612
-929.9204420662485,598
-927.1930237203925,581
-924.4663537526524,603
-921.7404319948689,619
-919.0152582788041,636
-916.2908324361409,649
-913.5671542984834,592
-910.8442236973568,616
-908.1220404642074,585
-905.4006044304027,617
-902.679915427231,597
-899.959973285902,597
-897.2407778375464,565
-894.5223289132158,582
-891.8046263438832,588
-889.0876699604426,570
-886.3714595937089,552
-883.6559950744183,584
-880.9412762332282,570
-878.2273029007168,576
-875.5140749073835,608
-872.8015920836489,569
-870.0898542598545,567
-867.3788612662631,567
-864.6686129330585,576
-861.9591090903457,567
-859.2503495681506,596
-856.5423341964203,592
-853.8350628050229,585
-851.1285352237478,598
-848.4227512823054,614
-845.7177108103272,592
-843.0134136373656,580
-840.3098595928943,583
-837.6070485063082,589
-834.9049802069229,596
-832.2036545239757,578
-829.5030712866244,575
-826.8032303239481,567
-824.1041314649472,566
-821.4057745385428,591
-818.7081593735775,582
-816.0112857988148,545
-813.3151536429393,600
-810.6197627345566,573
-807.9251129021936,588
-805.2312039742981,555
-802.5380357792392,562
-799.8456081453069,540
-797.1539209007124,600
-794.462973873588,600
-791.772766891987,584
-789.083299783884,635
-786.3945723771743,598
-783.7065844996748,620
-781.0193359791231,635
-778.3328266431781,620
-775.6470563194197,575
-772.9620248353489,585
-770.2777320183878,603
-767.5941776958798,641
-764.9113616950891,625
-762.2292838432011,607
-759.5479439673222,584
-756.8673418944801,604
-754.1874774516235,605
-751.5083504656222,610
-748.8299607632671,640
-746.15230817127,637
-743.475392516264,608
-740.7992136248035,635
-738.1237713233636,596
-735.4490654383407,606
-732.7750957960521,589
-730.1018622227365,637
-727.4293645445534,629
-724.7576025875837,661
-722.0865761778291,629
-719.4162851412126,620
-716.7467293035781,629
-714.0779084906909,625
-711.409822528237,616
-708.7424712418238,630
-706.0758544569796,645
-703.4099719991541,695
-700.7448236937178,657
-698.0804093659622,650
-695.4167288411002,651
-692.7537819442656,636
-690.0915685005134,673
-687.4300883348199,688
-684.7693412720819,674
-682.1093271371178,679
-679.4500457546669,671
-676.7914969493897,628
-674.1336805458676,629
-671.4765963686034,689
-668.8202442420206,732
-666.1646239904642,683
-663.5097354382001,660
-660.8555784094151,663
-658.2021527282176,668
-655.5494582186366,663
-652.8974947046223,660
-650.2462620100463,679
-647.5957599587009,690
-644.9459883742998,698
-642.2969470804776,698
-639.6486359007902,705
-637.0010546587141,701
-634.3542031776476,719
-631.7080812809096,677
-629.0626887917401,683
-626.4180255333008,708
-623.7740913286734,738
-621.1308860008619,717
-618.4884093727904,683
-615.8466612673046,700
-613.2056415071715,692
-610.5653499150785,691
-607.9257863136347,718
-605.28695052537,702
-602.6488423727357,711
-600.0114616781036,686
-597.3748082637674,691
-594.7388819519412,762
-592.1036825647604,809
-589.4692099242818,742
-586.8354638524829,707
-584.2024441712624,690
-581.5701507024403,727
-578.9385832677575,724
-576.3077416888759,722
-573.6776257873787,737
-571.0482353847704,720
-568.4195703024757,737
-565.7916303618415,744
-563.164415384135,720
-560.5379251905453,730
-557.9121596021815,747
-555.2871184400748,736
-552.6628015251767,760
-550.0392086783606,803
-547.4163397204204,769
-544.794194472071,778
-542.1727727539491,823
-539.5520743866118,798
-536.9320991905377,776
-534.3128469861261,835
-531.6943175936979,820
-529.0765108334947,830
-526.4594265256793,918
-523.8430644903358,1137
-521.2274245474689,1249
-518.612506517005,1330
-515.9983102187913,1320
-513.3848354725959,1433
-510.77208209810846,1364
-508.16004991493924,1434
-505.5487387426199,1455
-502.9381484006032,1489
-500.3282787082628,1426
-497.71912948489364,1296
-495.1107005497117,1234
-492.5029917218539,1083
-489.8960028203786,1004
-487.28973366426493,988
-484.68418407241325,880
-482.07935386364494,864
-479.47524285670266,875
-476.87185087025,872
-474.2691777228715,884
-471.66722323307334,890
-469.0659872192821,887
-466.4654694998459,918
-463.86566989303384,870
-461.26658821703614,872
-458.66822428996414,876
-456.07057792985,885
-453.4736489546475,879
-450.877437182231,885
-448.28194243039627,871
-445.68716451686,840
-443.09310325926003,841
-440.49975847515555,863
-437.9071299820263,863
-435.31521759727354,902
-432.72402113821954,922
-430.13354042210767,894
-427.5437752661022,933
-424.95472548728867,933
-422.36639090267386,920
-419.7787713291855,972
-417.1918665836721,966
-414.60567648290385,961
-412.0202008435715,932
-409.4354394822874,930
-406.8513922155845,949
-404.26805885991723,963
-401.685439231661,982
-399.103533147112,981
-396.522340422488,912
-393.9418608739278,903
-391.3620943174908,928
-388.7830405691583,910
-386.2046994448317,852
-383.6270707603344,837
-381.05015433141045,770
-378.473949973725,806
-375.8984575028645,762
-373.32367673433623,691
-370.74960748356875,707
-368.1762495659117,696
-365.60360279663576,586
-363.03166699093265,564
-360.4604419639154,565
-357.8899275306178,546
-355.32012350599507,529
-352.7510297049233,534
-350.1826459421999,517
-347.61497203254316,479
-345.04800779059235,479
-342.4817530309082,483
-339.91620756797226,564
-337.35137121618743,599
-334.7872437898774,530
-332.22382510328725,514
-329.66111497058273,541
-327.09911320585127,549
-324.53781962310075,536
-321.9772340362607,476
-319.4173562591816,484
-316.8581861056348,517
-314.2997233893127,500
-311.7419679238294,502
-309.1849195227194,543
-306.62857799943856,598
-304.0729431673641,560
-301.51801483979375,549
-298.963792829947,527
-296.41027695096386,569
-293.85746701590574,602
-291.3053628377552,626
-288.7539642294155,593
-286.2032710037115,644
-283.65328297338897,716
-281.1039999511146,707
-278.5554217494762,652
-276.007548180983,621
-273.4603790580651,592
-270.9139141930734,608
-268.3681533982807,663
-265.8230964858798,688
-263.27874326798565,738
-260.7350935566336,702
-258.1921471637804,723
-255.6499039013039,798
-253.10836358100266,739
-250.56752601459698,696
-248.02739101372765,761
-245.48795838995704,814
-242.94922795476816,781
-240.41119951956557,720
-237.8738728956746,778
-235.33724789434166,795
-232.80132432673452,788
-230.2661020039418,716
-227.73158073697357,763
-225.19776033676033,837
-222.66464061415422,854
-220.1322213799284,774
-217.60050244477725,748
-215.06948361931552,828
-212.53916471408013,961
-210.00954553952818,1043
-207.48062590603843,838
-204.9524056239104,791
-202.4248845033651,908
-199.8980623545441,1004
-197.37193898751036,1050
-194.84651421224817,966
-192.32178783866232,926
-189.79775967657952,980
-187.27442953574644,1109
-184.7517972258321,1215
-182.2298625564256,1007
-179.7086253370378,894
-177.18808537710026,994
-174.66824248596583,1202
-172.14909647290835,1151
-169.6306471471229,1041
-167.11289431772548,979
-164.59583779375328,1067
-162.07947738416453,1173
-159.5638128978386,1375
-157.04884414357605,1639
-154.53457093009854,1447
-152.02099306604828,1071
-149.50811035998936,1098
-146.99592262040665,1461
-144.48442965570587,1527
-141.97363127421409,1703
-139.46352728417958,1898
-136.95411749377126,1669
-134.44540171107985,1235
-131.93737974411636,1075
-129.43005140081357,1274
-126.92341648902493,1435
-124.41747481652521,1991
-121.91222619101006,2504
-119.40767042009657,2579
-116.90380731132257,2070
-114.40063667214702,2300
-111.8981583099503,2763
-109.3963720320337,4116
-106.89527764561933,6171
-104.39487495785067,9245
-101.89516377579241,12912
-99.39614390642998,18518
-96.89781515667039,21878
-94.40017733334128,21354
-91.90323024319173,18572
-89.40697369289148,15405
-86.91140748903172,8802
-84.41653143812482,6288
-81.92234534660395,10157
-79.42884902082358,17718
-76.93604226705907,25038
-74.4439248915071,29507
-71.95249670028534,29508
-69.46175749943245,24586
-66.97170709490854,17781
-64.48234529259423,12412
-61.99367189829195,11795
-59.50568671772464,11879
-57.01838955653636,10959
-54.53178022029283,11096
-52.045858514480074,10762
-49.560624244506016,12818
-47.07607721569923,13556
-44.59221723330904,13556
-42.10904410250669,15877
-39.62655762838392,14959
-37.14475761595372,14378
-34.66364387015028,16044
-32.18321619582866,17614
-29.70347439776515,18903
-27.224418280657005,21933
-24.74604764912317,29425
-22.26836230770266,54572
-19.7913620608565,65035
-17.315046712966478,65035
-14.83941606833514,65035
-12.36446993118659,65035
-9.89020810566592,65035
-7.416630395839093,65035
-4.94373660569363,65035
-2.471526539137585,65035
-6.821210263296962E-13,65035
2.47084320796705,65035
4.941003281093458,65035
7.410480415786196,65035
9.879274808531363,65035
12.347386655893956,65035
14.814816154518212,65035
17.28156350112681,65035
19.74762889252179,65035
22.21301252558385,23695
24.67771459727237,6350
27.141735304626195,6739
29.605074844762612,7124
32.06773341487792,7068
34.52971121224755,7037
36.99100843422559,5801
39.45162527824516,3958
41.91156194181792,4594
44.370818622535126,5084
46.82939551806646,4519
49.287292826160524,7203
51.74451074464503,6804
54.201049471426245,4453
56.65690920448981,2938
59.112090141899785,2211
61.56659248179983,2851
64.02041642241159,2745
66.4735621620365,2999
68.92602989905402,3867
71.37781983192338,3833
73.82893215918205,2621
76.27936707944684,2016
78.72912479141326,2548
81.17820549385567,2914
83.62660938562783,2602
86.07433666566146,1713
88.5213875329681,1573
90.96776218663751,1830
93.41346082583925,1999
95.85848364982041,2335
98.30283085790859,2261
100.7465026495089,1945
103.18949922410604,1680
105.63182078126385,1508
108.07346752062438,1423
110.51443964190923,1167
112.95473734491827,1173
115.39436082953114,1468
117.83331029570547,1459
120.27158594347827,1360
122.7091879729652,1449
125.1461165843615,1391
127.58237197794062,1115
130.01795435405518,1235
132.4528639131364,1353
134.88710085569494,1119
137.32066538231982,1425
139.75355769367923,1642
142.1857779905207,1381
144.61732647366978,1069
147.04820334403132,1064
149.47840880258934,1025
151.90794305040674,1159
154.33680628862487,1336
156.76499871846443,1328
159.19252054122433,1379
161.61937195828352,1559
164.04555317109896,1739
166.47106438120693,1979
168.89590579022217,2041
171.320077599839,2190
173.7435800118302,2211
176.16641322804742,2233
178.58857745042144,2303
181.01007288096173,2440
183.43089972175687,2489
185.85105817497413,2401
188.27054844285988,2449
190.6893707277394,2311
193.10752523201643,2364
195.5250121581745,2399
197.9418317087751,2434
200.3579840864594,2432
202.7734694939469,2485
205.18828813403627,2631
207.6024402096051,2703
210.01592592360964,2609
212.42874547908548,2548
214.84089907914665,2476
217.2523869269868,2504
219.66320922587727,2610
222.0733661791695,2497
224.48285799029293,2589
226.8916848627572,2651
229.29984700014882,2614
231.7073446061355,2515
234.11417788446204,2651
236.520347038953,2751
238.92585227351185,2789
241.33069379212054,2858
243.73487179884035,2904
246.1383864978112,2859
248.541238093252,2956
250.9434267894609,3043
253.34495279081432,2971
255.74581630176783,2975
258.1460175268563,2931
260.54555667069314,2985
262.9444339379703,2956
265.3426495334594,3003
267.7402036620107,2905
270.1370965285529,2894
272.53332833809407,2668
274.9288992957214,2587
277.32380960660055,2479
279.718059475976,2568
282.1116491091717,2536
284.5045787115897,2473
286.89684848871195,2327
289.2884586460981,2390
291.67940938938807,2531
294.0697009242996,2543
296.4593334566299,2447
298.84830719225477,2428
301.23662233712923,2376
303.6242790972866,2460
306.01127767884,2320
308.39761828798066,2330
310.78330113097934,2410
313.16832641418534,2254
315.5526943440269,2192
317.9364051270112,2204
320.3194589697242,2225
322.70185607883093,2255
325.0835966610754,2089
327.4646809232805,2084
329.8451090723478,2158
332.2248813152577,2164
334.6039978590701,2163
336.9824589109231,2191
339.36026467803447,2009
341.7374153677,2084
344.113911187295,1990
346.48975234427337,2015
348.8649390461686,2053
351.2394715005918,2031
353.61334991523415,2021
355.9865744978655,1981
358.35914545633375,2075
360.73106299856715,2131
363.10232733257146,1973
365.47293866643247,2027
367.84289720831396,1992
370.2122031664593,1951
372.5808567491905,2066
374.9488581649083,1884
377.31620762209275,1916
379.6829053293021,1907
382.0489514951745,1919
384.4143463284262,1960
386.7790900378528,1919
389.14318283232853,1879
391.50662492080653,1881
393.86941651231916,1933
396.23155781597745,1915
398.5930490409713,2021
400.9538903965696,1877
403.3140820921202,1865
405.6736243370498,1858
408.03251734086336,1841
410.3907613131465,1816
412.74835646356166,1832
415.10530300185144,1829
417.4616011378372,1845
419.81725108141893,1831
422.1722530425758,1897
424.5266072313656,1847
426.880313857925,1833
429.2333731324701,1847
431.58578526529516,1828
433.9375504667738,1806
436.2886689473588,1840
438.63914091758113,1858
440.9889665880513,1758
443.33814616945835,1783
445.68667987257015,1772
448.03456790823395,1775
450.3818104873759,1790
452.72840782100013,1728
455.07436012019105,1774
457.41966759611057,1764
459.7643304600007,1770
462.10834892318155,1844
464.4517231970525,1784
466.79445349309174,1762
469.1365400228566,1830
471.4779829979826,1828
473.81878263018564,1840
476.15893913125876,1792
478.4984527130747,1843
480.8373235875855,1857
483.17555196682144,1978
485.5131380628919,1954
487.8500820879857,1981
490.1863842543697,1979
492.52204477439034,2118
494.8570638604725,2319
497.1914417251204,2540
499.52517858091653,2685
501.85827464052306,3018
504.19073011668036,3117
506.5225452222086,3227
508.85372017000566,3336
511.18425517304956,3619
513.514150444396,4463
515.8434061971808,5562
518.1720226446176,6228
520.4999999999999,6320
522.8273384766991,5909
525.1540382881666,5551
527.480099647932,4968
529.8055227696037,3828
532.1303078668694,2817
534.454455153496,2319
536.777964843328,2076
539.1008371502907,1963
541.4230722883866,1988
543.744670471698,1925
546.0656319143858,1877
548.3859568306899,1858
550.7056454349294,1873
553.0246979415016,1890
555.3431145648834,1846
557.6608955196306,1819
559.978041020377,1778
562.2945512818363,1862
564.6104265188006,1837
566.9256669461412,1774
569.2402727788082,1778
571.5542442318302,1906
573.8675815203156,1875
576.1802848594508,1832
578.4923544645015,1875
580.8037905508126,1826
583.114593333807,1813
585.4247630289875,1768
587.7342998519354,1860
590.0432040183106,1811
592.3514757438526,1779
594.6591152443794,1809
596.9661227357875,1804
599.2724984340531,1795
601.578242555231,1772
603.8833553154542,1770
606.1878369309362,1782
608.4916876179676,1815
610.7949075929192,1787
613.0974970722403,1816
615.3994562724587,1838
617.7007854101818,1823
620.0014847020951,1821
622.3015543649641,1831
624.6009946156324,1838
626.8998056710224,1790
629.1979877481361,1836
631.4955410640538,1834
633.7924658359349,1755
636.0887622810175,1859
638.3844306166192,1854
640.6794710601358,1876
642.9738838290426,1885
645.2676691408932,1819
647.5608272133207,1833
649.853358264037,1884
652.1452625108324,1860
654.4365401715764,1926
656.7271914642178,1936
659.0172166067838,1916
661.3066158173809,1928
663.5953893141935,1864
665.8835373154867,1859
668.1710600396028,1844
670.4579577049639,1938
672.7442305300709,1909
675.0298787335033,1889
677.3149025339197,1888
679.599302150058,1906
681.8830778007342,1809
684.1662297048437,1896
686.4487580813608,1920
688.7306631493387,1888
691.0119451279091,1891
693.2926042362834,1955
695.5726406937516,1826
697.8520547196814,1848
700.1308465335215,1856
702.4090163547982,1858
704.6865644031171,1873
706.9634908981619,1806
709.2397960596965,1832
711.5154801075631,1910
713.7905432616823,1936
716.0649857420548,1882
718.3388077687592,1901
720.612009561953,1864
722.8845913418733,1813
725.1565533288352,1845
727.427895743234,1792
729.6986188055427,1794
731.9687227363137,1926
734.238207756178,1823
736.5070740858458,1838
738.7753219461066,1743
741.0429515578281,1765
743.3099631419569,1788
745.5763569195191,1831
747.8421331116193,1782
750.1072919394409,1871
752.3718336242467,1824
754.6357583873777,1818
756.8990664502545,1824
759.1617580343765,1851
761.423833361321,1791
763.6852926527457,1830
765.9461361303862,1811
768.206364016058,1831
770.4659765316536,1844
772.7249738991469,1907
774.9833563405886,1932
777.2411240781092,1837
779.4982773339183,1810
781.7548163303044,1861
784.010741289634,1801
786.2660524343538,1886
788.5207499869881,1880
790.7748341701416,1868
793.0283052064964,1889
795.2811633188143,1839
797.5334087299362,1880
799.7850416627813,1898
802.0360623403484,1888
804.2864709857143,1882
806.5362678220353,1921
808.7854530725468,1928
811.0340269605625,1864
813.2819897094754,1830
815.5293415427581,1957
817.77608268396,1925
820.0222133567116,1885
822.2677337847211,1844
824.5126441917765,1922
826.7569448017433,1830
829.0006358385675,1794
831.2437175262731,1916
833.4861900889629,1867
835.7280537508192,1903
837.9693087361026,1951
840.2099552691533,1889
842.4499935743896,1877
844.689423876309,1877
846.9282463994886,1875
849.1664613685833,1841
851.4040690083276,1866
853.6410695435349,1897
855.877463199097,1869
858.1132501999847,1904
860.3484307712487,1972
862.5830051380175,1896
864.8169735254988,1987
867.0503361589791,1936
869.2830932638243,1859
871.5152450654786,1930
873.7467917894654,1898
875.9777336613873,1945
878.2080709069252,1919
880.4378037518389,1928
882.666932421968,1871
884.8954571432301,1998
887.1233781416219,1929
889.3506956432192,1918
891.5774098741766,1894
893.803521060728,1864
896.0290294291852,1937
898.2539352059397,1917
900.4782386174619,1858
902.7019398903011,1986
904.925039251085,1897
907.147536926521,1883
909.3694331433943,1855
911.59072812857,1908
913.8114221089921,1860
916.0315153116827,1905
918.2510079637437,1878
920.4699002923547,1855
922.6881925247761,1916
924.905884888345,1936
927.1229776104793,1879
929.3394709186747,1897
931.555365040506,1936
933.7706602036275,1891
935.9853566357709,1966
938.1994545647489,1940
940.4129542184515,2011
942.6258558248488,1966
944.8381596119883,1906
947.0498658079974,1954
949.2609746410825,1930
951.4714863395287,1985
953.6814011316998,2024
955.8907192460387,1919
958.0994409110671,1978
960.3075663553858,1980
962.5150958076741,1974
964.7220294966913,1948
966.928367651274,1923
969.1341105003388,1872
971.3392582728806,1913
973.5438111979742,1956
975.747769504772,1907
977.9511334225061,1841
980.153903180487,1868
982.3560790081052,1847
984.5576611348289,1846
986.7586497902058,1943
988.9590452038618,1793
991.158847605503,1879
993.3580572249133,1777
995.5566742919558,1784
997.7546990365728,1750
999.952131688785,1702
1002.1489724786926,1634
1004.3452216364743,1659
1006.5408793923874,1659
1008.7359459767691,1582
1010.9304216200343,1639
1013.1243065526781,1655
1015.3176010052733,1673
1017.510305208472,1625
1019.7024193930064,1580
1021.8939437896848,1600
1024.0848786293977,1679
1026.2752241431122,1651
1028.4649805618747,1667
1030.6541481168115,1610
1032.842727039127,1615
1035.0307175601051,1597
1037.2181199111074,1551
1039.4049343235752,1486
1041.591161029029,1535
1043.7768002590683,1541
1045.9618522453698,1551
1048.1463172196918,1517
1050.3301954138697,1612
1052.513487059818,1573
1054.69619238953,1552
1056.8783116350783,1491
1059.0598450286152,1524
1061.2407928023704,1575
1063.4211551886528,1560
1065.6009324198508,1543
1067.780124728432,1540
1069.9587323469414,1609
1072.1367555080046,1507
1074.314194444325,1518
1076.4910493886855,1489
1078.667320573947,1523
1080.843008233051,1511
1083.0181125990161,1548
1085.1926339049414,1515
1087.3665723840027,1529
1089.5399282694575,1502
1091.7127017946405,1527
1093.8848931929647,1523
1096.0565026979243,1548
1098.2275305430899,1509
1100.3979769621128,1446
1102.567842188722,1429
1104.737126456726,1494
1106.9058300000124,1516
1109.0739530525475,1451
1111.2414958483764,1480
1113.4084586216231,1444
1115.5748416064907,1442
1117.7406450372605,1529
1119.9058691482942,1422
1122.0705141740304,1491
1124.2345803489884,1502
1126.3980679077658,1487
1128.5609770850388,1499
1130.7233081155623,1516
1132.8850612341707,1441
1135.0462366757774,1441
1137.2068346753745,1431
1139.3668554680326,1478
1141.526299288901,1465
1143.68516637321,1450
1145.8434569562655,1487
1148.001171273455,1490
1150.158309560244,1448
1152.3148720521767,1428
1154.470858984876,1404
1156.626270594044,1486
1158.7811071154629,1453
1160.9353687849912,1407
1163.089055838569,1458
1165.242168512213,1512
1167.3947070420209,1439
1169.5466716641677,1460
1171.6980626149075,1455
1173.8488801305748,1432
1175.9991244475814,1454
1178.1487958024186,1394
1180.2978944316555,1452
1182.4464205719428,1485
1184.5943744600072,1449
1186.7417563326567,1421
1188.8885664267755,1490
1191.0348049793297,1445
1193.1804722273619,1483
1195.325568407995,1473
1197.4700937584303,1455
1199.614048515948,1513
1201.7574329179074,1427
1203.900247201746,1491
1206.042491604982,1490
1208.1841663652099,1377
1210.3252717201053,1445
1212.465807907422,1452
1214.6057751649923,1435
1216.7451737307279,1465
1218.8840038426192,1413
1221.0222657387353,1481
1223.1599596572241,1466
1225.2970858363137,1420
1227.4336445143094,1426
1229.5696359295966,1493
1231.705060320639,1458
1233.8399179259786,1506
1235.9742089842384,1459
1238.107933734118,1486
1240.2410924143974,1484
1242.373685263935,1498
1244.5057125216676,1527
1246.6371744266116,1563
1248.7680712178621,1431
1250.898403134593,1516
1253.028170416058,1513
1255.1573733015875,1482
1257.2860120305932,1497
1259.4140868425648,1489
1261.54159797707,1493
1263.6685456737569,1512
1265.7949301723515,1543
1267.9207517126597,1578
1270.046010534565,1559
1272.1707068780306,1591
1274.2948409830983,1563
1276.4184130898889,1570
1278.541423438603,1582
1280.6638722695184,1547
1282.785759822993,1533
1284.9070863394636,1597
1287.0278520594447,1619
1289.1480572235314,1565
1291.2677020723963,1643
1293.3867868467923,1599
1295.5053117875495,1616
1297.623277135579,1666
1299.740683131868,1685
1301.8575300174857,1678
1303.973818033578,1695
1306.0895474213703,1700
1308.2047184221678,1701
1310.3193312773528,1707
1312.4333862283888,1679
1314.5468835168163,1796
1316.659823384255,1721
1318.7722060724045,1765
1320.8840318230418,1789
1322.9953008780249,1778
1325.1060134792888,1738
1327.2161698688478,1700
1329.3257702887959,1764
1331.4348149813054,1725
1333.5433041886276,1701
1335.6512381530933,1767
1337.7586171171101,1696
1339.8654413231675,1648
1341.9717110138317,1654
1344.0774264317488,1686
1346.1825878196432,1697
1348.2871954203192,1661
1350.3912494766587,1697
1352.4947502316231,1703
1354.5976979282532,1725
1356.7000928096686,1690
1358.8019351190665,1700
1360.9032250997243,1682
1363.0039629949988,1644
1365.1041490483235,1642
1367.2037835032133,1698
1369.3028666032606,1667
1371.401398592137,1647
1373.4993797135926,1708
1375.5968102114575,1671
1377.6936903296396,1680
1379.7900203121262,1699
1381.8858004029835,1599
1383.9810308463561,1685
1386.075711886469,1667
1388.1698437676241,1657
1390.2634267342032,1700
1392.356461030667,1755
1394.4489469015557,1708
1396.5408845914872,1712
1398.6322743451592,1683
1400.7231164073469,1749
1402.813411022907,1673
1404.903158436773,1791
1406.9923588939578,1666
1409.0810126395531,1747
1411.1691199187303,1754
1413.2566809767386,1767
1415.343696058907,1762
1417.4301654106425,1741
1419.5160892774315,1760
1421.6014679048399,1717
1423.6863015385125,1875
1425.7705904241707,1832
1427.8543348076178,1743
1429.9375349347342,1838
1432.0201910514802,1824
1434.102303403894,1866
1436.1838722380944,1887
1438.2648978002767,1863
1440.3453803367174,1856
1442.4253200937692,1920
1444.5047173178677,1960
1446.5835722555234,1952
1448.6618851533285,1997
1450.739656257952,1974
1452.8168858161434,1996
1454.8935740747306,2088
1456.96972128062,2126
1459.045327680797,2143
1461.120393522327,2100
1463.1949190523528,2133
1465.2689045180973,2208
1467.3423501668608,2265
1469.415256246024,2221
1471.4876230030463,2326
1473.559450685465,2342
1475.6307395408976,2423
1477.7014898170391,2405
1479.771701761665,2418
1481.8413756226287,2429
1483.9105116478618,2474
1485.9791100853772,2480
1488.0471711832643,2561
1490.1146951896926,2564
1492.1816823529098,2649
1494.2481329212433,2597
1496.3140471430984,2644
1498.3794252669609,2623
1500.4442675413939,2652
1502.5085742150404,2704
1504.572345536622,2785
1506.6355817549388,2833
1508.6982831188702,2727
1510.7604498773744,2735
1512.8220822794883,2724
1514.8831805743293,2710
1516.9437450110909,2799
1519.003775839048,2813
1521.0632733075522,2827
1523.1222376660367,2797
1525.1806691640113,2890
1527.2385680510652,2900
1529.2959345768668,2905
1531.3527689911643,2909
1533.4090715437833,3008
1535.4648424846291,2938
1537.5200820636855,2950
1539.5747905310159,3021
1541.6289681367616,3078
1543.6826151311434,3128
1545.7357317644614,3112
1547.7883182870937,3357
1549.8403749494987,3245
1551.8919020022113,3321
1553.9428996958477,3358
1555.9933682811015,3413
1558.0433080087469,3384
1560.0927191296346,3503
1562.1416018946961,3489
1564.1899565549415,3704
1566.2377833614592,3555
1568.2850825654164,3518
1570.3318544180606,3576
1572.3780991707158,3408
1574.423817074788,3246
1576.4690083817595,3162
1578.5136733431923,3056
1580.5578122107272,2985
1582.601425236085,2835
1584.6445126710646,2704
1586.6870747675434,2606
1588.7291117774776,2523
1590.7706239529034,2526
1592.8116115459347,2348
1594.8520748087658,2407
1596.8920139936686,2211
1598.9314293529933,2202
1600.9703211391711,2162
1603.008689604711,1973
1605.0465350022005,1952
1607.0838575843068,1932
1609.1206576037753,1914
1611.1569353134305,1854
1613.1926909661765,1879
1615.2279248149953,1841
1617.2626371129481,1832
1619.2968281131757,1738
1621.3304980688963,1725
1623.3636472334088,1713
1625.39627586009,1691
1627.428384202396,1679
1629.459972513861,1678
1631.4910410480993,1604
1633.5215900588028,1612
1635.551619799744,1585
1637.5811305247717,1584
1639.6101224878166,1564
1641.6385959428862,1558
1643.6665511440683,1539
1645.693988345528,1553
1647.7209078015112,1576
1649.7473097663405,1529
1651.7731944944203,1555
1653.7985622402307,1488
1655.823413258333,1559
1657.847747803366,1571
1659.8715661300494,1502
1661.8948684931793,1488
1663.9176551476316,1595
1665.9399263483624,1500
1667.9616823504057,1473
1669.982923408873,1497
1672.0036497789574,1488
1674.0238617159293,1507
1676.043559475138,1499
1678.0627433120121,1467
1680.081413482059,1436
1682.0995702408654,1531
1684.117213844096,1529
1686.134344547495,1494
1688.1509626068864,1477
1690.1670682781705,1512
1692.182661817329,1511
1694.1977434804217,1514
1696.2123135235875,1459
1698.226372203043,1492
1700.2399197750851,1535
1702.2529564960905,1529
1704.2654826225112,1517
1706.277498410882,1499
1708.2890041178139,1473
1710.2999999999988,1468
1712.3104863142066,1448
1714.3204633172854,1485
1716.329931266163,1495
1718.3388904178469,1442
1720.3473410294214,1451
1722.3552833580516,1494
1724.3627176609807,1414
1726.3696441955308,1466
1728.3760632191033,1470
1730.3819749891782,1429
1732.3873797633146,1438
1734.3922777991502,1434
1736.3966693544012,1376
1738.4005546868639,1437
1740.4039340544127,1410
1742.406807715001,1437
1744.4091759266616,1443
1746.4110389475054,1436
1748.4123970357223,1407
1750.413250449582,1442
1752.4135994474318,1399
1754.4134442876993,1408
1756.4127852288902,1399
1758.4116225295893,1384
1760.4099564484595,1359
1762.407787244244,1413
1764.405115175764,1389
1766.4019405019203,1364
1768.3982634816916,1388
1770.3940843741357,1421
1772.3894034383907,1375
1774.3842209336717,1382
1776.378537119274,1381
1778.372352254571,1346
1780.3656665990156,1325
1782.3584804121397,1361
1784.3507939535534,1337
1786.3426074829463,1333
1788.3339212600863,1363
1790.3247355448211,1352
1792.3150505970766,1345
1794.3048666768573,1398
1796.2941840442477,1350
1798.2830029594106,1353
1800.2713236825884,1371
1802.2591464741004,1316
1804.2464715943465,1376
1806.2332993038058,1307
1808.2196298630352,1358
1810.2054635326708,1391
1812.190800573428,1311
1814.175641246101,1345
1816.1599858115628,1319
1818.1438345307652,1293
1820.127187664738,1312
1822.1100454745924,1271
1824.092408221516,1347
1826.0742761667766,1268
1828.055649571721,1320
1830.0365286977735,1355
1832.0169138064398,1325
1833.9968051593014,1348
1835.9762030180214,1345
1837.9551076443408,1337
1839.9335193000788,1327
1841.9114382471344,1307
1843.888864747485,1331
1845.8657990631878,1287
1847.842241456378,1301
1849.8181921892697,1321
1851.7936515241558,1260
1853.7686197234098,1295
1855.7430970494815,1347
1857.7170837649014,1297
1859.6905801322787,1338
1861.6635864143004,1419
1863.6361028737338,1346
1865.608129773424,1318
1867.5796673762961,1353
1869.5507159453537,1359
1871.521275743678,1390
1873.4913470344313,1347
1875.4609300808534,1435
1877.4300251462632,1341
1879.3986324940588,1350
1881.366752387717,1336
1883.3343850907936,1347
1885.3015308669228,1334
1887.268189979819,1361
1889.2343626932739,1394
1891.2000492711595,1381
1893.1652499774254,1343
1895.1299650761011,1371
1897.0941948312952,1382
1899.0579395071945,1338
1901.0211993680641,1378
1902.98397467825,1401
1904.9462657021745,1383
1906.9080727043415,1355
1908.869395949332,1408
1910.8302357018065,1366
1912.790592226504,1415
1914.7504657882428,1373
1916.7098566519212,1351
1918.6687650825133,1312
1920.6271913450764,1328
1922.5851357047422,1341
1924.5425984267245,1320
1926.499579776314,1353
1928.4560800188833,1377
1930.4120994198802,1383
1932.367638244833,1326
1934.32269675935,1351
1936.2772752291175,1310
1938.231373919899,1368
1940.1849930975404,1337
1942.1381330279637,1296
1944.0907939771696,1333
1946.0429762112412,1276
1947.9946799963363,1368
1949.9459055986945,1354
1951.896653284633,1362
1953.8469233205478,1376
1955.7967159729142,1309
1957.7460315082863,1293
1959.6948701932974,1304
1961.6432322946594,1261
1963.5911180791632,1348
1965.5385278136787,1336
1967.4854617651545,1314
1969.4319202006182,1266
1971.377903387176,1336
1973.3234115920136,1310
1975.268445082395,1240
1977.2130041256642,1261
1979.1570889892423,1315
1981.1006999406304,1293
1983.04383724741,1304
1984.986501177238,1296
1986.928691997853,1330
1988.8704099770712,1330
1990.811655382789,1333
1992.7524284829801,1311
1994.692729545698,1281
1996.6325588390755,1285
1998.5719166313224,1289
2000.5108031907307,1349
2002.4492187856677,1321
2004.387163684583,1298
2006.3246381560011,1293
2008.2616424685298,1292
2010.1981768908527,1292
2012.1342416917332,1303
2014.069837140014,1234
2016.0049635046162,1326
2017.9396210545406,1295
2019.8738100588666,1271
2021.8075307867502,1210
2023.740783507431,1255
2025.6735684902228,1275
2027.6058860045214,1252
2029.5377363198004,1289
2031.4691197056118,1286
2033.4000364315875,1310
2035.3304867674374,1263
2037.260470982952,1255
2039.189989347998,1239
2041.1190421325232,1276
2043.047629606554,1285
2044.9757520401945,1245
2046.9034097036288,1241
2048.8306028671195,1255
2050.7573318010086,1234
2052.683596775716,1259
2054.609398061742,1262
2056.5347359296647,1298
2058.4596106501403,1276
2060.384022493906,1239
2062.3079717317764,1234
2064.231458634646,1257
2066.1544834734873,1278
2068.077046519352,1322
2069.99914804337,1264
2071.9207883167524,1214
2073.8419676107865,1270
2075.7626861968406,1281
2077.6829443463607,1227
2079.6027423308715,1289
2081.522080421977,1288
2083.440958891362,1297
2085.359378010786,1271
2087.2773380520907,1302
2089.194839287196,1258
2091.111881988101,1280
2093.0284664268825,1277
2094.9445928756973,1240
2096.86026160678,1235
2098.775472892446,1246
2100.690227005088,1283
2102.604524217178,1217
2104.5183648012676,1254
2106.431749029985,1323
2108.34467717604,1312
2110.2571495122206,1289
2112.169166311393,1279
2114.080727846503,1295
2115.9918343905747,1273
2117.902486216711,1293
2119.8126835980956,1277
2121.722426807987,1273
2123.6317161197285,1243
2125.5405518067364,1260
2127.448934142509,1347
2129.356863400624,1281
2131.264339854737,1339
2133.1713637785815,1301
2135.077935445972,1281
2136.9840551308002,1249
2138.889723107037,1288
2140.7949396487334,1310
2142.699705030018,1337
2144.6040195250994,1299
2146.507883408264,1312
2148.4112969538774,1316
2150.3142604363848,1282
2152.2167741303097,1324
2154.1188383102535,1344
2156.0204532508997,1310
2157.9216192270064,1299
2159.822336513414,1354
2161.7226053850413,1289
2163.622426116884,1297
2165.5217989840185,1301
2167.4207242616,1314
2169.319202224862,1347
2171.2172331491165,1304
2173.1148173097563,1340
2175.0119549822507,1298
2176.90864644215,1306
2178.8048919650823,1356
2180.7006918267534,1327
2182.596046302952,1413
2184.4909556695407,1356
2186.3854202024645,1307
2188.279440177746,1346
2190.173015871487,1308
2192.066147559868,1398
2193.958835519149,1308
2195.851080025667,1314
2197.7428813558417,1338
2199.6342397861667,1300
2201.5251555932186,1328
2203.415629053651,1395
2205.3056604441986,1330
2207.19525004167,1326
2209.084398122958,1423
2210.9731049650327,1350
2212.861370844941,1424
2214.749196039812,1419
2216.636580826851,1371
2218.523525483344,1348
2220.410030286655,1372
2222.296095514226,1349
2224.1817214435805,1349
2226.066908352319,1380
2227.951656518121,1333
2229.835966218746,1289
2231.71983773203,1315
2233.6032713358913,1313
2235.486267308324,1408
2237.3688259274036,1351
2239.2509474712824,1292
2241.132632218193,1406
2243.013880446447,1359
2244.8946924344323,1371
2246.7750684606203,1370
2248.6550088035574,1329
2250.534513741871,1344
2252.413583554265,1368
2254.292218519526,1362
2256.170418916517,1355
2258.0481850241786,1362
2259.925517121534,1306
2261.8024154876825,1378
2263.678880401803,1380
2265.5549121431536,1395
2267.430510991071,1325
2269.305677224971,1287
2271.180411124348,1348
2273.0547129687766,1293
2274.9285830379076,1271
2276.8020216114737,1322
2278.6750289692845,1316
2280.5476053912294,1294
2282.4197511572766,1318
2284.2914665474727,1394
2286.162751841943,1410
2288.0336073208937,1360
2289.904033264608,1380
2291.774029953448,1386
2293.6435976678554,1419
2295.5127366883517,1345
2297.381447295534,1327
2299.2497297700825,1293
2301.1175843927526,1258
2302.9850114443825,1261
2304.852011205885,1213
2306.7185839582553,1187
2308.5847299825664,1228
2310.4504495599676,1192
2312.3157429716925,1224
2314.1806104990483,1215
2316.0450524234247,1161
2317.9090690262888,1202
2319.772660589186,1284
2321.635827393742,1224
2323.498569721661,1231
2325.3608878547248,1188
2327.2227820747967,1224
2329.0842526638157,1194
2330.945299903803,1150
2332.805924076857,1175
2334.6661254651535,1197
2336.525904350951,1211
2338.3852610165827,1206
2340.244195744464,1261
2342.102708817088,1203
2343.9608005170253,1228
2345.8184711269287,1195
2347.675720929526,1223
2349.532550207628,1236
2351.38895924412,1213
2353.24494832197,1223
2355.100517724223,1146
2356.955667734004,1181
2358.810398634514,1190
2360.664710709037,1216
2362.5186042409337,1215
2364.3720795136437,1251
2366.225136810686,1199
2368.0777764156583,1205
2369.929998612237,1235
2371.7818036841777,1192
2373.633191915315,1251
2375.484163589562,1292
2377.3347189909114,1262
2379.184858403434,1200
2381.03458211128,1233
2382.8838903986775,1244
2384.732783549936,1242
2386.5812618494406,1226
2388.4293255816588,1268
2390.2769750311327,1251
2392.1242104824883,1245
2393.971032220427,1245
2395.8174405297295,1244
2397.6634356952563,1254
2399.509018001947,1238
2401.3541877348193,1269
2403.1989451789705,1212
2405.043290619576,1255
2406.8872243418905,1251
2408.730746631247,1217
2410.5738577730594,1282
2412.4165580528183,1257
2414.258847756095,1245
2416.100727168537,1241
2417.9421965758734,1264
2419.783256263912,1230
2421.623906518538,1246
2423.4641476257157,1260
2425.303979871491,1221
2427.143403541984,1289
2428.9824189233977,1294
2430.821026302012,1264
2432.6592259641866,1211
2434.497018196361,1294
2436.33440328505,1231
2438.171381516851,1273
2440.00795317844,1256
2441.844118556569,1228
2443.6798779380724,1294
2445.5152316098606,1261
2447.3501798589255,1209
2449.1847229723357,1278
2451.0188612372403,1282
2452.8525949408663,1250
2454.6859243705203,1292
2456.518849813587,1306
2458.3513715575314,1281
2460.183489889895,1291
2462.015205098301,1264
2463.8465174704493,1249
2465.67742729412,1249
2467.5079348571717,1248
2469.338040447542,1292
2471.1677443532476,1291
2472.9970468623833,1244
2474.825948263123,1256
2476.6544488437207,1262
2478.482548892508,1221
2480.310248697896,1295
2482.137548548374,1238
2483.9644487325118,1279
2485.790949538956,1241
2487.617051256433,1305
2489.44275417375,1322
2491.26805857979,1297
2493.0929647635157,1336
2494.917473013971,1295
2496.741583620276,1269
2498.5652968716304,1291
2500.3886130573137,1334
2502.2115324666834,1314
2504.0340553891765,1329
2505.856182114308,1350
2507.6779129316733,1312
2509.499248130945,1309
2511.3201880018764,1301
2513.140732834298,1297
2514.9608829181198,1322
2516.780638543331,1330
2518.6,1288
2520.418967578273,1297
2522.237541568376,1289
2524.0557222606144,1305
2525.8735099453706,1397
2527.6909049131086,1307
2529.507907454368,1333
2531.32451785977,1391
2533.140736420014,1298
2534.9565634258774,1296
2536.771999168218,1408
2538.5870439379714,1377
2540.4016980261526,1341
2542.2159617238544,1443
2544.02983532225,1379
2545.8433191125914,1380
2547.656413386209,1425
2549.4691184345115,1380
2551.2814345489874,1437
2553.093362021204,1449
2554.904901142808,1452
2556.716052205523,1436
2558.526815501153,1471
2560.3371913215824,1446
2562.147179958771,1469
2563.956781704761,1504
2565.7659968516705,1520
2567.5748256916986,1487
2569.3832685171224,1477
2571.1913256202984,1516
2572.9989972936614,1527
2574.806283829725,1545
2576.613185521084,1569
2578.4197026604074,1480
2580.2258355404483,1623
2582.031584454035,1673
2583.836949694077,1593
2585.6419315535613,1551
2587.4465303255533,1586
2589.2507463032002,1595
2591.0545797797245,1615
2592.8580310484303,1603
2594.6611004026995,1597
2596.463788135992,1548
2598.266094541849,1560
2600.0680199138874,1537
2601.869564545807,1565
2603.670728731383,1612
2605.4715127644704,1569
2607.2719169390048,1563
2609.071941548998,1591
2610.8715868885433,1586
2612.670853251811,1606
2614.469740933052,1575
2616.268250226594,1601
2618.0663814268455,1587
2619.864134828292,1596
2621.6615107255006,1583
2623.458509413115,1565
2625.2551311858597,1516
2627.0513763385347,1513
2628.8472451660223,1553
2630.6427379632833,1510
2632.4378550253564,1492
2634.232596647359,1431
2636.026963124488,1452
2637.8209547520187,1468
2639.6145718253065,1534
2641.407814639785,1502
2643.200683490966,1425
2644.9931786744414,1442
2646.7853004858807,1422
2648.577049221034,1415
2650.3684251757277,1421
2652.1594286458712,1479
2653.9500599274484,1444
2655.740319316525,1439
2657.5302071092437,1339
2659.3197236018286,1321
2661.10886909058,1360
2662.8976438718782,1384
2664.686048242183,1366
2666.4740824980327,1359
2668.2617469360443,1344
2670.0490418529134,1368
2671.8359675454153,1345
2673.622524310403,1336
2675.408712444811,1297
2677.1945322456495,1341
2678.979984010009,1275
2680.76506803506,1320
2682.5497846180497,1262
2684.334134056306,1314
2686.1181166472343,1280
2687.9017326883213,1298
2689.6849824771293,1281
2691.4678663113013,1276
2693.2503844885596,1299
2695.032537306705,1259
2696.8143250636167,1291
2698.5957480572542,1259
2700.3768065856534,1283
2702.1575009469316,1302
2703.937831439283,1237
2705.717798360982,1242
2707.4974020103837,1239
2709.276642685917,1244
2711.055520686095,1169
2712.834036309506,1238
2714.612189854819,1257
2716.389981620782,1230
2718.1674119062204,1191
2719.944481010041,1254
2721.721189231226,1278
2723.4975368688415,1239
2725.273524222027,1204
2727.0491515900053,1224
2728.824419272075,1206
2730.5993275676146,1162
2732.3738767760838,1197
2734.148067197016,1196
2735.921899130031,1190
2737.6953728748194,1167
2739.468488731156,1219
2741.2412469988926,1153
2743.0136479779617,1238
2744.785691968372,1263
2746.5573792702116,1207
2748.3287101836504,1188
2750.099685008934,1201
2751.870304046388,1228
2753.640567596418,1190
2755.4104759595057,1165
2757.1800294362156,1179
2758.949228327187,1158
2760.7180729331412,1187
2762.486563554877,1178
2764.254700493272,1210
2766.022484049284,1212
2767.789914523947,1134
2769.5569922183786,1119
2771.3237174337705,1159
2773.090090471394,1187
2774.8561116326036,1147
2776.6217812188274,1204
2778.3870995315756,1159
2780.1520668724356,1175
2781.9166835430747,1139
2783.6809498452394,1178
2785.444866080754,1175
2787.2084325515225,1171
2788.971649559527,1121
2790.73451740683,1201
2792.4970363955713,1204
2794.2592068279705,1178
2796.0210290063264,1167
2797.7825032330147,1153
2799.543629810493,1213
2801.304409041296,1199
2803.0648412280366,1112
2804.8249266734088,1208
2806.5846656801846,1192
2808.344058551212,1204
2810.1031055894246,1205
2811.8618070978273,1194
2813.6201633795085,1191
2815.378174737636,1175
2817.1358414754536,1190
2818.893163896285,1191
2820.6501423035334,1172
2822.4067770006814,1150
2824.1630682912883,1134
2825.9190164789957,1156
2827.6746218675207,1157
2829.429884760661,1187
2831.184805462294,1171
2832.9393842763743,1183
2834.693621506936,1143
2836.4475174580916,1173
2838.201072434034,1124
2839.954286739034,1164
2841.707160677441,1152
2843.459694553685,1147
2845.2118886722724,1187
2846.96374333779,1153
2848.7152588549034,1122
2850.4664355283567,1223
2852.217273662973,1163
2853.9677735636546,1143
2855.7179355353833,1196
2857.4677598832186,1178
2859.217246912299,1188
2860.9663969278427,1112
2862.715210235146,1183
2864.4636871395846,1179
2866.211827946614,1135
2867.9596329617652,1187
2869.7071024906536,1151
2871.4542368389684,1150
2873.20103631248,1149
2874.947501217038,1182
2876.6936318585695,1105
2878.4394285430812,1207
2880.1848915766604,1147
2881.9300212654707,1133
2883.6748179157553,1167
2885.4192818338374,1220
2887.1634133261173,1152
2888.907212699077,1189
2890.6506802592744,1165
2892.393816313348,1178
2894.1366211680142,1162
2895.8790951300693,1203
2897.621238506388,1187
2899.363051603925,1175
2901.1045347297118,1156
2902.8456881908596,1194
2904.58651229456,1140
2906.327007348081,1162
2908.067173658772,1176
2909.8070115340597,1167
2911.5465212814497,1190
2913.285703208527,1152
2915.0245576229563,1162
2916.7630848324807,1163
2918.5012851449196,1130
2920.2391588681758,1137
2921.976706310227,1149
2923.7139277791334,1137
2925.4508235830313,1080
2927.187394030137,1166
2928.923639428745,1168
2930.6595600872306,1215
2932.395156314046,1148
2934.1304284177218,1173
2935.8653767068713,1207
2937.6000014901815,1145
2939.3343030764227,1101
2941.068281774442,1171
2942.8019378931644,1183
2944.5352717415976,1201
2946.2682836288236,1189
2948.0009738640065,1166
2949.7333427563885,1169
2951.465390615289,1180
2953.1971177501086,1199
2954.9285244703265,1173
2956.6596110855,1154
2958.3903779052657,1116
2960.1208252393385,1106
2961.8509533975125,1150
2963.5807626896617,1179
2965.3102534257378,1136
2967.0394259157715,1205
2968.768280469873,1161
2970.496817398232,1150
2972.2250370111146,1151
2973.952939618869,1160
2975.6805255319196,1124
2977.4077950607707,1165
2979.134748516006,1160
2980.861386208289,1203
2982.587708448359,1157
2984.313715547037,1154
2986.039407815222,1213
2987.764785563891,1147
2989.489849104102,1187
2991.2145987469908,1134
2992.9390348037705,1139
2994.6631575857346,1171
2996.3869674042576,1089
2998.1104645707887,1110
2999.83364939686,1153
3001.5565221940783,1141
3003.2790832741334,1149
3005.0013329487924,1081
3006.7232715298996,1163
3008.4448993293804,1122
3010.166216659239,1121
3011.887223831558,1138
3013.607921158498,1104
3015.3283089522993,1139
3017.0483875252826,1211
3018.7681571898443,1152
3020.4876182584626,1163
3022.2067710436927,1173
3023.9256158581707,1109
3025.644153014609,1120
3027.362382825801,1182
3029.0803056046193,1145
3030.797921664012,1147
3032.5152313170106,1137
3034.2322348767225,1103
3035.9489326563353,1124
3037.665324969115,1138
3039.3814121284063,1104
3041.097194447633,1142
3042.812672240299,1126
3044.5278458199855,1195
3046.2427155003525,1146
3047.9572815951406,1111
3049.671544418167,1151
3051.38550428333,1117
3053.0991615046073,1136
3054.812516396051,1113
3056.5255692717974,1126
3058.2383204460575,1162
3059.9507702331257,1185
3061.662918947372,1176
3063.3747669032446,1163
3065.0863144152736,1186
3066.7975617980674,1137
3068.508509366309,1165
3070.219157434767,1141
3071.9295063182844,1150
3073.639556331785,1175
3075.3493077902704,1144
3077.058761008821,1165
3078.7679163025964,1148
3080.476773986837,1117
3082.1853343768594,1178
3083.89359778806,1199
3085.6015645359153,1170
3087.3092349359786,1156
3089.016609303884,1190
3090.7236879553434,1171
3092.4304712061476,1117
3094.136959372166,1096
3095.843152769349,1117
3097.5490517137237,1096
3099.2546565213966,1147
3100.959967508554,1096
3102.66498499146,1130
3104.3697092864577,1140
3106.0741407099695,1103
3107.778279578498,1165
3109.482126208622,1149
3111.1856809170004,1136
3112.8889440203716,1149
3114.5919158355528,1139
3116.294596679439,1172
3117.996986869006,1162
3119.6990867213062,1152
3121.4008965534726,1157
3123.102416682717,1175
3124.803647426329,1127
3126.5045891016784,1160
3128.205242026213,1156
3129.90560651746,1088
3131.605682893025,1231
3133.3054714705922,1202
3135.0049725679282,1150
3136.7041865028714,1154
3138.4031135933465,1120
3140.101754157353,1114
3141.800108512971,1146
3143.498176978357,1119
3145.1959598717494,1123
3146.8934575114636,1177
3148.5906702158954,1137
3150.2875983035183,1144
3151.9842420928853,1138
3153.680601902627,1174
3155.376678051456,1119
3157.07247085816,1132
3158.767980641609,1068
3160.463207720748,1113
3162.158152414606,1104
3163.8528150422862,1146
3165.5471959229726,1175
3167.2412953759303,1157
3168.9351137204976,1150
3170.628651276098,1157
3172.3219083622307,1166
3174.014885298474,1167
3175.707582404485,1164
3177.4000000000005,1120
3179.092138404835,1152
3180.7839979388846,1186
3182.47557892212,1138
3184.166881674594,1173
3185.8579065164386,1149
3187.5486537678626,1132
3189.2391237491547,1110
3190.9293167806827,1148
3192.6192331828934,1124
3194.3088732763117,1143
3195.998237381542,1148
3197.687325819268,1111
3199.376138910251,1131
3201.064676975334,1109
3202.7529403354347,1112
3204.4409293115523,1096
3206.1286442247647,1150
3207.816085396229,1134
3209.5032531471825,1105
3211.190147798936,1076
3212.8767696728846,1072
3214.5631190905015,1089
3216.2491963733373,1125
3217.9350018430214,1077
3219.6205358212637,1116
3221.305798629851,1076
3222.990790590651,1099
3224.6755120256103,1112
3226.359963256751,1091
3228.0441446061795,1076
3229.7280563960758,1118
3231.411698948703,1105
3233.0950725863995,1117
3234.778177631587,1098
3236.461014406761,1100
3238.1435832345005,1110
3239.8258844374595,1099
3241.507918338374,1196
3243.1896852600576,1191
3244.8711855254023,1141
3246.552419457381,1116
3248.233387379042,1145
3249.914089613516,1108
3251.59452648401,1107
3253.274698313813,1147
3254.95460542629,1087
3256.6342481448855,1150
3258.313626793125,1104
3259.9927416946084,1067
3261.6715931730196,1060
3263.3501815521176,1128
3265.0285071557437,1072
3266.706570307815,1112
3268.3843713323286,1128
3270.0619105533615,1074
3271.739188295068,1132
3273.4162048816834,1102
3275.0929606375184,1141
3276.769455886966,1076
3278.445690954498,1166
3280.1216661646613,1131
3281.797381842087,1125
3283.4728383114807,1118
3285.1480358976296,1123
3286.8229749253996,1120
3288.4976557197333,1154
3290.172078605655,1111
3291.846243908266,1083
3293.5201519527463,1090
3295.193803064357,1112
3296.8671975684374,1105
3298.5403357904024,1078
3300.21321805575,1089
3301.8858446900567,1069
3303.558216018975,1111
3305.23033236824,1081
3306.9021940636603,1112
3308.57380143113,1034
3310.2451547966184,1086
3311.916254486174,1092
3313.5871008259246,1115
3315.2576941420766,1069
3316.9280347609147,1122
3318.5981230088046,1079
3320.2679592121895,1105
3321.9375436975924,1108
3323.606876791612,1084
3325.27595882093,1088
3326.944790112305,1131
3328.6133709925753,1099
3330.2817017886573,1069
3331.949782827547,1094
3333.617614436319,1119
3335.2851969421245,1116
3336.952530672199,1127
3338.619615953853,1105
3340.286453114475,1083
3341.9530424815357,1071
3343.619384382583,1126
3345.2854791452437,1112
3346.951327097224,1147
3348.6169285663073,1105
3350.2822838803577,1148
3351.947393367319,1128
3353.61225735521,1083
3355.2768761721345,1136
3356.9412501462693,1092
3358.605379605873,1099
3360.2692648792827,1074
3361.9329062949146,1081
3363.596304181263,1134
