CollectionTime,9/20/2024 12:04:49 PM
ExposureUsed,3
CalibratedSpectrum
-962.7078968117929,651
-959.9714848408522,686
-957.2358232597828,706
-954.5009119013725,727
-951.7667505983302,718
-949.0333391832855,708
-946.3006774887896,734
-943.5687653473143,723
-940.837602591253,739
-938.1071890529199,725
-935.3775245645503,732
-932.6486089583007,710
-929.9204420662485,719
-927.1930237203925,755
-924.4663537526524,766
-921.7404319948689,736
-919.0152582788041,751
-916.2908324361409,740
-913.5671542984834,743
-910.8442236973568,721
-908.1220404642074,692
-905.4006044304027,738
-902.679915427231,711
-899.959973285902,688
-897.2407778375464,674
-894.5223289132158,693
-891.8046263438832,698
-889.0876699604426,694
-886.3714595937089,677
-883.6559950744183,681
-880.9412762332282,694
-878.2273029007168,695
-875.5140749073835,675
-872.8015920836489,671
-870.0898542598545,688
-867.3788612662631,676
-864.6686129330585,711
-861.9591090903457,710
-859.2503495681506,673
-856.5423341964203,642
-853.8350628050229,640
-851.1285352237478,678
-848.4227512823054,701
-845.7177108103272,682
-843.0134136373656,708
-840.3098595928943,686
-837.6070485063082,674
-834.9049802069229,680
-832.2036545239757,661
-829.5030712866244,692
-826.8032303239481,704
-824.1041314649472,683
-821.4057745385428,681
-818.7081593735775,685
-816.0112857988148,684
-813.3151536429393,652
-810.6197627345566,705
-807.9251129021936,663
-805.2312039742981,661
-802.5380357792392,723
-799.8456081453069,707
-797.1539209007124,704
-794.462973873588,727
-791.772766891987,729
-789.083299783884,723
-786.3945723771743,716
-783.7065844996748,726
-781.0193359791231,711
-778.3328266431781,713
-775.6470563194197,729
-772.9620248353489,689
-770.2777320183878,675
-767.5941776958798,728
-764.9113616950891,673
-762.2292838432011,720
-759.5479439673222,693
-756.8673418944801,707
-754.1874774516235,734
-751.5083504656222,753
-748.8299607632671,714
-746.15230817127,772
-743.475392516264,714
-740.7992136248035,688
-738.1237713233636,726
-735.4490654383407,713
-732.7750957960521,719
-730.1018622227365,693
-727.4293645445534,702
-724.7576025875837,759
-722.0865761778291,742
-719.4162851412126,757
-716.7467293035781,764
-714.0779084906909,753
-711.409822528237,781
-708.7424712418238,743
-706.0758544569796,777
-703.4099719991541,776
-700.7448236937178,799
-698.0804093659622,820
-695.4167288411002,774
-692.7537819442656,801
-690.0915685005134,780
-687.4300883348199,785
-684.7693412720819,796
-682.1093271371178,803
-679.4500457546669,789
-676.7914969493897,804
-674.1336805458676,824
-671.4765963686034,811
-668.8202442420206,778
-666.1646239904642,820
-663.5097354382001,803
-660.8555784094151,828
-658.2021527282176,770
-655.5494582186366,817
-652.8974947046223,861
-650.2462620100463,824
-647.5957599587009,806
-644.9459883742998,850
-642.2969470804776,849
-639.6486359007902,862
-637.0010546587141,829
-634.3542031776476,836
-631.7080812809096,869
-629.0626887917401,845
-626.4180255333008,819
-623.7740913286734,872
-621.1308860008619,847
-618.4884093727904,884
-615.8466612673046,835
-613.2056415071715,855
-610.5653499150785,846
-607.9257863136347,868
-605.28695052537,826
-602.6488423727357,852
-600.0114616781036,856
-597.3748082637674,898
-594.7388819519412,883
-592.1036825647604,862
-589.4692099242818,830
-586.8354638524829,847
-584.2024441712624,865
-581.5701507024403,890
-578.9385832677575,939
-576.3077416888759,906
-573.6776257873787,890
-571.0482353847704,840
-568.4195703024757,866
-565.7916303618415,863
-563.164415384135,873
-560.5379251905453,878
-557.9121596021815,847
-555.2871184400748,842
-552.6628015251767,870
-550.0392086783606,850
-547.4163397204204,895
-544.794194472071,889
-542.1727727539491,914
-539.5520743866118,921
-536.9320991905377,930
-534.3128469861261,976
-531.6943175936979,927
-529.0765108334947,973
-526.4594265256793,1105
-523.8430644903358,1230
-521.2274245474689,1411
-518.612506517005,1505
-515.9983102187913,1534
-513.3848354725959,1557
-510.77208209810846,1634
-508.16004991493924,1726
-505.5487387426199,1879
-502.9381484006032,1899
-500.3282787082628,1961
-497.71912948489364,1917
-495.1107005497117,1785
-492.5029917218539,1651
-489.8960028203786,1456
-487.28973366426493,1318
-484.68418407241325,1192
-482.07935386364494,1118
-479.47524285670266,1128
-476.87185087025,1048
-474.2691777228715,1063
-471.66722323307334,1120
-469.0659872192821,1082
-466.4654694998459,1142
-463.86566989303384,1112
-461.26658821703614,1043
-458.66822428996414,1023
-456.07057792985,1072
-453.4736489546475,1130
-450.877437182231,1072
-448.28194243039627,1058
-445.68716451686,1072
-443.09310325926003,1065
-440.49975847515555,1056
-437.9071299820263,1057
-435.31521759727354,1101
-432.72402113821954,1062
-430.13354042210767,1078
-427.5437752661022,1057
-424.95472548728867,1097
-422.36639090267386,1101
-419.7787713291855,1182
-417.1918665836721,1108
-414.60567648290385,1166
-412.0202008435715,1159
-409.4354394822874,1164
-406.8513922155845,1169
-404.26805885991723,1142
-401.685439231661,1156
-399.103533147112,1133
-396.522340422488,1171
-393.9418608739278,1125
-391.3620943174908,1135
-388.7830405691583,1122
-386.2046994448317,1064
-383.6270707603344,1002
-381.05015433141045,919
-378.473949973725,959
-375.8984575028645,845
-373.32367673433623,760
-370.74960748356875,783
-368.1762495659117,706
-365.60360279663576,679
-363.03166699093265,608
-360.4604419639154,567
-357.8899275306178,508
-355.32012350599507,546
-352.7510297049233,501
-350.1826459421999,544
-347.61497203254316,527
-345.04800779059235,535
-342.4817530309082,509
-339.91620756797226,527
-337.35137121618743,522
-334.7872437898774,466
-332.22382510328725,505
-329.66111497058273,519
-327.09911320585127,532
-324.53781962310075,520
-321.9772340362607,524
-319.4173562591816,530
-316.8581861056348,528
-314.2997233893127,570
-311.7419679238294,550
-309.1849195227194,569
-306.62857799943856,559
-304.0729431673641,544
-301.51801483979375,559
-298.963792829947,542
-296.41027695096386,532
-293.85746701590574,513
-291.3053628377552,563
-288.7539642294155,586
-286.2032710037115,600
-283.65328297338897,609
-281.1039999511146,647
-278.5554217494762,640
-276.007548180983,670
-273.4603790580651,622
-270.9139141930734,596
-268.3681533982807,615
-265.8230964858798,653
-263.27874326798565,681
-260.7350935566336,682
-258.1921471637804,731
-255.6499039013039,796
-253.10836358100266,809
-250.56752601459698,670
-248.02739101372765,754
-245.48795838995704,837
-242.94922795476816,746
-240.41119951956557,744
-237.8738728956746,766
-235.33724789434166,792
-232.80132432673452,825
-230.2661020039418,771
-227.73158073697357,777
-225.19776033676033,827
-222.66464061415422,923
-220.1322213799284,917
-217.60050244477725,868
-215.06948361931552,845
-212.53916471408013,911
-210.00954553952818,887
-207.48062590603843,801
-204.9524056239104,767
-202.4248845033651,833
-199.8980623545441,992
-197.37193898751036,976
-194.84651421224817,933
-192.32178783866232,861
-189.79775967657952,899
-187.27442953574644,964
-184.7517972258321,1005
-182.2298625564256,844
-179.7086253370378,761
-177.18808537710026,915
-174.66824248596583,1039
-172.14909647290835,1111
-169.6306471471229,1010
-167.11289431772548,919
-164.59583779375328,942
-162.07947738416453,1158
-159.5638128978386,1399
-157.04884414357605,1356
-154.53457093009854,1427
-152.02099306604828,1188
-149.50811035998936,1039
-146.99592262040665,1174
-144.48442965570587,1364
-141.97363127421409,1506
-139.46352728417958,1684
-136.95411749377126,1533
-134.44540171107985,1417
-131.93737974411636,1149
-129.43005140081357,1449
-126.92341648902493,1756
-124.41747481652521,2144
-121.91222619101006,2780
-119.40767042009657,3310
-116.90380731132257,3950
-114.40063667214702,4657
-111.8981583099503,5134
-109.3963720320337,5877
-106.89527764561933,6233
-104.39487495785067,6744
-101.89516377579241,9043
-99.39614390642998,14001
-96.89781515667039,17996
-94.40017733334128,18943
-91.90323024319173,18268
-89.40697369289148,14407
-86.91140748903172,8692
-84.41653143812482,7392
-81.92234534660395,8035
-79.42884902082358,8942
-76.93604226705907,9053
-74.4439248915071,9394
-71.95249670028534,8933
-69.46175749943245,7843
-66.97170709490854,7104
-64.48234529259423,7350
-61.99367189829195,8015
-59.50568671772464,7788
-57.01838955653636,8320
-54.53178022029283,9985
-52.045858514480074,12239
-49.560624244506016,13325
-47.07607721569923,13452
-44.59221723330904,16821
-42.10904410250669,20042
-39.62655762838392,22114
-37.14475761595372,22527
-34.66364387015028,27452
-32.18321619582866,28271
-29.70347439776515,29603
-27.224418280657005,33741
-24.74604764912317,37739
-22.26836230770266,47172
-19.7913620608565,65035
-17.315046712966478,65035
-14.83941606833514,65035
-12.36446993118659,65035
-9.89020810566592,65035
-7.416630395839093,65035
-4.94373660569363,65035
-2.471526539137585,65035
-6.821210263296962E-13,65035
2.47084320796705,65035
4.941003281093458,65035
7.410480415786196,65035
9.879274808531363,65035
12.347386655893956,65035
14.814816154518212,65035
17.28156350112681,65035
19.74762889252179,65035
22.21301252558385,25290
24.67771459727237,6844
27.141735304626195,5681
29.605074844762612,5134
32.06773341487792,4243
34.52971121224755,3725
36.99100843422559,3862
39.45162527824516,3569
41.91156194181792,3450
44.370818622535126,3058
46.82939551806646,2896
49.287292826160524,3431
51.74451074464503,3139
54.201049471426245,2594
56.65690920448981,2347
59.112090141899785,2284
61.56659248179983,2564
64.02041642241159,2602
66.4735621620365,2674
68.92602989905402,2748
71.37781983192338,2474
73.82893215918205,1914
76.27936707944684,1601
78.72912479141326,1970
81.17820549385567,1664
83.62660938562783,1336
86.07433666566146,1428
88.5213875329681,1453
90.96776218663751,1513
93.41346082583925,1747
95.85848364982041,2086
98.30283085790859,1645
100.7465026495089,1619
103.18949922410604,1715
105.63182078126385,1325
108.07346752062438,1492
110.51443964190923,1362
112.95473734491827,1284
115.39436082953114,1247
117.83331029570547,1358
120.27158594347827,1449
122.7091879729652,1457
125.1461165843615,1224
127.58237197794062,1047
130.01795435405518,1167
132.4528639131364,1357
134.88710085569494,1314
137.32066538231982,1407
139.75355769367923,1214
142.1857779905207,1119
144.61732647366978,1241
147.04820334403132,1234
149.47840880258934,1235
151.90794305040674,1310
154.33680628862487,1315
156.76499871846443,1543
159.19252054122433,1758
161.61937195828352,1848
164.04555317109896,1885
166.47106438120693,2185
168.89590579022217,2475
171.320077599839,2520
173.7435800118302,2692
176.16641322804742,2895
178.58857745042144,2953
181.01007288096173,3086
183.43089972175687,3063
185.85105817497413,3065
188.27054844285988,3166
190.6893707277394,3085
193.10752523201643,3092
195.5250121581745,3133
197.9418317087751,3112
200.3579840864594,3178
202.7734694939469,3384
205.18828813403627,3564
207.6024402096051,3596
210.01592592360964,3446
212.42874547908548,3402
214.84089907914665,3355
217.2523869269868,3315
219.66320922587727,3399
222.0733661791695,3314
224.48285799029293,3194
226.8916848627572,3456
229.29984700014882,3536
231.7073446061355,3380
234.11417788446204,3549
236.520347038953,3588
238.92585227351185,3664
241.33069379212054,3850
243.73487179884035,3889
246.1383864978112,4034
248.541238093252,4027
250.9434267894609,3964
253.34495279081432,4015
255.74581630176783,4050
258.1460175268563,4080
260.54555667069314,4145
262.9444339379703,4034
265.3426495334594,3897
267.7402036620107,3852
270.1370965285529,3737
272.53332833809407,3456
274.9288992957214,3297
277.32380960660055,3197
279.718059475976,3252
282.1116491091717,3143
284.5045787115897,3134
286.89684848871195,3045
289.2884586460981,3084
291.67940938938807,3075
294.0697009242996,3154
296.4593334566299,3067
298.84830719225477,3117
301.23662233712923,3087
303.6242790972866,3013
306.01127767884,2934
308.39761828798066,2871
310.78330113097934,2843
313.16832641418534,2757
315.5526943440269,2751
317.9364051270112,2735
320.3194589697242,2677
322.70185607883093,2704
325.0835966610754,2552
327.4646809232805,2526
329.8451090723478,2651
332.2248813152577,2590
334.6039978590701,2583
336.9824589109231,2485
339.36026467803447,2475
341.7374153677,2482
344.113911187295,2508
346.48975234427337,2529
348.8649390461686,2452
351.2394715005918,2470
353.61334991523415,2466
355.9865744978655,2484
358.35914545633375,2382
360.73106299856715,2467
363.10232733257146,2461
365.47293866643247,2383
367.84289720831396,2414
370.2122031664593,2377
372.5808567491905,2425
374.9488581649083,2413
377.31620762209275,2314
379.6829053293021,2332
382.0489514951745,2302
384.4143463284262,2260
386.7790900378528,2309
389.14318283232853,2332
391.50662492080653,2280
393.86941651231916,2392
396.23155781597745,2299
398.5930490409713,2323
400.9538903965696,2296
403.3140820921202,2204
405.6736243370498,2204
408.03251734086336,2183
410.3907613131465,2315
412.74835646356166,2309
415.10530300185144,2215
417.4616011378372,2356
419.81725108141893,2258
422.1722530425758,2206
424.5266072313656,2265
426.880313857925,2345
429.2333731324701,2294
431.58578526529516,2276
433.9375504667738,2242
436.2886689473588,2238
438.63914091758113,2202
440.9889665880513,2134
443.33814616945835,2196
445.68667987257015,2231
448.03456790823395,2227
450.3818104873759,2203
452.72840782100013,2184
455.07436012019105,2139
457.41966759611057,2204
459.7643304600007,2144
462.10834892318155,2181
464.4517231970525,2130
466.79445349309174,2144
469.1365400228566,2201
471.4779829979826,2138
473.81878263018564,2218
476.15893913125876,2291
478.4984527130747,2264
480.8373235875855,2367
483.17555196682144,2400
485.5131380628919,2359
487.8500820879857,2535
490.1863842543697,2610
492.52204477439034,2783
494.8570638604725,3115
497.1914417251204,3307
499.52517858091653,3767
501.85827464052306,4111
504.19073011668036,4200
506.5225452222086,4238
508.85372017000566,4101
511.18425517304956,4149
513.514150444396,4470
515.8434061971808,5763
518.1720226446176,6749
520.4999999999999,6859
522.8273384766991,6598
525.1540382881666,6073
527.480099647932,5268
529.8055227696037,4263
532.1303078668694,3271
534.454455153496,2698
536.777964843328,2446
539.1008371502907,2328
541.4230722883866,2274
543.744670471698,2277
546.0656319143858,2205
548.3859568306899,2299
550.7056454349294,2179
553.0246979415016,2135
555.3431145648834,2182
557.6608955196306,2143
559.978041020377,2127
562.2945512818363,2164
564.6104265188006,2271
566.9256669461412,2201
569.2402727788082,2184
571.5542442318302,2225
573.8675815203156,2195
576.1802848594508,2199
578.4923544645015,2233
580.8037905508126,2286
583.114593333807,2243
585.4247630289875,2221
587.7342998519354,2248
590.0432040183106,2260
592.3514757438526,2354
594.6591152443794,2303
596.9661227357875,2287
599.2724984340531,2343
601.578242555231,2254
603.8833553154542,2250
606.1878369309362,2233
608.4916876179676,2270
610.7949075929192,2182
613.0974970722403,2194
615.3994562724587,2246
617.7007854101818,2143
620.0014847020951,2244
622.3015543649641,2282
624.6009946156324,2193
626.8998056710224,2219
629.1979877481361,2264
631.4955410640538,2263
633.7924658359349,2285
636.0887622810175,2331
638.3844306166192,2308
640.6794710601358,2317
642.9738838290426,2277
645.2676691408932,2292
647.5608272133207,2319
649.853358264037,2390
652.1452625108324,2371
654.4365401715764,2366
656.7271914642178,2355
659.0172166067838,2399
661.3066158173809,2344
663.5953893141935,2323
665.8835373154867,2343
668.1710600396028,2292
670.4579577049639,2382
672.7442305300709,2323
675.0298787335033,2234
677.3149025339197,2335
679.599302150058,2223
681.8830778007342,2375
684.1662297048437,2322
686.4487580813608,2311
688.7306631493387,2254
691.0119451279091,2383
693.2926042362834,2275
695.5726406937516,2237
697.8520547196814,2401
700.1308465335215,2251
702.4090163547982,2243
704.6865644031171,2251
706.9634908981619,2343
709.2397960596965,2302
711.5154801075631,2220
713.7905432616823,2233
716.0649857420548,2309
718.3388077687592,2320
720.612009561953,2262
722.8845913418733,2346
725.1565533288352,2204
727.427895743234,2244
729.6986188055427,2246
731.9687227363137,2199
734.238207756178,2236
736.5070740858458,2271
738.7753219461066,2234
741.0429515578281,2168
743.3099631419569,2314
745.5763569195191,2324
747.8421331116193,2231
750.1072919394409,2257
752.3718336242467,2237
754.6357583873777,2194
756.8990664502545,2217
759.1617580343765,2284
761.423833361321,2200
763.6852926527457,2267
765.9461361303862,2263
768.206364016058,2277
770.4659765316536,2206
772.7249738991469,2276
774.9833563405886,2296
777.2411240781092,2249
779.4982773339183,2227
781.7548163303044,2272
784.010741289634,2276
786.2660524343538,2336
788.5207499869881,2239
790.7748341701416,2388
793.0283052064964,2327
795.2811633188143,2368
797.5334087299362,2345
799.7850416627813,2281
802.0360623403484,2351
804.2864709857143,2257
806.5362678220353,2279
808.7854530725468,2348
811.0340269605625,2326
813.2819897094754,2287
815.5293415427581,2322
817.77608268396,2257
820.0222133567116,2374
822.2677337847211,2315
824.5126441917765,2319
826.7569448017433,2311
829.0006358385675,2273
831.2437175262731,2232
833.4861900889629,2279
835.7280537508192,2251
837.9693087361026,2327
840.2099552691533,2337
842.4499935743896,2273
844.689423876309,2302
846.9282463994886,2266
849.1664613685833,2311
851.4040690083276,2316
853.6410695435349,2378
855.877463199097,2355
858.1132501999847,2337
860.3484307712487,2370
862.5830051380175,2342
864.8169735254988,2307
867.0503361589791,2321
869.2830932638243,2349
871.5152450654786,2307
873.7467917894654,2384
875.9777336613873,2403
878.2080709069252,2345
880.4378037518389,2411
882.666932421968,2275
884.8954571432301,2363
887.1233781416219,2419
889.3506956432192,2418
891.5774098741766,2319
893.803521060728,2414
896.0290294291852,2530
898.2539352059397,2387
900.4782386174619,2388
902.7019398903011,2352
904.925039251085,2399
907.147536926521,2516
909.3694331433943,2419
911.59072812857,2421
913.8114221089921,2399
916.0315153116827,2404
918.2510079637437,2381
920.4699002923547,2375
922.6881925247761,2431
924.905884888345,2387
927.1229776104793,2331
929.3394709186747,2439
931.555365040506,2450
933.7706602036275,2376
935.9853566357709,2437
938.1994545647489,2514
940.4129542184515,2490
942.6258558248488,2439
944.8381596119883,2475
947.0498658079974,2395
949.2609746410825,2385
951.4714863395287,2350
953.6814011316998,2448
955.8907192460387,2358
958.0994409110671,2321
960.3075663553858,2466
962.5150958076741,2319
964.7220294966913,2356
966.928367651274,2335
969.1341105003388,2309
971.3392582728806,2296
973.5438111979742,2341
975.747769504772,2370
977.9511334225061,2224
980.153903180487,2224
982.3560790081052,2316
984.5576611348289,2278
986.7586497902058,2237
988.9590452038618,2265
991.158847605503,2169
993.3580572249133,2126
995.5566742919558,2106
997.7546990365728,2060
999.952131688785,2055
1002.1489724786926,2019
1004.3452216364743,1986
1006.5408793923874,2012
1008.7359459767691,1969
1010.9304216200343,1922
1013.1243065526781,1926
1015.3176010052733,1903
1017.510305208472,1933
1019.7024193930064,1977
1021.8939437896848,1895
1024.0848786293977,1952
1026.2752241431122,1938
1028.4649805618747,1948
1030.6541481168115,1911
1032.842727039127,1904
1035.0307175601051,1862
1037.2181199111074,1869
1039.4049343235752,1916
1041.591161029029,1843
1043.7768002590683,1914
1045.9618522453698,1902
1048.1463172196918,1852
1050.3301954138697,1886
1052.513487059818,1908
1054.69619238953,1926
1056.8783116350783,1871
1059.0598450286152,1944
1061.2407928023704,1823
1063.4211551886528,1897
1065.6009324198508,1880
1067.780124728432,1844
1069.9587323469414,1905
1072.1367555080046,1815
1074.314194444325,1789
1076.4910493886855,1860
1078.667320573947,1839
1080.843008233051,1808
1083.0181125990161,1770
1085.1926339049414,1815
1087.3665723840027,1735
1089.5399282694575,1777
1091.7127017946405,1794
1093.8848931929647,1763
1096.0565026979243,1793
1098.2275305430899,1843
1100.3979769621128,1819
1102.567842188722,1793
1104.737126456726,1774
1106.9058300000124,1771
1109.0739530525475,1751
1111.2414958483764,1759
1113.4084586216231,1728
1115.5748416064907,1779
1117.7406450372605,1736
1119.9058691482942,1742
1122.0705141740304,1700
1124.2345803489884,1705
1126.3980679077658,1757
1128.5609770850388,1744
1130.7233081155623,1795
1132.8850612341707,1777
1135.0462366757774,1744
1137.2068346753745,1779
1139.3668554680326,1633
1141.526299288901,1699
1143.68516637321,1791
1145.8434569562655,1740
1148.001171273455,1746
1150.158309560244,1745
1152.3148720521767,1783
1154.470858984876,1705
1156.626270594044,1685
1158.7811071154629,1751
1160.9353687849912,1706
1163.089055838569,1727
1165.242168512213,1681
1167.3947070420209,1726
1169.5466716641677,1696
1171.6980626149075,1689
1173.8488801305748,1648
1175.9991244475814,1807
1178.1487958024186,1738
1180.2978944316555,1688
1182.4464205719428,1766
1184.5943744600072,1728
1186.7417563326567,1628
1188.8885664267755,1739
1191.0348049793297,1789
1193.1804722273619,1677
1195.325568407995,1692
1197.4700937584303,1720
1199.614048515948,1674
1201.7574329179074,1698
1203.900247201746,1690
1206.042491604982,1734
1208.1841663652099,1731
1210.3252717201053,1752
1212.465807907422,1702
1214.6057751649923,1691
1216.7451737307279,1758
1218.8840038426192,1739
1221.0222657387353,1692
1223.1599596572241,1795
1225.2970858363137,1814
1227.4336445143094,1781
1229.5696359295966,1822
1231.705060320639,1762
1233.8399179259786,1832
1235.9742089842384,1826
1238.107933734118,1836
1240.2410924143974,1787
1242.373685263935,1724
1244.5057125216676,1793
1246.6371744266116,1727
1248.7680712178621,1770
1250.898403134593,1768
1253.028170416058,1786
1255.1573733015875,1821
1257.2860120305932,1780
1259.4140868425648,1766
1261.54159797707,1823
1263.6685456737569,1799
1265.7949301723515,1791
1267.9207517126597,1821
1270.046010534565,1848
1272.1707068780306,1847
1274.2948409830983,1872
1276.4184130898889,1842
1278.541423438603,1893
1280.6638722695184,1843
1282.785759822993,1850
1284.9070863394636,1886
1287.0278520594447,1920
1289.1480572235314,1960
1291.2677020723963,1861
1293.3867868467923,1998
1295.5053117875495,1924
1297.623277135579,1909
1299.740683131868,1913
1301.8575300174857,1944
1303.973818033578,1985
1306.0895474213703,1935
1308.2047184221678,1954
1310.3193312773528,1968
1312.4333862283888,1952
1314.5468835168163,2011
1316.659823384255,1956
1318.7722060724045,2011
1320.8840318230418,1997
1322.9953008780249,1988
1325.1060134792888,1991
1327.2161698688478,1964
1329.3257702887959,1979
1331.4348149813054,1988
1333.5433041886276,2002
1335.6512381530933,1929
1337.7586171171101,1907
1339.8654413231675,1876
1341.9717110138317,1954
1344.0774264317488,2018
1346.1825878196432,1983
1348.2871954203192,1972
1350.3912494766587,1947
1352.4947502316231,1927
1354.5976979282532,1992
1356.7000928096686,1966
1358.8019351190665,2003
1360.9032250997243,1979
1363.0039629949988,1987
1365.1041490483235,1997
1367.2037835032133,2015
1369.3028666032606,1997
1371.401398592137,2043
1373.4993797135926,1995
1375.5968102114575,1993
1377.6936903296396,2035
1379.7900203121262,2035
1381.8858004029835,2002
1383.9810308463561,2083
1386.075711886469,2007
1388.1698437676241,2031
1390.2634267342032,2079
1392.356461030667,2058
1394.4489469015557,2096
1396.5408845914872,2131
1398.6322743451592,2191
1400.7231164073469,2120
1402.813411022907,2118
1404.903158436773,2117
1406.9923588939578,2170
1409.0810126395531,2193
1411.1691199187303,2227
1413.2566809767386,2166
1415.343696058907,2145
1417.4301654106425,2276
1419.5160892774315,2195
1421.6014679048399,2218
1423.6863015385125,2307
1425.7705904241707,2214
1427.8543348076178,2297
1429.9375349347342,2387
1432.0201910514802,2394
1434.102303403894,2345
1436.1838722380944,2462
1438.2648978002767,2410
1440.3453803367174,2489
1442.4253200937692,2481
1444.5047173178677,2504
1446.5835722555234,2517
1448.6618851533285,2633
1450.739656257952,2671
1452.8168858161434,2738
1454.8935740747306,2674
1456.96972128062,2833
1459.045327680797,2817
1461.120393522327,2853
1463.1949190523528,2997
1465.2689045180973,2984
1467.3423501668608,3078
1469.415256246024,3138
1471.4876230030463,3278
1473.559450685465,3166
1475.6307395408976,3310
1477.7014898170391,3330
1479.771701761665,3368
1481.8413756226287,3575
1483.9105116478618,3491
1485.9791100853772,3640
1488.0471711832643,3533
1490.1146951896926,3730
1492.1816823529098,3842
1494.2481329212433,3855
1496.3140471430984,3741
1498.3794252669609,3818
1500.4442675413939,4033
1502.5085742150404,3873
1504.572345536622,4001
1506.6355817549388,4061
1508.6982831188702,4091
1510.7604498773744,4120
1512.8220822794883,4146
1514.8831805743293,4186
1516.9437450110909,4247
1519.003775839048,4316
1521.0632733075522,4329
1523.1222376660367,4225
1525.1806691640113,4457
1527.2385680510652,4370
1529.2959345768668,4508
1531.3527689911643,4442
1533.4090715437833,4462
1535.4648424846291,4680
1537.5200820636855,4698
1539.5747905310159,4927
1541.6289681367616,4807
1543.6826151311434,4921
1545.7357317644614,4937
1547.7883182870937,5004
1549.8403749494987,5075
1551.8919020022113,5176
1553.9428996958477,5295
1555.9933682811015,5265
1558.0433080087469,5437
1560.0927191296346,5567
1562.1416018946961,5818
1564.1899565549415,5526
1566.2377833614592,5586
1568.2850825654164,5542
1570.3318544180606,5439
1572.3780991707158,5299
1574.423817074788,5026
1576.4690083817595,4820
1578.5136733431923,4573
1580.5578122107272,4214
1582.601425236085,4204
1584.6445126710646,4024
1586.6870747675434,3756
1588.7291117774776,3615
1590.7706239529034,3439
1592.8116115459347,3263
1594.8520748087658,3216
1596.8920139936686,3094
1598.9314293529933,2889
1600.9703211391711,2692
1603.008689604711,2627
1605.0465350022005,2575
1607.0838575843068,2545
1609.1206576037753,2456
1611.1569353134305,2352
1613.1926909661765,2340
1615.2279248149953,2215
1617.2626371129481,2213
1619.2968281131757,2166
1621.3304980688963,2135
1623.3636472334088,2186
1625.39627586009,2206
1627.428384202396,2115
1629.459972513861,2091
1631.4910410480993,2046
1633.5215900588028,2010
1635.551619799744,1995
1637.5811305247717,2009
1639.6101224878166,1933
1641.6385959428862,1964
1643.6665511440683,1909
1645.693988345528,1954
1647.7209078015112,1890
1649.7473097663405,1914
1651.7731944944203,1836
1653.7985622402307,1899
1655.823413258333,1881
1657.847747803366,1896
1659.8715661300494,1886
1661.8948684931793,1883
1663.9176551476316,1919
1665.9399263483624,1836
1667.9616823504057,1839
1669.982923408873,1827
1672.0036497789574,1851
1674.0238617159293,1829
1676.043559475138,1810
1678.0627433120121,1884
1680.081413482059,1926
1682.0995702408654,1872
1684.117213844096,1921
1686.134344547495,1844
1688.1509626068864,1899
1690.1670682781705,1847
1692.182661817329,1850
1694.1977434804217,1852
1696.2123135235875,1877
1698.226372203043,1824
1700.2399197750851,1800
1702.2529564960905,1777
1704.2654826225112,1752
1706.277498410882,1873
1708.2890041178139,1795
1710.2999999999988,1778
1712.3104863142066,1805
1714.3204633172854,1770
1716.329931266163,1763
1718.3388904178469,1766
1720.3473410294214,1810
1722.3552833580516,1814
1724.3627176609807,1791
1726.3696441955308,1806
1728.3760632191033,1693
1730.3819749891782,1769
1732.3873797633146,1771
1734.3922777991502,1715
1736.3966693544012,1694
1738.4005546868639,1733
1740.4039340544127,1759
1742.406807715001,1735
1744.4091759266616,1759
1746.4110389475054,1798
1748.4123970357223,1708
1750.413250449582,1737
1752.4135994474318,1731
1754.4134442876993,1682
1756.4127852288902,1659
1758.4116225295893,1678
1760.4099564484595,1675
1762.407787244244,1726
1764.405115175764,1628
1766.4019405019203,1709
1768.3982634816916,1615
1770.3940843741357,1668
1772.3894034383907,1642
1774.3842209336717,1559
1776.378537119274,1635
1778.372352254571,1630
1780.3656665990156,1620
1782.3584804121397,1625
1784.3507939535534,1594
1786.3426074829463,1629
1788.3339212600863,1668
1790.3247355448211,1627
1792.3150505970766,1632
1794.3048666768573,1643
1796.2941840442477,1648
1798.2830029594106,1611
1800.2713236825884,1565
1802.2591464741004,1615
1804.2464715943465,1604
1806.2332993038058,1590
1808.2196298630352,1588
1810.2054635326708,1619
1812.190800573428,1629
1814.175641246101,1619
1816.1599858115628,1616
1818.1438345307652,1589
1820.127187664738,1614
1822.1100454745924,1580
1824.092408221516,1614
1826.0742761667766,1591
1828.055649571721,1598
1830.0365286977735,1583
1832.0169138064398,1580
1833.9968051593014,1610
1835.9762030180214,1565
1837.9551076443408,1543
1839.9335193000788,1560
1841.9114382471344,1628
1843.888864747485,1527
1845.8657990631878,1502
1847.842241456378,1606
1849.8181921892697,1514
1851.7936515241558,1539
1853.7686197234098,1589
1855.7430970494815,1589
1857.7170837649014,1610
1859.6905801322787,1557
1861.6635864143004,1489
1863.6361028737338,1616
1865.608129773424,1552
1867.5796673762961,1572
1869.5507159453537,1550
1871.521275743678,1635
1873.4913470344313,1619
1875.4609300808534,1622
1877.4300251462632,1556
1879.3986324940588,1609
1881.366752387717,1667
1883.3343850907936,1643
1885.3015308669228,1697
1887.268189979819,1631
1889.2343626932739,1654
1891.2000492711595,1678
1893.1652499774254,1631
1895.1299650761011,1626
1897.0941948312952,1635
1899.0579395071945,1616
1901.0211993680641,1658
1902.98397467825,1634
1904.9462657021745,1590
1906.9080727043415,1599
1908.869395949332,1644
1910.8302357018065,1636
1912.790592226504,1600
1914.7504657882428,1604
1916.7098566519212,1657
1918.6687650825133,1623
1920.6271913450764,1599
1922.5851357047422,1617
1924.5425984267245,1548
1926.499579776314,1570
1928.4560800188833,1601
1930.4120994198802,1598
1932.367638244833,1601
1934.32269675935,1616
1936.2772752291175,1586
1938.231373919899,1571
1940.1849930975404,1604
1942.1381330279637,1626
1944.0907939771696,1579
1946.0429762112412,1704
1947.9946799963363,1603
1949.9459055986945,1606
1951.896653284633,1523
1953.8469233205478,1567
1955.7967159729142,1563
1957.7460315082863,1551
1959.6948701932974,1567
1961.6432322946594,1583
1963.5911180791632,1597
1965.5385278136787,1555
1967.4854617651545,1557
1969.4319202006182,1565
1971.377903387176,1601
1973.3234115920136,1566
1975.268445082395,1614
1977.2130041256642,1599
1979.1570889892423,1539
1981.1006999406304,1553
1983.04383724741,1538
1984.986501177238,1606
1986.928691997853,1575
1988.8704099770712,1578
1990.811655382789,1546
1992.7524284829801,1510
1994.692729545698,1537
1996.6325588390755,1582
1998.5719166313224,1496
2000.5108031907307,1510
2002.4492187856677,1496
2004.387163684583,1563
2006.3246381560011,1554
2008.2616424685298,1463
2010.1981768908527,1574
2012.1342416917332,1465
2014.069837140014,1485
2016.0049635046162,1499
2017.9396210545406,1490
2019.8738100588666,1414
2021.8075307867502,1518
2023.740783507431,1446
2025.6735684902228,1533
2027.6058860045214,1485
2029.5377363198004,1526
2031.4691197056118,1464
2033.4000364315875,1552
2035.3304867674374,1479
2037.260470982952,1437
2039.189989347998,1470
2041.1190421325232,1522
2043.047629606554,1466
2044.9757520401945,1513
2046.9034097036288,1524
2048.8306028671195,1430
2050.7573318010086,1485
2052.683596775716,1420
2054.609398061742,1438
2056.5347359296647,1478
2058.4596106501403,1488
2060.384022493906,1457
2062.3079717317764,1440
2064.231458634646,1487
2066.1544834734873,1459
2068.077046519352,1428
2069.99914804337,1467
2071.9207883167524,1496
2073.8419676107865,1469
2075.7626861968406,1471
2077.6829443463607,1478
2079.6027423308715,1520
2081.522080421977,1504
2083.440958891362,1404
2085.359378010786,1511
2087.2773380520907,1498
2089.194839287196,1485
2091.111881988101,1488
2093.0284664268825,1483
2094.9445928756973,1502
2096.86026160678,1508
2098.775472892446,1411
2100.690227005088,1541
2102.604524217178,1468
2104.5183648012676,1505
2106.431749029985,1514
2108.34467717604,1485
2110.2571495122206,1489
2112.169166311393,1521
2114.080727846503,1530
2115.9918343905747,1506
2117.902486216711,1513
2119.8126835980956,1447
2121.722426807987,1452
2123.6317161197285,1502
2125.5405518067364,1524
2127.448934142509,1500
2129.356863400624,1501
2131.264339854737,1564
2133.1713637785815,1526
2135.077935445972,1463
2136.9840551308002,1464
2138.889723107037,1543
2140.7949396487334,1507
2142.699705030018,1510
2144.6040195250994,1535
2146.507883408264,1488
2148.4112969538774,1575
2150.3142604363848,1584
2152.2167741303097,1559
2154.1188383102535,1495
2156.0204532508997,1508
2157.9216192270064,1508
2159.822336513414,1607
2161.7226053850413,1528
2163.622426116884,1543
2165.5217989840185,1580
2167.4207242616,1511
2169.319202224862,1452
2171.2172331491165,1527
2173.1148173097563,1506
2175.0119549822507,1533
2176.90864644215,1507
2178.8048919650823,1531
2180.7006918267534,1547
2182.596046302952,1578
2184.4909556695407,1488
2186.3854202024645,1598
2188.279440177746,1583
2190.173015871487,1541
2192.066147559868,1585
2193.958835519149,1603
2195.851080025667,1558
2197.7428813558417,1571
2199.6342397861667,1603
2201.5251555932186,1614
2203.415629053651,1573
2205.3056604441986,1622
2207.19525004167,1576
2209.084398122958,1594
2210.9731049650327,1597
2212.861370844941,1693
2214.749196039812,1665
2216.636580826851,1639
2218.523525483344,1580
2220.410030286655,1630
2222.296095514226,1651
2224.1817214435805,1561
2226.066908352319,1591
2227.951656518121,1640
2229.835966218746,1597
2231.71983773203,1595
2233.6032713358913,1661
2235.486267308324,1603
2237.3688259274036,1521
2239.2509474712824,1586
2241.132632218193,1594
2243.013880446447,1571
2244.8946924344323,1635
2246.7750684606203,1612
2248.6550088035574,1622
2250.534513741871,1626
2252.413583554265,1644
2254.292218519526,1655
2256.170418916517,1617
2258.0481850241786,1525
2259.925517121534,1556
2261.8024154876825,1548
2263.678880401803,1644
2265.5549121431536,1570
2267.430510991071,1628
2269.305677224971,1524
2271.180411124348,1526
2273.0547129687766,1598
2274.9285830379076,1555
2276.8020216114737,1505
2278.6750289692845,1625
2280.5476053912294,1579
2282.4197511572766,1620
2284.2914665474727,1556
2286.162751841943,1607
2288.0336073208937,1622
2289.904033264608,1629
2291.774029953448,1653
2293.6435976678554,1654
2295.5127366883517,1626
2297.381447295534,1553
2299.2497297700825,1558
2301.1175843927526,1510
2302.9850114443825,1468
2304.852011205885,1419
2306.7185839582553,1400
2308.5847299825664,1398
2310.4504495599676,1428
2312.3157429716925,1397
2314.1806104990483,1383
2316.0450524234247,1386
2317.9090690262888,1421
2319.772660589186,1414
2321.635827393742,1406
2323.498569721661,1412
2325.3608878547248,1438
2327.2227820747967,1335
2329.0842526638157,1371
2330.945299903803,1391
2332.805924076857,1344
2334.6661254651535,1431
2336.525904350951,1355
2338.3852610165827,1374
2340.244195744464,1368
2342.102708817088,1379
2343.9608005170253,1401
2345.8184711269287,1365
2347.675720929526,1410
2349.532550207628,1416
2351.38895924412,1385
2353.24494832197,1394
2355.100517724223,1384
2356.955667734004,1410
2358.810398634514,1343
2360.664710709037,1448
2362.5186042409337,1462
2364.3720795136437,1399
2366.225136810686,1340
2368.0777764156583,1423
2369.929998612237,1414
2371.7818036841777,1383
2373.633191915315,1465
2375.484163589562,1425
2377.3347189909114,1459
2379.184858403434,1397
2381.03458211128,1369
2382.8838903986775,1403
2384.732783549936,1415
2386.5812618494406,1496
2388.4293255816588,1410
2390.2769750311327,1442
2392.1242104824883,1439
2393.971032220427,1445
2395.8174405297295,1449
2397.6634356952563,1475
2399.509018001947,1382
2401.3541877348193,1451
2403.1989451789705,1475
2405.043290619576,1432
2406.8872243418905,1472
2408.730746631247,1442
2410.5738577730594,1451
2412.4165580528183,1434
2414.258847756095,1501
2416.100727168537,1458
2417.9421965758734,1456
2419.783256263912,1439
2421.623906518538,1384
2423.4641476257157,1449
2425.303979871491,1421
2427.143403541984,1484
2428.9824189233977,1444
2430.821026302012,1443
2432.6592259641866,1442
2434.497018196361,1440
2436.33440328505,1360
2438.171381516851,1438
2440.00795317844,1476
2441.844118556569,1487
2443.6798779380724,1466
2445.5152316098606,1478
2447.3501798589255,1431
2449.1847229723357,1516
2451.0188612372403,1385
2452.8525949408663,1438
2454.6859243705203,1465
2456.518849813587,1489
2458.3513715575314,1502
2460.183489889895,1522
2462.015205098301,1439
2463.8465174704493,1507
2465.67742729412,1507
2467.5079348571717,1487
2469.338040447542,1482
2471.1677443532476,1467
2472.9970468623833,1499
2474.825948263123,1450
2476.6544488437207,1489
2478.482548892508,1476
2480.310248697896,1453
2482.137548548374,1510
2483.9644487325118,1527
2485.790949538956,1499
2487.617051256433,1495
2489.44275417375,1527
2491.26805857979,1549
2493.0929647635157,1500
2494.917473013971,1462
2496.741583620276,1514
2498.5652968716304,1524
2500.3886130573137,1593
2502.2115324666834,1573
2504.0340553891765,1500
2505.856182114308,1523
2507.6779129316733,1560
2509.499248130945,1583
2511.3201880018764,1569
2513.140732834298,1616
2514.9608829181198,1507
2516.780638543331,1566
2518.6,1584
2520.418967578273,1528
2522.237541568376,1604
2524.0557222606144,1654
2525.8735099453706,1601
2527.6909049131086,1640
2529.507907454368,1612
2531.32451785977,1666
2533.140736420014,1684
2534.9565634258774,1706
2536.771999168218,1656
2538.5870439379714,1638
2540.4016980261526,1701
2542.2159617238544,1706
2544.02983532225,1675
2545.8433191125914,1714
2547.656413386209,1655
2549.4691184345115,1698
2551.2814345489874,1768
2553.093362021204,1773
2554.904901142808,1830
2556.716052205523,1865
2558.526815501153,1839
2560.3371913215824,1764
2562.147179958771,1795
2563.956781704761,1905
2565.7659968516705,1908
2567.5748256916986,1879
2569.3832685171224,1868
2571.1913256202984,2015
2572.9989972936614,1912
2574.806283829725,1931
2576.613185521084,1950
2578.4197026604074,1970
2580.2258355404483,1985
2582.031584454035,2055
2583.836949694077,1999
2585.6419315535613,2002
2587.4465303255533,2005
2589.2507463032002,2052
2591.0545797797245,2082
2592.8580310484303,2085
2594.6611004026995,2015
2596.463788135992,2021
2598.266094541849,2034
2600.0680199138874,2074
2601.869564545807,1989
2603.670728731383,2072
2605.4715127644704,2053
2607.2719169390048,2113
2609.071941548998,2130
2610.8715868885433,2145
2612.670853251811,2030
2614.469740933052,2096
2616.268250226594,2071
2618.0663814268455,2112
2619.864134828292,2100
2621.6615107255006,2021
2623.458509413115,2074
2625.2551311858597,1993
2627.0513763385347,1959
2628.8472451660223,1948
2630.6427379632833,2001
2632.4378550253564,1971
2634.232596647359,1941
2636.026963124488,1888
2637.8209547520187,1922
2639.6145718253065,1884
2641.407814639785,1909
2643.200683490966,1907
2644.9931786744414,1836
2646.7853004858807,1907
2648.577049221034,1827
2650.3684251757277,1832
2652.1594286458712,1777
2653.9500599274484,1727
2655.740319316525,1711
2657.5302071092437,1683
2659.3197236018286,1713
2661.10886909058,1661
2662.8976438718782,1708
2664.686048242183,1626
2666.4740824980327,1647
2668.2617469360443,1657
2670.0490418529134,1652
2671.8359675454153,1569
2673.622524310403,1631
2675.408712444811,1605
2677.1945322456495,1621
2678.979984010009,1609
2680.76506803506,1605
2682.5497846180497,1587
2684.334134056306,1529
2686.1181166472343,1461
2687.9017326883213,1551
2689.6849824771293,1450
2691.4678663113013,1499
2693.2503844885596,1472
2695.032537306705,1508
2696.8143250636167,1439
2698.5957480572542,1499
2700.3768065856534,1452
2702.1575009469316,1461
2703.937831439283,1488
2705.717798360982,1471
2707.4974020103837,1455
2709.276642685917,1496
2711.055520686095,1474
2712.834036309506,1466
2714.612189854819,1436
2716.389981620782,1421
2718.1674119062204,1421
2719.944481010041,1479
2721.721189231226,1382
2723.4975368688415,1451
2725.273524222027,1460
2727.0491515900053,1411
2728.824419272075,1409
2730.5993275676146,1432
2732.3738767760838,1470
2734.148067197016,1419
2735.921899130031,1409
2737.6953728748194,1388
2739.468488731156,1381
2741.2412469988926,1321
2743.0136479779617,1409
2744.785691968372,1374
2746.5573792702116,1410
2748.3287101836504,1376
2750.099685008934,1399
2751.870304046388,1389
2753.640567596418,1367
2755.4104759595057,1377
2757.1800294362156,1403
2758.949228327187,1355
2760.7180729331412,1338
2762.486563554877,1319
2764.254700493272,1325
2766.022484049284,1421
2767.789914523947,1381
2769.5569922183786,1400
2771.3237174337705,1404
2773.090090471394,1407
2774.8561116326036,1338
2776.6217812188274,1326
2778.3870995315756,1382
2780.1520668724356,1424
2781.9166835430747,1347
2783.6809498452394,1350
2785.444866080754,1402
2787.2084325515225,1363
2788.971649559527,1336
2790.73451740683,1319
2792.4970363955713,1356
2794.2592068279705,1317
2796.0210290063264,1352
2797.7825032330147,1359
2799.543629810493,1286
2801.304409041296,1365
2803.0648412280366,1343
2804.8249266734088,1375
2806.5846656801846,1332
2808.344058551212,1418
2810.1031055894246,1389
2811.8618070978273,1417
2813.6201633795085,1365
2815.378174737636,1368
2817.1358414754536,1359
2818.893163896285,1272
2820.6501423035334,1312
2822.4067770006814,1319
2824.1630682912883,1413
2825.9190164789957,1340
2827.6746218675207,1387
2829.429884760661,1354
2831.184805462294,1383
2832.9393842763743,1397
2834.693621506936,1357
2836.4475174580916,1374
2838.201072434034,1387
2839.954286739034,1358
2841.707160677441,1411
2843.459694553685,1362
2845.2118886722724,1342
2846.96374333779,1328
2848.7152588549034,1316
2850.4664355283567,1346
2852.217273662973,1381
2853.9677735636546,1434
2855.7179355353833,1378
2857.4677598832186,1411
2859.217246912299,1317
2860.9663969278427,1356
2862.715210235146,1343
2864.4636871395846,1344
2866.211827946614,1319
2867.9596329617652,1358
2869.7071024906536,1319
2871.4542368389684,1334
2873.20103631248,1313
2874.947501217038,1346
2876.6936318585695,1342
2878.4394285430812,1363
2880.1848915766604,1362
2881.9300212654707,1383
2883.6748179157553,1311
2885.4192818338374,1347
2887.1634133261173,1309
2888.907212699077,1308
2890.6506802592744,1332
2892.393816313348,1338
2894.1366211680142,1323
2895.8790951300693,1351
2897.621238506388,1314
2899.363051603925,1314
2901.1045347297118,1382
2902.8456881908596,1366
2904.58651229456,1335
2906.327007348081,1366
2908.067173658772,1345
2909.8070115340597,1335
2911.5465212814497,1373
2913.285703208527,1295
2915.0245576229563,1313
2916.7630848324807,1300
2918.5012851449196,1313
2920.2391588681758,1356
2921.976706310227,1326
2923.7139277791334,1322
2925.4508235830313,1311
2927.187394030137,1328
2928.923639428745,1379
2930.6595600872306,1344
2932.395156314046,1317
2934.1304284177218,1331
2935.8653767068713,1337
2937.6000014901815,1360
2939.3343030764227,1377
2941.068281774442,1379
2942.8019378931644,1318
2944.5352717415976,1337
2946.2682836288236,1388
2948.0009738640065,1338
2949.7333427563885,1355
2951.465390615289,1355
2953.1971177501086,1370
2954.9285244703265,1357
2956.6596110855,1316
2958.3903779052657,1310
2960.1208252393385,1332
2961.8509533975125,1352
2963.5807626896617,1315
2965.3102534257378,1317
2967.0394259157715,1309
2968.768280469873,1347
2970.496817398232,1358
2972.2250370111146,1318
2973.952939618869,1318
2975.6805255319196,1339
2977.4077950607707,1321
2979.134748516006,1415
2980.861386208289,1338
2982.587708448359,1300
2984.313715547037,1248
2986.039407815222,1347
2987.764785563891,1379
2989.489849104102,1347
2991.2145987469908,1329
2992.9390348037705,1364
2994.6631575857346,1364
2996.3869674042576,1329
2998.1104645707887,1355
2999.83364939686,1382
3001.5565221940783,1304
3003.2790832741334,1326
3005.0013329487924,1320
3006.7232715298996,1323
3008.4448993293804,1286
3010.166216659239,1343
3011.887223831558,1335
3013.607921158498,1273
3015.3283089522993,1296
3017.0483875252826,1327
3018.7681571898443,1321
3020.4876182584626,1294
3022.2067710436927,1313
3023.9256158581707,1325
3025.644153014609,1295
3027.362382825801,1331
3029.0803056046193,1268
3030.797921664012,1307
3032.5152313170106,1319
3034.2322348767225,1286
3035.9489326563353,1326
3037.665324969115,1339
3039.3814121284063,1322
3041.097194447633,1283
3042.812672240299,1297
3044.5278458199855,1351
3046.2427155003525,1310
3047.9572815951406,1341
3049.671544418167,1320
3051.38550428333,1340
3053.0991615046073,1324
3054.812516396051,1311
3056.5255692717974,1298
3058.2383204460575,1334
3059.9507702331257,1358
3061.662918947372,1345
3063.3747669032446,1305
3065.0863144152736,1277
3066.7975617980674,1357
3068.508509366309,1354
3070.219157434767,1300
3071.9295063182844,1307
3073.639556331785,1380
3075.3493077902704,1332
3077.058761008821,1323
3078.7679163025964,1343
3080.476773986837,1327
3082.1853343768594,1343
3083.89359778806,1350
3085.6015645359153,1298
3087.3092349359786,1316
3089.016609303884,1321
3090.7236879553434,1360
3092.4304712061476,1295
3094.136959372166,1399
3095.843152769349,1355
3097.5490517137237,1318
3099.2546565213966,1332
3100.959967508554,1359
3102.66498499146,1349
3104.3697092864577,1355
3106.0741407099695,1347
3107.778279578498,1328
3109.482126208622,1348
3111.1856809170004,1318
3112.8889440203716,1396
3114.5919158355528,1280
3116.294596679439,1349
3117.996986869006,1347
3119.6990867213062,1407
3121.4008965534726,1353
3123.102416682717,1318
3124.803647426329,1334
3126.5045891016784,1321
3128.205242026213,1304
3129.90560651746,1361
3131.605682893025,1369
3133.3054714705922,1315
3135.0049725679282,1367
3136.7041865028714,1276
3138.4031135933465,1306
3140.101754157353,1330
3141.800108512971,1314
3143.498176978357,1283
3145.1959598717494,1270
3146.8934575114636,1302
3148.5906702158954,1294
3150.2875983035183,1323
3151.9842420928853,1305
3153.680601902627,1308
3155.376678051456,1285
3157.07247085816,1273
3158.767980641609,1323
3160.463207720748,1315
3162.158152414606,1302
3163.8528150422862,1309
3165.5471959229726,1297
3167.2412953759303,1349
3168.9351137204976,1290
3170.628651276098,1320
3172.3219083622307,1264
3174.014885298474,1297
3175.707582404485,1301
3177.4000000000005,1269
3179.092138404835,1265
3180.7839979388846,1377
3182.47557892212,1323
3184.166881674594,1372
3185.8579065164386,1339
3187.5486537678626,1333
3189.2391237491547,1284
3190.9293167806827,1369
3192.6192331828934,1249
3194.3088732763117,1339
3195.998237381542,1298
3197.687325819268,1295
3199.376138910251,1313
3201.064676975334,1269
3202.7529403354347,1315
3204.4409293115523,1312
3206.1286442247647,1292
3207.816085396229,1269
3209.5032531471825,1271
3211.190147798936,1296
3212.8767696728846,1290
3214.5631190905015,1259
3216.2491963733373,1263
3217.9350018430214,1253
3219.6205358212637,1272
3221.305798629851,1232
3222.990790590651,1281
3224.6755120256103,1265
3226.359963256751,1299
3228.0441446061795,1238
3229.7280563960758,1259
3231.411698948703,1294
3233.0950725863995,1244
3234.778177631587,1271
3236.461014406761,1272
3238.1435832345005,1262
3239.8258844374595,1285
3241.507918338374,1249
3243.1896852600576,1273
3244.8711855254023,1336
3246.552419457381,1310
3248.233387379042,1256
3249.914089613516,1262
3251.59452648401,1238
3253.274698313813,1305
3254.95460542629,1282
3256.6342481448855,1270
3258.313626793125,1249
3259.9927416946084,1230
3261.6715931730196,1249
3263.3501815521176,1274
3265.0285071557437,1227
3266.706570307815,1250
3268.3843713323286,1228
3270.0619105533615,1232
3271.739188295068,1273
3273.4162048816834,1227
3275.0929606375184,1288
3276.769455886966,1309
3278.445690954498,1273
3280.1216661646613,1278
3281.797381842087,1243
3283.4728383114807,1251
3285.1480358976296,1243
3286.8229749253996,1276
3288.4976557197333,1252
3290.172078605655,1308
3291.846243908266,1281
3293.5201519527463,1251
3295.193803064357,1212
3296.8671975684374,1261
3298.5403357904024,1240
3300.21321805575,1228
3301.8858446900567,1263
3303.558216018975,1297
3305.23033236824,1263
3306.9021940636603,1316
3308.57380143113,1284
3310.2451547966184,1256
3311.916254486174,1259
3313.5871008259246,1296
3315.2576941420766,1270
3316.9280347609147,1290
3318.5981230088046,1240
3320.2679592121895,1279
3321.9375436975924,1277
3323.606876791612,1263
3325.27595882093,1231
3326.944790112305,1249
3328.6133709925753,1257
3330.2817017886573,1223
3331.949782827547,1207
3333.617614436319,1201
3335.2851969421245,1287
3336.952530672199,1262
3338.619615953853,1238
3340.286453114475,1311
3341.9530424815357,1289
3343.619384382583,1332
3345.2854791452437,1236
3346.951327097224,1280
3348.6169285663073,1260
3350.2822838803577,1279
3351.947393367319,1222
3353.61225735521,1240
3355.2768761721345,1252
3356.9412501462693,1256
3358.605379605873,1221
3360.2692648792827,1259
3361.9329062949146,1276
3363.596304181263,1288
