CollectionTime,9/20/2024 12:05:51 PM
ExposureUsed,3
CalibratedSpectrum
-962.7078968117929,638
-959.9714848408522,678
-957.2358232597828,721
-954.5009119013725,727
-951.7667505983302,731
-949.0333391832855,758
-946.3006774887896,763
-943.5687653473143,780
-940.837602591253,758
-938.1071890529199,776
-935.3775245645503,737
-932.6486089583007,770
-929.9204420662485,756
-927.1930237203925,757
-924.4663537526524,710
-921.7404319948689,764
-919.0152582788041,755
-916.2908324361409,799
-913.5671542984834,743
-910.8442236973568,731
-908.1220404642074,697
-905.4006044304027,717
-902.679915427231,723
-899.959973285902,743
-897.2407778375464,729
-894.5223289132158,698
-891.8046263438832,697
-889.0876699604426,740
-886.3714595937089,700
-883.6559950744183,698
-880.9412762332282,704
-878.2273029007168,711
-875.5140749073835,676
-872.8015920836489,701
-870.0898542598545,697
-867.3788612662631,683
-864.6686129330585,708
-861.9591090903457,697
-859.2503495681506,643
-856.5423341964203,690
-853.8350628050229,725
-851.1285352237478,691
-848.4227512823054,725
-845.7177108103272,686
-843.0134136373656,706
-840.3098595928943,680
-837.6070485063082,701
-834.9049802069229,702
-832.2036545239757,715
-829.5030712866244,707
-826.8032303239481,695
-824.1041314649472,686
-821.4057745385428,725
-818.7081593735775,712
-816.0112857988148,705
-813.3151536429393,724
-810.6197627345566,692
-807.9251129021936,677
-805.2312039742981,734
-802.5380357792392,720
-799.8456081453069,683
-797.1539209007124,723
-794.462973873588,693
-791.772766891987,697
-789.083299783884,730
-786.3945723771743,732
-783.7065844996748,711
-781.0193359791231,717
-778.3328266431781,727
-775.6470563194197,702
-772.9620248353489,709
-770.2777320183878,703
-767.5941776958798,755
-764.9113616950891,702
-762.2292838432011,741
-759.5479439673222,684
-756.8673418944801,724
-754.1874774516235,732
-751.5083504656222,739
-748.8299607632671,715
-746.15230817127,731
-743.475392516264,754
-740.7992136248035,720
-738.1237713233636,730
-735.4490654383407,733
-732.7750957960521,726
-730.1018622227365,766
-727.4293645445534,739
-724.7576025875837,773
-722.0865761778291,748
-719.4162851412126,798
-716.7467293035781,773
-714.0779084906909,769
-711.409822528237,775
-708.7424712418238,772
-706.0758544569796,800
-703.4099719991541,824
-700.7448236937178,854
-698.0804093659622,804
-695.4167288411002,814
-692.7537819442656,805
-690.0915685005134,810
-687.4300883348199,823
-684.7693412720819,841
-682.1093271371178,819
-679.4500457546669,810
-676.7914969493897,837
-674.1336805458676,844
-671.4765963686034,820
-668.8202442420206,852
-666.1646239904642,823
-663.5097354382001,843
-660.8555784094151,812
-658.2021527282176,828
-655.5494582186366,863
-652.8974947046223,914
-650.2462620100463,890
-647.5957599587009,845
-644.9459883742998,872
-642.2969470804776,815
-639.6486359007902,929
-637.0010546587141,891
-634.3542031776476,887
-631.7080812809096,841
-629.0626887917401,872
-626.4180255333008,835
-623.7740913286734,860
-621.1308860008619,851
-618.4884093727904,874
-615.8466612673046,854
-613.2056415071715,829
-610.5653499150785,839
-607.9257863136347,892
-605.28695052537,907
-602.6488423727357,871
-600.0114616781036,876
-597.3748082637674,878
-594.7388819519412,885
-592.1036825647604,894
-589.4692099242818,864
-586.8354638524829,855
-584.2024441712624,822
-581.5701507024403,873
-578.9385832677575,918
-576.3077416888759,898
-573.6776257873787,873
-571.0482353847704,806
-568.4195703024757,881
-565.7916303618415,906
-563.164415384135,904
-560.5379251905453,903
-557.9121596021815,890
-555.2871184400748,905
-552.6628015251767,890
-550.0392086783606,880
-547.4163397204204,897
-544.794194472071,929
-542.1727727539491,908
-539.5520743866118,885
-536.9320991905377,918
-534.3128469861261,949
-531.6943175936979,930
-529.0765108334947,1039
-526.4594265256793,1080
-523.8430644903358,1272
-521.2274245474689,1406
-518.612506517005,1468
-515.9983102187913,1505
-513.3848354725959,1569
-510.77208209810846,1583
-508.16004991493924,1646
-505.5487387426199,1756
-502.9381484006032,1886
-500.3282787082628,1963
-497.71912948489364,1881
-495.1107005497117,1715
-492.5029917218539,1630
-489.8960028203786,1459
-487.28973366426493,1355
-484.68418407241325,1195
-482.07935386364494,1128
-479.47524285670266,1131
-476.87185087025,1127
-474.2691777228715,1119
-471.66722323307334,1146
-469.0659872192821,1092
-466.4654694998459,1147
-463.86566989303384,1092
-461.26658821703614,1055
-458.66822428996414,1093
-456.07057792985,1096
-453.4736489546475,1071
-450.877437182231,1092
-448.28194243039627,1107
-445.68716451686,1042
-443.09310325926003,1078
-440.49975847515555,1066
-437.9071299820263,1071
-435.31521759727354,1091
-432.72402113821954,1113
-430.13354042210767,1042
-427.5437752661022,1034
-424.95472548728867,1074
-422.36639090267386,1130
-419.7787713291855,1175
-417.1918665836721,1174
-414.60567648290385,1160
-412.0202008435715,1235
-409.4354394822874,1188
-406.8513922155845,1212
-404.26805885991723,1176
-401.685439231661,1185
-399.103533147112,1223
-396.522340422488,1137
-393.9418608739278,1176
-391.3620943174908,1157
-388.7830405691583,1111
-386.2046994448317,1022
-383.6270707603344,1082
-381.05015433141045,1027
-378.473949973725,932
-375.8984575028645,881
-373.32367673433623,778
-370.74960748356875,754
-368.1762495659117,694
-365.60360279663576,670
-363.03166699093265,630
-360.4604419639154,594
-357.8899275306178,573
-355.32012350599507,555
-352.7510297049233,577
-350.1826459421999,518
-347.61497203254316,487
-345.04800779059235,494
-342.4817530309082,475
-339.91620756797226,492
-337.35137121618743,525
-334.7872437898774,480
-332.22382510328725,518
-329.66111497058273,498
-327.09911320585127,533
-324.53781962310075,508
-321.9772340362607,490
-319.4173562591816,506
-316.8581861056348,497
-314.2997233893127,480
-311.7419679238294,563
-309.1849195227194,585
-306.62857799943856,581
-304.0729431673641,544
-301.51801483979375,545
-298.963792829947,548
-296.41027695096386,545
-293.85746701590574,581
-291.3053628377552,598
-288.7539642294155,589
-286.2032710037115,586
-283.65328297338897,626
-281.1039999511146,602
-278.5554217494762,649
-276.007548180983,636
-273.4603790580651,653
-270.9139141930734,594
-268.3681533982807,638
-265.8230964858798,651
-263.27874326798565,691
-260.7350935566336,654
-258.1921471637804,721
-255.6499039013039,770
-253.10836358100266,765
-250.56752601459698,672
-248.02739101372765,750
-245.48795838995704,798
-242.94922795476816,805
-240.41119951956557,773
-237.8738728956746,827
-235.33724789434166,846
-232.80132432673452,769
-230.2661020039418,716
-227.73158073697357,791
-225.19776033676033,845
-222.66464061415422,904
-220.1322213799284,875
-217.60050244477725,781
-215.06948361931552,866
-212.53916471408013,976
-210.00954553952818,897
-207.48062590603843,798
-204.9524056239104,743
-202.4248845033651,841
-199.8980623545441,889
-197.37193898751036,942
-194.84651421224817,921
-192.32178783866232,784
-189.79775967657952,857
-187.27442953574644,1055
-184.7517972258321,979
-182.2298625564256,831
-179.7086253370378,755
-177.18808537710026,908
-174.66824248596583,1090
-172.14909647290835,1136
-169.6306471471229,1114
-167.11289431772548,1025
-164.59583779375328,1052
-162.07947738416453,1190
-159.5638128978386,1350
-157.04884414357605,1489
-154.53457093009854,1585
-152.02099306604828,1320
-149.50811035998936,1149
-146.99592262040665,1254
-144.48442965570587,1391
-141.97363127421409,1481
-139.46352728417958,1683
-136.95411749377126,1577
-134.44540171107985,1325
-131.93737974411636,1256
-129.43005140081357,1319
-126.92341648902493,1683
-124.41747481652521,2157
-121.91222619101006,2857
-119.40767042009657,3379
-116.90380731132257,3692
-114.40063667214702,4321
-111.8981583099503,4892
-109.3963720320337,5706
-106.89527764561933,6322
-104.39487495785067,7071
-101.89516377579241,9774
-99.39614390642998,15163
-96.89781515667039,18838
-94.40017733334128,18863
-91.90323024319173,17771
-89.40697369289148,13940
-86.91140748903172,8167
-84.41653143812482,7373
-81.92234534660395,8838
-79.42884902082358,9824
-76.93604226705907,10035
-74.4439248915071,9880
-71.95249670028534,9633
-69.46175749943245,7953
-66.97170709490854,7098
-64.48234529259423,7374
-61.99367189829195,9018
-59.50568671772464,9038
-57.01838955653636,9204
-54.53178022029283,11191
-52.045858514480074,13062
-49.560624244506016,14668
-47.07607721569923,15638
-44.59221723330904,17371
-42.10904410250669,18347
-39.62655762838392,16861
-37.14475761595372,16637
-34.66364387015028,19670
-32.18321619582866,21765
-29.70347439776515,24791
-27.224418280657005,27242
-24.74604764912317,32687
-22.26836230770266,46375
-19.7913620608565,65034
-17.315046712966478,65034
-14.83941606833514,65034
-12.36446993118659,65034
-9.89020810566592,65034
-7.416630395839093,65034
-4.94373660569363,65034
-2.471526539137585,65034
-6.821210263296962E-13,65034
2.47084320796705,65034
4.941003281093458,65034
7.410480415786196,65034
9.879274808531363,65034
12.347386655893956,65034
14.814816154518212,65034
17.28156350112681,65034
19.74762889252179,65034
22.21301252558385,25400
24.67771459727237,6561
27.141735304626195,5721
29.605074844762612,5174
32.06773341487792,4711
34.52971121224755,4238
36.99100843422559,3677
39.45162527824516,2937
41.91156194181792,3214
44.370818622535126,3336
46.82939551806646,3142
49.287292826160524,3652
51.74451074464503,3219
54.201049471426245,2842
56.65690920448981,2444
59.112090141899785,2209
61.56659248179983,2501
64.02041642241159,2364
66.4735621620365,2257
68.92602989905402,2519
71.37781983192338,2399
73.82893215918205,2049
76.27936707944684,1746
78.72912479141326,1837
81.17820549385567,1572
83.62660938562783,1537
86.07433666566146,1618
88.5213875329681,1508
90.96776218663751,1583
93.41346082583925,1770
95.85848364982041,2091
98.30283085790859,1662
100.7465026495089,1707
103.18949922410604,1695
105.63182078126385,1435
108.07346752062438,1486
110.51443964190923,1320
112.95473734491827,1386
115.39436082953114,1371
117.83331029570547,1581
120.27158594347827,1583
122.7091879729652,1566
125.1461165843615,1461
127.58237197794062,1121
130.01795435405518,1248
132.4528639131364,1213
134.88710085569494,1206
137.32066538231982,1524
139.75355769367923,1257
142.1857779905207,1305
144.61732647366978,1286
147.04820334403132,1187
149.47840880258934,1194
151.90794305040674,1308
154.33680628862487,1281
156.76499871846443,1441
159.19252054122433,1673
161.61937195828352,1933
164.04555317109896,2129
166.47106438120693,2224
168.89590579022217,2499
171.320077599839,2700
173.7435800118302,2826
176.16641322804742,3026
178.58857745042144,3146
181.01007288096173,3233
183.43089972175687,3216
185.85105817497413,3250
188.27054844285988,3422
190.6893707277394,3283
193.10752523201643,3309
195.5250121581745,3282
197.9418317087751,3319
200.3579840864594,3262
202.7734694939469,3422
205.18828813403627,3652
207.6024402096051,3652
210.01592592360964,3459
212.42874547908548,3499
214.84089907914665,3430
217.2523869269868,3486
219.66320922587727,3514
222.0733661791695,3491
224.48285799029293,3428
226.8916848627572,3502
229.29984700014882,3667
231.7073446061355,3582
234.11417788446204,3583
236.520347038953,3786
238.92585227351185,3723
241.33069379212054,3911
243.73487179884035,4145
246.1383864978112,4087
248.541238093252,4008
250.9434267894609,3991
253.34495279081432,4097
255.74581630176783,4258
258.1460175268563,4163
260.54555667069314,4249
262.9444339379703,4055
265.3426495334594,4062
267.7402036620107,3891
270.1370965285529,3745
272.53332833809407,3520
274.9288992957214,3306
277.32380960660055,3251
279.718059475976,3252
282.1116491091717,3175
284.5045787115897,3050
286.89684848871195,3092
289.2884586460981,3150
291.67940938938807,3102
294.0697009242996,3186
296.4593334566299,3178
298.84830719225477,3182
301.23662233712923,3177
303.6242790972866,3054
306.01127767884,2950
308.39761828798066,2862
310.78330113097934,2780
313.16832641418534,2785
315.5526943440269,2789
317.9364051270112,2710
320.3194589697242,2738
322.70185607883093,2754
325.0835966610754,2665
327.4646809232805,2633
329.8451090723478,2590
332.2248813152577,2591
334.6039978590701,2745
336.9824589109231,2576
339.36026467803447,2423
341.7374153677,2501
344.113911187295,2547
346.48975234427337,2536
348.8649390461686,2501
351.2394715005918,2532
353.61334991523415,2495
355.9865744978655,2475
358.35914545633375,2522
360.73106299856715,2522
363.10232733257146,2432
365.47293866643247,2458
367.84289720831396,2353
370.2122031664593,2412
372.5808567491905,2407
374.9488581649083,2359
377.31620762209275,2294
379.6829053293021,2398
382.0489514951745,2261
384.4143463284262,2291
386.7790900378528,2334
389.14318283232853,2420
391.50662492080653,2357
393.86941651231916,2386
396.23155781597745,2314
398.5930490409713,2492
400.9538903965696,2350
403.3140820921202,2326
405.6736243370498,2343
408.03251734086336,2149
410.3907613131465,2325
412.74835646356166,2254
415.10530300185144,2248
417.4616011378372,2245
419.81725108141893,2250
422.1722530425758,2246
424.5266072313656,2293
426.880313857925,2259
429.2333731324701,2210
431.58578526529516,2315
433.9375504667738,2254
436.2886689473588,2182
438.63914091758113,2150
440.9889665880513,2228
443.33814616945835,2196
445.68667987257015,2209
448.03456790823395,2138
450.3818104873759,2172
452.72840782100013,2103
455.07436012019105,2199
457.41966759611057,2177
459.7643304600007,2168
462.10834892318155,2243
464.4517231970525,2209
466.79445349309174,2174
469.1365400228566,2217
471.4779829979826,2207
473.81878263018564,2239
476.15893913125876,2229
478.4984527130747,2276
480.8373235875855,2284
483.17555196682144,2421
485.5131380628919,2406
487.8500820879857,2568
490.1863842543697,2637
492.52204477439034,2860
494.8570638604725,3036
497.1914417251204,3420
499.52517858091653,3689
501.85827464052306,3971
504.19073011668036,4060
506.5225452222086,4094
508.85372017000566,3917
511.18425517304956,3926
513.514150444396,4350
515.8434061971808,5583
518.1720226446176,6640
520.4999999999999,6688
522.8273384766991,6306
525.1540382881666,5916
527.480099647932,5228
529.8055227696037,4225
532.1303078668694,3165
534.454455153496,2621
536.777964843328,2452
539.1008371502907,2471
541.4230722883866,2318
543.744670471698,2328
546.0656319143858,2217
548.3859568306899,2286
550.7056454349294,2249
553.0246979415016,2168
555.3431145648834,2184
557.6608955196306,2211
559.978041020377,2214
562.2945512818363,2189
564.6104265188006,2272
566.9256669461412,2161
569.2402727788082,2209
571.5542442318302,2158
573.8675815203156,2206
576.1802848594508,2224
578.4923544645015,2343
580.8037905508126,2299
583.114593333807,2295
585.4247630289875,2290
587.7342998519354,2176
590.0432040183106,2253
592.3514757438526,2307
594.6591152443794,2276
596.9661227357875,2249
599.2724984340531,2179
601.578242555231,2159
603.8833553154542,2260
606.1878369309362,2225
608.4916876179676,2226
610.7949075929192,2213
613.0974970722403,2212
615.3994562724587,2215
617.7007854101818,2188
620.0014847020951,2205
622.3015543649641,2326
624.6009946156324,2178
626.8998056710224,2212
629.1979877481361,2256
631.4955410640538,2300
633.7924658359349,2237
636.0887622810175,2159
638.3844306166192,2348
640.6794710601358,2359
642.9738838290426,2336
645.2676691408932,2360
647.5608272133207,2325
649.853358264037,2314
652.1452625108324,2443
654.4365401715764,2416
656.7271914642178,2331
659.0172166067838,2350
661.3066158173809,2355
663.5953893141935,2355
665.8835373154867,2339
668.1710600396028,2330
670.4579577049639,2345
672.7442305300709,2398
675.0298787335033,2363
677.3149025339197,2352
679.599302150058,2354
681.8830778007342,2294
684.1662297048437,2372
686.4487580813608,2269
688.7306631493387,2337
691.0119451279091,2267
693.2926042362834,2279
695.5726406937516,2309
697.8520547196814,2361
700.1308465335215,2253
702.4090163547982,2267
704.6865644031171,2360
706.9634908981619,2226
709.2397960596965,2260
711.5154801075631,2232
713.7905432616823,2306
716.0649857420548,2393
718.3388077687592,2381
720.612009561953,2275
722.8845913418733,2297
725.1565533288352,2228
727.427895743234,2198
729.6986188055427,2193
731.9687227363137,2206
734.238207756178,2192
736.5070740858458,2200
738.7753219461066,2243
741.0429515578281,2247
743.3099631419569,2213
745.5763569195191,2255
747.8421331116193,2237
750.1072919394409,2226
752.3718336242467,2246
754.6357583873777,2224
756.8990664502545,2228
759.1617580343765,2254
761.423833361321,2239
763.6852926527457,2298
765.9461361303862,2279
768.206364016058,2199
770.4659765316536,2270
772.7249738991469,2309
774.9833563405886,2209
777.2411240781092,2236
779.4982773339183,2245
781.7548163303044,2255
784.010741289634,2304
786.2660524343538,2302
788.5207499869881,2357
790.7748341701416,2296
793.0283052064964,2271
795.2811633188143,2317
797.5334087299362,2337
799.7850416627813,2306
802.0360623403484,2206
804.2864709857143,2264
806.5362678220353,2292
808.7854530725468,2386
811.0340269605625,2267
813.2819897094754,2261
815.5293415427581,2383
817.77608268396,2331
820.0222133567116,2323
822.2677337847211,2334
824.5126441917765,2231
826.7569448017433,2331
829.0006358385675,2292
831.2437175262731,2332
833.4861900889629,2233
835.7280537508192,2263
837.9693087361026,2255
840.2099552691533,2293
842.4499935743896,2347
844.689423876309,2270
846.9282463994886,2303
849.1664613685833,2369
851.4040690083276,2325
853.6410695435349,2317
855.877463199097,2355
858.1132501999847,2385
860.3484307712487,2380
862.5830051380175,2366
864.8169735254988,2318
867.0503361589791,2301
869.2830932638243,2307
871.5152450654786,2335
873.7467917894654,2456
875.9777336613873,2397
878.2080709069252,2395
880.4378037518389,2369
882.666932421968,2434
884.8954571432301,2424
887.1233781416219,2430
889.3506956432192,2470
891.5774098741766,2386
893.803521060728,2476
896.0290294291852,2445
898.2539352059397,2404
900.4782386174619,2438
902.7019398903011,2406
904.925039251085,2460
907.147536926521,2500
909.3694331433943,2409
911.59072812857,2406
913.8114221089921,2412
916.0315153116827,2366
918.2510079637437,2408
920.4699002923547,2431
922.6881925247761,2412
924.905884888345,2277
927.1229776104793,2416
929.3394709186747,2443
931.555365040506,2346
933.7706602036275,2407
935.9853566357709,2439
938.1994545647489,2409
940.4129542184515,2385
942.6258558248488,2507
944.8381596119883,2360
947.0498658079974,2478
949.2609746410825,2442
951.4714863395287,2365
953.6814011316998,2440
955.8907192460387,2356
958.0994409110671,2384
960.3075663553858,2422
962.5150958076741,2307
964.7220294966913,2319
966.928367651274,2334
969.1341105003388,2388
971.3392582728806,2313
973.5438111979742,2339
975.747769504772,2347
977.9511334225061,2327
980.153903180487,2288
982.3560790081052,2256
984.5576611348289,2296
986.7586497902058,2277
988.9590452038618,2197
991.158847605503,2198
993.3580572249133,2188
995.5566742919558,2140
997.7546990365728,2104
999.952131688785,2075
1002.1489724786926,2054
1004.3452216364743,2021
1006.5408793923874,1964
1008.7359459767691,2018
1010.9304216200343,2019
1013.1243065526781,1967
1015.3176010052733,1978
1017.510305208472,1949
1019.7024193930064,1968
1021.8939437896848,1957
1024.0848786293977,1998
1026.2752241431122,1875
1028.4649805618747,1931
1030.6541481168115,1948
1032.842727039127,1890
1035.0307175601051,1942
1037.2181199111074,1933
1039.4049343235752,1932
1041.591161029029,1928
1043.7768002590683,1965
1045.9618522453698,1980
1048.1463172196918,1924
1050.3301954138697,1905
1052.513487059818,1931
1054.69619238953,1871
1056.8783116350783,1899
1059.0598450286152,1910
1061.2407928023704,1964
1063.4211551886528,1946
1065.6009324198508,1905
1067.780124728432,1947
1069.9587323469414,1849
1072.1367555080046,1901
1074.314194444325,1895
1076.4910493886855,1910
1078.667320573947,1871
1080.843008233051,1882
1083.0181125990161,1810
1085.1926339049414,1802
1087.3665723840027,1821
1089.5399282694575,1884
1091.7127017946405,1854
1093.8848931929647,1865
1096.0565026979243,1796
1098.2275305430899,1750
1100.3979769621128,1765
1102.567842188722,1736
1104.737126456726,1800
1106.9058300000124,1764
1109.0739530525475,1785
1111.2414958483764,1818
1113.4084586216231,1819
1115.5748416064907,1766
1117.7406450372605,1820
1119.9058691482942,1801
1122.0705141740304,1829
1124.2345803489884,1757
1126.3980679077658,1775
1128.5609770850388,1782
1130.7233081155623,1739
1132.8850612341707,1732
1135.0462366757774,1763
1137.2068346753745,1807
1139.3668554680326,1800
1141.526299288901,1767
1143.68516637321,1773
1145.8434569562655,1747
1148.001171273455,1769
1150.158309560244,1731
1152.3148720521767,1714
1154.470858984876,1774
1156.626270594044,1744
1158.7811071154629,1738
1160.9353687849912,1750
1163.089055838569,1769
1165.242168512213,1675
1167.3947070420209,1774
1169.5466716641677,1694
1171.6980626149075,1715
1173.8488801305748,1733
1175.9991244475814,1702
1178.1487958024186,1759
1180.2978944316555,1765
1182.4464205719428,1723
1184.5943744600072,1758
1186.7417563326567,1697
1188.8885664267755,1634
1191.0348049793297,1697
1193.1804722273619,1732
1195.325568407995,1766
1197.4700937584303,1746
1199.614048515948,1746
1201.7574329179074,1810
1203.900247201746,1755
1206.042491604982,1709
1208.1841663652099,1773
1210.3252717201053,1773
1212.465807907422,1814
1214.6057751649923,1782
1216.7451737307279,1736
1218.8840038426192,1803
1221.0222657387353,1747
1223.1599596572241,1794
1225.2970858363137,1763
1227.4336445143094,1804
1229.5696359295966,1783
1231.705060320639,1816
1233.8399179259786,1849
1235.9742089842384,1757
1238.107933734118,1828
1240.2410924143974,1858
1242.373685263935,1818
1244.5057125216676,1809
1246.6371744266116,1915
1248.7680712178621,1841
1250.898403134593,1796
1253.028170416058,1855
1255.1573733015875,1841
1257.2860120305932,1872
1259.4140868425648,1903
1261.54159797707,1934
1263.6685456737569,1820
1265.7949301723515,1878
1267.9207517126597,1884
1270.046010534565,1920
1272.1707068780306,1860
1274.2948409830983,1905
1276.4184130898889,1896
1278.541423438603,1952
1280.6638722695184,1972
1282.785759822993,2021
1284.9070863394636,1929
1287.0278520594447,1847
1289.1480572235314,1969
1291.2677020723963,1951
1293.3867868467923,1927
1295.5053117875495,1936
1297.623277135579,2016
1299.740683131868,1993
1301.8575300174857,2038
1303.973818033578,1960
1306.0895474213703,2018
1308.2047184221678,1965
1310.3193312773528,2017
1312.4333862283888,2054
1314.5468835168163,1949
1316.659823384255,2005
1318.7722060724045,2006
1320.8840318230418,2013
1322.9953008780249,2059
1325.1060134792888,2009
1327.2161698688478,2037
1329.3257702887959,2075
1331.4348149813054,1975
1333.5433041886276,2009
1335.6512381530933,2023
1337.7586171171101,2106
1339.8654413231675,1974
1341.9717110138317,2053
1344.0774264317488,2085
1346.1825878196432,2018
1348.2871954203192,2053
1350.3912494766587,2068
1352.4947502316231,2080
1354.5976979282532,2045
1356.7000928096686,2003
1358.8019351190665,2021
1360.9032250997243,2035
1363.0039629949988,2062
1365.1041490483235,2093
1367.2037835032133,2039
1369.3028666032606,2091
1371.401398592137,2101
1373.4993797135926,1990
1375.5968102114575,1975
1377.6936903296396,2074
1379.7900203121262,2034
1381.8858004029835,2046
1383.9810308463561,2044
1386.075711886469,2072
1388.1698437676241,2117
1390.2634267342032,2127
1392.356461030667,2127
1394.4489469015557,2154
1396.5408845914872,2128
1398.6322743451592,2111
1400.7231164073469,2223
1402.813411022907,2115
1404.903158436773,2135
1406.9923588939578,2172
1409.0810126395531,2216
1411.1691199187303,2298
1413.2566809767386,2301
1415.343696058907,2326
1417.4301654106425,2228
1419.5160892774315,2342
1421.6014679048399,2290
1423.6863015385125,2347
1425.7705904241707,2329
1427.8543348076178,2472
1429.9375349347342,2398
1432.0201910514802,2428
1434.102303403894,2416
1436.1838722380944,2421
1438.2648978002767,2545
1440.3453803367174,2590
1442.4253200937692,2680
1444.5047173178677,2623
1446.5835722555234,2671
1448.6618851533285,2754
1450.739656257952,2786
1452.8168858161434,2868
1454.8935740747306,2932
1456.96972128062,2954
1459.045327680797,3076
1461.120393522327,3132
1463.1949190523528,3070
1465.2689045180973,3177
1467.3423501668608,3236
1469.415256246024,3273
1471.4876230030463,3334
1473.559450685465,3440
1475.6307395408976,3528
1477.7014898170391,3604
1479.771701761665,3508
1481.8413756226287,3619
1483.9105116478618,3803
1485.9791100853772,3821
1488.0471711832643,3978
1490.1146951896926,3821
1492.1816823529098,4021
1494.2481329212433,4028
1496.3140471430984,3993
1498.3794252669609,4175
1500.4442675413939,4229
1502.5085742150404,4248
1504.572345536622,4323
1506.6355817549388,4295
1508.6982831188702,4344
1510.7604498773744,4263
1512.8220822794883,4498
1514.8831805743293,4410
1516.9437450110909,4536
1519.003775839048,4625
1521.0632733075522,4609
1523.1222376660367,4584
1525.1806691640113,4626
1527.2385680510652,4767
1529.2959345768668,4819
1531.3527689911643,4847
1533.4090715437833,5019
1535.4648424846291,5032
1537.5200820636855,5150
1539.5747905310159,5124
1541.6289681367616,5321
1543.6826151311434,5215
1545.7357317644614,5447
1547.7883182870937,5401
1549.8403749494987,5501
1551.8919020022113,5656
1553.9428996958477,5770
1555.9933682811015,5861
1558.0433080087469,5959
1560.0927191296346,6055
1562.1416018946961,5919
1564.1899565549415,6086
1566.2377833614592,6041
1568.2850825654164,5954
1570.3318544180606,5820
1572.3780991707158,5624
1574.423817074788,5268
1576.4690083817595,5155
1578.5136733431923,4914
1580.5578122107272,4508
1582.601425236085,4395
1584.6445126710646,4077
1586.6870747675434,3983
1588.7291117774776,3614
1590.7706239529034,3455
1592.8116115459347,3358
1594.8520748087658,3305
1596.8920139936686,3120
1598.9314293529933,3091
1600.9703211391711,2886
1603.008689604711,2865
1605.0465350022005,2739
1607.0838575843068,2547
1609.1206576037753,2555
1611.1569353134305,2554
1613.1926909661765,2422
1615.2279248149953,2327
1617.2626371129481,2365
1619.2968281131757,2260
1621.3304980688963,2339
1623.3636472334088,2265
1625.39627586009,2267
1627.428384202396,2086
1629.459972513861,2114
1631.4910410480993,2065
1633.5215900588028,2070
1635.551619799744,2070
1637.5811305247717,1990
1639.6101224878166,1975
1641.6385959428862,1986
1643.6665511440683,2036
1645.693988345528,1955
1647.7209078015112,1984
1649.7473097663405,1918
1651.7731944944203,1929
1653.7985622402307,1942
1655.823413258333,1925
1657.847747803366,1912
1659.8715661300494,1938
1661.8948684931793,1925
1663.9176551476316,1977
1665.9399263483624,1960
1667.9616823504057,1927
1669.982923408873,1931
1672.0036497789574,1961
1674.0238617159293,1887
1676.043559475138,1830
1678.0627433120121,1945
1680.081413482059,1959
1682.0995702408654,1894
1684.117213844096,1855
1686.134344547495,1854
1688.1509626068864,1864
1690.1670682781705,1839
1692.182661817329,1876
1694.1977434804217,1872
1696.2123135235875,1776
1698.226372203043,1899
1700.2399197750851,1900
1702.2529564960905,1850
1704.2654826225112,1834
1706.277498410882,1800
1708.2890041178139,1900
1710.2999999999988,1879
1712.3104863142066,1832
1714.3204633172854,1883
1716.329931266163,1869
1718.3388904178469,1759
1720.3473410294214,1850
1722.3552833580516,1809
1724.3627176609807,1783
1726.3696441955308,1830
1728.3760632191033,1854
1730.3819749891782,1784
1732.3873797633146,1816
1734.3922777991502,1822
1736.3966693544012,1727
1738.4005546868639,1766
1740.4039340544127,1664
1742.406807715001,1724
1744.4091759266616,1738
1746.4110389475054,1767
1748.4123970357223,1744
1750.413250449582,1769
1752.4135994474318,1777
1754.4134442876993,1739
1756.4127852288902,1666
1758.4116225295893,1707
1760.4099564484595,1681
1762.407787244244,1686
1764.405115175764,1727
1766.4019405019203,1670
1768.3982634816916,1641
1770.3940843741357,1668
1772.3894034383907,1672
1774.3842209336717,1591
1776.378537119274,1654
1778.372352254571,1620
1780.3656665990156,1598
1782.3584804121397,1618
1784.3507939535534,1667
1786.3426074829463,1626
1788.3339212600863,1643
1790.3247355448211,1618
1792.3150505970766,1623
1794.3048666768573,1651
1796.2941840442477,1595
1798.2830029594106,1695
1800.2713236825884,1665
1802.2591464741004,1647
1804.2464715943465,1614
1806.2332993038058,1638
1808.2196298630352,1549
1810.2054635326708,1625
1812.190800573428,1593
1814.175641246101,1670
1816.1599858115628,1664
1818.1438345307652,1603
1820.127187664738,1601
1822.1100454745924,1596
1824.092408221516,1604
1826.0742761667766,1577
1828.055649571721,1571
1830.0365286977735,1576
1832.0169138064398,1573
1833.9968051593014,1640
1835.9762030180214,1534
1837.9551076443408,1598
1839.9335193000788,1606
1841.9114382471344,1583
1843.888864747485,1550
1845.8657990631878,1563
1847.842241456378,1593
1849.8181921892697,1500
1851.7936515241558,1535
1853.7686197234098,1619
1855.7430970494815,1575
1857.7170837649014,1539
1859.6905801322787,1609
1861.6635864143004,1508
1863.6361028737338,1512
1865.608129773424,1545
1867.5796673762961,1606
1869.5507159453537,1610
1871.521275743678,1647
1873.4913470344313,1613
1875.4609300808534,1584
1877.4300251462632,1602
1879.3986324940588,1592
1881.366752387717,1615
1883.3343850907936,1563
1885.3015308669228,1592
1887.268189979819,1584
1889.2343626932739,1673
1891.2000492711595,1621
1893.1652499774254,1605
1895.1299650761011,1581
1897.0941948312952,1567
1899.0579395071945,1625
1901.0211993680641,1662
1902.98397467825,1640
1904.9462657021745,1600
1906.9080727043415,1536
1908.869395949332,1655
1910.8302357018065,1664
1912.790592226504,1611
1914.7504657882428,1578
1916.7098566519212,1631
1918.6687650825133,1597
1920.6271913450764,1621
1922.5851357047422,1644
1924.5425984267245,1561
1926.499579776314,1607
1928.4560800188833,1570
1930.4120994198802,1611
1932.367638244833,1569
1934.32269675935,1632
1936.2772752291175,1577
1938.231373919899,1557
1940.1849930975404,1602
1942.1381330279637,1566
1944.0907939771696,1560
1946.0429762112412,1581
1947.9946799963363,1578
1949.9459055986945,1525
1951.896653284633,1585
1953.8469233205478,1540
1955.7967159729142,1585
1957.7460315082863,1540
1959.6948701932974,1582
1961.6432322946594,1559
1963.5911180791632,1581
1965.5385278136787,1488
1967.4854617651545,1603
1969.4319202006182,1546
1971.377903387176,1563
1973.3234115920136,1554
1975.268445082395,1593
1977.2130041256642,1586
1979.1570889892423,1556
1981.1006999406304,1548
1983.04383724741,1501
1984.986501177238,1527
1986.928691997853,1534
1988.8704099770712,1517
1990.811655382789,1574
1992.7524284829801,1533
1994.692729545698,1508
1996.6325588390755,1565
1998.5719166313224,1512
2000.5108031907307,1541
2002.4492187856677,1518
2004.387163684583,1530
2006.3246381560011,1503
2008.2616424685298,1532
2010.1981768908527,1509
2012.1342416917332,1454
2014.069837140014,1497
2016.0049635046162,1460
2017.9396210545406,1519
2019.8738100588666,1514
2021.8075307867502,1438
2023.740783507431,1514
2025.6735684902228,1513
2027.6058860045214,1464
2029.5377363198004,1479
2031.4691197056118,1505
2033.4000364315875,1514
2035.3304867674374,1443
2037.260470982952,1501
2039.189989347998,1540
2041.1190421325232,1482
2043.047629606554,1447
2044.9757520401945,1438
2046.9034097036288,1464
2048.8306028671195,1464
2050.7573318010086,1454
2052.683596775716,1530
2054.609398061742,1474
2056.5347359296647,1433
2058.4596106501403,1487
2060.384022493906,1481
2062.3079717317764,1407
2064.231458634646,1459
2066.1544834734873,1467
2068.077046519352,1484
2069.99914804337,1481
2071.9207883167524,1397
2073.8419676107865,1452
2075.7626861968406,1462
2077.6829443463607,1512
2079.6027423308715,1478
2081.522080421977,1496
2083.440958891362,1486
2085.359378010786,1449
2087.2773380520907,1496
2089.194839287196,1414
2091.111881988101,1466
2093.0284664268825,1489
2094.9445928756973,1487
2096.86026160678,1472
2098.775472892446,1429
2100.690227005088,1521
2102.604524217178,1444
2104.5183648012676,1433
2106.431749029985,1451
2108.34467717604,1530
2110.2571495122206,1500
2112.169166311393,1491
2114.080727846503,1480
2115.9918343905747,1500
2117.902486216711,1433
2119.8126835980956,1481
2121.722426807987,1479
2123.6317161197285,1529
2125.5405518067364,1528
2127.448934142509,1485
2129.356863400624,1528
2131.264339854737,1525
2133.1713637785815,1464
2135.077935445972,1497
2136.9840551308002,1589
2138.889723107037,1535
2140.7949396487334,1497
2142.699705030018,1537
2144.6040195250994,1523
2146.507883408264,1501
2148.4112969538774,1537
2150.3142604363848,1563
2152.2167741303097,1549
2154.1188383102535,1488
2156.0204532508997,1536
2157.9216192270064,1488
2159.822336513414,1557
2161.7226053850413,1474
2163.622426116884,1537
2165.5217989840185,1499
2167.4207242616,1563
2169.319202224862,1595
2171.2172331491165,1495
2173.1148173097563,1521
2175.0119549822507,1588
2176.90864644215,1604
2178.8048919650823,1587
2180.7006918267534,1548
2182.596046302952,1540
2184.4909556695407,1603
2186.3854202024645,1538
2188.279440177746,1560
2190.173015871487,1586
2192.066147559868,1527
2193.958835519149,1558
2195.851080025667,1553
2197.7428813558417,1559
2199.6342397861667,1586
2201.5251555932186,1546
2203.415629053651,1578
2205.3056604441986,1590
2207.19525004167,1572
2209.084398122958,1522
2210.9731049650327,1594
2212.861370844941,1603
2214.749196039812,1604
2216.636580826851,1531
2218.523525483344,1588
2220.410030286655,1558
2222.296095514226,1559
2224.1817214435805,1587
2226.066908352319,1515
2227.951656518121,1543
2229.835966218746,1582
2231.71983773203,1608
2233.6032713358913,1517
2235.486267308324,1577
2237.3688259274036,1539
2239.2509474712824,1610
2241.132632218193,1538
2243.013880446447,1572
2244.8946924344323,1554
2246.7750684606203,1582
2248.6550088035574,1571
2250.534513741871,1500
2252.413583554265,1546
2254.292218519526,1561
2256.170418916517,1555
2258.0481850241786,1526
2259.925517121534,1574
2261.8024154876825,1617
2263.678880401803,1539
2265.5549121431536,1532
2267.430510991071,1586
2269.305677224971,1540
2271.180411124348,1564
2273.0547129687766,1565
2274.9285830379076,1477
2276.8020216114737,1492
2278.6750289692845,1591
2280.5476053912294,1562
2282.4197511572766,1562
2284.2914665474727,1585
2286.162751841943,1565
2288.0336073208937,1631
2289.904033264608,1551
2291.774029953448,1538
2293.6435976678554,1586
2295.5127366883517,1507
2297.381447295534,1521
2299.2497297700825,1484
2301.1175843927526,1460
2302.9850114443825,1428
2304.852011205885,1459
2306.7185839582553,1474
2308.5847299825664,1407
2310.4504495599676,1376
2312.3157429716925,1377
2314.1806104990483,1348
2316.0450524234247,1390
2317.9090690262888,1391
2319.772660589186,1336
2321.635827393742,1380
2323.498569721661,1405
2325.3608878547248,1376
2327.2227820747967,1398
2329.0842526638157,1393
2330.945299903803,1373
2332.805924076857,1401
2334.6661254651535,1390
2336.525904350951,1367
2338.3852610165827,1400
2340.244195744464,1391
2342.102708817088,1393
2343.9608005170253,1396
2345.8184711269287,1431
2347.675720929526,1375
2349.532550207628,1394
2351.38895924412,1383
2353.24494832197,1397
2355.100517724223,1410
2356.955667734004,1389
2358.810398634514,1401
2360.664710709037,1424
2362.5186042409337,1429
2364.3720795136437,1388
2366.225136810686,1407
2368.0777764156583,1436
2369.929998612237,1435
2371.7818036841777,1467
2373.633191915315,1490
2375.484163589562,1491
2377.3347189909114,1479
2379.184858403434,1411
2381.03458211128,1416
2382.8838903986775,1426
2384.732783549936,1433
2386.5812618494406,1483
2388.4293255816588,1431
2390.2769750311327,1426
2392.1242104824883,1454
2393.971032220427,1397
2395.8174405297295,1418
2397.6634356952563,1456
2399.509018001947,1446
2401.3541877348193,1506
2403.1989451789705,1475
2405.043290619576,1386
2406.8872243418905,1449
2408.730746631247,1444
2410.5738577730594,1453
2412.4165580528183,1405
2414.258847756095,1417
2416.100727168537,1476
2417.9421965758734,1400
2419.783256263912,1460
2421.623906518538,1412
2423.4641476257157,1467
2425.303979871491,1419
2427.143403541984,1506
2428.9824189233977,1383
2430.821026302012,1506
2432.6592259641866,1522
2434.497018196361,1462
2436.33440328505,1425
2438.171381516851,1491
2440.00795317844,1472
2441.844118556569,1472
2443.6798779380724,1512
2445.5152316098606,1452
2447.3501798589255,1421
2449.1847229723357,1427
2451.0188612372403,1414
2452.8525949408663,1516
2454.6859243705203,1489
2456.518849813587,1487
2458.3513715575314,1493
2460.183489889895,1453
2462.015205098301,1468
2463.8465174704493,1465
2465.67742729412,1507
2467.5079348571717,1474
2469.338040447542,1501
2471.1677443532476,1499
2472.9970468623833,1451
2474.825948263123,1507
2476.6544488437207,1463
2478.482548892508,1525
2480.310248697896,1479
2482.137548548374,1490
2483.9644487325118,1505
2485.790949538956,1496
2487.617051256433,1527
2489.44275417375,1513
2491.26805857979,1553
2493.0929647635157,1519
2494.917473013971,1573
2496.741583620276,1531
2498.5652968716304,1534
2500.3886130573137,1617
2502.2115324666834,1574
2504.0340553891765,1595
2505.856182114308,1510
2507.6779129316733,1554
2509.499248130945,1611
2511.3201880018764,1543
2513.140732834298,1545
2514.9608829181198,1603
2516.780638543331,1569
2518.6,1657
2520.418967578273,1680
2522.237541568376,1591
2524.0557222606144,1586
2525.8735099453706,1619
2527.6909049131086,1665
2529.507907454368,1626
2531.32451785977,1669
2533.140736420014,1692
2534.9565634258774,1654
2536.771999168218,1704
2538.5870439379714,1681
2540.4016980261526,1708
2542.2159617238544,1700
2544.02983532225,1772
2545.8433191125914,1716
2547.656413386209,1865
2549.4691184345115,1881
2551.2814345489874,1875
2553.093362021204,1828
2554.904901142808,1813
2556.716052205523,1859
2558.526815501153,1797
2560.3371913215824,1859
2562.147179958771,1896
2563.956781704761,1883
2565.7659968516705,1944
2567.5748256916986,1935
2569.3832685171224,1934
2571.1913256202984,1942
2572.9989972936614,1986
2574.806283829725,2009
2576.613185521084,1970
2578.4197026604074,1986
2580.2258355404483,1928
2582.031584454035,2048
2583.836949694077,2050
2585.6419315535613,2056
2587.4465303255533,2016
2589.2507463032002,2082
2591.0545797797245,2031
2592.8580310484303,2178
2594.6611004026995,2081
2596.463788135992,2074
2598.266094541849,2124
2600.0680199138874,2093
2601.869564545807,2114
2603.670728731383,2076
2605.4715127644704,2143
2607.2719169390048,2190
2609.071941548998,2156
2610.8715868885433,2154
2612.670853251811,2083
2614.469740933052,2142
2616.268250226594,2134
2618.0663814268455,2161
2619.864134828292,2093
2621.6615107255006,2064
2623.458509413115,2045
2625.2551311858597,2086
2627.0513763385347,2046
2628.8472451660223,1904
2630.6427379632833,2005
2632.4378550253564,1954
2634.232596647359,1981
2636.026963124488,1948
2637.8209547520187,2025
2639.6145718253065,1866
2641.407814639785,1874
2643.200683490966,1891
2644.9931786744414,1908
2646.7853004858807,1854
2648.577049221034,1843
2650.3684251757277,1843
2652.1594286458712,1810
2653.9500599274484,1796
2655.740319316525,1654
2657.5302071092437,1731
2659.3197236018286,1728
2661.10886909058,1720
2662.8976438718782,1755
2664.686048242183,1738
2666.4740824980327,1713
2668.2617469360443,1662
2670.0490418529134,1689
2671.8359675454153,1632
2673.622524310403,1651
2675.408712444811,1618
2677.1945322456495,1643
2678.979984010009,1610
2680.76506803506,1653
2682.5497846180497,1575
2684.334134056306,1562
2686.1181166472343,1523
2687.9017326883213,1559
2689.6849824771293,1539
2691.4678663113013,1558
2693.2503844885596,1531
2695.032537306705,1520
2696.8143250636167,1555
2698.5957480572542,1531
2700.3768065856534,1442
2702.1575009469316,1452
2703.937831439283,1478
2705.717798360982,1454
2707.4974020103837,1440
2709.276642685917,1432
2711.055520686095,1431
2712.834036309506,1473
2714.612189854819,1428
2716.389981620782,1408
2718.1674119062204,1425
2719.944481010041,1415
2721.721189231226,1439
2723.4975368688415,1408
2725.273524222027,1429
2727.0491515900053,1395
2728.824419272075,1377
2730.5993275676146,1430
2732.3738767760838,1468
2734.148067197016,1408
2735.921899130031,1422
2737.6953728748194,1351
2739.468488731156,1409
2741.2412469988926,1375
2743.0136479779617,1349
2744.785691968372,1390
2746.5573792702116,1410
2748.3287101836504,1382
2750.099685008934,1377
2751.870304046388,1337
2753.640567596418,1391
2755.4104759595057,1406
2757.1800294362156,1376
2758.949228327187,1421
2760.7180729331412,1392
2762.486563554877,1307
2764.254700493272,1355
2766.022484049284,1428
2767.789914523947,1332
2769.5569922183786,1354
2771.3237174337705,1355
2773.090090471394,1412
2774.8561116326036,1362
2776.6217812188274,1359
2778.3870995315756,1386
2780.1520668724356,1335
2781.9166835430747,1333
2783.6809498452394,1344
2785.444866080754,1426
2787.2084325515225,1333
2788.971649559527,1332
2790.73451740683,1356
2792.4970363955713,1363
2794.2592068279705,1323
2796.0210290063264,1353
2797.7825032330147,1327
2799.543629810493,1288
2801.304409041296,1381
2803.0648412280366,1358
2804.8249266734088,1362
2806.5846656801846,1375
2808.344058551212,1379
2810.1031055894246,1362
2811.8618070978273,1375
2813.6201633795085,1327
2815.378174737636,1341
2817.1358414754536,1335
2818.893163896285,1385
2820.6501423035334,1260
2822.4067770006814,1318
2824.1630682912883,1303
2825.9190164789957,1342
2827.6746218675207,1340
2829.429884760661,1323
2831.184805462294,1352
2832.9393842763743,1412
2834.693621506936,1353
2836.4475174580916,1411
2838.201072434034,1400
2839.954286739034,1406
2841.707160677441,1391
2843.459694553685,1314
2845.2118886722724,1379
2846.96374333779,1331
2848.7152588549034,1362
2850.4664355283567,1375
2852.217273662973,1358
2853.9677735636546,1356
2855.7179355353833,1358
2857.4677598832186,1326
2859.217246912299,1332
2860.9663969278427,1347
2862.715210235146,1388
2864.4636871395846,1381
2866.211827946614,1302
2867.9596329617652,1320
2869.7071024906536,1379
2871.4542368389684,1340
2873.20103631248,1316
2874.947501217038,1303
2876.6936318585695,1314
2878.4394285430812,1338
2880.1848915766604,1356
2881.9300212654707,1358
2883.6748179157553,1347
2885.4192818338374,1302
2887.1634133261173,1334
2888.907212699077,1341
2890.6506802592744,1372
2892.393816313348,1321
2894.1366211680142,1365
2895.8790951300693,1321
2897.621238506388,1328
2899.363051603925,1382
2901.1045347297118,1319
2902.8456881908596,1297
2904.58651229456,1321
2906.327007348081,1337
2908.067173658772,1332
2909.8070115340597,1295
2911.5465212814497,1360
2913.285703208527,1300
2915.0245576229563,1389
2916.7630848324807,1334
2918.5012851449196,1321
2920.2391588681758,1331
2921.976706310227,1240
2923.7139277791334,1256
2925.4508235830313,1357
2927.187394030137,1323
2928.923639428745,1328
2930.6595600872306,1316
2932.395156314046,1296
2934.1304284177218,1298
2935.8653767068713,1357
2937.6000014901815,1306
2939.3343030764227,1342
2941.068281774442,1303
2942.8019378931644,1297
2944.5352717415976,1285
2946.2682836288236,1404
2948.0009738640065,1347
2949.7333427563885,1301
2951.465390615289,1319
2953.1971177501086,1352
2954.9285244703265,1346
2956.6596110855,1316
2958.3903779052657,1320
2960.1208252393385,1302
2961.8509533975125,1312
2963.5807626896617,1362
2965.3102534257378,1354
2967.0394259157715,1317
2968.768280469873,1334
2970.496817398232,1304
2972.2250370111146,1299
2973.952939618869,1363
2975.6805255319196,1344
2977.4077950607707,1382
2979.134748516006,1316
2980.861386208289,1335
2982.587708448359,1323
2984.313715547037,1320
2986.039407815222,1309
2987.764785563891,1344
2989.489849104102,1337
2991.2145987469908,1329
2992.9390348037705,1312
2994.6631575857346,1368
2996.3869674042576,1305
2998.1104645707887,1346
2999.83364939686,1322
3001.5565221940783,1293
3003.2790832741334,1239
3005.0013329487924,1267
3006.7232715298996,1302
3008.4448993293804,1323
3010.166216659239,1334
3011.887223831558,1289
3013.607921158498,1312
3015.3283089522993,1325
3017.0483875252826,1302
3018.7681571898443,1304
3020.4876182584626,1335
3022.2067710436927,1298
3023.9256158581707,1285
3025.644153014609,1306
3027.362382825801,1362
3029.0803056046193,1322
3030.797921664012,1303
3032.5152313170106,1327
3034.2322348767225,1290
3035.9489326563353,1306
3037.665324969115,1270
3039.3814121284063,1378
3041.097194447633,1315
3042.812672240299,1350
3044.5278458199855,1369
3046.2427155003525,1317
3047.9572815951406,1363
3049.671544418167,1339
3051.38550428333,1405
3053.0991615046073,1341
3054.812516396051,1312
3056.5255692717974,1331
3058.2383204460575,1307
3059.9507702331257,1311
3061.662918947372,1278
3063.3747669032446,1353
3065.0863144152736,1303
3066.7975617980674,1239
3068.508509366309,1318
3070.219157434767,1294
3071.9295063182844,1327
3073.639556331785,1323
3075.3493077902704,1322
3077.058761008821,1311
3078.7679163025964,1316
3080.476773986837,1310
3082.1853343768594,1348
3083.89359778806,1291
3085.6015645359153,1331
3087.3092349359786,1322
3089.016609303884,1331
3090.7236879553434,1312
3092.4304712061476,1341
3094.136959372166,1323
3095.843152769349,1277
3097.5490517137237,1277
3099.2546565213966,1365
3100.959967508554,1339
3102.66498499146,1326
3104.3697092864577,1291
3106.0741407099695,1322
3107.778279578498,1332
3109.482126208622,1371
3111.1856809170004,1376
3112.8889440203716,1400
3114.5919158355528,1342
3116.294596679439,1346
3117.996986869006,1383
3119.6990867213062,1369
3121.4008965534726,1357
3123.102416682717,1322
3124.803647426329,1317
3126.5045891016784,1325
3128.205242026213,1379
3129.90560651746,1382
3131.605682893025,1331
3133.3054714705922,1313
3135.0049725679282,1348
3136.7041865028714,1339
3138.4031135933465,1374
3140.101754157353,1380
3141.800108512971,1389
3143.498176978357,1312
3145.1959598717494,1294
3146.8934575114636,1308
3148.5906702158954,1312
3150.2875983035183,1276
3151.9842420928853,1329
3153.680601902627,1350
3155.376678051456,1312
3157.07247085816,1375
3158.767980641609,1364
3160.463207720748,1298
3162.158152414606,1329
3163.8528150422862,1303
3165.5471959229726,1334
3167.2412953759303,1275
3168.9351137204976,1230
3170.628651276098,1302
3172.3219083622307,1366
3174.014885298474,1325
3175.707582404485,1337
3177.4000000000005,1320
3179.092138404835,1323
3180.7839979388846,1348
3182.47557892212,1345
3184.166881674594,1314
3185.8579065164386,1333
3187.5486537678626,1280
3189.2391237491547,1304
3190.9293167806827,1306
3192.6192331828934,1297
3194.3088732763117,1307
3195.998237381542,1306
3197.687325819268,1259
3199.376138910251,1318
3201.064676975334,1286
3202.7529403354347,1232
3204.4409293115523,1272
3206.1286442247647,1304
3207.816085396229,1260
3209.5032531471825,1280
3211.190147798936,1235
3212.8767696728846,1252
3214.5631190905015,1247
3216.2491963733373,1207
3217.9350018430214,1252
3219.6205358212637,1274
3221.305798629851,1240
3222.990790590651,1286
3224.6755120256103,1256
3226.359963256751,1303
3228.0441446061795,1218
3229.7280563960758,1248
3231.411698948703,1238
3233.0950725863995,1244
3234.778177631587,1263
3236.461014406761,1315
3238.1435832345005,1277
3239.8258844374595,1325
3241.507918338374,1273
3243.1896852600576,1292
3244.8711855254023,1249
3246.552419457381,1253
3248.233387379042,1293
3249.914089613516,1281
3251.59452648401,1297
3253.274698313813,1272
3254.95460542629,1278
3256.6342481448855,1266
3258.313626793125,1223
3259.9927416946084,1235
3261.6715931730196,1210
3263.3501815521176,1259
3265.0285071557437,1244
3266.706570307815,1214
3268.3843713323286,1204
3270.0619105533615,1222
3271.739188295068,1230
3273.4162048816834,1281
3275.0929606375184,1274
3276.769455886966,1294
3278.445690954498,1309
3280.1216661646613,1284
3281.797381842087,1240
3283.4728383114807,1276
3285.1480358976296,1261
3286.8229749253996,1222
3288.4976557197333,1286
3290.172078605655,1234
3291.846243908266,1267
3293.5201519527463,1253
3295.193803064357,1236
3296.8671975684374,1273
3298.5403357904024,1292
3300.21321805575,1270
3301.8858446900567,1260
3303.558216018975,1253
3305.23033236824,1227
3306.9021940636603,1260
3308.57380143113,1274
3310.2451547966184,1276
3311.916254486174,1227
3313.5871008259246,1243
3315.2576941420766,1282
3316.9280347609147,1251
3318.5981230088046,1255
3320.2679592121895,1214
3321.9375436975924,1267
3323.606876791612,1272
3325.27595882093,1247
3326.944790112305,1235
3328.6133709925753,1240
3330.2817017886573,1283
3331.949782827547,1316
3333.617614436319,1282
3335.2851969421245,1238
3336.952530672199,1288
3338.619615953853,1280
3340.286453114475,1274
3341.9530424815357,1284
3343.619384382583,1223
3345.2854791452437,1258
3346.951327097224,1249
3348.6169285663073,1269
3350.2822838803577,1281
3351.947393367319,1271
3353.61225735521,1265
3355.2768761721345,1311
3356.9412501462693,1256
3358.605379605873,1292
3360.2692648792827,1254
3361.9329062949146,1217
3363.596304181263,1239
