CollectionTime,9/20/2024 12:05:21 PM
ExposureUsed,3
CalibratedSpectrum
-962.7078968117929,680
-959.9714848408522,715
-957.2358232597828,715
-954.5009119013725,731
-951.7667505983302,753
-949.0333391832855,744
-946.3006774887896,787
-943.5687653473143,764
-940.837602591253,756
-938.1071890529199,758
-935.3775245645503,767
-932.6486089583007,755
-929.9204420662485,788
-927.1930237203925,749
-924.4663537526524,752
-921.7404319948689,767
-919.0152582788041,786
-916.2908324361409,750
-913.5671542984834,751
-910.8442236973568,741
-908.1220404642074,686
-905.4006044304027,739
-902.679915427231,710
-899.959973285902,736
-897.2407778375464,730
-894.5223289132158,709
-891.8046263438832,723
-889.0876699604426,710
-886.3714595937089,707
-883.6559950744183,722
-880.9412762332282,725
-878.2273029007168,722
-875.5140749073835,696
-872.8015920836489,685
-870.0898542598545,650
-867.3788612662631,702
-864.6686129330585,744
-861.9591090903457,709
-859.2503495681506,719
-856.5423341964203,667
-853.8350628050229,685
-851.1285352237478,659
-848.4227512823054,725
-845.7177108103272,736
-843.0134136373656,727
-840.3098595928943,710
-837.6070485063082,678
-834.9049802069229,720
-832.2036545239757,667
-829.5030712866244,720
-826.8032303239481,726
-824.1041314649472,737
-821.4057745385428,700
-818.7081593735775,721
-816.0112857988148,694
-813.3151536429393,705
-810.6197627345566,704
-807.9251129021936,704
-805.2312039742981,722
-802.5380357792392,727
-799.8456081453069,732
-797.1539209007124,728
-794.462973873588,709
-791.772766891987,757
-789.083299783884,757
-786.3945723771743,731
-783.7065844996748,728
-781.0193359791231,730
-778.3328266431781,755
-775.6470563194197,745
-772.9620248353489,710
-770.2777320183878,723
-767.5941776958798,713
-764.9113616950891,739
-762.2292838432011,730
-759.5479439673222,709
-756.8673418944801,757
-754.1874774516235,732
-751.5083504656222,673
-748.8299607632671,708
-746.15230817127,759
-743.475392516264,754
-740.7992136248035,767
-738.1237713233636,749
-735.4490654383407,718
-732.7750957960521,743
-730.1018622227365,733
-727.4293645445534,768
-724.7576025875837,798
-722.0865761778291,779
-719.4162851412126,786
-716.7467293035781,776
-714.0779084906909,776
-711.409822528237,785
-708.7424712418238,782
-706.0758544569796,840
-703.4099719991541,801
-700.7448236937178,812
-698.0804093659622,787
-695.4167288411002,827
-692.7537819442656,821
-690.0915685005134,815
-687.4300883348199,797
-684.7693412720819,854
-682.1093271371178,829
-679.4500457546669,802
-676.7914969493897,800
-674.1336805458676,802
-671.4765963686034,818
-668.8202442420206,827
-666.1646239904642,828
-663.5097354382001,802
-660.8555784094151,822
-658.2021527282176,812
-655.5494582186366,898
-652.8974947046223,874
-650.2462620100463,854
-647.5957599587009,872
-644.9459883742998,879
-642.2969470804776,918
-639.6486359007902,942
-637.0010546587141,889
-634.3542031776476,873
-631.7080812809096,879
-629.0626887917401,863
-626.4180255333008,851
-623.7740913286734,904
-621.1308860008619,863
-618.4884093727904,854
-615.8466612673046,859
-613.2056415071715,888
-610.5653499150785,887
-607.9257863136347,909
-605.28695052537,872
-602.6488423727357,881
-600.0114616781036,903
-597.3748082637674,891
-594.7388819519412,874
-592.1036825647604,882
-589.4692099242818,866
-586.8354638524829,912
-584.2024441712624,931
-581.5701507024403,903
-578.9385832677575,941
-576.3077416888759,951
-573.6776257873787,933
-571.0482353847704,856
-568.4195703024757,853
-565.7916303618415,853
-563.164415384135,927
-560.5379251905453,938
-557.9121596021815,870
-555.2871184400748,900
-552.6628015251767,894
-550.0392086783606,876
-547.4163397204204,918
-544.794194472071,956
-542.1727727539491,936
-539.5520743866118,920
-536.9320991905377,978
-534.3128469861261,969
-531.6943175936979,980
-529.0765108334947,1053
-526.4594265256793,1119
-523.8430644903358,1334
-521.2274245474689,1403
-518.612506517005,1483
-515.9983102187913,1461
-513.3848354725959,1550
-510.77208209810846,1652
-508.16004991493924,1627
-505.5487387426199,1789
-502.9381484006032,1861
-500.3282787082628,1978
-497.71912948489364,1951
-495.1107005497117,1803
-492.5029917218539,1655
-489.8960028203786,1506
-487.28973366426493,1376
-484.68418407241325,1222
-482.07935386364494,1185
-479.47524285670266,1174
-476.87185087025,1171
-474.2691777228715,1208
-471.66722323307334,1194
-469.0659872192821,1135
-466.4654694998459,1175
-463.86566989303384,1153
-461.26658821703614,1122
-458.66822428996414,1126
-456.07057792985,1136
-453.4736489546475,1076
-450.877437182231,1073
-448.28194243039627,1117
-445.68716451686,1085
-443.09310325926003,1037
-440.49975847515555,1077
-437.9071299820263,1054
-435.31521759727354,1066
-432.72402113821954,1101
-430.13354042210767,1090
-427.5437752661022,1097
-424.95472548728867,1149
-422.36639090267386,1133
-419.7787713291855,1223
-417.1918665836721,1218
-414.60567648290385,1181
-412.0202008435715,1167
-409.4354394822874,1110
-406.8513922155845,1234
-404.26805885991723,1220
-401.685439231661,1186
-399.103533147112,1194
-396.522340422488,1194
-393.9418608739278,1212
-391.3620943174908,1147
-388.7830405691583,1039
-386.2046994448317,1022
-383.6270707603344,1002
-381.05015433141045,955
-378.473949973725,931
-375.8984575028645,855
-373.32367673433623,736
-370.74960748356875,742
-368.1762495659117,750
-365.60360279663576,710
-363.03166699093265,611
-360.4604419639154,564
-357.8899275306178,547
-355.32012350599507,546
-352.7510297049233,522
-350.1826459421999,513
-347.61497203254316,524
-345.04800779059235,542
-342.4817530309082,545
-339.91620756797226,555
-337.35137121618743,542
-334.7872437898774,475
-332.22382510328725,499
-329.66111497058273,495
-327.09911320585127,502
-324.53781962310075,510
-321.9772340362607,511
-319.4173562591816,547
-316.8581861056348,535
-314.2997233893127,543
-311.7419679238294,561
-309.1849195227194,578
-306.62857799943856,594
-304.0729431673641,547
-301.51801483979375,594
-298.963792829947,559
-296.41027695096386,518
-293.85746701590574,536
-291.3053628377552,583
-288.7539642294155,616
-286.2032710037115,614
-283.65328297338897,641
-281.1039999511146,648
-278.5554217494762,638
-276.007548180983,685
-273.4603790580651,607
-270.9139141930734,574
-268.3681533982807,646
-265.8230964858798,670
-263.27874326798565,662
-260.7350935566336,658
-258.1921471637804,687
-255.6499039013039,759
-253.10836358100266,740
-250.56752601459698,663
-248.02739101372765,722
-245.48795838995704,815
-242.94922795476816,735
-240.41119951956557,742
-237.8738728956746,735
-235.33724789434166,750
-232.80132432673452,786
-230.2661020039418,762
-227.73158073697357,809
-225.19776033676033,844
-222.66464061415422,913
-220.1322213799284,961
-217.60050244477725,908
-215.06948361931552,840
-212.53916471408013,850
-210.00954553952818,845
-207.48062590603843,786
-204.9524056239104,744
-202.4248845033651,757
-199.8980623545441,866
-197.37193898751036,959
-194.84651421224817,980
-192.32178783866232,847
-189.79775967657952,903
-187.27442953574644,922
-184.7517972258321,957
-182.2298625564256,844
-179.7086253370378,820
-177.18808537710026,892
-174.66824248596583,1040
-172.14909647290835,1047
-169.6306471471229,986
-167.11289431772548,899
-164.59583779375328,973
-162.07947738416453,1194
-159.5638128978386,1385
-157.04884414357605,1404
-154.53457093009854,1450
-152.02099306604828,1167
-149.50811035998936,1058
-146.99592262040665,1180
-144.48442965570587,1356
-141.97363127421409,1486
-139.46352728417958,1554
-136.95411749377126,1570
-134.44540171107985,1368
-131.93737974411636,1263
-129.43005140081357,1385
-126.92341648902493,1811
-124.41747481652521,2296
-121.91222619101006,3083
-119.40767042009657,3576
-116.90380731132257,3971
-114.40063667214702,4689
-111.8981583099503,5324
-109.3963720320337,6122
-106.89527764561933,6419
-104.39487495785067,6895
-101.89516377579241,9301
-99.39614390642998,14578
-96.89781515667039,18993
-94.40017733334128,19625
-91.90323024319173,18380
-89.40697369289148,14476
-86.91140748903172,8463
-84.41653143812482,7293
-81.92234534660395,8469
-79.42884902082358,9596
-76.93604226705907,9742
-74.4439248915071,10341
-71.95249670028534,9839
-69.46175749943245,8368
-66.97170709490854,7587
-64.48234529259423,7332
-61.99367189829195,8462
-59.50568671772464,8421
-57.01838955653636,9328
-54.53178022029283,11194
-52.045858514480074,13010
-49.560624244506016,14871
-47.07607721569923,16203
-44.59221723330904,19981
-42.10904410250669,22351
-39.62655762838392,23662
-37.14475761595372,23552
-34.66364387015028,29032
-32.18321619582866,27810
-29.70347439776515,28160
-27.224418280657005,31399
-24.74604764912317,34878
-22.26836230770266,44122
-19.7913620608565,65034
-17.315046712966478,65034
-14.83941606833514,65034
-12.36446993118659,65034
-9.89020810566592,65034
-7.416630395839093,65034
-4.94373660569363,65034
-2.471526539137585,65034
-6.821210263296962E-13,65034
2.47084320796705,65034
4.941003281093458,65034
7.410480415786196,65034
9.879274808531363,65034
12.347386655893956,65034
14.814816154518212,65034
17.28156350112681,65034
19.74762889252179,65034
22.21301252558385,25839
24.67771459727237,7220
27.141735304626195,6231
29.605074844762612,4965
32.06773341487792,4204
34.52971121224755,4181
36.99100843422559,4105
39.45162527824516,3646
41.91156194181792,3866
44.370818622535126,3428
46.82939551806646,2921
49.287292826160524,3448
51.74451074464503,3180
54.201049471426245,2699
56.65690920448981,2490
59.112090141899785,2575
61.56659248179983,2528
64.02041642241159,2546
66.4735621620365,2527
68.92602989905402,2682
71.37781983192338,2457
73.82893215918205,2037
76.27936707944684,1761
78.72912479141326,2126
81.17820549385567,1801
83.62660938562783,1502
86.07433666566146,1466
88.5213875329681,1417
90.96776218663751,1553
93.41346082583925,1903
95.85848364982041,2188
98.30283085790859,1822
100.7465026495089,1685
103.18949922410604,1697
105.63182078126385,1353
108.07346752062438,1527
110.51443964190923,1404
112.95473734491827,1283
115.39436082953114,1356
117.83331029570547,1585
120.27158594347827,1601
122.7091879729652,1608
125.1461165843615,1403
127.58237197794062,1216
130.01795435405518,1153
132.4528639131364,1287
134.88710085569494,1403
137.32066538231982,1492
139.75355769367923,1220
142.1857779905207,1212
144.61732647366978,1209
147.04820334403132,1292
149.47840880258934,1367
151.90794305040674,1428
154.33680628862487,1439
156.76499871846443,1553
159.19252054122433,1842
161.61937195828352,1928
164.04555317109896,2068
166.47106438120693,2291
168.89590579022217,2569
171.320077599839,2854
173.7435800118302,2930
176.16641322804742,2958
178.58857745042144,3193
181.01007288096173,3316
183.43089972175687,3271
185.85105817497413,3245
188.27054844285988,3203
190.6893707277394,3252
193.10752523201643,3147
195.5250121581745,3432
197.9418317087751,3418
200.3579840864594,3437
202.7734694939469,3507
205.18828813403627,3747
207.6024402096051,3743
210.01592592360964,3634
212.42874547908548,3602
214.84089907914665,3472
217.2523869269868,3462
219.66320922587727,3505
222.0733661791695,3495
224.48285799029293,3512
226.8916848627572,3692
229.29984700014882,3615
231.7073446061355,3698
234.11417788446204,3714
236.520347038953,3789
238.92585227351185,3833
241.33069379212054,3926
243.73487179884035,3937
246.1383864978112,4035
248.541238093252,4088
250.9434267894609,4078
253.34495279081432,4138
255.74581630176783,4212
258.1460175268563,4082
260.54555667069314,4246
262.9444339379703,4308
265.3426495334594,4151
267.7402036620107,3955
270.1370965285529,3749
272.53332833809407,3533
274.9288992957214,3515
277.32380960660055,3344
279.718059475976,3261
282.1116491091717,3315
284.5045787115897,3185
286.89684848871195,3167
289.2884586460981,3198
291.67940938938807,3299
294.0697009242996,3175
296.4593334566299,3205
298.84830719225477,3063
301.23662233712923,3087
303.6242790972866,3011
306.01127767884,2997
308.39761828798066,2895
310.78330113097934,2853
313.16832641418534,2818
315.5526943440269,2748
317.9364051270112,2696
320.3194589697242,2772
322.70185607883093,2827
325.0835966610754,2671
327.4646809232805,2695
329.8451090723478,2721
332.2248813152577,2662
334.6039978590701,2691
336.9824589109231,2629
339.36026467803447,2684
341.7374153677,2511
344.113911187295,2608
346.48975234427337,2583
348.8649390461686,2630
351.2394715005918,2557
353.61334991523415,2519
355.9865744978655,2555
358.35914545633375,2539
360.73106299856715,2549
363.10232733257146,2475
365.47293866643247,2551
367.84289720831396,2447
370.2122031664593,2451
372.5808567491905,2445
374.9488581649083,2437
377.31620762209275,2368
379.6829053293021,2393
382.0489514951745,2342
384.4143463284262,2322
386.7790900378528,2394
389.14318283232853,2414
391.50662492080653,2356
393.86941651231916,2507
396.23155781597745,2478
398.5930490409713,2374
400.9538903965696,2296
403.3140820921202,2295
405.6736243370498,2305
408.03251734086336,2295
410.3907613131465,2282
412.74835646356166,2330
415.10530300185144,2353
417.4616011378372,2308
419.81725108141893,2287
422.1722530425758,2314
424.5266072313656,2361
426.880313857925,2337
429.2333731324701,2301
431.58578526529516,2253
433.9375504667738,2297
436.2886689473588,2355
438.63914091758113,2294
440.9889665880513,2247
443.33814616945835,2241
445.68667987257015,2287
448.03456790823395,2224
450.3818104873759,2265
452.72840782100013,2185
455.07436012019105,2189
457.41966759611057,2243
459.7643304600007,2206
462.10834892318155,2228
464.4517231970525,2179
466.79445349309174,2184
469.1365400228566,2223
471.4779829979826,2173
473.81878263018564,2283
476.15893913125876,2223
478.4984527130747,2323
480.8373235875855,2507
483.17555196682144,2486
485.5131380628919,2508
487.8500820879857,2557
490.1863842543697,2775
492.52204477439034,2954
494.8570638604725,3280
497.1914417251204,3531
499.52517858091653,3918
501.85827464052306,3990
504.19073011668036,4159
506.5225452222086,4185
508.85372017000566,4057
511.18425517304956,3979
513.514150444396,4526
515.8434061971808,5767
518.1720226446176,6749
520.4999999999999,7009
522.8273384766991,6548
525.1540382881666,5980
527.480099647932,5407
529.8055227696037,4367
532.1303078668694,3374
534.454455153496,2750
536.777964843328,2604
539.1008371502907,2393
541.4230722883866,2290
543.744670471698,2312
546.0656319143858,2209
548.3859568306899,2302
550.7056454349294,2290
553.0246979415016,2238
555.3431145648834,2245
557.6608955196306,2169
559.978041020377,2190
562.2945512818363,2192
564.6104265188006,2250
566.9256669461412,2306
569.2402727788082,2271
571.5542442318302,2319
573.8675815203156,2330
576.1802848594508,2343
578.4923544645015,2371
580.8037905508126,2386
583.114593333807,2357
585.4247630289875,2310
587.7342998519354,2299
590.0432040183106,2359
592.3514757438526,2406
594.6591152443794,2358
596.9661227357875,2365
599.2724984340531,2275
601.578242555231,2276
603.8833553154542,2233
606.1878369309362,2221
608.4916876179676,2283
610.7949075929192,2280
613.0974970722403,2268
615.3994562724587,2290
617.7007854101818,2266
620.0014847020951,2357
622.3015543649641,2342
624.6009946156324,2299
626.8998056710224,2339
629.1979877481361,2291
631.4955410640538,2334
633.7924658359349,2380
636.0887622810175,2384
638.3844306166192,2365
640.6794710601358,2269
642.9738838290426,2312
645.2676691408932,2392
647.5608272133207,2441
649.853358264037,2426
652.1452625108324,2450
654.4365401715764,2434
656.7271914642178,2426
659.0172166067838,2467
661.3066158173809,2330
663.5953893141935,2395
665.8835373154867,2376
668.1710600396028,2371
670.4579577049639,2378
672.7442305300709,2492
675.0298787335033,2400
677.3149025339197,2374
679.599302150058,2342
681.8830778007342,2372
684.1662297048437,2402
686.4487580813608,2369
688.7306631493387,2415
691.0119451279091,2453
693.2926042362834,2361
695.5726406937516,2332
697.8520547196814,2348
700.1308465335215,2257
702.4090163547982,2332
704.6865644031171,2341
706.9634908981619,2290
709.2397960596965,2362
711.5154801075631,2340
713.7905432616823,2314
716.0649857420548,2324
718.3388077687592,2266
720.612009561953,2301
722.8845913418733,2315
725.1565533288352,2322
727.427895743234,2289
729.6986188055427,2334
731.9687227363137,2289
734.238207756178,2251
736.5070740858458,2343
738.7753219461066,2305
741.0429515578281,2321
743.3099631419569,2384
745.5763569195191,2284
747.8421331116193,2304
750.1072919394409,2284
752.3718336242467,2240
754.6357583873777,2288
756.8990664502545,2330
759.1617580343765,2305
761.423833361321,2282
763.6852926527457,2278
765.9461361303862,2307
768.206364016058,2271
770.4659765316536,2335
772.7249738991469,2348
774.9833563405886,2250
777.2411240781092,2322
779.4982773339183,2330
781.7548163303044,2255
784.010741289634,2312
786.2660524343538,2395
788.5207499869881,2341
790.7748341701416,2395
793.0283052064964,2355
795.2811633188143,2384
797.5334087299362,2441
799.7850416627813,2421
802.0360623403484,2418
804.2864709857143,2419
806.5362678220353,2378
808.7854530725468,2326
811.0340269605625,2352
813.2819897094754,2350
815.5293415427581,2384
817.77608268396,2389
820.0222133567116,2328
822.2677337847211,2341
824.5126441917765,2354
826.7569448017433,2382
829.0006358385675,2359
831.2437175262731,2417
833.4861900889629,2367
835.7280537508192,2383
837.9693087361026,2384
840.2099552691533,2459
842.4499935743896,2382
844.689423876309,2345
846.9282463994886,2405
849.1664613685833,2395
851.4040690083276,2395
853.6410695435349,2438
855.877463199097,2318
858.1132501999847,2388
860.3484307712487,2402
862.5830051380175,2411
864.8169735254988,2466
867.0503361589791,2440
869.2830932638243,2343
871.5152450654786,2507
873.7467917894654,2413
875.9777336613873,2419
878.2080709069252,2445
880.4378037518389,2404
882.666932421968,2432
884.8954571432301,2465
887.1233781416219,2410
889.3506956432192,2453
891.5774098741766,2479
893.803521060728,2406
896.0290294291852,2442
898.2539352059397,2450
900.4782386174619,2444
902.7019398903011,2457
904.925039251085,2546
907.147536926521,2445
909.3694331433943,2455
911.59072812857,2509
913.8114221089921,2558
916.0315153116827,2399
918.2510079637437,2493
920.4699002923547,2555
922.6881925247761,2464
924.905884888345,2401
927.1229776104793,2463
929.3394709186747,2358
931.555365040506,2527
933.7706602036275,2461
935.9853566357709,2429
938.1994545647489,2502
940.4129542184515,2559
942.6258558248488,2525
944.8381596119883,2457
947.0498658079974,2482
949.2609746410825,2454
951.4714863395287,2462
953.6814011316998,2443
955.8907192460387,2460
958.0994409110671,2480
960.3075663553858,2452
962.5150958076741,2383
964.7220294966913,2286
966.928367651274,2376
969.1341105003388,2405
971.3392582728806,2359
973.5438111979742,2371
975.747769504772,2335
977.9511334225061,2326
980.153903180487,2299
982.3560790081052,2399
984.5576611348289,2290
986.7586497902058,2306
988.9590452038618,2279
991.158847605503,2214
993.3580572249133,2230
995.5566742919558,2161
997.7546990365728,2106
999.952131688785,2066
1002.1489724786926,2104
1004.3452216364743,2038
1006.5408793923874,2060
1008.7359459767691,2092
1010.9304216200343,2006
1013.1243065526781,2025
1015.3176010052733,2046
1017.510305208472,1973
1019.7024193930064,1969
1021.8939437896848,2059
1024.0848786293977,2011
1026.2752241431122,1971
1028.4649805618747,1992
1030.6541481168115,1970
1032.842727039127,1950
1035.0307175601051,1947
1037.2181199111074,1963
1039.4049343235752,1914
1041.591161029029,1942
1043.7768002590683,1997
1045.9618522453698,1924
1048.1463172196918,1967
1050.3301954138697,1953
1052.513487059818,1910
1054.69619238953,1923
1056.8783116350783,1924
1059.0598450286152,1808
1061.2407928023704,1950
1063.4211551886528,1952
1065.6009324198508,1914
1067.780124728432,1908
1069.9587323469414,1897
1072.1367555080046,1946
1074.314194444325,1894
1076.4910493886855,1892
1078.667320573947,1881
1080.843008233051,1905
1083.0181125990161,1923
1085.1926339049414,1862
1087.3665723840027,1919
1089.5399282694575,1904
1091.7127017946405,1880
1093.8848931929647,1846
1096.0565026979243,1832
1098.2275305430899,1788
1100.3979769621128,1849
1102.567842188722,1879
1104.737126456726,1829
1106.9058300000124,1855
1109.0739530525475,1854
1111.2414958483764,1830
1113.4084586216231,1798
1115.5748416064907,1792
1117.7406450372605,1796
1119.9058691482942,1835
1122.0705141740304,1881
1124.2345803489884,1830
1126.3980679077658,1844
1128.5609770850388,1788
1130.7233081155623,1878
1132.8850612341707,1829
1135.0462366757774,1766
1137.2068346753745,1714
1139.3668554680326,1753
1141.526299288901,1733
1143.68516637321,1737
1145.8434569562655,1835
1148.001171273455,1796
1150.158309560244,1810
1152.3148720521767,1791
1154.470858984876,1704
1156.626270594044,1825
1158.7811071154629,1794
1160.9353687849912,1763
1163.089055838569,1763
1165.242168512213,1746
1167.3947070420209,1687
1169.5466716641677,1768
1171.6980626149075,1710
1173.8488801305748,1809
1175.9991244475814,1789
1178.1487958024186,1793
1180.2978944316555,1688
1182.4464205719428,1786
1184.5943744600072,1691
1186.7417563326567,1855
1188.8885664267755,1810
1191.0348049793297,1783
1193.1804722273619,1776
1195.325568407995,1762
1197.4700937584303,1767
1199.614048515948,1870
1201.7574329179074,1789
1203.900247201746,1774
1206.042491604982,1675
1208.1841663652099,1825
1210.3252717201053,1788
1212.465807907422,1801
1214.6057751649923,1829
1216.7451737307279,1849
1218.8840038426192,1774
1221.0222657387353,1776
1223.1599596572241,1787
1225.2970858363137,1810
1227.4336445143094,1868
1229.5696359295966,1858
1231.705060320639,1843
1233.8399179259786,1894
1235.9742089842384,1884
1238.107933734118,1946
1240.2410924143974,1929
1242.373685263935,1794
1244.5057125216676,1861
1246.6371744266116,1885
1248.7680712178621,1906
1250.898403134593,1863
1253.028170416058,1903
1255.1573733015875,1844
1257.2860120305932,1828
1259.4140868425648,1914
1261.54159797707,1908
1263.6685456737569,1926
1265.7949301723515,1905
1267.9207517126597,1870
1270.046010534565,1921
1272.1707068780306,1973
1274.2948409830983,1956
1276.4184130898889,1917
1278.541423438603,1953
1280.6638722695184,1869
1282.785759822993,1953
1284.9070863394636,2002
1287.0278520594447,1934
1289.1480572235314,1988
1291.2677020723963,1959
1293.3867868467923,2035
1295.5053117875495,1974
1297.623277135579,2062
1299.740683131868,2066
1301.8575300174857,2072
1303.973818033578,2114
1306.0895474213703,2094
1308.2047184221678,2098
1310.3193312773528,2076
1312.4333862283888,2056
1314.5468835168163,2110
1316.659823384255,2103
1318.7722060724045,2015
1320.8840318230418,2083
1322.9953008780249,2004
1325.1060134792888,2019
1327.2161698688478,2027
1329.3257702887959,1995
1331.4348149813054,2021
1333.5433041886276,2096
1335.6512381530933,2016
1337.7586171171101,2124
1339.8654413231675,2013
1341.9717110138317,2135
1344.0774264317488,2053
1346.1825878196432,2090
1348.2871954203192,2047
1350.3912494766587,2038
1352.4947502316231,2098
1354.5976979282532,2020
1356.7000928096686,2013
1358.8019351190665,2078
1360.9032250997243,2000
1363.0039629949988,2044
1365.1041490483235,2089
1367.2037835032133,2089
1369.3028666032606,2079
1371.401398592137,2035
1373.4993797135926,2078
1375.5968102114575,2128
1377.6936903296396,2038
1379.7900203121262,2130
1381.8858004029835,2052
1383.9810308463561,2023
1386.075711886469,2057
1388.1698437676241,2142
1390.2634267342032,2122
1392.356461030667,2131
1394.4489469015557,2182
1396.5408845914872,2212
1398.6322743451592,2178
1400.7231164073469,2199
1402.813411022907,2186
1404.903158436773,2204
1406.9923588939578,2272
1409.0810126395531,2178
1411.1691199187303,2265
1413.2566809767386,2244
1415.343696058907,2202
1417.4301654106425,2264
1419.5160892774315,2331
1421.6014679048399,2287
1423.6863015385125,2374
1425.7705904241707,2393
1427.8543348076178,2413
1429.9375349347342,2394
1432.0201910514802,2373
1434.102303403894,2431
1436.1838722380944,2498
1438.2648978002767,2428
1440.3453803367174,2574
1442.4253200937692,2579
1444.5047173178677,2599
1446.5835722555234,2676
1448.6618851533285,2714
1450.739656257952,2761
1452.8168858161434,2845
1454.8935740747306,2903
1456.96972128062,2956
1459.045327680797,2968
1461.120393522327,3004
1463.1949190523528,3006
1465.2689045180973,3163
1467.3423501668608,3264
1469.415256246024,3246
1471.4876230030463,3354
1473.559450685465,3480
1475.6307395408976,3404
1477.7014898170391,3567
1479.771701761665,3684
1481.8413756226287,3712
1483.9105116478618,3694
1485.9791100853772,3759
1488.0471711832643,3793
1490.1146951896926,3907
1492.1816823529098,3924
1494.2481329212433,3987
1496.3140471430984,4072
1498.3794252669609,4007
1500.4442675413939,4005
1502.5085742150404,4075
1504.572345536622,4137
1506.6355817549388,4201
1508.6982831188702,4232
1510.7604498773744,4303
1512.8220822794883,4371
1514.8831805743293,4284
1516.9437450110909,4480
1519.003775839048,4588
1521.0632733075522,4515
1523.1222376660367,4554
1525.1806691640113,4666
1527.2385680510652,4644
1529.2959345768668,4710
1531.3527689911643,4714
1533.4090715437833,4888
1535.4648424846291,4890
1537.5200820636855,5025
1539.5747905310159,5054
1541.6289681367616,5041
1543.6826151311434,5155
1545.7357317644614,5221
1547.7883182870937,5188
1549.8403749494987,5406
1551.8919020022113,5558
1553.9428996958477,5602
1555.9933682811015,5604
1558.0433080087469,5753
1560.0927191296346,5764
1562.1416018946961,6003
1564.1899565549415,5898
1566.2377833614592,5813
1568.2850825654164,5815
1570.3318544180606,5494
1572.3780991707158,5279
1574.423817074788,5241
1576.4690083817595,4943
1578.5136733431923,4691
1580.5578122107272,4423
1582.601425236085,4176
1584.6445126710646,3961
1586.6870747675434,3712
1588.7291117774776,3627
1590.7706239529034,3479
1592.8116115459347,3317
1594.8520748087658,3228
1596.8920139936686,3087
1598.9314293529933,2884
1600.9703211391711,2847
1603.008689604711,2774
1605.0465350022005,2654
1607.0838575843068,2629
1609.1206576037753,2514
1611.1569353134305,2486
1613.1926909661765,2348
1615.2279248149953,2323
1617.2626371129481,2281
1619.2968281131757,2328
1621.3304980688963,2245
1623.3636472334088,2219
1625.39627586009,2265
1627.428384202396,2129
1629.459972513861,2059
1631.4910410480993,2115
1633.5215900588028,2029
1635.551619799744,2083
1637.5811305247717,2047
1639.6101224878166,1946
1641.6385959428862,2039
1643.6665511440683,1986
1645.693988345528,1996
1647.7209078015112,2002
1649.7473097663405,1997
1651.7731944944203,2031
1653.7985622402307,1915
1655.823413258333,1962
1657.847747803366,1990
1659.8715661300494,1962
1661.8948684931793,2019
1663.9176551476316,1956
1665.9399263483624,1904
1667.9616823504057,1967
1669.982923408873,1981
1672.0036497789574,1909
1674.0238617159293,1913
1676.043559475138,1910
1678.0627433120121,1878
1680.081413482059,1853
1682.0995702408654,1914
1684.117213844096,1914
1686.134344547495,1917
1688.1509626068864,1954
1690.1670682781705,1879
1692.182661817329,1870
1694.1977434804217,1828
1696.2123135235875,1884
1698.226372203043,1963
1700.2399197750851,1952
1702.2529564960905,1936
1704.2654826225112,1849
1706.277498410882,1833
1708.2890041178139,1921
1710.2999999999988,1810
1712.3104863142066,1866
1714.3204633172854,1856
1716.329931266163,1823
1718.3388904178469,1843
1720.3473410294214,1826
1722.3552833580516,1785
1724.3627176609807,1845
1726.3696441955308,1845
1728.3760632191033,1791
1730.3819749891782,1808
1732.3873797633146,1720
1734.3922777991502,1800
1736.3966693544012,1811
1738.4005546868639,1811
1740.4039340544127,1797
1742.406807715001,1787
1744.4091759266616,1758
1746.4110389475054,1752
1748.4123970357223,1779
1750.413250449582,1777
1752.4135994474318,1744
1754.4134442876993,1754
1756.4127852288902,1740
1758.4116225295893,1736
1760.4099564484595,1702
1762.407787244244,1737
1764.405115175764,1714
1766.4019405019203,1681
1768.3982634816916,1666
1770.3940843741357,1654
1772.3894034383907,1670
1774.3842209336717,1740
1776.378537119274,1619
1778.372352254571,1613
1780.3656665990156,1688
1782.3584804121397,1624
1784.3507939535534,1659
1786.3426074829463,1658
1788.3339212600863,1651
1790.3247355448211,1641
1792.3150505970766,1596
1794.3048666768573,1588
1796.2941840442477,1701
1798.2830029594106,1700
1800.2713236825884,1662
1802.2591464741004,1661
1804.2464715943465,1587
1806.2332993038058,1638
1808.2196298630352,1641
1810.2054635326708,1599
1812.190800573428,1700
1814.175641246101,1644
1816.1599858115628,1629
1818.1438345307652,1649
1820.127187664738,1611
1822.1100454745924,1616
1824.092408221516,1652
1826.0742761667766,1620
1828.055649571721,1624
1830.0365286977735,1656
1832.0169138064398,1591
1833.9968051593014,1563
1835.9762030180214,1669
1837.9551076443408,1602
1839.9335193000788,1587
1841.9114382471344,1585
1843.888864747485,1570
1845.8657990631878,1560
1847.842241456378,1562
1849.8181921892697,1570
1851.7936515241558,1551
1853.7686197234098,1599
1855.7430970494815,1674
1857.7170837649014,1677
1859.6905801322787,1635
1861.6635864143004,1566
1863.6361028737338,1647
1865.608129773424,1573
1867.5796673762961,1644
1869.5507159453537,1644
1871.521275743678,1600
1873.4913470344313,1610
1875.4609300808534,1610
1877.4300251462632,1632
1879.3986324940588,1658
1881.366752387717,1667
1883.3343850907936,1657
1885.3015308669228,1610
1887.268189979819,1692
1889.2343626932739,1635
1891.2000492711595,1645
1893.1652499774254,1677
1895.1299650761011,1653
1897.0941948312952,1653
1899.0579395071945,1612
1901.0211993680641,1718
1902.98397467825,1633
1904.9462657021745,1671
1906.9080727043415,1646
1908.869395949332,1760
1910.8302357018065,1634
1912.790592226504,1696
1914.7504657882428,1607
1916.7098566519212,1628
1918.6687650825133,1630
1920.6271913450764,1592
1922.5851357047422,1669
1924.5425984267245,1623
1926.499579776314,1627
1928.4560800188833,1629
1930.4120994198802,1688
1932.367638244833,1587
1934.32269675935,1680
1936.2772752291175,1640
1938.231373919899,1686
1940.1849930975404,1717
1942.1381330279637,1655
1944.0907939771696,1649
1946.0429762112412,1668
1947.9946799963363,1620
1949.9459055986945,1626
1951.896653284633,1548
1953.8469233205478,1574
1955.7967159729142,1645
1957.7460315082863,1659
1959.6948701932974,1611
1961.6432322946594,1538
1963.5911180791632,1558
1965.5385278136787,1634
1967.4854617651545,1557
1969.4319202006182,1614
1971.377903387176,1585
1973.3234115920136,1611
1975.268445082395,1621
1977.2130041256642,1590
1979.1570889892423,1604
1981.1006999406304,1553
1983.04383724741,1538
1984.986501177238,1611
1986.928691997853,1591
1988.8704099770712,1570
1990.811655382789,1571
1992.7524284829801,1641
1994.692729545698,1559
1996.6325588390755,1627
1998.5719166313224,1542
2000.5108031907307,1588
2002.4492187856677,1616
2004.387163684583,1566
2006.3246381560011,1521
2008.2616424685298,1570
2010.1981768908527,1555
2012.1342416917332,1575
2014.069837140014,1562
2016.0049635046162,1553
2017.9396210545406,1569
2019.8738100588666,1631
2021.8075307867502,1552
2023.740783507431,1518
2025.6735684902228,1540
2027.6058860045214,1548
2029.5377363198004,1603
2031.4691197056118,1564
2033.4000364315875,1566
2035.3304867674374,1505
2037.260470982952,1516
2039.189989347998,1513
2041.1190421325232,1550
2043.047629606554,1551
2044.9757520401945,1525
2046.9034097036288,1558
2048.8306028671195,1549
2050.7573318010086,1547
2052.683596775716,1522
2054.609398061742,1522
2056.5347359296647,1482
2058.4596106501403,1495
2060.384022493906,1536
2062.3079717317764,1464
2064.231458634646,1546
2066.1544834734873,1481
2068.077046519352,1499
2069.99914804337,1501
2071.9207883167524,1518
2073.8419676107865,1508
2075.7626861968406,1512
2077.6829443463607,1516
2079.6027423308715,1479
2081.522080421977,1484
2083.440958891362,1527
2085.359378010786,1490
2087.2773380520907,1509
2089.194839287196,1495
2091.111881988101,1487
2093.0284664268825,1512
2094.9445928756973,1465
2096.86026160678,1475
2098.775472892446,1484
2100.690227005088,1541
2102.604524217178,1480
2104.5183648012676,1521
2106.431749029985,1517
2108.34467717604,1542
2110.2571495122206,1488
2112.169166311393,1562
2114.080727846503,1489
2115.9918343905747,1534
2117.902486216711,1502
2119.8126835980956,1530
2121.722426807987,1552
2123.6317161197285,1447
2125.5405518067364,1461
2127.448934142509,1497
2129.356863400624,1501
2131.264339854737,1536
2133.1713637785815,1563
2135.077935445972,1502
2136.9840551308002,1557
2138.889723107037,1480
2140.7949396487334,1539
2142.699705030018,1549
2144.6040195250994,1542
2146.507883408264,1630
2148.4112969538774,1608
2150.3142604363848,1562
2152.2167741303097,1545
2154.1188383102535,1590
2156.0204532508997,1571
2157.9216192270064,1566
2159.822336513414,1533
2161.7226053850413,1569
2163.622426116884,1574
2165.5217989840185,1537
2167.4207242616,1590
2169.319202224862,1643
2171.2172331491165,1608
2173.1148173097563,1593
2175.0119549822507,1624
2176.90864644215,1576
2178.8048919650823,1579
2180.7006918267534,1603
2182.596046302952,1541
2184.4909556695407,1540
2186.3854202024645,1646
2188.279440177746,1607
2190.173015871487,1612
2192.066147559868,1623
2193.958835519149,1602
2195.851080025667,1563
2197.7428813558417,1599
2199.6342397861667,1603
2201.5251555932186,1539
2203.415629053651,1642
2205.3056604441986,1658
2207.19525004167,1646
2209.084398122958,1602
2210.9731049650327,1676
2212.861370844941,1611
2214.749196039812,1630
2216.636580826851,1639
2218.523525483344,1635
2220.410030286655,1615
2222.296095514226,1591
2224.1817214435805,1632
2226.066908352319,1649
2227.951656518121,1633
2229.835966218746,1607
2231.71983773203,1665
2233.6032713358913,1611
2235.486267308324,1611
2237.3688259274036,1611
2239.2509474712824,1584
2241.132632218193,1689
2243.013880446447,1638
2244.8946924344323,1627
2246.7750684606203,1703
2248.6550088035574,1557
2250.534513741871,1706
2252.413583554265,1637
2254.292218519526,1671
2256.170418916517,1622
2258.0481850241786,1628
2259.925517121534,1594
2261.8024154876825,1592
2263.678880401803,1614
2265.5549121431536,1591
2267.430510991071,1633
2269.305677224971,1687
2271.180411124348,1610
2273.0547129687766,1570
2274.9285830379076,1625
2276.8020216114737,1617
2278.6750289692845,1622
2280.5476053912294,1618
2282.4197511572766,1709
2284.2914665474727,1664
2286.162751841943,1646
2288.0336073208937,1697
2289.904033264608,1726
2291.774029953448,1745
2293.6435976678554,1627
2295.5127366883517,1717
2297.381447295534,1569
2299.2497297700825,1569
2301.1175843927526,1534
2302.9850114443825,1512
2304.852011205885,1549
2306.7185839582553,1419
2308.5847299825664,1437
2310.4504495599676,1368
2312.3157429716925,1490
2314.1806104990483,1429
2316.0450524234247,1452
2317.9090690262888,1448
2319.772660589186,1474
2321.635827393742,1384
2323.498569721661,1418
2325.3608878547248,1394
2327.2227820747967,1408
2329.0842526638157,1461
2330.945299903803,1459
2332.805924076857,1373
2334.6661254651535,1417
2336.525904350951,1421
2338.3852610165827,1435
2340.244195744464,1388
2342.102708817088,1418
2343.9608005170253,1423
2345.8184711269287,1474
2347.675720929526,1442
2349.532550207628,1405
2351.38895924412,1396
2353.24494832197,1457
2355.100517724223,1420
2356.955667734004,1442
2358.810398634514,1478
2360.664710709037,1504
2362.5186042409337,1489
2364.3720795136437,1465
2366.225136810686,1420
2368.0777764156583,1467
2369.929998612237,1421
2371.7818036841777,1400
2373.633191915315,1435
2375.484163589562,1423
2377.3347189909114,1453
2379.184858403434,1513
2381.03458211128,1467
2382.8838903986775,1411
2384.732783549936,1481
2386.5812618494406,1472
2388.4293255816588,1478
2390.2769750311327,1460
2392.1242104824883,1420
2393.971032220427,1468
2395.8174405297295,1417
2397.6634356952563,1479
2399.509018001947,1473
2401.3541877348193,1495
2403.1989451789705,1473
2405.043290619576,1429
2406.8872243418905,1544
2408.730746631247,1488
2410.5738577730594,1491
2412.4165580528183,1438
2414.258847756095,1576
2416.100727168537,1433
2417.9421965758734,1433
2419.783256263912,1446
2421.623906518538,1494
2423.4641476257157,1518
2425.303979871491,1461
2427.143403541984,1540
2428.9824189233977,1515
2430.821026302012,1523
2432.6592259641866,1539
2434.497018196361,1479
2436.33440328505,1511
2438.171381516851,1468
2440.00795317844,1503
2441.844118556569,1528
2443.6798779380724,1460
2445.5152316098606,1544
2447.3501798589255,1513
2449.1847229723357,1464
2451.0188612372403,1498
2452.8525949408663,1554
2454.6859243705203,1533
2456.518849813587,1512
2458.3513715575314,1494
2460.183489889895,1502
2462.015205098301,1532
2463.8465174704493,1502
2465.67742729412,1554
2467.5079348571717,1516
2469.338040447542,1544
2471.1677443532476,1510
2472.9970468623833,1498
2474.825948263123,1556
2476.6544488437207,1548
2478.482548892508,1494
2480.310248697896,1557
2482.137548548374,1518
2483.9644487325118,1514
2485.790949538956,1601
2487.617051256433,1591
2489.44275417375,1573
2491.26805857979,1547
2493.0929647635157,1573
2494.917473013971,1510
2496.741583620276,1532
2498.5652968716304,1543
2500.3886130573137,1574
2502.2115324666834,1579
2504.0340553891765,1572
2505.856182114308,1590
2507.6779129316733,1590
2509.499248130945,1573
2511.3201880018764,1558
2513.140732834298,1625
2514.9608829181198,1621
2516.780638543331,1616
2518.6,1661
2520.418967578273,1641
2522.237541568376,1674
2524.0557222606144,1646
2525.8735099453706,1692
2527.6909049131086,1642
2529.507907454368,1633
2531.32451785977,1647
2533.140736420014,1682
2534.9565634258774,1690
2536.771999168218,1757
2538.5870439379714,1707
2540.4016980261526,1786
2542.2159617238544,1829
2544.02983532225,1740
2545.8433191125914,1816
2547.656413386209,1811
2549.4691184345115,1774
2551.2814345489874,1771
2553.093362021204,1832
2554.904901142808,1907
2556.716052205523,1817
2558.526815501153,1849
2560.3371913215824,1958
2562.147179958771,1907
2563.956781704761,1920
2565.7659968516705,1899
2567.5748256916986,1921
2569.3832685171224,1910
2571.1913256202984,1973
2572.9989972936614,1987
2574.806283829725,2065
2576.613185521084,1913
2578.4197026604074,2007
2580.2258355404483,2118
2582.031584454035,2045
2583.836949694077,2091
2585.6419315535613,2095
2587.4465303255533,2059
2589.2507463032002,2109
2591.0545797797245,2080
2592.8580310484303,2081
2594.6611004026995,2061
2596.463788135992,2140
2598.266094541849,2121
2600.0680199138874,2139
2601.869564545807,2131
2603.670728731383,2072
2605.4715127644704,2085
2607.2719169390048,2143
2609.071941548998,2107
2610.8715868885433,2086
2612.670853251811,2109
2614.469740933052,2153
2616.268250226594,2109
2618.0663814268455,2138
2619.864134828292,2099
2621.6615107255006,2074
2623.458509413115,2081
2625.2551311858597,2062
2627.0513763385347,2052
2628.8472451660223,2026
2630.6427379632833,2017
2632.4378550253564,1981
2634.232596647359,1854
2636.026963124488,1954
2637.8209547520187,1911
2639.6145718253065,2006
2641.407814639785,1874
2643.200683490966,1936
2644.9931786744414,1939
2646.7853004858807,1842
2648.577049221034,1847
2650.3684251757277,1809
2652.1594286458712,1779
2653.9500599274484,1834
2655.740319316525,1769
2657.5302071092437,1738
2659.3197236018286,1707
2661.10886909058,1772
2662.8976438718782,1800
2664.686048242183,1750
2666.4740824980327,1702
2668.2617469360443,1688
2670.0490418529134,1728
2671.8359675454153,1677
2673.622524310403,1619
2675.408712444811,1628
2677.1945322456495,1690
2678.979984010009,1663
2680.76506803506,1596
2682.5497846180497,1606
2684.334134056306,1586
2686.1181166472343,1591
2687.9017326883213,1599
2689.6849824771293,1563
2691.4678663113013,1510
2693.2503844885596,1508
2695.032537306705,1527
2696.8143250636167,1528
2698.5957480572542,1475
2700.3768065856534,1494
2702.1575009469316,1486
2703.937831439283,1476
2705.717798360982,1505
2707.4974020103837,1484
2709.276642685917,1504
2711.055520686095,1450
2712.834036309506,1477
2714.612189854819,1443
2716.389981620782,1442
2718.1674119062204,1408
2719.944481010041,1530
2721.721189231226,1480
2723.4975368688415,1469
2725.273524222027,1472
2727.0491515900053,1455
2728.824419272075,1427
2730.5993275676146,1462
2732.3738767760838,1447
2734.148067197016,1462
2735.921899130031,1461
2737.6953728748194,1374
2739.468488731156,1347
2741.2412469988926,1455
2743.0136479779617,1422
2744.785691968372,1415
2746.5573792702116,1398
2748.3287101836504,1454
2750.099685008934,1414
2751.870304046388,1465
2753.640567596418,1410
2755.4104759595057,1410
2757.1800294362156,1434
2758.949228327187,1424
2760.7180729331412,1415
2762.486563554877,1397
2764.254700493272,1398
2766.022484049284,1417
2767.789914523947,1414
2769.5569922183786,1409
2771.3237174337705,1458
2773.090090471394,1395
2774.8561116326036,1383
2776.6217812188274,1407
2778.3870995315756,1395
2780.1520668724356,1374
2781.9166835430747,1393
2783.6809498452394,1376
2785.444866080754,1433
2787.2084325515225,1423
2788.971649559527,1375
2790.73451740683,1346
2792.4970363955713,1327
2794.2592068279705,1349
2796.0210290063264,1393
2797.7825032330147,1340
2799.543629810493,1420
2801.304409041296,1401
2803.0648412280366,1456
2804.8249266734088,1385
2806.5846656801846,1435
2808.344058551212,1400
2810.1031055894246,1332
2811.8618070978273,1322
2813.6201633795085,1361
2815.378174737636,1401
2817.1358414754536,1387
2818.893163896285,1371
2820.6501423035334,1378
2822.4067770006814,1381
2824.1630682912883,1453
2825.9190164789957,1347
2827.6746218675207,1452
2829.429884760661,1456
2831.184805462294,1395
2832.9393842763743,1358
2834.693621506936,1379
2836.4475174580916,1362
2838.201072434034,1445
2839.954286739034,1376
2841.707160677441,1409
2843.459694553685,1324
2845.2118886722724,1368
2846.96374333779,1367
2848.7152588549034,1356
2850.4664355283567,1433
2852.217273662973,1401
2853.9677735636546,1424
2855.7179355353833,1432
2857.4677598832186,1371
2859.217246912299,1404
2860.9663969278427,1356
2862.715210235146,1305
2864.4636871395846,1344
2866.211827946614,1360
2867.9596329617652,1332
2869.7071024906536,1357
2871.4542368389684,1357
2873.20103631248,1396
2874.947501217038,1446
2876.6936318585695,1383
2878.4394285430812,1372
2880.1848915766604,1350
2881.9300212654707,1457
2883.6748179157553,1403
2885.4192818338374,1350
2887.1634133261173,1374
2888.907212699077,1347
2890.6506802592744,1323
2892.393816313348,1353
2894.1366211680142,1374
2895.8790951300693,1334
2897.621238506388,1358
2899.363051603925,1453
2901.1045347297118,1425
2902.8456881908596,1386
2904.58651229456,1342
2906.327007348081,1409
2908.067173658772,1373
2909.8070115340597,1361
2911.5465212814497,1351
2913.285703208527,1363
2915.0245576229563,1350
2916.7630848324807,1293
2918.5012851449196,1340
2920.2391588681758,1318
2921.976706310227,1358
2923.7139277791334,1373
2925.4508235830313,1309
2927.187394030137,1326
2928.923639428745,1433
2930.6595600872306,1376
2932.395156314046,1341
2934.1304284177218,1402
2935.8653767068713,1367
2937.6000014901815,1389
2939.3343030764227,1408
2941.068281774442,1380
2942.8019378931644,1326
2944.5352717415976,1409
2946.2682836288236,1344
2948.0009738640065,1401
2949.7333427563885,1327
2951.465390615289,1364
2953.1971177501086,1384
2954.9285244703265,1360
2956.6596110855,1377
2958.3903779052657,1355
2960.1208252393385,1320
2961.8509533975125,1351
2963.5807626896617,1383
2965.3102534257378,1344
2967.0394259157715,1346
2968.768280469873,1342
2970.496817398232,1377
2972.2250370111146,1366
2973.952939618869,1313
2975.6805255319196,1344
2977.4077950607707,1365
2979.134748516006,1417
2980.861386208289,1382
2982.587708448359,1408
2984.313715547037,1323
2986.039407815222,1381
2987.764785563891,1357
2989.489849104102,1398
2991.2145987469908,1418
2992.9390348037705,1383
2994.6631575857346,1377
2996.3869674042576,1354
2998.1104645707887,1359
2999.83364939686,1382
3001.5565221940783,1327
3003.2790832741334,1397
3005.0013329487924,1334
3006.7232715298996,1403
3008.4448993293804,1379
3010.166216659239,1373
3011.887223831558,1332
3013.607921158498,1336
3015.3283089522993,1358
3017.0483875252826,1358
3018.7681571898443,1398
3020.4876182584626,1379
3022.2067710436927,1380
3023.9256158581707,1385
3025.644153014609,1383
3027.362382825801,1306
3029.0803056046193,1353
3030.797921664012,1322
3032.5152313170106,1354
3034.2322348767225,1359
3035.9489326563353,1358
3037.665324969115,1344
3039.3814121284063,1394
3041.097194447633,1406
3042.812672240299,1347
3044.5278458199855,1382
3046.2427155003525,1384
3047.9572815951406,1368
3049.671544418167,1385
3051.38550428333,1306
3053.0991615046073,1355
3054.812516396051,1366
3056.5255692717974,1348
3058.2383204460575,1320
3059.9507702331257,1342
3061.662918947372,1364
3063.3747669032446,1362
3065.0863144152736,1410
3066.7975617980674,1357
3068.508509366309,1350
3070.219157434767,1370
3071.9295063182844,1440
3073.639556331785,1345
3075.3493077902704,1314
3077.058761008821,1369
3078.7679163025964,1339
3080.476773986837,1387
3082.1853343768594,1354
3083.89359778806,1413
3085.6015645359153,1355
3087.3092349359786,1346
3089.016609303884,1381
3090.7236879553434,1409
3092.4304712061476,1357
3094.136959372166,1433
3095.843152769349,1365
3097.5490517137237,1356
3099.2546565213966,1362
3100.959967508554,1381
3102.66498499146,1361
3104.3697092864577,1379
3106.0741407099695,1346
3107.778279578498,1373
3109.482126208622,1405
3111.1856809170004,1363
3112.8889440203716,1373
3114.5919158355528,1388
3116.294596679439,1374
3117.996986869006,1417
3119.6990867213062,1440
3121.4008965534726,1372
3123.102416682717,1433
3124.803647426329,1350
3126.5045891016784,1369
3128.205242026213,1363
3129.90560651746,1330
3131.605682893025,1335
3133.3054714705922,1355
3135.0049725679282,1349
3136.7041865028714,1332
3138.4031135933465,1429
3140.101754157353,1349
3141.800108512971,1363
3143.498176978357,1376
3145.1959598717494,1387
3146.8934575114636,1333
3148.5906702158954,1353
3150.2875983035183,1330
3151.9842420928853,1373
3153.680601902627,1390
3155.376678051456,1280
3157.07247085816,1328
3158.767980641609,1388
3160.463207720748,1352
3162.158152414606,1364
3163.8528150422862,1365
3165.5471959229726,1381
3167.2412953759303,1386
3168.9351137204976,1393
3170.628651276098,1390
3172.3219083622307,1364
3174.014885298474,1382
3175.707582404485,1399
3177.4000000000005,1369
3179.092138404835,1303
3180.7839979388846,1319
3182.47557892212,1341
3184.166881674594,1365
3185.8579065164386,1336
3187.5486537678626,1346
3189.2391237491547,1324
3190.9293167806827,1315
3192.6192331828934,1355
3194.3088732763117,1357
3195.998237381542,1319
3197.687325819268,1251
3199.376138910251,1308
3201.064676975334,1321
3202.7529403354347,1334
3204.4409293115523,1288
3206.1286442247647,1299
3207.816085396229,1312
3209.5032531471825,1282
3211.190147798936,1350
3212.8767696728846,1287
3214.5631190905015,1318
3216.2491963733373,1348
3217.9350018430214,1306
3219.6205358212637,1300
3221.305798629851,1315
3222.990790590651,1284
3224.6755120256103,1228
3226.359963256751,1266
3228.0441446061795,1310
3229.7280563960758,1261
3231.411698948703,1351
3233.0950725863995,1280
3234.778177631587,1412
3236.461014406761,1342
3238.1435832345005,1334
3239.8258844374595,1324
3241.507918338374,1349
3243.1896852600576,1380
3244.8711855254023,1332
3246.552419457381,1353
3248.233387379042,1303
3249.914089613516,1373
3251.59452648401,1268
3253.274698313813,1268
3254.95460542629,1286
3256.6342481448855,1311
3258.313626793125,1298
3259.9927416946084,1274
3261.6715931730196,1289
3263.3501815521176,1287
3265.0285071557437,1318
3266.706570307815,1302
3268.3843713323286,1307
3270.0619105533615,1311
3271.739188295068,1291
3273.4162048816834,1260
3275.0929606375184,1331
3276.769455886966,1327
3278.445690954498,1262
3280.1216661646613,1298
3281.797381842087,1313
3283.4728383114807,1310
3285.1480358976296,1337
3286.8229749253996,1322
3288.4976557197333,1300
3290.172078605655,1355
3291.846243908266,1281
3293.5201519527463,1221
3295.193803064357,1297
3296.8671975684374,1248
3298.5403357904024,1325
3300.21321805575,1289
3301.8858446900567,1282
3303.558216018975,1231
3305.23033236824,1297
3306.9021940636603,1317
3308.57380143113,1301
3310.2451547966184,1336
3311.916254486174,1276
3313.5871008259246,1336
3315.2576941420766,1312
3316.9280347609147,1360
3318.5981230088046,1320
3320.2679592121895,1262
3321.9375436975924,1310
3323.606876791612,1298
3325.27595882093,1344
3326.944790112305,1323
3328.6133709925753,1246
3330.2817017886573,1271
3331.949782827547,1298
3333.617614436319,1296
3335.2851969421245,1267
3336.952530672199,1398
3338.619615953853,1299
3340.286453114475,1330
3341.9530424815357,1326
3343.619384382583,1275
3345.2854791452437,1291
3346.951327097224,1276
3348.6169285663073,1325
3350.2822838803577,1292
3351.947393367319,1333
3353.61225735521,1304
3355.2768761721345,1257
3356.9412501462693,1301
3358.605379605873,1278
3360.2692648792827,1345
3361.9329062949146,1272
3363.596304181263,1317
