CollectionTime,9/20/2024 12:06:47 PM
ExposureUsed,3
CalibratedSpectrum
-962.7078968117929,694
-959.9714848408522,688
-957.2358232597828,772
-954.5009119013725,768
-951.7667505983302,765
-949.0333391832855,829
-946.3006774887896,793
-943.5687653473143,799
-940.837602591253,783
-938.1071890529199,814
-935.3775245645503,762
-932.6486089583007,763
-929.9204420662485,763
-927.1930237203925,755
-924.4663537526524,832
-921.7404319948689,774
-919.0152582788041,797
-916.2908324361409,806
-913.5671542984834,773
-910.8442236973568,791
-908.1220404642074,740
-905.4006044304027,753
-902.679915427231,736
-899.959973285902,725
-897.2407778375464,757
-894.5223289132158,762
-891.8046263438832,718
-889.0876699604426,745
-886.3714595937089,753
-883.6559950744183,731
-880.9412762332282,709
-878.2273029007168,721
-875.5140749073835,723
-872.8015920836489,732
-870.0898542598545,714
-867.3788612662631,731
-864.6686129330585,743
-861.9591090903457,690
-859.2503495681506,680
-856.5423341964203,726
-853.8350628050229,713
-851.1285352237478,703
-848.4227512823054,741
-845.7177108103272,744
-843.0134136373656,739
-840.3098595928943,730
-837.6070485063082,753
-834.9049802069229,743
-832.2036545239757,736
-829.5030712866244,731
-826.8032303239481,786
-824.1041314649472,722
-821.4057745385428,745
-818.7081593735775,739
-816.0112857988148,724
-813.3151536429393,738
-810.6197627345566,780
-807.9251129021936,727
-805.2312039742981,699
-802.5380357792392,763
-799.8456081453069,738
-797.1539209007124,721
-794.462973873588,731
-791.772766891987,734
-789.083299783884,781
-786.3945723771743,787
-783.7065844996748,759
-781.0193359791231,737
-778.3328266431781,761
-775.6470563194197,748
-772.9620248353489,744
-770.2777320183878,729
-767.5941776958798,760
-764.9113616950891,763
-762.2292838432011,716
-759.5479439673222,741
-756.8673418944801,746
-754.1874774516235,788
-751.5083504656222,773
-748.8299607632671,741
-746.15230817127,747
-743.475392516264,778
-740.7992136248035,767
-738.1237713233636,736
-735.4490654383407,758
-732.7750957960521,767
-730.1018622227365,759
-727.4293645445534,800
-724.7576025875837,806
-722.0865761778291,787
-719.4162851412126,817
-716.7467293035781,790
-714.0779084906909,827
-711.409822528237,841
-708.7424712418238,857
-706.0758544569796,849
-703.4099719991541,841
-700.7448236937178,837
-698.0804093659622,801
-695.4167288411002,834
-692.7537819442656,851
-690.0915685005134,848
-687.4300883348199,821
-684.7693412720819,873
-682.1093271371178,874
-679.4500457546669,855
-676.7914969493897,844
-674.1336805458676,892
-671.4765963686034,873
-668.8202442420206,868
-666.1646239904642,873
-663.5097354382001,873
-660.8555784094151,838
-658.2021527282176,875
-655.5494582186366,892
-652.8974947046223,895
-650.2462620100463,897
-647.5957599587009,919
-644.9459883742998,902
-642.2969470804776,911
-639.6486359007902,964
-637.0010546587141,930
-634.3542031776476,944
-631.7080812809096,892
-629.0626887917401,900
-626.4180255333008,900
-623.7740913286734,925
-621.1308860008619,952
-618.4884093727904,852
-615.8466612673046,866
-613.2056415071715,873
-610.5653499150785,891
-607.9257863136347,919
-605.28695052537,912
-602.6488423727357,885
-600.0114616781036,894
-597.3748082637674,861
-594.7388819519412,920
-592.1036825647604,921
-589.4692099242818,877
-586.8354638524829,898
-584.2024441712624,926
-581.5701507024403,953
-578.9385832677575,1003
-576.3077416888759,949
-573.6776257873787,903
-571.0482353847704,914
-568.4195703024757,952
-565.7916303618415,932
-563.164415384135,964
-560.5379251905453,932
-557.9121596021815,885
-555.2871184400748,890
-552.6628015251767,924
-550.0392086783606,951
-547.4163397204204,1001
-544.794194472071,1013
-542.1727727539491,985
-539.5520743866118,966
-536.9320991905377,992
-534.3128469861261,1014
-531.6943175936979,983
-529.0765108334947,1059
-526.4594265256793,1148
-523.8430644903358,1350
-521.2274245474689,1525
-518.612506517005,1529
-515.9983102187913,1485
-513.3848354725959,1630
-510.77208209810846,1673
-508.16004991493924,1619
-505.5487387426199,1767
-502.9381484006032,1944
-500.3282787082628,1969
-497.71912948489364,1953
-495.1107005497117,1863
-492.5029917218539,1719
-489.8960028203786,1523
-487.28973366426493,1383
-484.68418407241325,1258
-482.07935386364494,1194
-479.47524285670266,1177
-476.87185087025,1149
-474.2691777228715,1155
-471.66722323307334,1168
-469.0659872192821,1187
-466.4654694998459,1158
-463.86566989303384,1178
-461.26658821703614,1150
-458.66822428996414,1138
-456.07057792985,1161
-453.4736489546475,1195
-450.877437182231,1170
-448.28194243039627,1152
-445.68716451686,1120
-443.09310325926003,1107
-440.49975847515555,1059
-437.9071299820263,1122
-435.31521759727354,1194
-432.72402113821954,1109
-430.13354042210767,1104
-427.5437752661022,1114
-424.95472548728867,1157
-422.36639090267386,1175
-419.7787713291855,1233
-417.1918665836721,1196
-414.60567648290385,1237
-412.0202008435715,1211
-409.4354394822874,1172
-406.8513922155845,1205
-404.26805885991723,1167
-401.685439231661,1214
-399.103533147112,1150
-396.522340422488,1224
-393.9418608739278,1197
-391.3620943174908,1152
-388.7830405691583,1139
-386.2046994448317,1080
-383.6270707603344,1059
-381.05015433141045,1000
-378.473949973725,963
-375.8984575028645,883
-373.32367673433623,806
-370.74960748356875,777
-368.1762495659117,735
-365.60360279663576,683
-363.03166699093265,583
-360.4604419639154,558
-357.8899275306178,548
-355.32012350599507,537
-352.7510297049233,531
-350.1826459421999,520
-347.61497203254316,517
-345.04800779059235,481
-342.4817530309082,465
-339.91620756797226,533
-337.35137121618743,517
-334.7872437898774,487
-332.22382510328725,491
-329.66111497058273,498
-327.09911320585127,505
-324.53781962310075,503
-321.9772340362607,494
-319.4173562591816,509
-316.8581861056348,505
-314.2997233893127,498
-311.7419679238294,549
-309.1849195227194,564
-306.62857799943856,577
-304.0729431673641,540
-301.51801483979375,565
-298.963792829947,538
-296.41027695096386,535
-293.85746701590574,575
-291.3053628377552,599
-288.7539642294155,563
-286.2032710037115,594
-283.65328297338897,560
-281.1039999511146,656
-278.5554217494762,638
-276.007548180983,650
-273.4603790580651,609
-270.9139141930734,613
-268.3681533982807,722
-265.8230964858798,703
-263.27874326798565,719
-260.7350935566336,698
-258.1921471637804,757
-255.6499039013039,765
-253.10836358100266,805
-250.56752601459698,687
-248.02739101372765,745
-245.48795838995704,858
-242.94922795476816,797
-240.41119951956557,764
-237.8738728956746,785
-235.33724789434166,808
-232.80132432673452,750
-230.2661020039418,723
-227.73158073697357,795
-225.19776033676033,825
-222.66464061415422,853
-220.1322213799284,815
-217.60050244477725,889
-215.06948361931552,913
-212.53916471408013,941
-210.00954553952818,867
-207.48062590603843,764
-204.9524056239104,706
-202.4248845033651,800
-199.8980623545441,824
-197.37193898751036,875
-194.84651421224817,927
-192.32178783866232,794
-189.79775967657952,900
-187.27442953574644,1057
-184.7517972258321,1007
-182.2298625564256,847
-179.7086253370378,774
-177.18808537710026,903
-174.66824248596583,1025
-172.14909647290835,988
-169.6306471471229,939
-167.11289431772548,978
-164.59583779375328,973
-162.07947738416453,1060
-159.5638128978386,1383
-157.04884414357605,1419
-154.53457093009854,1522
-152.02099306604828,1275
-149.50811035998936,1169
-146.99592262040665,1299
-144.48442965570587,1400
-141.97363127421409,1465
-139.46352728417958,1665
-136.95411749377126,1519
-134.44540171107985,1360
-131.93737974411636,1273
-129.43005140081357,1305
-126.92341648902493,1476
-124.41747481652521,2035
-121.91222619101006,2724
-119.40767042009657,3040
-116.90380731132257,3284
-114.40063667214702,4126
-111.8981583099503,4889
-109.3963720320337,5626
-106.89527764561933,6474
-104.39487495785067,7325
-101.89516377579241,9756
-99.39614390642998,14725
-96.89781515667039,18499
-94.40017733334128,19010
-91.90323024319173,17848
-89.40697369289148,14047
-86.91140748903172,8386
-84.41653143812482,7557
-81.92234534660395,9155
-79.42884902082358,10694
-76.93604226705907,10845
-74.4439248915071,10808
-71.95249670028534,10629
-69.46175749943245,9152
-66.97170709490854,8104
-64.48234529259423,8102
-61.99367189829195,9119
-59.50568671772464,8375
-57.01838955653636,8773
-54.53178022029283,10841
-52.045858514480074,12528
-49.560624244506016,13354
-47.07607721569923,13346
-44.59221723330904,15657
-42.10904410250669,17955
-39.62655762838392,17916
-37.14475761595372,16882
-34.66364387015028,18960
-32.18321619582866,21057
-29.70347439776515,22492
-27.224418280657005,24831
-24.74604764912317,29634
-22.26836230770266,41698
-19.7913620608565,65035
-17.315046712966478,65035
-14.83941606833514,65035
-12.36446993118659,65035
-9.89020810566592,65035
-7.416630395839093,65035
-4.94373660569363,65035
-2.471526539137585,65035
-6.821210263296962E-13,65035
2.47084320796705,65035
4.941003281093458,65035
7.410480415786196,65035
9.879274808531363,65035
12.347386655893956,65035
14.814816154518212,65035
17.28156350112681,65035
19.74762889252179,65035
22.21301252558385,25658
24.67771459727237,6487
27.141735304626195,5834
29.605074844762612,5279
32.06773341487792,4679
34.52971121224755,4230
36.99100843422559,3941
39.45162527824516,3053
41.91156194181792,3393
44.370818622535126,3393
46.82939551806646,3308
49.287292826160524,3907
51.74451074464503,3230
54.201049471426245,2723
56.65690920448981,2676
59.112090141899785,2160
61.56659248179983,2524
64.02041642241159,2456
66.4735621620365,2411
68.92602989905402,2700
71.37781983192338,2621
73.82893215918205,2146
76.27936707944684,1777
78.72912479141326,1897
81.17820549385567,1615
83.62660938562783,1471
86.07433666566146,1505
88.5213875329681,1536
90.96776218663751,1640
93.41346082583925,1875
95.85848364982041,2096
98.30283085790859,1781
100.7465026495089,1710
103.18949922410604,1875
105.63182078126385,1565
108.07346752062438,1567
110.51443964190923,1425
112.95473734491827,1317
115.39436082953114,1350
117.83331029570547,1524
120.27158594347827,1669
122.7091879729652,1626
125.1461165843615,1495
127.58237197794062,1185
130.01795435405518,1267
132.4528639131364,1284
134.88710085569494,1389
137.32066538231982,1628
139.75355769367923,1405
142.1857779905207,1272
144.61732647366978,1350
147.04820334403132,1315
149.47840880258934,1304
151.90794305040674,1311
154.33680628862487,1398
156.76499871846443,1613
159.19252054122433,1698
161.61937195828352,1882
164.04555317109896,2048
166.47106438120693,2358
168.89590579022217,2593
171.320077599839,2864
173.7435800118302,3044
176.16641322804742,2996
178.58857745042144,3284
181.01007288096173,3545
183.43089972175687,3336
185.85105817497413,3318
188.27054844285988,3422
190.6893707277394,3384
193.10752523201643,3422
195.5250121581745,3460
197.9418317087751,3571
200.3579840864594,3460
202.7734694939469,3671
205.18828813403627,3845
207.6024402096051,3786
210.01592592360964,3725
212.42874547908548,3672
214.84089907914665,3637
217.2523869269868,3603
219.66320922587727,3575
222.0733661791695,3513
224.48285799029293,3470
226.8916848627572,3769
229.29984700014882,3812
231.7073446061355,3716
234.11417788446204,3683
236.520347038953,3805
238.92585227351185,3931
241.33069379212054,3885
243.73487179884035,4128
246.1383864978112,4188
248.541238093252,4100
250.9434267894609,4216
253.34495279081432,4148
255.74581630176783,4306
258.1460175268563,4298
260.54555667069314,4364
262.9444339379703,4208
265.3426495334594,4094
267.7402036620107,3946
270.1370965285529,3700
272.53332833809407,3529
274.9288992957214,3417
277.32380960660055,3294
279.718059475976,3420
282.1116491091717,3250
284.5045787115897,3164
286.89684848871195,3086
289.2884586460981,3198
291.67940938938807,3244
294.0697009242996,3186
296.4593334566299,3171
298.84830719225477,3187
301.23662233712923,3108
303.6242790972866,3059
306.01127767884,3036
308.39761828798066,3033
310.78330113097934,2869
313.16832641418534,2777
315.5526943440269,2757
317.9364051270112,2877
320.3194589697242,2782
322.70185607883093,2787
325.0835966610754,2653
327.4646809232805,2645
329.8451090723478,2641
332.2248813152577,2674
334.6039978590701,2636
336.9824589109231,2663
339.36026467803447,2534
341.7374153677,2637
344.113911187295,2672
346.48975234427337,2543
348.8649390461686,2645
351.2394715005918,2534
353.61334991523415,2443
355.9865744978655,2514
358.35914545633375,2495
360.73106299856715,2595
363.10232733257146,2453
365.47293866643247,2500
367.84289720831396,2435
370.2122031664593,2408
372.5808567491905,2444
374.9488581649083,2470
377.31620762209275,2451
379.6829053293021,2379
382.0489514951745,2315
384.4143463284262,2311
386.7790900378528,2343
389.14318283232853,2352
391.50662492080653,2275
393.86941651231916,2343
396.23155781597745,2429
398.5930490409713,2414
400.9538903965696,2341
403.3140820921202,2325
405.6736243370498,2299
408.03251734086336,2264
410.3907613131465,2307
412.74835646356166,2274
415.10530300185144,2255
417.4616011378372,2314
419.81725108141893,2365
422.1722530425758,2333
424.5266072313656,2347
426.880313857925,2273
429.2333731324701,2290
431.58578526529516,2299
433.9375504667738,2299
436.2886689473588,2307
438.63914091758113,2318
440.9889665880513,2211
443.33814616945835,2226
445.68667987257015,2208
448.03456790823395,2213
450.3818104873759,2219
452.72840782100013,2133
455.07436012019105,2161
457.41966759611057,2266
459.7643304600007,2215
462.10834892318155,2221
464.4517231970525,2181
466.79445349309174,2132
469.1365400228566,2291
471.4779829979826,2307
473.81878263018564,2267
476.15893913125876,2255
478.4984527130747,2343
480.8373235875855,2423
483.17555196682144,2448
485.5131380628919,2418
487.8500820879857,2673
490.1863842543697,2675
492.52204477439034,2871
494.8570638604725,3038
497.1914417251204,3394
499.52517858091653,3731
501.85827464052306,3785
504.19073011668036,3953
506.5225452222086,3998
508.85372017000566,4012
511.18425517304956,4001
513.514150444396,4369
515.8434061971808,5597
518.1720226446176,6548
520.4999999999999,6591
522.8273384766991,6452
525.1540382881666,5905
527.480099647932,5335
529.8055227696037,4301
532.1303078668694,3315
534.454455153496,2735
536.777964843328,2436
539.1008371502907,2494
541.4230722883866,2414
543.744670471698,2344
546.0656319143858,2296
548.3859568306899,2351
550.7056454349294,2296
553.0246979415016,2172
555.3431145648834,2274
557.6608955196306,2185
559.978041020377,2215
562.2945512818363,2248
564.6104265188006,2244
566.9256669461412,2239
569.2402727788082,2271
571.5542442318302,2250
573.8675815203156,2274
576.1802848594508,2249
578.4923544645015,2322
580.8037905508126,2358
583.114593333807,2356
585.4247630289875,2347
587.7342998519354,2283
590.0432040183106,2310
592.3514757438526,2328
594.6591152443794,2354
596.9661227357875,2314
599.2724984340531,2328
601.578242555231,2291
603.8833553154542,2305
606.1878369309362,2323
608.4916876179676,2329
610.7949075929192,2285
613.0974970722403,2233
615.3994562724587,2249
617.7007854101818,2264
620.0014847020951,2295
622.3015543649641,2351
624.6009946156324,2309
626.8998056710224,2351
629.1979877481361,2294
631.4955410640538,2347
633.7924658359349,2290
636.0887622810175,2288
638.3844306166192,2314
640.6794710601358,2326
642.9738838290426,2332
645.2676691408932,2433
647.5608272133207,2446
649.853358264037,2389
652.1452625108324,2354
654.4365401715764,2377
656.7271914642178,2388
659.0172166067838,2464
661.3066158173809,2367
663.5953893141935,2388
665.8835373154867,2447
668.1710600396028,2437
670.4579577049639,2454
672.7442305300709,2434
675.0298787335033,2415
677.3149025339197,2429
679.599302150058,2375
681.8830778007342,2347
684.1662297048437,2395
686.4487580813608,2326
688.7306631493387,2362
691.0119451279091,2361
693.2926042362834,2278
695.5726406937516,2369
697.8520547196814,2393
700.1308465335215,2286
702.4090163547982,2286
704.6865644031171,2371
706.9634908981619,2288
709.2397960596965,2307
711.5154801075631,2280
713.7905432616823,2327
716.0649857420548,2311
718.3388077687592,2382
720.612009561953,2373
722.8845913418733,2358
725.1565533288352,2259
727.427895743234,2279
729.6986188055427,2275
731.9687227363137,2253
734.238207756178,2301
736.5070740858458,2290
738.7753219461066,2308
741.0429515578281,2260
743.3099631419569,2326
745.5763569195191,2278
747.8421331116193,2244
750.1072919394409,2279
752.3718336242467,2291
754.6357583873777,2257
756.8990664502545,2261
759.1617580343765,2342
761.423833361321,2271
763.6852926527457,2399
765.9461361303862,2364
768.206364016058,2305
770.4659765316536,2331
772.7249738991469,2238
774.9833563405886,2331
777.2411240781092,2288
779.4982773339183,2247
781.7548163303044,2295
784.010741289634,2373
786.2660524343538,2346
788.5207499869881,2338
790.7748341701416,2367
793.0283052064964,2306
795.2811633188143,2396
797.5334087299362,2376
799.7850416627813,2365
802.0360623403484,2384
804.2864709857143,2350
806.5362678220353,2311
808.7854530725468,2435
811.0340269605625,2400
813.2819897094754,2364
815.5293415427581,2386
817.77608268396,2381
820.0222133567116,2407
822.2677337847211,2398
824.5126441917765,2449
826.7569448017433,2396
829.0006358385675,2392
831.2437175262731,2339
833.4861900889629,2343
835.7280537508192,2396
837.9693087361026,2450
840.2099552691533,2379
842.4499935743896,2400
844.689423876309,2411
846.9282463994886,2427
849.1664613685833,2365
851.4040690083276,2323
853.6410695435349,2466
855.877463199097,2428
858.1132501999847,2387
860.3484307712487,2484
862.5830051380175,2411
864.8169735254988,2412
867.0503361589791,2402
869.2830932638243,2411
871.5152450654786,2395
873.7467917894654,2397
875.9777336613873,2444
878.2080709069252,2322
880.4378037518389,2456
882.666932421968,2434
884.8954571432301,2500
887.1233781416219,2524
889.3506956432192,2519
891.5774098741766,2523
893.803521060728,2500
896.0290294291852,2450
898.2539352059397,2423
900.4782386174619,2446
902.7019398903011,2516
904.925039251085,2445
907.147536926521,2515
909.3694331433943,2582
911.59072812857,2490
913.8114221089921,2426
916.0315153116827,2326
918.2510079637437,2450
920.4699002923547,2452
922.6881925247761,2438
924.905884888345,2422
927.1229776104793,2520
929.3394709186747,2425
931.555365040506,2438
933.7706602036275,2399
935.9853566357709,2466
938.1994545647489,2420
940.4129542184515,2563
942.6258558248488,2534
944.8381596119883,2498
947.0498658079974,2503
949.2609746410825,2461
951.4714863395287,2415
953.6814011316998,2400
955.8907192460387,2418
958.0994409110671,2489
960.3075663553858,2445
962.5150958076741,2411
964.7220294966913,2462
966.928367651274,2463
969.1341105003388,2439
971.3392582728806,2369
973.5438111979742,2424
975.747769504772,2363
977.9511334225061,2369
980.153903180487,2311
982.3560790081052,2367
984.5576611348289,2336
986.7586497902058,2309
988.9590452038618,2360
991.158847605503,2274
993.3580572249133,2189
995.5566742919558,2137
997.7546990365728,2209
999.952131688785,2135
1002.1489724786926,2184
1004.3452216364743,2102
1006.5408793923874,2100
1008.7359459767691,2131
1010.9304216200343,2088
1013.1243065526781,2017
1015.3176010052733,2032
1017.510305208472,2008
1019.7024193930064,2013
1021.8939437896848,2006
1024.0848786293977,2002
1026.2752241431122,2031
1028.4649805618747,2027
1030.6541481168115,2007
1032.842727039127,1999
1035.0307175601051,1959
1037.2181199111074,1957
1039.4049343235752,2022
1041.591161029029,1986
1043.7768002590683,1971
1045.9618522453698,1947
1048.1463172196918,1964
1050.3301954138697,2011
1052.513487059818,1990
1054.69619238953,1994
1056.8783116350783,1943
1059.0598450286152,2017
1061.2407928023704,1938
1063.4211551886528,1946
1065.6009324198508,1943
1067.780124728432,1917
1069.9587323469414,2004
1072.1367555080046,1976
1074.314194444325,1895
1076.4910493886855,1928
1078.667320573947,1878
1080.843008233051,1977
1083.0181125990161,1960
1085.1926339049414,1891
1087.3665723840027,1925
1089.5399282694575,1909
1091.7127017946405,1902
1093.8848931929647,1886
1096.0565026979243,1845
1098.2275305430899,1876
1100.3979769621128,1916
1102.567842188722,1907
1104.737126456726,1867
1106.9058300000124,1831
1109.0739530525475,1819
1111.2414958483764,1864
1113.4084586216231,1892
1115.5748416064907,1821
1117.7406450372605,1784
1119.9058691482942,1852
1122.0705141740304,1851
1124.2345803489884,1843
1126.3980679077658,1845
1128.5609770850388,1825
1130.7233081155623,1835
1132.8850612341707,1855
1135.0462366757774,1874
1137.2068346753745,1759
1139.3668554680326,1787
1141.526299288901,1789
1143.68516637321,1818
1145.8434569562655,1797
1148.001171273455,1806
1150.158309560244,1899
1152.3148720521767,1840
1154.470858984876,1807
1156.626270594044,1878
1158.7811071154629,1827
1160.9353687849912,1770
1163.089055838569,1873
1165.242168512213,1823
1167.3947070420209,1843
1169.5466716641677,1767
1171.6980626149075,1856
1173.8488801305748,1843
1175.9991244475814,1836
1178.1487958024186,1771
1180.2978944316555,1759
1182.4464205719428,1804
1184.5943744600072,1784
1186.7417563326567,1716
1188.8885664267755,1808
1191.0348049793297,1797
1193.1804722273619,1822
1195.325568407995,1788
1197.4700937584303,1777
1199.614048515948,1737
1201.7574329179074,1832
1203.900247201746,1790
1206.042491604982,1848
1208.1841663652099,1816
1210.3252717201053,1858
1212.465807907422,1847
1214.6057751649923,1815
1216.7451737307279,1839
1218.8840038426192,1828
1221.0222657387353,1837
1223.1599596572241,1867
1225.2970858363137,1810
1227.4336445143094,1871
1229.5696359295966,1803
1231.705060320639,1920
1233.8399179259786,1940
1235.9742089842384,1870
1238.107933734118,1963
1240.2410924143974,1859
1242.373685263935,1884
1244.5057125216676,1978
1246.6371744266116,1846
1248.7680712178621,1863
1250.898403134593,1846
1253.028170416058,1893
1255.1573733015875,1934
1257.2860120305932,1858
1259.4140868425648,1879
1261.54159797707,1922
1263.6685456737569,1963
1265.7949301723515,1921
1267.9207517126597,1966
1270.046010534565,1933
1272.1707068780306,1957
1274.2948409830983,1913
1276.4184130898889,2033
1278.541423438603,2004
1280.6638722695184,1983
1282.785759822993,2011
1284.9070863394636,1982
1287.0278520594447,2033
1289.1480572235314,2074
1291.2677020723963,2010
1293.3867868467923,2038
1295.5053117875495,2023
1297.623277135579,2049
1299.740683131868,2004
1301.8575300174857,2049
1303.973818033578,2018
1306.0895474213703,2124
1308.2047184221678,2148
1310.3193312773528,2119
1312.4333862283888,2120
1314.5468835168163,2058
1316.659823384255,2143
1318.7722060724045,2115
1320.8840318230418,2113
1322.9953008780249,2062
1325.1060134792888,2149
1327.2161698688478,2134
1329.3257702887959,2081
1331.4348149813054,2097
1333.5433041886276,2157
1335.6512381530933,2098
1337.7586171171101,2096
1339.8654413231675,2116
1341.9717110138317,2160
1344.0774264317488,2109
1346.1825878196432,2079
1348.2871954203192,2128
1350.3912494766587,2083
1352.4947502316231,2017
1354.5976979282532,2076
1356.7000928096686,2001
1358.8019351190665,2096
1360.9032250997243,2068
1363.0039629949988,2055
1365.1041490483235,2161
1367.2037835032133,2118
1369.3028666032606,2140
1371.401398592137,2153
1373.4993797135926,2152
1375.5968102114575,2087
1377.6936903296396,2070
1379.7900203121262,2112
1381.8858004029835,2104
1383.9810308463561,2134
1386.075711886469,2183
1388.1698437676241,2124
1390.2634267342032,2282
1392.356461030667,2222
1394.4489469015557,2197
1396.5408845914872,2194
1398.6322743451592,2209
1400.7231164073469,2227
1402.813411022907,2129
1404.903158436773,2283
1406.9923588939578,2270
1409.0810126395531,2295
1411.1691199187303,2321
1413.2566809767386,2381
1415.343696058907,2344
1417.4301654106425,2401
1419.5160892774315,2403
1421.6014679048399,2361
1423.6863015385125,2402
1425.7705904241707,2490
1427.8543348076178,2410
1429.9375349347342,2472
1432.0201910514802,2540
1434.102303403894,2576
1436.1838722380944,2556
1438.2648978002767,2625
1440.3453803367174,2640
1442.4253200937692,2736
1444.5047173178677,2803
1446.5835722555234,2755
1448.6618851533285,2805
1450.739656257952,2801
1452.8168858161434,2944
1454.8935740747306,2992
1456.96972128062,3028
1459.045327680797,3046
1461.120393522327,3144
1463.1949190523528,3118
1465.2689045180973,3194
1467.3423501668608,3369
1469.415256246024,3447
1471.4876230030463,3353
1473.559450685465,3574
1475.6307395408976,3540
1477.7014898170391,3689
1479.771701761665,3719
1481.8413756226287,3745
1483.9105116478618,3889
1485.9791100853772,3969
1488.0471711832643,3996
1490.1146951896926,4115
1492.1816823529098,4168
1494.2481329212433,4135
1496.3140471430984,4314
1498.3794252669609,4254
1500.4442675413939,4340
1502.5085742150404,4382
1504.572345536622,4271
1506.6355817549388,4471
1508.6982831188702,4594
1510.7604498773744,4649
1512.8220822794883,4669
1514.8831805743293,4533
1516.9437450110909,4735
1519.003775839048,4707
1521.0632733075522,4782
1523.1222376660367,4694
1525.1806691640113,4929
1527.2385680510652,4955
1529.2959345768668,5012
1531.3527689911643,5202
1533.4090715437833,5121
1535.4648424846291,5168
1537.5200820636855,5341
1539.5747905310159,5371
1541.6289681367616,5343
1543.6826151311434,5356
1545.7357317644614,5527
1547.7883182870937,5654
1549.8403749494987,5663
1551.8919020022113,5834
1553.9428996958477,5926
1555.9933682811015,6149
1558.0433080087469,6197
1560.0927191296346,6247
1562.1416018946961,6127
1564.1899565549415,6414
1566.2377833614592,6377
1568.2850825654164,6094
1570.3318544180606,5980
1572.3780991707158,5666
1574.423817074788,5477
1576.4690083817595,5171
1578.5136733431923,4970
1580.5578122107272,4714
1582.601425236085,4464
1584.6445126710646,4183
1586.6870747675434,4123
1588.7291117774776,3846
1590.7706239529034,3657
1592.8116115459347,3573
1594.8520748087658,3393
1596.8920139936686,3163
1598.9314293529933,3090
1600.9703211391711,2971
1603.008689604711,2959
1605.0465350022005,2872
1607.0838575843068,2684
1609.1206576037753,2697
1611.1569353134305,2653
1613.1926909661765,2538
1615.2279248149953,2453
1617.2626371129481,2457
1619.2968281131757,2336
1621.3304980688963,2314
1623.3636472334088,2378
1625.39627586009,2195
1627.428384202396,2253
1629.459972513861,2135
1631.4910410480993,2221
1633.5215900588028,2234
1635.551619799744,2176
1637.5811305247717,2126
1639.6101224878166,2074
1641.6385959428862,2039
1643.6665511440683,2074
1645.693988345528,2052
1647.7209078015112,2068
1649.7473097663405,2107
1651.7731944944203,2061
1653.7985622402307,2067
1655.823413258333,1985
1657.847747803366,2007
1659.8715661300494,1955
1661.8948684931793,1979
1663.9176551476316,2010
1665.9399263483624,1997
1667.9616823504057,2014
1669.982923408873,1925
1672.0036497789574,1976
1674.0238617159293,1936
1676.043559475138,1987
1678.0627433120121,1962
1680.081413482059,1966
1682.0995702408654,1925
1684.117213844096,1930
1686.134344547495,1957
1688.1509626068864,1950
1690.1670682781705,1959
1692.182661817329,1948
1694.1977434804217,1947
1696.2123135235875,1964
1698.226372203043,1956
1700.2399197750851,1938
1702.2529564960905,1869
1704.2654826225112,1966
1706.277498410882,1945
1708.2890041178139,1903
1710.2999999999988,1949
1712.3104863142066,1880
1714.3204633172854,1916
1716.329931266163,1901
1718.3388904178469,1972
1720.3473410294214,1904
1722.3552833580516,1818
1724.3627176609807,1871
1726.3696441955308,1807
1728.3760632191033,1891
1730.3819749891782,1765
1732.3873797633146,1804
1734.3922777991502,1844
1736.3966693544012,1779
1738.4005546868639,1831
1740.4039340544127,1801
1742.406807715001,1872
1744.4091759266616,1812
1746.4110389475054,1834
1748.4123970357223,1690
1750.413250449582,1768
1752.4135994474318,1787
1754.4134442876993,1791
1756.4127852288902,1750
1758.4116225295893,1745
1760.4099564484595,1738
1762.407787244244,1749
1764.405115175764,1783
1766.4019405019203,1753
1768.3982634816916,1754
1770.3940843741357,1741
1772.3894034383907,1716
1774.3842209336717,1697
1776.378537119274,1805
1778.372352254571,1694
1780.3656665990156,1685
1782.3584804121397,1704
1784.3507939535534,1804
1786.3426074829463,1717
1788.3339212600863,1677
1790.3247355448211,1695
1792.3150505970766,1697
1794.3048666768573,1713
1796.2941840442477,1659
1798.2830029594106,1663
1800.2713236825884,1699
1802.2591464741004,1641
1804.2464715943465,1638
1806.2332993038058,1647
1808.2196298630352,1710
1810.2054635326708,1690
1812.190800573428,1689
1814.175641246101,1678
1816.1599858115628,1686
1818.1438345307652,1678
1820.127187664738,1663
1822.1100454745924,1672
1824.092408221516,1624
1826.0742761667766,1624
1828.055649571721,1657
1830.0365286977735,1672
1832.0169138064398,1679
1833.9968051593014,1665
1835.9762030180214,1672
1837.9551076443408,1636
1839.9335193000788,1619
1841.9114382471344,1646
1843.888864747485,1581
1845.8657990631878,1610
1847.842241456378,1587
1849.8181921892697,1606
1851.7936515241558,1618
1853.7686197234098,1601
1855.7430970494815,1587
1857.7170837649014,1596
1859.6905801322787,1629
1861.6635864143004,1619
1863.6361028737338,1684
1865.608129773424,1661
1867.5796673762961,1668
1869.5507159453537,1649
1871.521275743678,1651
1873.4913470344313,1721
1875.4609300808534,1640
1877.4300251462632,1667
1879.3986324940588,1620
1881.366752387717,1669
1883.3343850907936,1653
1885.3015308669228,1668
1887.268189979819,1671
1889.2343626932739,1663
1891.2000492711595,1712
1893.1652499774254,1695
1895.1299650761011,1619
1897.0941948312952,1657
1899.0579395071945,1610
1901.0211993680641,1689
1902.98397467825,1670
1904.9462657021745,1711
1906.9080727043415,1668
1908.869395949332,1617
1910.8302357018065,1716
1912.790592226504,1680
1914.7504657882428,1629
1916.7098566519212,1676
1918.6687650825133,1689
1920.6271913450764,1670
1922.5851357047422,1677
1924.5425984267245,1693
1926.499579776314,1622
1928.4560800188833,1758
1930.4120994198802,1642
1932.367638244833,1605
1934.32269675935,1695
1936.2772752291175,1677
1938.231373919899,1579
1940.1849930975404,1620
1942.1381330279637,1631
1944.0907939771696,1609
1946.0429762112412,1655
1947.9946799963363,1603
1949.9459055986945,1615
1951.896653284633,1653
1953.8469233205478,1640
1955.7967159729142,1551
1957.7460315082863,1571
1959.6948701932974,1695
1961.6432322946594,1629
1963.5911180791632,1620
1965.5385278136787,1572
1967.4854617651545,1699
1969.4319202006182,1700
1971.377903387176,1629
1973.3234115920136,1651
1975.268445082395,1595
1977.2130041256642,1622
1979.1570889892423,1637
1981.1006999406304,1595
1983.04383724741,1629
1984.986501177238,1554
1986.928691997853,1536
1988.8704099770712,1585
1990.811655382789,1626
1992.7524284829801,1567
1994.692729545698,1551
1996.6325588390755,1639
1998.5719166313224,1546
2000.5108031907307,1594
2002.4492187856677,1595
2004.387163684583,1556
2006.3246381560011,1531
2008.2616424685298,1554
2010.1981768908527,1570
2012.1342416917332,1616
2014.069837140014,1540
2016.0049635046162,1561
2017.9396210545406,1641
2019.8738100588666,1565
2021.8075307867502,1552
2023.740783507431,1569
2025.6735684902228,1526
2027.6058860045214,1568
2029.5377363198004,1622
2031.4691197056118,1568
2033.4000364315875,1526
2035.3304867674374,1494
2037.260470982952,1580
2039.189989347998,1582
2041.1190421325232,1523
2043.047629606554,1574
2044.9757520401945,1576
2046.9034097036288,1608
2048.8306028671195,1557
2050.7573318010086,1547
2052.683596775716,1514
2054.609398061742,1530
2056.5347359296647,1541
2058.4596106501403,1484
2060.384022493906,1565
2062.3079717317764,1559
2064.231458634646,1547
2066.1544834734873,1508
2068.077046519352,1526
2069.99914804337,1456
2071.9207883167524,1521
2073.8419676107865,1550
2075.7626861968406,1568
2077.6829443463607,1508
2079.6027423308715,1519
2081.522080421977,1517
2083.440958891362,1475
2085.359378010786,1587
2087.2773380520907,1505
2089.194839287196,1529
2091.111881988101,1559
2093.0284664268825,1548
2094.9445928756973,1488
2096.86026160678,1552
2098.775472892446,1512
2100.690227005088,1557
2102.604524217178,1511
2104.5183648012676,1598
2106.431749029985,1509
2108.34467717604,1569
2110.2571495122206,1569
2112.169166311393,1433
2114.080727846503,1540
2115.9918343905747,1530
2117.902486216711,1562
2119.8126835980956,1513
2121.722426807987,1476
2123.6317161197285,1568
2125.5405518067364,1542
2127.448934142509,1579
2129.356863400624,1552
2131.264339854737,1585
2133.1713637785815,1548
2135.077935445972,1526
2136.9840551308002,1585
2138.889723107037,1538
2140.7949396487334,1555
2142.699705030018,1565
2144.6040195250994,1578
2146.507883408264,1522
2148.4112969538774,1515
2150.3142604363848,1515
2152.2167741303097,1546
2154.1188383102535,1555
2156.0204532508997,1582
2157.9216192270064,1564
2159.822336513414,1589
2161.7226053850413,1548
2163.622426116884,1521
2165.5217989840185,1567
2167.4207242616,1513
2169.319202224862,1596
2171.2172331491165,1582
2173.1148173097563,1554
2175.0119549822507,1604
2176.90864644215,1565
2178.8048919650823,1560
2180.7006918267534,1574
2182.596046302952,1611
2184.4909556695407,1542
2186.3854202024645,1645
2188.279440177746,1593
2190.173015871487,1536
2192.066147559868,1597
2193.958835519149,1541
2195.851080025667,1562
2197.7428813558417,1509
2199.6342397861667,1617
2201.5251555932186,1596
2203.415629053651,1596
2205.3056604441986,1607
2207.19525004167,1608
2209.084398122958,1607
2210.9731049650327,1658
2212.861370844941,1551
2214.749196039812,1596
2216.636580826851,1626
2218.523525483344,1559
2220.410030286655,1542
2222.296095514226,1578
2224.1817214435805,1676
2226.066908352319,1622
2227.951656518121,1528
2229.835966218746,1585
2231.71983773203,1589
2233.6032713358913,1643
2235.486267308324,1589
2237.3688259274036,1628
2239.2509474712824,1604
2241.132632218193,1640
2243.013880446447,1604
2244.8946924344323,1544
2246.7750684606203,1588
2248.6550088035574,1613
2250.534513741871,1620
2252.413583554265,1660
2254.292218519526,1594
2256.170418916517,1589
2258.0481850241786,1595
2259.925517121534,1625
2261.8024154876825,1594
2263.678880401803,1635
2265.5549121431536,1683
2267.430510991071,1673
2269.305677224971,1609
2271.180411124348,1605
2273.0547129687766,1618
2274.9285830379076,1618
2276.8020216114737,1608
2278.6750289692845,1629
2280.5476053912294,1717
2282.4197511572766,1652
2284.2914665474727,1698
2286.162751841943,1767
2288.0336073208937,1744
2289.904033264608,1709
2291.774029953448,1666
2293.6435976678554,1656
2295.5127366883517,1636
2297.381447295534,1618
2299.2497297700825,1582
2301.1175843927526,1571
2302.9850114443825,1539
2304.852011205885,1475
2306.7185839582553,1449
2308.5847299825664,1412
2310.4504495599676,1462
2312.3157429716925,1405
2314.1806104990483,1417
2316.0450524234247,1431
2317.9090690262888,1433
2319.772660589186,1519
2321.635827393742,1444
2323.498569721661,1465
2325.3608878547248,1442
2327.2227820747967,1451
2329.0842526638157,1442
2330.945299903803,1485
2332.805924076857,1387
2334.6661254651535,1436
2336.525904350951,1450
2338.3852610165827,1451
2340.244195744464,1522
2342.102708817088,1448
2343.9608005170253,1467
2345.8184711269287,1479
2347.675720929526,1463
2349.532550207628,1419
2351.38895924412,1395
2353.24494832197,1453
2355.100517724223,1512
2356.955667734004,1430
2358.810398634514,1493
2360.664710709037,1500
2362.5186042409337,1462
2364.3720795136437,1513
2366.225136810686,1498
2368.0777764156583,1448
2369.929998612237,1504
2371.7818036841777,1474
2373.633191915315,1505
2375.484163589562,1487
2377.3347189909114,1444
2379.184858403434,1424
2381.03458211128,1457
2382.8838903986775,1506
2384.732783549936,1527
2386.5812618494406,1512
2388.4293255816588,1494
2390.2769750311327,1516
2392.1242104824883,1517
2393.971032220427,1492
2395.8174405297295,1507
2397.6634356952563,1519
2399.509018001947,1533
2401.3541877348193,1555
2403.1989451789705,1505
2405.043290619576,1524
2406.8872243418905,1515
2408.730746631247,1487
2410.5738577730594,1535
2412.4165580528183,1516
2414.258847756095,1507
2416.100727168537,1524
2417.9421965758734,1475
2419.783256263912,1516
2421.623906518538,1504
2423.4641476257157,1549
2425.303979871491,1557
2427.143403541984,1442
2428.9824189233977,1544
2430.821026302012,1554
2432.6592259641866,1510
2434.497018196361,1600
2436.33440328505,1525
2438.171381516851,1543
2440.00795317844,1492
2441.844118556569,1541
2443.6798779380724,1542
2445.5152316098606,1530
2447.3501798589255,1513
2449.1847229723357,1512
2451.0188612372403,1470
2452.8525949408663,1552
2454.6859243705203,1543
2456.518849813587,1570
2458.3513715575314,1502
2460.183489889895,1551
2462.015205098301,1562
2463.8465174704493,1576
2465.67742729412,1502
2467.5079348571717,1527
2469.338040447542,1551
2471.1677443532476,1513
2472.9970468623833,1529
2474.825948263123,1587
2476.6544488437207,1488
2478.482548892508,1583
2480.310248697896,1543
2482.137548548374,1535
2483.9644487325118,1560
2485.790949538956,1561
2487.617051256433,1599
2489.44275417375,1602
2491.26805857979,1513
2493.0929647635157,1603
2494.917473013971,1630
2496.741583620276,1609
2498.5652968716304,1610
2500.3886130573137,1680
2502.2115324666834,1633
2504.0340553891765,1584
2505.856182114308,1719
2507.6779129316733,1669
2509.499248130945,1650
2511.3201880018764,1664
2513.140732834298,1684
2514.9608829181198,1631
2516.780638543331,1688
2518.6,1671
2520.418967578273,1584
2522.237541568376,1645
2524.0557222606144,1669
2525.8735099453706,1732
2527.6909049131086,1704
2529.507907454368,1707
2531.32451785977,1679
2533.140736420014,1762
2534.9565634258774,1716
2536.771999168218,1772
2538.5870439379714,1757
2540.4016980261526,1773
2542.2159617238544,1721
2544.02983532225,1767
2545.8433191125914,1811
2547.656413386209,1884
2549.4691184345115,1855
2551.2814345489874,1889
2553.093362021204,1882
2554.904901142808,1883
2556.716052205523,1946
2558.526815501153,1907
2560.3371913215824,1942
2562.147179958771,1916
2563.956781704761,1921
2565.7659968516705,1905
2567.5748256916986,1974
2569.3832685171224,2000
2571.1913256202984,2048
2572.9989972936614,2057
2574.806283829725,2073
2576.613185521084,2085
2578.4197026604074,2067
2580.2258355404483,2107
2582.031584454035,2110
2583.836949694077,2112
2585.6419315535613,2148
2587.4465303255533,2138
2589.2507463032002,2123
2591.0545797797245,2082
2592.8580310484303,2211
2594.6611004026995,2170
2596.463788135992,2211
2598.266094541849,2182
2600.0680199138874,2144
2601.869564545807,2198
2603.670728731383,2184
2605.4715127644704,2215
2607.2719169390048,2161
2609.071941548998,2184
2610.8715868885433,2229
2612.670853251811,2156
2614.469740933052,2154
2616.268250226594,2186
2618.0663814268455,2131
2619.864134828292,2096
2621.6615107255006,2161
2623.458509413115,2186
2625.2551311858597,2177
2627.0513763385347,2101
2628.8472451660223,2075
2630.6427379632833,2089
2632.4378550253564,1996
2634.232596647359,2053
2636.026963124488,2014
2637.8209547520187,2032
2639.6145718253065,1986
2641.407814639785,1938
2643.200683490966,1935
2644.9931786744414,1932
2646.7853004858807,1900
2648.577049221034,1911
2650.3684251757277,1919
2652.1594286458712,1860
2653.9500599274484,1825
2655.740319316525,1827
2657.5302071092437,1833
2659.3197236018286,1779
2661.10886909058,1783
2662.8976438718782,1805
2664.686048242183,1790
2666.4740824980327,1771
2668.2617469360443,1764
2670.0490418529134,1742
2671.8359675454153,1685
2673.622524310403,1724
2675.408712444811,1649
2677.1945322456495,1705
2678.979984010009,1629
2680.76506803506,1664
2682.5497846180497,1706
2684.334134056306,1574
2686.1181166472343,1686
2687.9017326883213,1669
2689.6849824771293,1635
2691.4678663113013,1593
2693.2503844885596,1610
2695.032537306705,1620
2696.8143250636167,1601
2698.5957480572542,1536
2700.3768065856534,1535
2702.1575009469316,1549
2703.937831439283,1606
2705.717798360982,1563
2707.4974020103837,1564
2709.276642685917,1622
2711.055520686095,1568
2712.834036309506,1558
2714.612189854819,1512
2716.389981620782,1547
2718.1674119062204,1462
2719.944481010041,1471
2721.721189231226,1523
2723.4975368688415,1541
2725.273524222027,1506
2727.0491515900053,1494
2728.824419272075,1512
2730.5993275676146,1545
2732.3738767760838,1500
2734.148067197016,1488
2735.921899130031,1426
2737.6953728748194,1485
2739.468488731156,1484
2741.2412469988926,1487
2743.0136479779617,1477
2744.785691968372,1405
2746.5573792702116,1408
2748.3287101836504,1436
2750.099685008934,1462
2751.870304046388,1423
2753.640567596418,1434
2755.4104759595057,1456
2757.1800294362156,1468
2758.949228327187,1499
2760.7180729331412,1434
2762.486563554877,1406
2764.254700493272,1507
2766.022484049284,1411
2767.789914523947,1448
2769.5569922183786,1411
2771.3237174337705,1396
2773.090090471394,1442
2774.8561116326036,1437
2776.6217812188274,1473
2778.3870995315756,1437
2780.1520668724356,1447
2781.9166835430747,1455
2783.6809498452394,1465
2785.444866080754,1448
2787.2084325515225,1448
2788.971649559527,1397
2790.73451740683,1423
2792.4970363955713,1463
2794.2592068279705,1429
2796.0210290063264,1367
2797.7825032330147,1427
2799.543629810493,1407
2801.304409041296,1439
2803.0648412280366,1412
2804.8249266734088,1413
2806.5846656801846,1477
2808.344058551212,1419
2810.1031055894246,1457
2811.8618070978273,1429
2813.6201633795085,1438
2815.378174737636,1357
2817.1358414754536,1420
2818.893163896285,1460
2820.6501423035334,1393
2822.4067770006814,1390
2824.1630682912883,1441
2825.9190164789957,1454
2827.6746218675207,1389
2829.429884760661,1442
2831.184805462294,1423
2832.9393842763743,1425
2834.693621506936,1433
2836.4475174580916,1374
2838.201072434034,1386
2839.954286739034,1398
2841.707160677441,1395
2843.459694553685,1406
2845.2118886722724,1364
2846.96374333779,1473
2848.7152588549034,1458
2850.4664355283567,1442
2852.217273662973,1422
2853.9677735636546,1416
2855.7179355353833,1392
2857.4677598832186,1444
2859.217246912299,1432
2860.9663969278427,1457
2862.715210235146,1407
2864.4636871395846,1373
2866.211827946614,1413
2867.9596329617652,1371
2869.7071024906536,1319
2871.4542368389684,1390
2873.20103631248,1383
2874.947501217038,1436
2876.6936318585695,1431
2878.4394285430812,1384
2880.1848915766604,1437
2881.9300212654707,1383
2883.6748179157553,1346
2885.4192818338374,1366
2887.1634133261173,1354
2888.907212699077,1365
2890.6506802592744,1447
2892.393816313348,1377
2894.1366211680142,1354
2895.8790951300693,1387
2897.621238506388,1391
2899.363051603925,1419
2901.1045347297118,1354
2902.8456881908596,1398
2904.58651229456,1394
2906.327007348081,1437
2908.067173658772,1397
2909.8070115340597,1372
2911.5465212814497,1359
2913.285703208527,1368
2915.0245576229563,1387
2916.7630848324807,1358
2918.5012851449196,1423
2920.2391588681758,1457
2921.976706310227,1405
2923.7139277791334,1341
2925.4508235830313,1399
2927.187394030137,1379
2928.923639428745,1456
2930.6595600872306,1400
2932.395156314046,1359
2934.1304284177218,1383
2935.8653767068713,1375
2937.6000014901815,1345
2939.3343030764227,1359
2941.068281774442,1443
2942.8019378931644,1424
2944.5352717415976,1380
2946.2682836288236,1407
2948.0009738640065,1432
2949.7333427563885,1415
2951.465390615289,1391
2953.1971177501086,1370
2954.9285244703265,1404
2956.6596110855,1386
2958.3903779052657,1394
2960.1208252393385,1411
2961.8509533975125,1361
2963.5807626896617,1391
2965.3102534257378,1355
2967.0394259157715,1328
2968.768280469873,1449
2970.496817398232,1414
2972.2250370111146,1401
2973.952939618869,1356
2975.6805255319196,1367
2977.4077950607707,1424
2979.134748516006,1389
2980.861386208289,1485
2982.587708448359,1438
2984.313715547037,1419
2986.039407815222,1444
2987.764785563891,1348
2989.489849104102,1409
2991.2145987469908,1391
2992.9390348037705,1455
2994.6631575857346,1345
2996.3869674042576,1351
2998.1104645707887,1364
2999.83364939686,1426
3001.5565221940783,1388
3003.2790832741334,1384
3005.0013329487924,1297
3006.7232715298996,1366
3008.4448993293804,1379
3010.166216659239,1353
3011.887223831558,1363
3013.607921158498,1422
3015.3283089522993,1394
3017.0483875252826,1388
3018.7681571898443,1363
3020.4876182584626,1420
3022.2067710436927,1354
3023.9256158581707,1484
3025.644153014609,1432
3027.362382825801,1461
3029.0803056046193,1350
3030.797921664012,1382
3032.5152313170106,1309
3034.2322348767225,1347
3035.9489326563353,1365
3037.665324969115,1389
3039.3814121284063,1416
3041.097194447633,1430
3042.812672240299,1415
3044.5278458199855,1407
3046.2427155003525,1410
3047.9572815951406,1366
3049.671544418167,1358
3051.38550428333,1433
3053.0991615046073,1352
3054.812516396051,1370
3056.5255692717974,1351
3058.2383204460575,1326
3059.9507702331257,1407
3061.662918947372,1416
3063.3747669032446,1379
3065.0863144152736,1380
3066.7975617980674,1423
3068.508509366309,1386
3070.219157434767,1392
3071.9295063182844,1383
3073.639556331785,1393
3075.3493077902704,1316
3077.058761008821,1394
3078.7679163025964,1384
3080.476773986837,1355
3082.1853343768594,1369
3083.89359778806,1395
3085.6015645359153,1364
3087.3092349359786,1420
3089.016609303884,1375
3090.7236879553434,1355
3092.4304712061476,1399
3094.136959372166,1401
3095.843152769349,1394
3097.5490517137237,1388
3099.2546565213966,1347
3100.959967508554,1393
3102.66498499146,1361
3104.3697092864577,1439
3106.0741407099695,1390
3107.778279578498,1433
3109.482126208622,1346
3111.1856809170004,1450
3112.8889440203716,1419
3114.5919158355528,1428
3116.294596679439,1438
3117.996986869006,1380
3119.6990867213062,1407
3121.4008965534726,1388
3123.102416682717,1421
3124.803647426329,1380
3126.5045891016784,1442
3128.205242026213,1414
3129.90560651746,1393
3131.605682893025,1399
3133.3054714705922,1367
3135.0049725679282,1422
3136.7041865028714,1383
3138.4031135933465,1373
3140.101754157353,1398
3141.800108512971,1401
3143.498176978357,1372
3145.1959598717494,1385
3146.8934575114636,1376
3148.5906702158954,1359
3150.2875983035183,1329
3151.9842420928853,1353
3153.680601902627,1370
3155.376678051456,1377
3157.07247085816,1413
3158.767980641609,1379
3160.463207720748,1422
3162.158152414606,1427
3163.8528150422862,1379
3165.5471959229726,1384
3167.2412953759303,1391
3168.9351137204976,1365
3170.628651276098,1347
3172.3219083622307,1377
3174.014885298474,1382
3175.707582404485,1363
3177.4000000000005,1387
3179.092138404835,1368
3180.7839979388846,1400
3182.47557892212,1345
3184.166881674594,1343
3185.8579065164386,1347
3187.5486537678626,1360
3189.2391237491547,1384
3190.9293167806827,1356
3192.6192331828934,1337
3194.3088732763117,1369
3195.998237381542,1284
3197.687325819268,1374
3199.376138910251,1356
3201.064676975334,1317
3202.7529403354347,1334
3204.4409293115523,1325
3206.1286442247647,1317
3207.816085396229,1298
3209.5032531471825,1290
3211.190147798936,1291
3212.8767696728846,1317
3214.5631190905015,1261
3216.2491963733373,1347
3217.9350018430214,1282
3219.6205358212637,1271
3221.305798629851,1327
3222.990790590651,1327
3224.6755120256103,1319
3226.359963256751,1300
3228.0441446061795,1223
3229.7280563960758,1294
3231.411698948703,1327
3233.0950725863995,1334
3234.778177631587,1327
3236.461014406761,1329
3238.1435832345005,1319
3239.8258844374595,1337
3241.507918338374,1349
3243.1896852600576,1360
3244.8711855254023,1356
3246.552419457381,1283
3248.233387379042,1357
3249.914089613516,1345
3251.59452648401,1341
3253.274698313813,1381
3254.95460542629,1300
3256.6342481448855,1231
3258.313626793125,1289
3259.9927416946084,1290
3261.6715931730196,1283
3263.3501815521176,1372
3265.0285071557437,1288
3266.706570307815,1321
3268.3843713323286,1344
3270.0619105533615,1306
3271.739188295068,1311
3273.4162048816834,1327
3275.0929606375184,1292
3276.769455886966,1329
3278.445690954498,1334
3280.1216661646613,1323
3281.797381842087,1337
3283.4728383114807,1339
3285.1480358976296,1328
3286.8229749253996,1283
3288.4976557197333,1301
3290.172078605655,1373
3291.846243908266,1312
3293.5201519527463,1313
3295.193803064357,1297
3296.8671975684374,1347
3298.5403357904024,1332
3300.21321805575,1291
3301.8858446900567,1361
3303.558216018975,1361
3305.23033236824,1282
3306.9021940636603,1314
3308.57380143113,1330
3310.2451547966184,1371
3311.916254486174,1298
3313.5871008259246,1265
3315.2576941420766,1286
3316.9280347609147,1297
3318.5981230088046,1294
3320.2679592121895,1312
3321.9375436975924,1273
3323.606876791612,1301
3325.27595882093,1246
3326.944790112305,1304
3328.6133709925753,1285
3330.2817017886573,1297
3331.949782827547,1310
3333.617614436319,1309
3335.2851969421245,1312
3336.952530672199,1301
3338.619615953853,1260
3340.286453114475,1326
3341.9530424815357,1340
3343.619384382583,1291
3345.2854791452437,1279
3346.951327097224,1381
3348.6169285663073,1323
3350.2822838803577,1263
3351.947393367319,1319
3353.61225735521,1329
3355.2768761721345,1288
3356.9412501462693,1314
3358.605379605873,1303
3360.2692648792827,1279
3361.9329062949146,1337
3363.596304181263,1329
