CollectionTime,9/20/2024 12:07:14 PM
ExposureUsed,3
CalibratedSpectrum
-962.7078968117929,684
-959.9714848408522,707
-957.2358232597828,755
-954.5009119013725,750
-951.7667505983302,757
-949.0333391832855,758
-946.3006774887896,771
-943.5687653473143,802
-940.837602591253,750
-938.1071890529199,790
-935.3775245645503,762
-932.6486089583007,739
-929.9204420662485,734
-927.1930237203925,757
-924.4663537526524,770
-921.7404319948689,796
-919.0152582788041,801
-916.2908324361409,810
-913.5671542984834,766
-910.8442236973568,723
-908.1220404642074,738
-905.4006044304027,726
-902.679915427231,746
-899.959973285902,709
-897.2407778375464,731
-894.5223289132158,738
-891.8046263438832,748
-889.0876699604426,711
-886.3714595937089,705
-883.6559950744183,676
-880.9412762332282,699
-878.2273029007168,699
-875.5140749073835,712
-872.8015920836489,692
-870.0898542598545,703
-867.3788612662631,716
-864.6686129330585,730
-861.9591090903457,682
-859.2503495681506,706
-856.5423341964203,702
-853.8350628050229,689
-851.1285352237478,681
-848.4227512823054,692
-845.7177108103272,686
-843.0134136373656,694
-840.3098595928943,697
-837.6070485063082,723
-834.9049802069229,709
-832.2036545239757,742
-829.5030712866244,745
-826.8032303239481,726
-824.1041314649472,742
-821.4057745385428,667
-818.7081593735775,717
-816.0112857988148,730
-813.3151536429393,729
-810.6197627345566,724
-807.9251129021936,703
-805.2312039742981,722
-802.5380357792392,719
-799.8456081453069,693
-797.1539209007124,729
-794.462973873588,755
-791.772766891987,752
-789.083299783884,727
-786.3945723771743,753
-783.7065844996748,710
-781.0193359791231,714
-778.3328266431781,776
-775.6470563194197,722
-772.9620248353489,691
-770.2777320183878,732
-767.5941776958798,693
-764.9113616950891,728
-762.2292838432011,713
-759.5479439673222,714
-756.8673418944801,700
-754.1874774516235,759
-751.5083504656222,757
-748.8299607632671,740
-746.15230817127,781
-743.475392516264,741
-740.7992136248035,735
-738.1237713233636,735
-735.4490654383407,737
-732.7750957960521,743
-730.1018622227365,762
-727.4293645445534,745
-724.7576025875837,781
-722.0865761778291,783
-719.4162851412126,811
-716.7467293035781,821
-714.0779084906909,790
-711.409822528237,790
-708.7424712418238,778
-706.0758544569796,783
-703.4099719991541,817
-700.7448236937178,823
-698.0804093659622,812
-695.4167288411002,798
-692.7537819442656,829
-690.0915685005134,867
-687.4300883348199,800
-684.7693412720819,804
-682.1093271371178,815
-679.4500457546669,832
-676.7914969493897,841
-674.1336805458676,824
-671.4765963686034,865
-668.8202442420206,808
-666.1646239904642,846
-663.5097354382001,863
-660.8555784094151,898
-658.2021527282176,838
-655.5494582186366,859
-652.8974947046223,925
-650.2462620100463,854
-647.5957599587009,828
-644.9459883742998,854
-642.2969470804776,863
-639.6486359007902,923
-637.0010546587141,935
-634.3542031776476,915
-631.7080812809096,879
-629.0626887917401,882
-626.4180255333008,902
-623.7740913286734,912
-621.1308860008619,833
-618.4884093727904,824
-615.8466612673046,909
-613.2056415071715,873
-610.5653499150785,884
-607.9257863136347,926
-605.28695052537,896
-602.6488423727357,889
-600.0114616781036,883
-597.3748082637674,940
-594.7388819519412,886
-592.1036825647604,903
-589.4692099242818,869
-586.8354638524829,896
-584.2024441712624,879
-581.5701507024403,925
-578.9385832677575,960
-576.3077416888759,940
-573.6776257873787,934
-571.0482353847704,923
-568.4195703024757,890
-565.7916303618415,899
-563.164415384135,866
-560.5379251905453,948
-557.9121596021815,889
-555.2871184400748,862
-552.6628015251767,930
-550.0392086783606,905
-547.4163397204204,908
-544.794194472071,963
-542.1727727539491,972
-539.5520743866118,971
-536.9320991905377,974
-534.3128469861261,1014
-531.6943175936979,1028
-529.0765108334947,1042
-526.4594265256793,1105
-523.8430644903358,1324
-521.2274245474689,1430
-518.612506517005,1474
-515.9983102187913,1580
-513.3848354725959,1560
-510.77208209810846,1524
-508.16004991493924,1628
-505.5487387426199,1768
-502.9381484006032,1904
-500.3282787082628,1934
-497.71912948489364,1841
-495.1107005497117,1809
-492.5029917218539,1660
-489.8960028203786,1456
-487.28973366426493,1361
-484.68418407241325,1226
-482.07935386364494,1194
-479.47524285670266,1136
-476.87185087025,1135
-474.2691777228715,1147
-471.66722323307334,1148
-469.0659872192821,1106
-466.4654694998459,1197
-463.86566989303384,1138
-461.26658821703614,1110
-458.66822428996414,1102
-456.07057792985,1138
-453.4736489546475,1090
-450.877437182231,1113
-448.28194243039627,1082
-445.68716451686,1113
-443.09310325926003,1104
-440.49975847515555,1106
-437.9071299820263,1073
-435.31521759727354,1106
-432.72402113821954,1080
-430.13354042210767,1115
-427.5437752661022,1120
-424.95472548728867,1125
-422.36639090267386,1102
-419.7787713291855,1154
-417.1918665836721,1170
-414.60567648290385,1186
-412.0202008435715,1227
-409.4354394822874,1164
-406.8513922155845,1189
-404.26805885991723,1209
-401.685439231661,1243
-399.103533147112,1237
-396.522340422488,1191
-393.9418608739278,1199
-391.3620943174908,1164
-388.7830405691583,1128
-386.2046994448317,1097
-383.6270707603344,1116
-381.05015433141045,1065
-378.473949973725,989
-375.8984575028645,893
-373.32367673433623,780
-370.74960748356875,738
-368.1762495659117,716
-365.60360279663576,667
-363.03166699093265,614
-360.4604419639154,550
-357.8899275306178,552
-355.32012350599507,550
-352.7510297049233,530
-350.1826459421999,514
-347.61497203254316,517
-345.04800779059235,481
-342.4817530309082,507
-339.91620756797226,545
-337.35137121618743,533
-334.7872437898774,496
-332.22382510328725,489
-329.66111497058273,493
-327.09911320585127,504
-324.53781962310075,539
-321.9772340362607,492
-319.4173562591816,518
-316.8581861056348,516
-314.2997233893127,531
-311.7419679238294,514
-309.1849195227194,564
-306.62857799943856,587
-304.0729431673641,546
-301.51801483979375,545
-298.963792829947,527
-296.41027695096386,532
-293.85746701590574,596
-291.3053628377552,590
-288.7539642294155,603
-286.2032710037115,627
-283.65328297338897,602
-281.1039999511146,604
-278.5554217494762,599
-276.007548180983,654
-273.4603790580651,636
-270.9139141930734,603
-268.3681533982807,655
-265.8230964858798,690
-263.27874326798565,686
-260.7350935566336,641
-258.1921471637804,655
-255.6499039013039,721
-253.10836358100266,678
-250.56752601459698,699
-248.02739101372765,731
-245.48795838995704,771
-242.94922795476816,741
-240.41119951956557,771
-237.8738728956746,751
-235.33724789434166,739
-232.80132432673452,782
-230.2661020039418,690
-227.73158073697357,766
-225.19776033676033,761
-222.66464061415422,883
-220.1322213799284,834
-217.60050244477725,832
-215.06948361931552,821
-212.53916471408013,908
-210.00954553952818,905
-207.48062590603843,812
-204.9524056239104,728
-202.4248845033651,816
-199.8980623545441,834
-197.37193898751036,924
-194.84651421224817,982
-192.32178783866232,817
-189.79775967657952,872
-187.27442953574644,1024
-184.7517972258321,1041
-182.2298625564256,865
-179.7086253370378,802
-177.18808537710026,931
-174.66824248596583,979
-172.14909647290835,986
-169.6306471471229,914
-167.11289431772548,899
-164.59583779375328,994
-162.07947738416453,1184
-159.5638128978386,1423
-157.04884414357605,1433
-154.53457093009854,1527
-152.02099306604828,1179
-149.50811035998936,1010
-146.99592262040665,1210
-144.48442965570587,1325
-141.97363127421409,1415
-139.46352728417958,1648
-136.95411749377126,1482
-134.44540171107985,1303
-131.93737974411636,1237
-129.43005140081357,1321
-126.92341648902493,1736
-124.41747481652521,2172
-121.91222619101006,2951
-119.40767042009657,3388
-116.90380731132257,3519
-114.40063667214702,4105
-111.8981583099503,4847
-109.3963720320337,5596
-106.89527764561933,6432
-104.39487495785067,7161
-101.89516377579241,9891
-99.39614390642998,15046
-96.89781515667039,18839
-94.40017733334128,19195
-91.90323024319173,18414
-89.40697369289148,14000
-86.91140748903172,8329
-84.41653143812482,7459
-81.92234534660395,9284
-79.42884902082358,10695
-76.93604226705907,11148
-74.4439248915071,11478
-71.95249670028534,10927
-69.46175749943245,8921
-66.97170709490854,8050
-64.48234529259423,8426
-61.99367189829195,9177
-59.50568671772464,9228
-57.01838955653636,9737
-54.53178022029283,11659
-52.045858514480074,13050
-49.560624244506016,15440
-47.07607721569923,17446
-44.59221723330904,20034
-42.10904410250669,20430
-39.62655762838392,18466
-37.14475761595372,17429
-34.66364387015028,21275
-32.18321619582866,19342
-29.70347439776515,20095
-27.224418280657005,22883
-24.74604764912317,29459
-22.26836230770266,42193
-19.7913620608565,65034
-17.315046712966478,65034
-14.83941606833514,65034
-12.36446993118659,65034
-9.89020810566592,65034
-7.416630395839093,65034
-4.94373660569363,65034
-2.471526539137585,65034
-6.821210263296962E-13,65034
2.47084320796705,65034
4.941003281093458,65034
7.410480415786196,65034
9.879274808531363,65034
12.347386655893956,65034
14.814816154518212,65034
17.28156350112681,65034
19.74762889252179,65034
22.21301252558385,26443
24.67771459727237,6946
27.141735304626195,5943
29.605074844762612,5030
32.06773341487792,4701
34.52971121224755,4438
36.99100843422559,3993
39.45162527824516,3331
41.91156194181792,3739
44.370818622535126,3500
46.82939551806646,3166
49.287292826160524,3681
51.74451074464503,3297
54.201049471426245,2894
56.65690920448981,2634
59.112090141899785,2378
61.56659248179983,2478
64.02041642241159,2461
66.4735621620365,2472
68.92602989905402,2585
71.37781983192338,2417
73.82893215918205,2133
76.27936707944684,1951
78.72912479141326,2211
81.17820549385567,1718
83.62660938562783,1620
86.07433666566146,1635
88.5213875329681,1432
90.96776218663751,1632
93.41346082583925,1936
95.85848364982041,2226
98.30283085790859,1821
100.7465026495089,1735
103.18949922410604,1860
105.63182078126385,1482
108.07346752062438,1557
110.51443964190923,1466
112.95473734491827,1292
115.39436082953114,1400
117.83331029570547,1669
120.27158594347827,1642
122.7091879729652,1560
125.1461165843615,1434
127.58237197794062,1187
130.01795435405518,1194
132.4528639131364,1211
134.88710085569494,1292
137.32066538231982,1482
139.75355769367923,1327
142.1857779905207,1212
144.61732647366978,1238
147.04820334403132,1355
149.47840880258934,1385
151.90794305040674,1322
154.33680628862487,1338
156.76499871846443,1524
159.19252054122433,1791
161.61937195828352,1905
164.04555317109896,2205
166.47106438120693,2361
168.89590579022217,2584
171.320077599839,2863
173.7435800118302,3013
176.16641322804742,3042
178.58857745042144,3283
181.01007288096173,3303
183.43089972175687,3210
185.85105817497413,3183
188.27054844285988,3263
190.6893707277394,3266
193.10752523201643,3323
195.5250121581745,3438
197.9418317087751,3530
200.3579840864594,3408
202.7734694939469,3570
205.18828813403627,3739
207.6024402096051,3659
210.01592592360964,3511
212.42874547908548,3533
214.84089907914665,3461
217.2523869269868,3504
219.66320922587727,3442
222.0733661791695,3519
224.48285799029293,3443
226.8916848627572,3654
229.29984700014882,3679
231.7073446061355,3648
234.11417788446204,3656
236.520347038953,3710
238.92585227351185,3861
241.33069379212054,3943
243.73487179884035,4027
246.1383864978112,3991
248.541238093252,3998
250.9434267894609,4070
253.34495279081432,4085
255.74581630176783,4253
258.1460175268563,4200
260.54555667069314,4259
262.9444339379703,4257
265.3426495334594,4230
267.7402036620107,3978
270.1370965285529,3643
272.53332833809407,3610
274.9288992957214,3371
277.32380960660055,3355
279.718059475976,3253
282.1116491091717,3127
284.5045787115897,3144
286.89684848871195,3110
289.2884586460981,3091
291.67940938938807,3205
294.0697009242996,3195
296.4593334566299,3185
298.84830719225477,3130
301.23662233712923,3108
303.6242790972866,2984
306.01127767884,2876
308.39761828798066,2947
310.78330113097934,2853
313.16832641418534,2804
315.5526943440269,2767
317.9364051270112,2745
320.3194589697242,2750
322.70185607883093,2802
325.0835966610754,2615
327.4646809232805,2604
329.8451090723478,2593
332.2248813152577,2642
334.6039978590701,2605
336.9824589109231,2623
339.36026467803447,2512
341.7374153677,2454
344.113911187295,2426
346.48975234427337,2500
348.8649390461686,2558
351.2394715005918,2445
353.61334991523415,2475
355.9865744978655,2527
358.35914545633375,2545
360.73106299856715,2525
363.10232733257146,2462
365.47293866643247,2400
367.84289720831396,2455
370.2122031664593,2359
372.5808567491905,2393
374.9488581649083,2435
377.31620762209275,2360
379.6829053293021,2416
382.0489514951745,2400
384.4143463284262,2386
386.7790900378528,2383
389.14318283232853,2354
391.50662492080653,2398
393.86941651231916,2319
396.23155781597745,2379
398.5930490409713,2333
400.9538903965696,2307
403.3140820921202,2308
405.6736243370498,2227
408.03251734086336,2237
410.3907613131465,2287
412.74835646356166,2206
415.10530300185144,2277
417.4616011378372,2266
419.81725108141893,2293
422.1722530425758,2235
424.5266072313656,2345
426.880313857925,2201
429.2333731324701,2222
431.58578526529516,2316
433.9375504667738,2220
436.2886689473588,2268
438.63914091758113,2268
440.9889665880513,2217
443.33814616945835,2183
445.68667987257015,2214
448.03456790823395,2216
450.3818104873759,2206
452.72840782100013,2152
455.07436012019105,2275
457.41966759611057,2184
459.7643304600007,2210
462.10834892318155,2102
464.4517231970525,2211
466.79445349309174,2215
469.1365400228566,2302
471.4779829979826,2277
473.81878263018564,2216
476.15893913125876,2284
478.4984527130747,2287
480.8373235875855,2396
483.17555196682144,2401
485.5131380628919,2408
487.8500820879857,2500
490.1863842543697,2694
492.52204477439034,2828
494.8570638604725,3097
497.1914417251204,3482
499.52517858091653,3713
501.85827464052306,3893
504.19073011668036,3922
506.5225452222086,4034
508.85372017000566,3922
511.18425517304956,3970
513.514150444396,4408
515.8434061971808,5607
518.1720226446176,6476
520.4999999999999,6695
522.8273384766991,6297
525.1540382881666,5879
527.480099647932,5261
529.8055227696037,4310
532.1303078668694,3167
534.454455153496,2745
536.777964843328,2496
539.1008371502907,2393
541.4230722883866,2368
543.744670471698,2262
546.0656319143858,2258
548.3859568306899,2196
550.7056454349294,2196
553.0246979415016,2263
555.3431145648834,2178
557.6608955196306,2194
559.978041020377,2145
562.2945512818363,2235
564.6104265188006,2208
566.9256669461412,2222
569.2402727788082,2237
571.5542442318302,2242
573.8675815203156,2195
576.1802848594508,2260
578.4923544645015,2346
580.8037905508126,2240
583.114593333807,2314
585.4247630289875,2269
587.7342998519354,2288
590.0432040183106,2230
592.3514757438526,2261
594.6591152443794,2286
596.9661227357875,2227
599.2724984340531,2230
601.578242555231,2274
603.8833553154542,2247
606.1878369309362,2199
608.4916876179676,2218
610.7949075929192,2233
613.0974970722403,2222
615.3994562724587,2248
617.7007854101818,2308
620.0014847020951,2236
622.3015543649641,2223
624.6009946156324,2265
626.8998056710224,2235
629.1979877481361,2293
631.4955410640538,2252
633.7924658359349,2224
636.0887622810175,2253
638.3844306166192,2303
640.6794710601358,2364
642.9738838290426,2345
645.2676691408932,2343
647.5608272133207,2364
649.853358264037,2373
652.1452625108324,2412
654.4365401715764,2510
656.7271914642178,2337
659.0172166067838,2415
661.3066158173809,2456
663.5953893141935,2376
665.8835373154867,2468
668.1710600396028,2354
670.4579577049639,2341
672.7442305300709,2333
675.0298787335033,2383
677.3149025339197,2334
679.599302150058,2352
681.8830778007342,2269
684.1662297048437,2290
686.4487580813608,2345
688.7306631493387,2290
691.0119451279091,2298
693.2926042362834,2324
695.5726406937516,2339
697.8520547196814,2281
700.1308465335215,2225
702.4090163547982,2266
704.6865644031171,2357
706.9634908981619,2306
709.2397960596965,2327
711.5154801075631,2308
713.7905432616823,2349
716.0649857420548,2375
718.3388077687592,2249
720.612009561953,2313
722.8845913418733,2312
725.1565533288352,2232
727.427895743234,2263
729.6986188055427,2283
731.9687227363137,2246
734.238207756178,2239
736.5070740858458,2240
738.7753219461066,2329
741.0429515578281,2287
743.3099631419569,2321
745.5763569195191,2200
747.8421331116193,2252
750.1072919394409,2191
752.3718336242467,2287
754.6357583873777,2189
756.8990664502545,2283
759.1617580343765,2239
761.423833361321,2244
763.6852926527457,2159
765.9461361303862,2282
768.206364016058,2225
770.4659765316536,2282
772.7249738991469,2252
774.9833563405886,2219
777.2411240781092,2306
779.4982773339183,2287
781.7548163303044,2245
784.010741289634,2364
786.2660524343538,2378
788.5207499869881,2273
790.7748341701416,2302
793.0283052064964,2324
795.2811633188143,2299
797.5334087299362,2395
799.7850416627813,2249
802.0360623403484,2292
804.2864709857143,2301
806.5362678220353,2391
808.7854530725468,2349
811.0340269605625,2292
813.2819897094754,2207
815.5293415427581,2357
817.77608268396,2318
820.0222133567116,2302
822.2677337847211,2303
824.5126441917765,2320
826.7569448017433,2300
829.0006358385675,2354
831.2437175262731,2370
833.4861900889629,2421
835.7280537508192,2354
837.9693087361026,2385
840.2099552691533,2363
842.4499935743896,2358
844.689423876309,2311
846.9282463994886,2220
849.1664613685833,2323
851.4040690083276,2361
853.6410695435349,2348
855.877463199097,2329
858.1132501999847,2366
860.3484307712487,2334
862.5830051380175,2370
864.8169735254988,2406
867.0503361589791,2362
869.2830932638243,2396
871.5152450654786,2416
873.7467917894654,2381
875.9777336613873,2434
878.2080709069252,2453
880.4378037518389,2468
882.666932421968,2458
884.8954571432301,2423
887.1233781416219,2437
889.3506956432192,2387
891.5774098741766,2486
893.803521060728,2451
896.0290294291852,2418
898.2539352059397,2508
900.4782386174619,2319
902.7019398903011,2372
904.925039251085,2457
907.147536926521,2483
909.3694331433943,2422
911.59072812857,2378
913.8114221089921,2479
916.0315153116827,2462
918.2510079637437,2377
920.4699002923547,2449
922.6881925247761,2443
924.905884888345,2454
927.1229776104793,2388
929.3394709186747,2419
931.555365040506,2412
933.7706602036275,2474
935.9853566357709,2440
938.1994545647489,2462
940.4129542184515,2454
942.6258558248488,2507
944.8381596119883,2453
947.0498658079974,2476
949.2609746410825,2464
951.4714863395287,2418
953.6814011316998,2508
955.8907192460387,2356
958.0994409110671,2374
960.3075663553858,2428
962.5150958076741,2333
964.7220294966913,2395
966.928367651274,2395
969.1341105003388,2331
971.3392582728806,2285
973.5438111979742,2381
975.747769504772,2304
977.9511334225061,2341
980.153903180487,2346
982.3560790081052,2354
984.5576611348289,2309
986.7586497902058,2267
988.9590452038618,2207
991.158847605503,2233
993.3580572249133,2153
995.5566742919558,2121
997.7546990365728,2059
999.952131688785,2094
1002.1489724786926,2098
1004.3452216364743,2084
1006.5408793923874,2070
1008.7359459767691,1938
1010.9304216200343,1973
1013.1243065526781,2024
1015.3176010052733,2011
1017.510305208472,1994
1019.7024193930064,2030
1021.8939437896848,2017
1024.0848786293977,1968
1026.2752241431122,1938
1028.4649805618747,1966
1030.6541481168115,2030
1032.842727039127,2010
1035.0307175601051,1984
1037.2181199111074,1916
1039.4049343235752,1895
1041.591161029029,1886
1043.7768002590683,1960
1045.9618522453698,1984
1048.1463172196918,1906
1050.3301954138697,1938
1052.513487059818,1914
1054.69619238953,1931
1056.8783116350783,1920
1059.0598450286152,1942
1061.2407928023704,1943
1063.4211551886528,1883
1065.6009324198508,1941
1067.780124728432,1955
1069.9587323469414,1888
1072.1367555080046,1912
1074.314194444325,1917
1076.4910493886855,1914
1078.667320573947,1917
1080.843008233051,1879
1083.0181125990161,1918
1085.1926339049414,1782
1087.3665723840027,1910
1089.5399282694575,1842
1091.7127017946405,1936
1093.8848931929647,1862
1096.0565026979243,1845
1098.2275305430899,1857
1100.3979769621128,1755
1102.567842188722,1804
1104.737126456726,1795
1106.9058300000124,1806
1109.0739530525475,1811
1111.2414958483764,1849
1113.4084586216231,1840
1115.5748416064907,1876
1117.7406450372605,1862
1119.9058691482942,1858
1122.0705141740304,1818
1124.2345803489884,1840
1126.3980679077658,1870
1128.5609770850388,1792
1130.7233081155623,1762
1132.8850612341707,1806
1135.0462366757774,1764
1137.2068346753745,1760
1139.3668554680326,1824
1141.526299288901,1756
1143.68516637321,1763
1145.8434569562655,1740
1148.001171273455,1721
1150.158309560244,1700
1152.3148720521767,1710
1154.470858984876,1810
1156.626270594044,1798
1158.7811071154629,1730
1160.9353687849912,1722
1163.089055838569,1810
1165.242168512213,1706
1167.3947070420209,1724
1169.5466716641677,1713
1171.6980626149075,1704
1173.8488801305748,1730
1175.9991244475814,1735
1178.1487958024186,1756
1180.2978944316555,1713
1182.4464205719428,1792
1184.5943744600072,1790
1186.7417563326567,1801
1188.8885664267755,1746
1191.0348049793297,1743
1193.1804722273619,1706
1195.325568407995,1761
1197.4700937584303,1826
1199.614048515948,1770
1201.7574329179074,1830
1203.900247201746,1805
1206.042491604982,1750
1208.1841663652099,1736
1210.3252717201053,1807
1212.465807907422,1756
1214.6057751649923,1857
1216.7451737307279,1826
1218.8840038426192,1826
1221.0222657387353,1798
1223.1599596572241,1794
1225.2970858363137,1841
1227.4336445143094,1837
1229.5696359295966,1806
1231.705060320639,1903
1233.8399179259786,1890
1235.9742089842384,1930
1238.107933734118,1821
1240.2410924143974,1857
1242.373685263935,1784
1244.5057125216676,1853
1246.6371744266116,1838
1248.7680712178621,1782
1250.898403134593,1867
1253.028170416058,1846
1255.1573733015875,1902
1257.2860120305932,1852
1259.4140868425648,1853
1261.54159797707,1866
1263.6685456737569,1878
1265.7949301723515,1853
1267.9207517126597,1892
1270.046010534565,1801
1272.1707068780306,1852
1274.2948409830983,1915
1276.4184130898889,1875
1278.541423438603,1939
1280.6638722695184,2008
1282.785759822993,1878
1284.9070863394636,1914
1287.0278520594447,1997
1289.1480572235314,1973
1291.2677020723963,1985
1293.3867868467923,1988
1295.5053117875495,1979
1297.623277135579,2023
1299.740683131868,2052
1301.8575300174857,2069
1303.973818033578,2001
1306.0895474213703,2048
1308.2047184221678,2023
1310.3193312773528,2075
1312.4333862283888,2115
1314.5468835168163,2001
1316.659823384255,2055
1318.7722060724045,2070
1320.8840318230418,2052
1322.9953008780249,2108
1325.1060134792888,2158
1327.2161698688478,2008
1329.3257702887959,2056
1331.4348149813054,2113
1333.5433041886276,2119
1335.6512381530933,2046
1337.7586171171101,2025
1339.8654413231675,2065
1341.9717110138317,2083
1344.0774264317488,2058
1346.1825878196432,2116
1348.2871954203192,1990
1350.3912494766587,2038
1352.4947502316231,2067
1354.5976979282532,2009
1356.7000928096686,2067
1358.8019351190665,2068
1360.9032250997243,2013
1363.0039629949988,2100
1365.1041490483235,2046
1367.2037835032133,2055
1369.3028666032606,2123
1371.401398592137,2016
1373.4993797135926,2145
1375.5968102114575,2115
1377.6936903296396,2082
1379.7900203121262,2094
1381.8858004029835,2122
1383.9810308463561,2111
1386.075711886469,2105
1388.1698437676241,2159
1390.2634267342032,2109
1392.356461030667,2145
1394.4489469015557,2111
1396.5408845914872,2086
1398.6322743451592,2178
1400.7231164073469,2252
1402.813411022907,2236
1404.903158436773,2150
1406.9923588939578,2283
1409.0810126395531,2266
1411.1691199187303,2322
1413.2566809767386,2311
1415.343696058907,2250
1417.4301654106425,2294
1419.5160892774315,2353
1421.6014679048399,2290
1423.6863015385125,2382
1425.7705904241707,2421
1427.8543348076178,2398
1429.9375349347342,2469
1432.0201910514802,2493
1434.102303403894,2497
1436.1838722380944,2520
1438.2648978002767,2560
1440.3453803367174,2636
1442.4253200937692,2597
1444.5047173178677,2725
1446.5835722555234,2758
1448.6618851533285,2801
1450.739656257952,2803
1452.8168858161434,2933
1454.8935740747306,2910
1456.96972128062,2977
1459.045327680797,3105
1461.120393522327,3081
1463.1949190523528,3204
1465.2689045180973,3348
1467.3423501668608,3312
1469.415256246024,3387
1471.4876230030463,3377
1473.559450685465,3536
1475.6307395408976,3563
1477.7014898170391,3606
1479.771701761665,3677
1481.8413756226287,3704
1483.9105116478618,3856
1485.9791100853772,3934
1488.0471711832643,3940
1490.1146951896926,4149
1492.1816823529098,4092
1494.2481329212433,4164
1496.3140471430984,4192
1498.3794252669609,4328
1500.4442675413939,4382
1502.5085742150404,4244
1504.572345536622,4391
1506.6355817549388,4442
1508.6982831188702,4498
1510.7604498773744,4478
1512.8220822794883,4588
1514.8831805743293,4640
1516.9437450110909,4607
1519.003775839048,4641
1521.0632733075522,4745
1523.1222376660367,4759
1525.1806691640113,4759
1527.2385680510652,4832
1529.2959345768668,5008
1531.3527689911643,5110
1533.4090715437833,4998
1535.4648424846291,5273
1537.5200820636855,5237
1539.5747905310159,5307
1541.6289681367616,5486
1543.6826151311434,5541
1545.7357317644614,5671
1547.7883182870937,5678
1549.8403749494987,5736
1551.8919020022113,5889
1553.9428996958477,5907
1555.9933682811015,6074
1558.0433080087469,6150
1560.0927191296346,6340
1562.1416018946961,6234
1564.1899565549415,6313
1566.2377833614592,6134
1568.2850825654164,6159
1570.3318544180606,5946
1572.3780991707158,5688
1574.423817074788,5481
1576.4690083817595,5262
1578.5136733431923,5000
1580.5578122107272,4714
1582.601425236085,4403
1584.6445126710646,4228
1586.6870747675434,3997
1588.7291117774776,3861
1590.7706239529034,3509
1592.8116115459347,3424
1594.8520748087658,3353
1596.8920139936686,3220
1598.9314293529933,3070
1600.9703211391711,2920
1603.008689604711,2775
1605.0465350022005,2704
1607.0838575843068,2623
1609.1206576037753,2584
1611.1569353134305,2549
1613.1926909661765,2481
1615.2279248149953,2471
1617.2626371129481,2364
1619.2968281131757,2323
1621.3304980688963,2293
1623.3636472334088,2266
1625.39627586009,2158
1627.428384202396,2196
1629.459972513861,2173
1631.4910410480993,2088
1633.5215900588028,2135
1635.551619799744,2041
1637.5811305247717,2033
1639.6101224878166,2093
1641.6385959428862,1981
1643.6665511440683,1982
1645.693988345528,2057
1647.7209078015112,1987
1649.7473097663405,1922
1651.7731944944203,2009
1653.7985622402307,2015
1655.823413258333,1903
1657.847747803366,1971
1659.8715661300494,1980
1661.8948684931793,1941
1663.9176551476316,2006
1665.9399263483624,1983
1667.9616823504057,2031
1669.982923408873,1908
1672.0036497789574,1960
1674.0238617159293,1913
1676.043559475138,1990
1678.0627433120121,1939
1680.081413482059,1932
1682.0995702408654,1938
1684.117213844096,1999
1686.134344547495,2013
1688.1509626068864,1908
1690.1670682781705,1922
1692.182661817329,1947
1694.1977434804217,1894
1696.2123135235875,1955
1698.226372203043,1916
1700.2399197750851,1955
1702.2529564960905,1892
1704.2654826225112,1914
1706.277498410882,1901
1708.2890041178139,1843
1710.2999999999988,1888
1712.3104863142066,1899
1714.3204633172854,1857
1716.329931266163,1809
1718.3388904178469,1955
1720.3473410294214,1842
1722.3552833580516,1846
1724.3627176609807,1830
1726.3696441955308,1795
1728.3760632191033,1791
1730.3819749891782,1864
1732.3873797633146,1781
1734.3922777991502,1800
1736.3966693544012,1812
1738.4005546868639,1773
1740.4039340544127,1812
1742.406807715001,1809
1744.4091759266616,1753
1746.4110389475054,1764
1748.4123970357223,1795
1750.413250449582,1728
1752.4135994474318,1709
1754.4134442876993,1750
1756.4127852288902,1713
1758.4116225295893,1753
1760.4099564484595,1693
1762.407787244244,1635
1764.405115175764,1761
1766.4019405019203,1662
1768.3982634816916,1638
1770.3940843741357,1697
1772.3894034383907,1735
1774.3842209336717,1743
1776.378537119274,1672
1778.372352254571,1603
1780.3656665990156,1675
1782.3584804121397,1632
1784.3507939535534,1647
1786.3426074829463,1610
1788.3339212600863,1619
1790.3247355448211,1671
1792.3150505970766,1726
1794.3048666768573,1585
1796.2941840442477,1646
1798.2830029594106,1613
1800.2713236825884,1626
1802.2591464741004,1598
1804.2464715943465,1614
1806.2332993038058,1640
1808.2196298630352,1649
1810.2054635326708,1606
1812.190800573428,1585
1814.175641246101,1647
1816.1599858115628,1680
1818.1438345307652,1657
1820.127187664738,1578
1822.1100454745924,1545
1824.092408221516,1562
1826.0742761667766,1635
1828.055649571721,1592
1830.0365286977735,1563
1832.0169138064398,1614
1833.9968051593014,1580
1835.9762030180214,1615
1837.9551076443408,1608
1839.9335193000788,1624
1841.9114382471344,1592
1843.888864747485,1606
1845.8657990631878,1547
1847.842241456378,1586
1849.8181921892697,1520
1851.7936515241558,1599
1853.7686197234098,1556
1855.7430970494815,1570
1857.7170837649014,1537
1859.6905801322787,1523
1861.6635864143004,1527
1863.6361028737338,1602
1865.608129773424,1584
1867.5796673762961,1571
1869.5507159453537,1605
1871.521275743678,1624
1873.4913470344313,1646
1875.4609300808534,1599
1877.4300251462632,1601
1879.3986324940588,1564
1881.366752387717,1566
1883.3343850907936,1615
1885.3015308669228,1565
1887.268189979819,1628
1889.2343626932739,1635
1891.2000492711595,1621
1893.1652499774254,1643
1895.1299650761011,1670
1897.0941948312952,1617
1899.0579395071945,1625
1901.0211993680641,1651
1902.98397467825,1660
1904.9462657021745,1687
1906.9080727043415,1665
1908.869395949332,1593
1910.8302357018065,1566
1912.790592226504,1586
1914.7504657882428,1658
1916.7098566519212,1576
1918.6687650825133,1610
1920.6271913450764,1629
1922.5851357047422,1632
1924.5425984267245,1567
1926.499579776314,1628
1928.4560800188833,1619
1930.4120994198802,1618
1932.367638244833,1638
1934.32269675935,1615
1936.2772752291175,1596
1938.231373919899,1547
1940.1849930975404,1612
1942.1381330279637,1588
1944.0907939771696,1535
1946.0429762112412,1622
1947.9946799963363,1664
1949.9459055986945,1691
1951.896653284633,1600
1953.8469233205478,1627
1955.7967159729142,1608
1957.7460315082863,1627
1959.6948701932974,1563
1961.6432322946594,1568
1963.5911180791632,1630
1965.5385278136787,1614
1967.4854617651545,1599
1969.4319202006182,1558
1971.377903387176,1622
1973.3234115920136,1575
1975.268445082395,1564
1977.2130041256642,1594
1979.1570889892423,1588
1981.1006999406304,1564
1983.04383724741,1516
1984.986501177238,1539
1986.928691997853,1595
1988.8704099770712,1562
1990.811655382789,1510
1992.7524284829801,1570
1994.692729545698,1482
1996.6325588390755,1557
1998.5719166313224,1506
2000.5108031907307,1495
2002.4492187856677,1530
2004.387163684583,1513
2006.3246381560011,1499
2008.2616424685298,1511
2010.1981768908527,1523
2012.1342416917332,1518
2014.069837140014,1471
2016.0049635046162,1539
2017.9396210545406,1528
2019.8738100588666,1539
2021.8075307867502,1518
2023.740783507431,1501
2025.6735684902228,1474
2027.6058860045214,1446
2029.5377363198004,1469
2031.4691197056118,1515
2033.4000364315875,1534
2035.3304867674374,1463
2037.260470982952,1493
2039.189989347998,1449
2041.1190421325232,1536
2043.047629606554,1510
2044.9757520401945,1520
2046.9034097036288,1481
2048.8306028671195,1515
2050.7573318010086,1571
2052.683596775716,1511
2054.609398061742,1515
2056.5347359296647,1451
2058.4596106501403,1443
2060.384022493906,1505
2062.3079717317764,1506
2064.231458634646,1521
2066.1544834734873,1470
2068.077046519352,1495
2069.99914804337,1464
2071.9207883167524,1479
2073.8419676107865,1490
2075.7626861968406,1498
2077.6829443463607,1500
2079.6027423308715,1475
2081.522080421977,1511
2083.440958891362,1475
2085.359378010786,1490
2087.2773380520907,1472
2089.194839287196,1445
2091.111881988101,1447
2093.0284664268825,1447
2094.9445928756973,1481
2096.86026160678,1454
2098.775472892446,1478
2100.690227005088,1514
2102.604524217178,1522
2104.5183648012676,1507
2106.431749029985,1551
2108.34467717604,1485
2110.2571495122206,1469
2112.169166311393,1509
2114.080727846503,1452
2115.9918343905747,1499
2117.902486216711,1544
2119.8126835980956,1520
2121.722426807987,1482
2123.6317161197285,1473
2125.5405518067364,1526
2127.448934142509,1504
2129.356863400624,1500
2131.264339854737,1524
2133.1713637785815,1525
2135.077935445972,1551
2136.9840551308002,1508
2138.889723107037,1558
2140.7949396487334,1516
2142.699705030018,1534
2144.6040195250994,1534
2146.507883408264,1569
2148.4112969538774,1554
2150.3142604363848,1586
2152.2167741303097,1582
2154.1188383102535,1549
2156.0204532508997,1527
2157.9216192270064,1548
2159.822336513414,1545
2161.7226053850413,1510
2163.622426116884,1495
2165.5217989840185,1593
2167.4207242616,1532
2169.319202224862,1582
2171.2172331491165,1454
2173.1148173097563,1584
2175.0119549822507,1601
2176.90864644215,1553
2178.8048919650823,1547
2180.7006918267534,1594
2182.596046302952,1590
2184.4909556695407,1563
2186.3854202024645,1522
2188.279440177746,1554
2190.173015871487,1569
2192.066147559868,1547
2193.958835519149,1619
2195.851080025667,1565
2197.7428813558417,1576
2199.6342397861667,1626
2201.5251555932186,1533
2203.415629053651,1567
2205.3056604441986,1521
2207.19525004167,1585
2209.084398122958,1585
2210.9731049650327,1600
2212.861370844941,1610
2214.749196039812,1614
2216.636580826851,1591
2218.523525483344,1572
2220.410030286655,1575
2222.296095514226,1538
2224.1817214435805,1613
2226.066908352319,1589
2227.951656518121,1587
2229.835966218746,1612
2231.71983773203,1644
2233.6032713358913,1579
2235.486267308324,1642
2237.3688259274036,1568
2239.2509474712824,1589
2241.132632218193,1539
2243.013880446447,1555
2244.8946924344323,1587
2246.7750684606203,1557
2248.6550088035574,1606
2250.534513741871,1593
2252.413583554265,1614
2254.292218519526,1597
2256.170418916517,1590
2258.0481850241786,1590
2259.925517121534,1502
2261.8024154876825,1591
2263.678880401803,1602
2265.5549121431536,1576
2267.430510991071,1602
2269.305677224971,1527
2271.180411124348,1538
2273.0547129687766,1595
2274.9285830379076,1592
2276.8020216114737,1538
2278.6750289692845,1551
2280.5476053912294,1560
2282.4197511572766,1585
2284.2914665474727,1613
2286.162751841943,1624
2288.0336073208937,1644
2289.904033264608,1646
2291.774029953448,1627
2293.6435976678554,1533
2295.5127366883517,1565
2297.381447295534,1554
2299.2497297700825,1513
2301.1175843927526,1467
2302.9850114443825,1480
2304.852011205885,1447
2306.7185839582553,1408
2308.5847299825664,1418
2310.4504495599676,1408
2312.3157429716925,1394
2314.1806104990483,1414
2316.0450524234247,1401
2317.9090690262888,1391
2319.772660589186,1376
2321.635827393742,1401
2323.498569721661,1421
2325.3608878547248,1406
2327.2227820747967,1336
2329.0842526638157,1468
2330.945299903803,1379
2332.805924076857,1369
2334.6661254651535,1372
2336.525904350951,1391
2338.3852610165827,1403
2340.244195744464,1385
2342.102708817088,1422
2343.9608005170253,1459
2345.8184711269287,1392
2347.675720929526,1389
2349.532550207628,1411
2351.38895924412,1461
2353.24494832197,1415
2355.100517724223,1383
2356.955667734004,1442
2358.810398634514,1468
2360.664710709037,1463
2362.5186042409337,1414
2364.3720795136437,1458
2366.225136810686,1418
2368.0777764156583,1405
2369.929998612237,1416
2371.7818036841777,1461
2373.633191915315,1480
2375.484163589562,1479
2377.3347189909114,1438
2379.184858403434,1436
2381.03458211128,1403
2382.8838903986775,1500
2384.732783549936,1468
2386.5812618494406,1499
2388.4293255816588,1477
2390.2769750311327,1477
2392.1242104824883,1443
2393.971032220427,1452
2395.8174405297295,1518
2397.6634356952563,1447
2399.509018001947,1455
2401.3541877348193,1435
2403.1989451789705,1438
2405.043290619576,1488
2406.8872243418905,1473
2408.730746631247,1455
2410.5738577730594,1468
2412.4165580528183,1435
2414.258847756095,1426
2416.100727168537,1486
2417.9421965758734,1454
2419.783256263912,1473
2421.623906518538,1426
2423.4641476257157,1389
2425.303979871491,1454
2427.143403541984,1437
2428.9824189233977,1500
2430.821026302012,1493
2432.6592259641866,1459
2434.497018196361,1449
2436.33440328505,1497
2438.171381516851,1482
2440.00795317844,1453
2441.844118556569,1495
2443.6798779380724,1503
2445.5152316098606,1472
2447.3501798589255,1430
2449.1847229723357,1507
2451.0188612372403,1504
2452.8525949408663,1523
2454.6859243705203,1533
2456.518849813587,1494
2458.3513715575314,1482
2460.183489889895,1520
2462.015205098301,1460
2463.8465174704493,1508
2465.67742729412,1483
2467.5079348571717,1552
2469.338040447542,1516
2471.1677443532476,1531
2472.9970468623833,1529
2474.825948263123,1496
2476.6544488437207,1493
2478.482548892508,1553
2480.310248697896,1487
2482.137548548374,1513
2483.9644487325118,1528
2485.790949538956,1533
2487.617051256433,1508
2489.44275417375,1443
2491.26805857979,1505
2493.0929647635157,1481
2494.917473013971,1562
2496.741583620276,1589
2498.5652968716304,1516
2500.3886130573137,1531
2502.2115324666834,1568
2504.0340553891765,1537
2505.856182114308,1595
2507.6779129316733,1599
2509.499248130945,1547
2511.3201880018764,1608
2513.140732834298,1570
2514.9608829181198,1631
2516.780638543331,1593
2518.6,1612
2520.418967578273,1642
2522.237541568376,1623
2524.0557222606144,1623
2525.8735099453706,1631
2527.6909049131086,1601
2529.507907454368,1620
2531.32451785977,1647
2533.140736420014,1707
2534.9565634258774,1718
2536.771999168218,1705
2538.5870439379714,1800
2540.4016980261526,1739
2542.2159617238544,1723
2544.02983532225,1749
2545.8433191125914,1709
2547.656413386209,1770
2549.4691184345115,1753
2551.2814345489874,1805
2553.093362021204,1808
2554.904901142808,1848
2556.716052205523,1854
2558.526815501153,1830
2560.3371913215824,1881
2562.147179958771,1981
2563.956781704761,1980
2565.7659968516705,2027
2567.5748256916986,1875
2569.3832685171224,1921
2571.1913256202984,1963
2572.9989972936614,2007
2574.806283829725,1999
2576.613185521084,2022
2578.4197026604074,2062
2580.2258355404483,2016
2582.031584454035,2118
2583.836949694077,2061
2585.6419315535613,2055
2587.4465303255533,2035
2589.2507463032002,2158
2591.0545797797245,2121
2592.8580310484303,2093
2594.6611004026995,2139
2596.463788135992,2082
2598.266094541849,2098
2600.0680199138874,2182
2601.869564545807,2148
2603.670728731383,2143
2605.4715127644704,2160
2607.2719169390048,2191
2609.071941548998,2176
2610.8715868885433,2076
2612.670853251811,2148
2614.469740933052,2209
2616.268250226594,2148
2618.0663814268455,2128
2619.864134828292,2155
2621.6615107255006,2106
2623.458509413115,2086
2625.2551311858597,2078
2627.0513763385347,2046
2628.8472451660223,2055
2630.6427379632833,1976
2632.4378550253564,2050
2634.232596647359,1952
2636.026963124488,1998
2637.8209547520187,1987
2639.6145718253065,1941
2641.407814639785,1947
2643.200683490966,1932
2644.9931786744414,1883
2646.7853004858807,1917
2648.577049221034,1820
2650.3684251757277,1862
2652.1594286458712,1890
2653.9500599274484,1732
2655.740319316525,1786
2657.5302071092437,1810
2659.3197236018286,1785
2661.10886909058,1760
2662.8976438718782,1833
2664.686048242183,1785
2666.4740824980327,1715
2668.2617469360443,1706
2670.0490418529134,1676
2671.8359675454153,1627
2673.622524310403,1645
2675.408712444811,1645
2677.1945322456495,1646
2678.979984010009,1646
2680.76506803506,1591
2682.5497846180497,1573
2684.334134056306,1603
2686.1181166472343,1549
2687.9017326883213,1553
2689.6849824771293,1555
2691.4678663113013,1545
2693.2503844885596,1608
2695.032537306705,1491
2696.8143250636167,1507
2698.5957480572542,1503
2700.3768065856534,1519
2702.1575009469316,1541
2703.937831439283,1529
2705.717798360982,1445
2707.4974020103837,1423
2709.276642685917,1469
2711.055520686095,1455
2712.834036309506,1532
2714.612189854819,1450
2716.389981620782,1454
2718.1674119062204,1440
2719.944481010041,1512
2721.721189231226,1425
2723.4975368688415,1468
2725.273524222027,1487
2727.0491515900053,1487
2728.824419272075,1467
2730.5993275676146,1400
2732.3738767760838,1424
2734.148067197016,1427
2735.921899130031,1375
2737.6953728748194,1348
2739.468488731156,1401
2741.2412469988926,1365
2743.0136479779617,1483
2744.785691968372,1383
2746.5573792702116,1346
2748.3287101836504,1394
2750.099685008934,1390
2751.870304046388,1347
2753.640567596418,1408
2755.4104759595057,1394
2757.1800294362156,1381
2758.949228327187,1379
2760.7180729331412,1382
2762.486563554877,1410
2764.254700493272,1405
2766.022484049284,1350
2767.789914523947,1447
2769.5569922183786,1358
2771.3237174337705,1343
2773.090090471394,1406
2774.8561116326036,1341
2776.6217812188274,1414
2778.3870995315756,1433
2780.1520668724356,1362
2781.9166835430747,1345
2783.6809498452394,1399
2785.444866080754,1392
2787.2084325515225,1385
2788.971649559527,1399
2790.73451740683,1326
2792.4970363955713,1317
2794.2592068279705,1352
2796.0210290063264,1340
2797.7825032330147,1353
2799.543629810493,1415
2801.304409041296,1393
2803.0648412280366,1345
2804.8249266734088,1353
2806.5846656801846,1365
2808.344058551212,1332
2810.1031055894246,1319
2811.8618070978273,1385
2813.6201633795085,1366
2815.378174737636,1358
2817.1358414754536,1343
2818.893163896285,1375
2820.6501423035334,1369
2822.4067770006814,1318
2824.1630682912883,1365
2825.9190164789957,1376
2827.6746218675207,1306
2829.429884760661,1353
2831.184805462294,1379
2832.9393842763743,1358
2834.693621506936,1383
2836.4475174580916,1430
2838.201072434034,1360
2839.954286739034,1405
2841.707160677441,1384
2843.459694553685,1351
2845.2118886722724,1377
2846.96374333779,1347
2848.7152588549034,1329
2850.4664355283567,1308
2852.217273662973,1365
2853.9677735636546,1346
2855.7179355353833,1429
2857.4677598832186,1347
2859.217246912299,1351
2860.9663969278427,1350
2862.715210235146,1335
2864.4636871395846,1359
2866.211827946614,1402
2867.9596329617652,1348
2869.7071024906536,1349
2871.4542368389684,1336
2873.20103631248,1345
2874.947501217038,1356
2876.6936318585695,1358
2878.4394285430812,1399
2880.1848915766604,1373
2881.9300212654707,1351
2883.6748179157553,1298
2885.4192818338374,1317
2887.1634133261173,1327
2888.907212699077,1341
2890.6506802592744,1280
2892.393816313348,1316
2894.1366211680142,1371
2895.8790951300693,1363
2897.621238506388,1361
2899.363051603925,1330
2901.1045347297118,1340
2902.8456881908596,1336
2904.58651229456,1358
2906.327007348081,1368
2908.067173658772,1325
2909.8070115340597,1389
2911.5465212814497,1385
2913.285703208527,1391
2915.0245576229563,1274
2916.7630848324807,1361
2918.5012851449196,1329
2920.2391588681758,1334
2921.976706310227,1318
2923.7139277791334,1293
2925.4508235830313,1332
2927.187394030137,1291
2928.923639428745,1330
2930.6595600872306,1326
2932.395156314046,1312
2934.1304284177218,1361
2935.8653767068713,1326
2937.6000014901815,1393
2939.3343030764227,1345
2941.068281774442,1375
2942.8019378931644,1371
2944.5352717415976,1324
2946.2682836288236,1300
2948.0009738640065,1278
2949.7333427563885,1316
2951.465390615289,1334
2953.1971177501086,1340
2954.9285244703265,1348
2956.6596110855,1313
2958.3903779052657,1311
2960.1208252393385,1326
2961.8509533975125,1334
2963.5807626896617,1320
2965.3102534257378,1308
2967.0394259157715,1300
2968.768280469873,1360
2970.496817398232,1339
2972.2250370111146,1286
2973.952939618869,1314
2975.6805255319196,1287
2977.4077950607707,1322
2979.134748516006,1373
2980.861386208289,1348
2982.587708448359,1363
2984.313715547037,1380
2986.039407815222,1343
2987.764785563891,1346
2989.489849104102,1335
2991.2145987469908,1371
2992.9390348037705,1276
2994.6631575857346,1332
2996.3869674042576,1336
2998.1104645707887,1299
2999.83364939686,1367
3001.5565221940783,1385
3003.2790832741334,1285
3005.0013329487924,1319
3006.7232715298996,1315
3008.4448993293804,1306
3010.166216659239,1260
3011.887223831558,1374
3013.607921158498,1333
3015.3283089522993,1327
3017.0483875252826,1323
3018.7681571898443,1343
3020.4876182584626,1306
3022.2067710436927,1289
3023.9256158581707,1346
3025.644153014609,1317
3027.362382825801,1328
3029.0803056046193,1304
3030.797921664012,1337
3032.5152313170106,1364
3034.2322348767225,1365
3035.9489326563353,1320
3037.665324969115,1276
3039.3814121284063,1318
3041.097194447633,1344
3042.812672240299,1341
3044.5278458199855,1318
3046.2427155003525,1319
3047.9572815951406,1366
3049.671544418167,1287
3051.38550428333,1337
3053.0991615046073,1362
3054.812516396051,1329
3056.5255692717974,1377
3058.2383204460575,1301
3059.9507702331257,1329
3061.662918947372,1339
3063.3747669032446,1344
3065.0863144152736,1314
3066.7975617980674,1298
3068.508509366309,1342
3070.219157434767,1358
3071.9295063182844,1326
3073.639556331785,1286
3075.3493077902704,1330
3077.058761008821,1391
3078.7679163025964,1327
3080.476773986837,1349
3082.1853343768594,1320
3083.89359778806,1295
3085.6015645359153,1286
3087.3092349359786,1331
3089.016609303884,1406
3090.7236879553434,1345
3092.4304712061476,1349
3094.136959372166,1375
3095.843152769349,1341
3097.5490517137237,1300
3099.2546565213966,1354
3100.959967508554,1344
3102.66498499146,1334
3104.3697092864577,1384
3106.0741407099695,1348
3107.778279578498,1334
3109.482126208622,1361
3111.1856809170004,1358
3112.8889440203716,1363
3114.5919158355528,1348
3116.294596679439,1376
3117.996986869006,1346
3119.6990867213062,1400
3121.4008965534726,1328
3123.102416682717,1314
3124.803647426329,1383
3126.5045891016784,1363
3128.205242026213,1370
3129.90560651746,1376
3131.605682893025,1367
3133.3054714705922,1342
3135.0049725679282,1364
3136.7041865028714,1299
3138.4031135933465,1338
3140.101754157353,1387
3141.800108512971,1343
3143.498176978357,1335
3145.1959598717494,1314
3146.8934575114636,1315
3148.5906702158954,1362
3150.2875983035183,1346
3151.9842420928853,1305
3153.680601902627,1343
3155.376678051456,1353
3157.07247085816,1392
3158.767980641609,1286
3160.463207720748,1305
3162.158152414606,1266
3163.8528150422862,1346
3165.5471959229726,1298
3167.2412953759303,1329
3168.9351137204976,1324
3170.628651276098,1288
3172.3219083622307,1304
3174.014885298474,1310
3175.707582404485,1300
3177.4000000000005,1273
3179.092138404835,1311
3180.7839979388846,1319
3182.47557892212,1292
3184.166881674594,1296
3185.8579065164386,1285
3187.5486537678626,1324
3189.2391237491547,1368
3190.9293167806827,1290
3192.6192331828934,1326
3194.3088732763117,1314
3195.998237381542,1315
3197.687325819268,1307
3199.376138910251,1303
3201.064676975334,1248
3202.7529403354347,1251
3204.4409293115523,1261
3206.1286442247647,1247
3207.816085396229,1275
3209.5032531471825,1286
3211.190147798936,1286
3212.8767696728846,1265
3214.5631190905015,1258
3216.2491963733373,1254
3217.9350018430214,1234
3219.6205358212637,1299
3221.305798629851,1224
3222.990790590651,1224
3224.6755120256103,1269
3226.359963256751,1286
3228.0441446061795,1273
3229.7280563960758,1298
3231.411698948703,1276
3233.0950725863995,1327
3234.778177631587,1280
3236.461014406761,1277
3238.1435832345005,1322
3239.8258844374595,1311
3241.507918338374,1322
3243.1896852600576,1341
3244.8711855254023,1247
3246.552419457381,1237
3248.233387379042,1271
3249.914089613516,1275
3251.59452648401,1234
3253.274698313813,1318
3254.95460542629,1294
3256.6342481448855,1292
3258.313626793125,1251
3259.9927416946084,1234
3261.6715931730196,1237
3263.3501815521176,1223
3265.0285071557437,1287
3266.706570307815,1255
3268.3843713323286,1230
3270.0619105533615,1262
3271.739188295068,1260
3273.4162048816834,1256
3275.0929606375184,1226
3276.769455886966,1255
3278.445690954498,1308
3280.1216661646613,1269
3281.797381842087,1313
3283.4728383114807,1319
3285.1480358976296,1329
3286.8229749253996,1344
3288.4976557197333,1296
3290.172078605655,1264
3291.846243908266,1254
3293.5201519527463,1226
3295.193803064357,1243
3296.8671975684374,1277
3298.5403357904024,1233
3300.21321805575,1242
3301.8858446900567,1291
3303.558216018975,1234
3305.23033236824,1246
3306.9021940636603,1240
3308.57380143113,1275
3310.2451547966184,1248
3311.916254486174,1275
3313.5871008259246,1285
3315.2576941420766,1234
3316.9280347609147,1244
3318.5981230088046,1242
3320.2679592121895,1205
3321.9375436975924,1263
3323.606876791612,1304
3325.27595882093,1259
3326.944790112305,1207
3328.6133709925753,1262
3330.2817017886573,1265
3331.949782827547,1287
3333.617614436319,1273
3335.2851969421245,1288
3336.952530672199,1280
3338.619615953853,1240
3340.286453114475,1300
3341.9530424815357,1269
3343.619384382583,1255
3345.2854791452437,1266
3346.951327097224,1256
3348.6169285663073,1281
3350.2822838803577,1288
3351.947393367319,1250
3353.61225735521,1319
3355.2768761721345,1273
3356.9412501462693,1220
3358.605379605873,1295
3360.2692648792827,1254
3361.9329062949146,1287
3363.596304181263,1248
