CollectionTime,9/20/2024 11:03:04 AM
ExposureUsed,3
CalibratedSpectrum
-962.7078968117929,524
-959.9714848408522,532
-957.2358232597828,548
-954.5009119013725,578
-951.7667505983302,596
-949.0333391832855,618
-946.3006774887896,624
-943.5687653473143,569
-940.837602591253,565
-938.1071890529199,555
-935.3775245645503,570
-932.6486089583007,598
-929.9204420662485,607
-927.1930237203925,636
-924.4663537526524,606
-921.7404319948689,604
-919.0152582788041,604
-916.2908324361409,665
-913.5671542984834,587
-910.8442236973568,562
-908.1220404642074,546
-905.4006044304027,560
-902.679915427231,578
-899.959973285902,540
-897.2407778375464,544
-894.5223289132158,603
-891.8046263438832,583
-889.0876699604426,600
-886.3714595937089,624
-883.6559950744183,628
-880.9412762332282,626
-878.2273029007168,531
-875.5140749073835,564
-872.8015920836489,569
-870.0898542598545,530
-867.3788612662631,567
-864.6686129330585,595
-861.9591090903457,605
-859.2503495681506,583
-856.5423341964203,569
-853.8350628050229,564
-851.1285352237478,577
-848.4227512823054,621
-845.7177108103272,616
-843.0134136373656,574
-840.3098595928943,594
-837.6070485063082,565
-834.9049802069229,584
-832.2036545239757,558
-829.5030712866244,566
-826.8032303239481,586
-824.1041314649472,561
-821.4057745385428,573
-818.7081593735775,595
-816.0112857988148,634
-813.3151536429393,608
-810.6197627345566,589
-807.9251129021936,583
-805.2312039742981,608
-802.5380357792392,580
-799.8456081453069,633
-797.1539209007124,577
-794.462973873588,612
-791.772766891987,606
-789.083299783884,582
-786.3945723771743,552
-783.7065844996748,590
-781.0193359791231,606
-778.3328266431781,601
-775.6470563194197,594
-772.9620248353489,548
-770.2777320183878,550
-767.5941776958798,605
-764.9113616950891,614
-762.2292838432011,567
-759.5479439673222,571
-756.8673418944801,597
-754.1874774516235,642
-751.5083504656222,643
-748.8299607632671,606
-746.15230817127,639
-743.475392516264,639
-740.7992136248035,630
-738.1237713233636,658
-735.4490654383407,638
-732.7750957960521,619
-730.1018622227365,628
-727.4293645445534,602
-724.7576025875837,623
-722.0865761778291,595
-719.4162851412126,634
-716.7467293035781,622
-714.0779084906909,656
-711.409822528237,627
-708.7424712418238,598
-706.0758544569796,663
-703.4099719991541,640
-700.7448236937178,622
-698.0804093659622,621
-695.4167288411002,628
-692.7537819442656,639
-690.0915685005134,606
-687.4300883348199,656
-684.7693412720819,605
-682.1093271371178,636
-679.4500457546669,693
-676.7914969493897,646
-674.1336805458676,658
-671.4765963686034,629
-668.8202442420206,647
-666.1646239904642,609
-663.5097354382001,619
-660.8555784094151,620
-658.2021527282176,641
-655.5494582186366,680
-652.8974947046223,723
-650.2462620100463,675
-647.5957599587009,631
-644.9459883742998,664
-642.2969470804776,677
-639.6486359007902,658
-637.0010546587141,682
-634.3542031776476,662
-631.7080812809096,679
-629.0626887917401,667
-626.4180255333008,666
-623.7740913286734,678
-621.1308860008619,777
-618.4884093727904,659
-615.8466612673046,663
-613.2056415071715,644
-610.5653499150785,685
-607.9257863136347,716
-605.28695052537,727
-602.6488423727357,724
-600.0114616781036,689
-597.3748082637674,748
-594.7388819519412,761
-592.1036825647604,723
-589.4692099242818,802
-586.8354638524829,765
-584.2024441712624,771
-581.5701507024403,768
-578.9385832677575,801
-576.3077416888759,789
-573.6776257873787,752
-571.0482353847704,728
-568.4195703024757,747
-565.7916303618415,722
-563.164415384135,753
-560.5379251905453,735
-557.9121596021815,706
-555.2871184400748,723
-552.6628015251767,748
-550.0392086783606,726
-547.4163397204204,793
-544.794194472071,839
-542.1727727539491,858
-539.5520743866118,834
-536.9320991905377,832
-534.3128469861261,881
-531.6943175936979,871
-529.0765108334947,911
-526.4594265256793,1004
-523.8430644903358,1193
-521.2274245474689,1364
-518.612506517005,1404
-515.9983102187913,1545
-513.3848354725959,1706
-510.77208209810846,1847
-508.16004991493924,2058
-505.5487387426199,2176
-502.9381484006032,2109
-500.3282787082628,1847
-497.71912948489364,1717
-495.1107005497117,1566
-492.5029917218539,1315
-489.8960028203786,1200
-487.28973366426493,1053
-484.68418407241325,928
-482.07935386364494,964
-479.47524285670266,893
-476.87185087025,946
-474.2691777228715,916
-471.66722323307334,947
-469.0659872192821,913
-466.4654694998459,986
-463.86566989303384,975
-461.26658821703614,929
-458.66822428996414,967
-456.07057792985,1012
-453.4736489546475,1101
-450.877437182231,999
-448.28194243039627,967
-445.68716451686,933
-443.09310325926003,877
-440.49975847515555,884
-437.9071299820263,941
-435.31521759727354,938
-432.72402113821954,930
-430.13354042210767,950
-427.5437752661022,952
-424.95472548728867,942
-422.36639090267386,971
-419.7787713291855,1020
-417.1918665836721,1064
-414.60567648290385,1034
-412.0202008435715,1067
-409.4354394822874,1039
-406.8513922155845,1013
-404.26805885991723,974
-401.685439231661,1031
-399.103533147112,999
-396.522340422488,973
-393.9418608739278,1031
-391.3620943174908,1040
-388.7830405691583,1040
-386.2046994448317,951
-383.6270707603344,911
-381.05015433141045,888
-378.473949973725,855
-375.8984575028645,903
-373.32367673433623,867
-370.74960748356875,789
-368.1762495659117,790
-365.60360279663576,806
-363.03166699093265,738
-360.4604419639154,686
-357.8899275306178,648
-355.32012350599507,647
-352.7510297049233,624
-350.1826459421999,663
-347.61497203254316,721
-345.04800779059235,665
-342.4817530309082,602
-339.91620756797226,660
-337.35137121618743,682
-334.7872437898774,675
-332.22382510328725,724
-329.66111497058273,704
-327.09911320585127,658
-324.53781962310075,692
-321.9772340362607,664
-319.4173562591816,619
-316.8581861056348,687
-314.2997233893127,686
-311.7419679238294,647
-309.1849195227194,634
-306.62857799943856,713
-304.0729431673641,783
-301.51801483979375,806
-298.963792829947,725
-296.41027695096386,625
-293.85746701590574,680
-291.3053628377552,792
-288.7539642294155,716
-286.2032710037115,783
-283.65328297338897,753
-281.1039999511146,747
-278.5554217494762,866
-276.007548180983,854
-273.4603790580651,780
-270.9139141930734,830
-268.3681533982807,898
-265.8230964858798,921
-263.27874326798565,890
-260.7350935566336,876
-258.1921471637804,1106
-255.6499039013039,1134
-253.10836358100266,1015
-250.56752601459698,959
-248.02739101372765,956
-245.48795838995704,922
-242.94922795476816,942
-240.41119951956557,972
-237.8738728956746,842
-235.33724789434166,916
-232.80132432673452,909
-230.2661020039418,968
-227.73158073697357,1040
-225.19776033676033,1162
-222.66464061415422,1268
-220.1322213799284,1113
-217.60050244477725,1072
-215.06948361931552,1066
-212.53916471408013,1122
-210.00954553952818,1238
-207.48062590603843,1323
-204.9524056239104,1153
-202.4248845033651,1148
-199.8980623545441,1186
-197.37193898751036,1243
-194.84651421224817,1139
-192.32178783866232,1101
-189.79775967657952,1107
-187.27442953574644,1337
-184.7517972258321,1360
-182.2298625564256,1213
-179.7086253370378,1059
-177.18808537710026,1345
-174.66824248596583,1351
-172.14909647290835,1356
-169.6306471471229,1349
-167.11289431772548,1277
-164.59583779375328,1223
-162.07947738416453,1538
-159.5638128978386,1702
-157.04884414357605,1622
-154.53457093009854,1723
-152.02099306604828,1452
-149.50811035998936,1614
-146.99592262040665,1657
-144.48442965570587,1642
-141.97363127421409,1616
-139.46352728417958,1734
-136.95411749377126,1892
-134.44540171107985,1863
-131.93737974411636,1786
-129.43005140081357,1788
-126.92341648902493,2283
-124.41747481652521,2683
-121.91222619101006,2853
-119.40767042009657,3030
-116.90380731132257,3725
-114.40063667214702,3839
-111.8981583099503,4351
-109.3963720320337,5678
-106.89527764561933,6844
-104.39487495785067,6192
-101.89516377579241,7073
-99.39614390642998,10825
-96.89781515667039,18127
-94.40017733334128,22163
-91.90323024319173,23293
-89.40697369289148,22453
-86.91140748903172,18514
-84.41653143812482,12144
-81.92234534660395,9748
-79.42884902082358,9874
-76.93604226705907,12785
-74.4439248915071,16554
-71.95249670028534,19884
-69.46175749943245,20854
-66.97170709490854,20047
-64.48234529259423,18398
-61.99367189829195,18341
-59.50568671772464,17410
-57.01838955653636,15848
-54.53178022029283,17007
-52.045858514480074,22778
-49.560624244506016,26759
-47.07607721569923,27510
-44.59221723330904,30093
-42.10904410250669,29361
-39.62655762838392,30813
-37.14475761595372,39124
-34.66364387015028,51956
-32.18321619582866,64906
-29.70347439776515,65035
-27.224418280657005,65035
-24.74604764912317,65035
-22.26836230770266,65035
-19.7913620608565,65035
-17.315046712966478,65035
-14.83941606833514,65035
-12.36446993118659,65035
-9.89020810566592,65035
-7.416630395839093,65035
-4.94373660569363,65035
-2.471526539137585,65035
-6.821210263296962E-13,65035
2.47084320796705,65035
4.941003281093458,65035
7.410480415786196,65035
9.879274808531363,65035
12.347386655893956,65035
14.814816154518212,65035
17.28156350112681,65035
19.74762889252179,65035
22.21301252558385,65035
24.67771459727237,27753
27.141735304626195,9991
29.605074844762612,8839
32.06773341487792,9146
34.52971121224755,8236
36.99100843422559,6431
39.45162527824516,8083
41.91156194181792,6885
44.370818622535126,5372
46.82939551806646,5252
49.287292826160524,5542
51.74451074464503,5774
54.201049471426245,6077
56.65690920448981,4327
59.112090141899785,3123
61.56659248179983,3519
64.02041642241159,3382
66.4735621620365,3785
68.92602989905402,4257
71.37781983192338,4545
73.82893215918205,4125
76.27936707944684,3257
78.72912479141326,3000
81.17820549385567,2638
83.62660938562783,2095
86.07433666566146,2773
88.5213875329681,2441
90.96776218663751,2524
93.41346082583925,3010
95.85848364982041,3490
98.30283085790859,2831
100.7465026495089,2181
103.18949922410604,2165
105.63182078126385,2372
108.07346752062438,2444
110.51443964190923,2448
112.95473734491827,2321
115.39436082953114,2060
117.83331029570547,2058
120.27158594347827,2268
122.7091879729652,2308
125.1461165843615,2660
127.58237197794062,2551
130.01795435405518,2479
132.4528639131364,2184
134.88710085569494,2201
137.32066538231982,2008
139.75355769367923,1701
142.1857779905207,1607
144.61732647366978,1595
147.04820334403132,1686
149.47840880258934,1867
151.90794305040674,2021
154.33680628862487,1927
156.76499871846443,1832
159.19252054122433,1907
161.61937195828352,1851
164.04555317109896,2053
166.47106438120693,2124
168.89590579022217,2396
171.320077599839,2414
173.7435800118302,2372
176.16641322804742,2724
178.58857745042144,2578
181.01007288096173,2473
183.43089972175687,2535
185.85105817497413,2542
188.27054844285988,2530
190.6893707277394,2613
193.10752523201643,2955
195.5250121581745,2982
197.9418317087751,2826
200.3579840864594,2696
202.7734694939469,2726
205.18828813403627,2884
207.6024402096051,2829
210.01592592360964,2770
212.42874547908548,2923
214.84089907914665,2893
217.2523869269868,2723
219.66320922587727,2815
222.0733661791695,2762
224.48285799029293,2709
226.8916848627572,2893
229.29984700014882,2825
231.7073446061355,2733
234.11417788446204,2785
236.520347038953,2812
238.92585227351185,2809
241.33069379212054,2848
243.73487179884035,2931
246.1383864978112,2898
248.541238093252,2863
250.9434267894609,2825
253.34495279081432,2860
255.74581630176783,2886
258.1460175268563,2811
260.54555667069314,2888
262.9444339379703,2905
265.3426495334594,2786
267.7402036620107,2786
270.1370965285529,2970
272.53332833809407,2869
274.9288992957214,2637
277.32380960660055,2679
279.718059475976,2771
282.1116491091717,2674
284.5045787115897,2683
286.89684848871195,2815
289.2884586460981,2682
291.67940938938807,2807
294.0697009242996,2781
296.4593334566299,2753
298.84830719225477,2875
301.23662233712923,2796
303.6242790972866,2710
306.01127767884,2644
308.39761828798066,2673
310.78330113097934,2692
313.16832641418534,2498
315.5526943440269,2533
317.9364051270112,2564
320.3194589697242,2548
322.70185607883093,2494
325.0835966610754,2514
327.4646809232805,2405
329.8451090723478,2403
332.2248813152577,2314
334.6039978590701,2402
336.9824589109231,2336
339.36026467803447,2349
341.7374153677,2328
344.113911187295,2300
346.48975234427337,2290
348.8649390461686,2339
351.2394715005918,2443
353.61334991523415,2316
355.9865744978655,2342
358.35914545633375,2402
360.73106299856715,2326
363.10232733257146,2309
365.47293866643247,2326
367.84289720831396,2253
370.2122031664593,2248
372.5808567491905,2317
374.9488581649083,2235
377.31620762209275,2129
379.6829053293021,2143
382.0489514951745,2177
384.4143463284262,2179
386.7790900378528,2139
389.14318283232853,2117
391.50662492080653,2083
393.86941651231916,2083
396.23155781597745,2195
398.5930490409713,2139
400.9538903965696,2179
403.3140820921202,2179
405.6736243370498,2239
408.03251734086336,2153
410.3907613131465,2076
412.74835646356166,2113
415.10530300185144,2014
417.4616011378372,2080
419.81725108141893,2084
422.1722530425758,2023
424.5266072313656,2068
426.880313857925,2033
429.2333731324701,2040
431.58578526529516,2002
433.9375504667738,2029
436.2886689473588,2077
438.63914091758113,1991
440.9889665880513,2078
443.33814616945835,1979
445.68667987257015,1966
448.03456790823395,2002
450.3818104873759,2010
452.72840782100013,1988
455.07436012019105,2002
457.41966759611057,1985
459.7643304600007,1992
462.10834892318155,1954
464.4517231970525,1982
466.79445349309174,2012
469.1365400228566,2035
471.4779829979826,2019
473.81878263018564,1961
476.15893913125876,1983
478.4984527130747,2187
480.8373235875855,2152
483.17555196682144,2124
485.5131380628919,2188
487.8500820879857,2293
490.1863842543697,2358
492.52204477439034,2367
494.8570638604725,2687
497.1914417251204,2876
499.52517858091653,3618
501.85827464052306,4050
504.19073011668036,4565
506.5225452222086,4659
508.85372017000566,4812
511.18425517304956,4806
513.514150444396,5173
515.8434061971808,6298
518.1720226446176,6960
520.4999999999999,6899
522.8273384766991,6638
525.1540382881666,6103
527.480099647932,5351
529.8055227696037,4275
532.1303078668694,3154
534.454455153496,2486
536.777964843328,2234
539.1008371502907,2237
541.4230722883866,2175
543.744670471698,2131
546.0656319143858,2219
548.3859568306899,2097
550.7056454349294,1997
553.0246979415016,2048
555.3431145648834,1986
557.6608955196306,2037
559.978041020377,2179
562.2945512818363,2158
564.6104265188006,2161
566.9256669461412,2113
569.2402727788082,2093
571.5542442318302,2131
573.8675815203156,2037
576.1802848594508,2114
578.4923544645015,2053
580.8037905508126,2053
583.114593333807,2069
585.4247630289875,2057
587.7342998519354,2119
590.0432040183106,2121
592.3514757438526,2101
594.6591152443794,2042
596.9661227357875,2079
599.2724984340531,2061
601.578242555231,2000
603.8833553154542,2004
606.1878369309362,1985
608.4916876179676,2087
610.7949075929192,2075
613.0974970722403,2015
615.3994562724587,1959
617.7007854101818,1969
620.0014847020951,2018
622.3015543649641,2063
624.6009946156324,2041
626.8998056710224,2034
629.1979877481361,2101
631.4955410640538,2161
633.7924658359349,2082
636.0887622810175,2046
638.3844306166192,2130
640.6794710601358,2026
642.9738838290426,2065
645.2676691408932,2088
647.5608272133207,2120
649.853358264037,2126
652.1452625108324,2097
654.4365401715764,2118
656.7271914642178,2107
659.0172166067838,2116
661.3066158173809,2107
663.5953893141935,2083
665.8835373154867,2091
668.1710600396028,2074
670.4579577049639,2131
672.7442305300709,2114
675.0298787335033,2082
677.3149025339197,2072
679.599302150058,2021
681.8830778007342,2048
684.1662297048437,2048
686.4487580813608,2052
688.7306631493387,2060
691.0119451279091,2070
693.2926042362834,2068
695.5726406937516,1958
697.8520547196814,1983
700.1308465335215,2018
702.4090163547982,1944
704.6865644031171,2016
706.9634908981619,2055
709.2397960596965,2079
711.5154801075631,2144
713.7905432616823,2089
716.0649857420548,2039
718.3388077687592,2022
720.612009561953,2067
722.8845913418733,2074
725.1565533288352,2062
727.427895743234,2089
729.6986188055427,2056
731.9687227363137,2050
734.238207756178,1996
736.5070740858458,1996
738.7753219461066,2143
741.0429515578281,2095
743.3099631419569,2102
745.5763569195191,2033
747.8421331116193,2021
750.1072919394409,1958
752.3718336242467,2050
754.6357583873777,2005
756.8990664502545,2041
759.1617580343765,1993
761.423833361321,2031
763.6852926527457,2106
765.9461361303862,2050
768.206364016058,2107
770.4659765316536,2150
772.7249738991469,2205
774.9833563405886,2147
777.2411240781092,2026
779.4982773339183,2094
781.7548163303044,2072
784.010741289634,2021
786.2660524343538,2182
788.5207499869881,2107
790.7748341701416,2184
793.0283052064964,2163
795.2811633188143,2153
797.5334087299362,2202
799.7850416627813,2110
802.0360623403484,2156
804.2864709857143,2070
806.5362678220353,2110
808.7854530725468,2147
811.0340269605625,2110
813.2819897094754,2124
815.5293415427581,2133
817.77608268396,2085
820.0222133567116,2107
822.2677337847211,2093
824.5126441917765,2054
826.7569448017433,2076
829.0006358385675,2063
831.2437175262731,2065
833.4861900889629,2031
835.7280537508192,2028
837.9693087361026,2137
840.2099552691533,2153
842.4499935743896,2140
844.689423876309,2180
846.9282463994886,2106
849.1664613685833,2108
851.4040690083276,2161
853.6410695435349,2061
855.877463199097,2116
858.1132501999847,2126
860.3484307712487,2163
862.5830051380175,2164
864.8169735254988,2094
867.0503361589791,2177
869.2830932638243,2115
871.5152450654786,2123
873.7467917894654,2112
875.9777336613873,2046
878.2080709069252,2035
880.4378037518389,2197
882.666932421968,2050
884.8954571432301,2084
887.1233781416219,2149
889.3506956432192,2114
891.5774098741766,2078
893.803521060728,2058
896.0290294291852,2005
898.2539352059397,2051
900.4782386174619,2090
902.7019398903011,2124
904.925039251085,2136
907.147536926521,2075
909.3694331433943,2092
911.59072812857,2095
913.8114221089921,2209
916.0315153116827,2086
918.2510079637437,2123
920.4699002923547,2150
922.6881925247761,2141
924.905884888345,2046
927.1229776104793,2119
929.3394709186747,2097
931.555365040506,2058
933.7706602036275,2034
935.9853566357709,2108
938.1994545647489,2116
940.4129542184515,2119
942.6258558248488,2103
944.8381596119883,2087
947.0498658079974,2083
949.2609746410825,2098
951.4714863395287,2166
953.6814011316998,2154
955.8907192460387,2045
958.0994409110671,2065
960.3075663553858,2103
962.5150958076741,2125
964.7220294966913,2057
966.928367651274,2067
969.1341105003388,1924
971.3392582728806,1996
973.5438111979742,1994
975.747769504772,2039
977.9511334225061,2034
980.153903180487,1993
982.3560790081052,2049
984.5576611348289,2019
986.7586497902058,1989
988.9590452038618,2019
991.158847605503,1949
993.3580572249133,1890
995.5566742919558,1852
997.7546990365728,1846
999.952131688785,1856
1002.1489724786926,1818
1004.3452216364743,1731
1006.5408793923874,1694
1008.7359459767691,1719
1010.9304216200343,1685
1013.1243065526781,1725
1015.3176010052733,1737
1017.510305208472,1679
1019.7024193930064,1747
1021.8939437896848,1698
1024.0848786293977,1670
1026.2752241431122,1670
1028.4649805618747,1712
1030.6541481168115,1665
1032.842727039127,1678
1035.0307175601051,1628
1037.2181199111074,1657
1039.4049343235752,1623
1041.591161029029,1620
1043.7768002590683,1658
1045.9618522453698,1575
1048.1463172196918,1607
1050.3301954138697,1635
1052.513487059818,1662
1054.69619238953,1620
1056.8783116350783,1642
1059.0598450286152,1566
1061.2407928023704,1636
1063.4211551886528,1546
1065.6009324198508,1578
1067.780124728432,1558
1069.9587323469414,1536
1072.1367555080046,1596
1074.314194444325,1546
1076.4910493886855,1592
1078.667320573947,1562
1080.843008233051,1618
1083.0181125990161,1573
1085.1926339049414,1551
1087.3665723840027,1586
1089.5399282694575,1488
1091.7127017946405,1513
1093.8848931929647,1512
1096.0565026979243,1576
1098.2275305430899,1449
1100.3979769621128,1467
1102.567842188722,1538
1104.737126456726,1490
1106.9058300000124,1497
1109.0739530525475,1481
1111.2414958483764,1537
1113.4084586216231,1496
1115.5748416064907,1496
1117.7406450372605,1534
1119.9058691482942,1551
1122.0705141740304,1549
1124.2345803489884,1533
1126.3980679077658,1492
1128.5609770850388,1536
1130.7233081155623,1577
1132.8850612341707,1521
1135.0462366757774,1470
1137.2068346753745,1487
1139.3668554680326,1457
1141.526299288901,1470
1143.68516637321,1458
1145.8434569562655,1492
1148.001171273455,1507
1150.158309560244,1479
1152.3148720521767,1521
1154.470858984876,1471
1156.626270594044,1515
1158.7811071154629,1432
1160.9353687849912,1454
1163.089055838569,1475
1165.242168512213,1476
1167.3947070420209,1450
1169.5466716641677,1483
1171.6980626149075,1422
1173.8488801305748,1413
1175.9991244475814,1513
1178.1487958024186,1489
1180.2978944316555,1463
1182.4464205719428,1485
1184.5943744600072,1455
1186.7417563326567,1403
1188.8885664267755,1444
1191.0348049793297,1427
1193.1804722273619,1464
1195.325568407995,1536
1197.4700937584303,1471
1199.614048515948,1458
1201.7574329179074,1416
1203.900247201746,1472
1206.042491604982,1507
1208.1841663652099,1507
1210.3252717201053,1452
1212.465807907422,1496
1214.6057751649923,1480
1216.7451737307279,1440
1218.8840038426192,1528
1221.0222657387353,1511
1223.1599596572241,1463
1225.2970858363137,1487
1227.4336445143094,1441
1229.5696359295966,1471
1231.705060320639,1470
1233.8399179259786,1492
1235.9742089842384,1465
1238.107933734118,1530
1240.2410924143974,1524
1242.373685263935,1508
1244.5057125216676,1500
1246.6371744266116,1509
1248.7680712178621,1512
1250.898403134593,1490
1253.028170416058,1514
1255.1573733015875,1463
1257.2860120305932,1483
1259.4140868425648,1509
1261.54159797707,1497
1263.6685456737569,1491
1265.7949301723515,1531
1267.9207517126597,1562
1270.046010534565,1503
1272.1707068780306,1481
1274.2948409830983,1500
1276.4184130898889,1502
1278.541423438603,1501
1280.6638722695184,1519
1282.785759822993,1506
1284.9070863394636,1576
1287.0278520594447,1566
1289.1480572235314,1601
1291.2677020723963,1567
1293.3867868467923,1569
1295.5053117875495,1571
1297.623277135579,1507
1299.740683131868,1543
1301.8575300174857,1618
1303.973818033578,1538
1306.0895474213703,1563
1308.2047184221678,1606
1310.3193312773528,1550
1312.4333862283888,1608
1314.5468835168163,1627
1316.659823384255,1589
1318.7722060724045,1611
1320.8840318230418,1610
1322.9953008780249,1617
1325.1060134792888,1576
1327.2161698688478,1628
1329.3257702887959,1599
1331.4348149813054,1600
1333.5433041886276,1574
1335.6512381530933,1619
1337.7586171171101,1620
1339.8654413231675,1593
1341.9717110138317,1564
1344.0774264317488,1538
1346.1825878196432,1612
1348.2871954203192,1598
1350.3912494766587,1650
1352.4947502316231,1594
1354.5976979282532,1647
1356.7000928096686,1576
1358.8019351190665,1593
1360.9032250997243,1618
1363.0039629949988,1550
1365.1041490483235,1540
1367.2037835032133,1620
1369.3028666032606,1573
1371.401398592137,1610
1373.4993797135926,1591
1375.5968102114575,1608
1377.6936903296396,1574
1379.7900203121262,1635
1381.8858004029835,1662
1383.9810308463561,1560
1386.075711886469,1602
1388.1698437676241,1540
1390.2634267342032,1567
1392.356461030667,1588
1394.4489469015557,1556
1396.5408845914872,1635
1398.6322743451592,1586
1400.7231164073469,1539
1402.813411022907,1600
1404.903158436773,1592
1406.9923588939578,1531
1409.0810126395531,1562
1411.1691199187303,1574
1413.2566809767386,1622
1415.343696058907,1584
1417.4301654106425,1574
1419.5160892774315,1606
1421.6014679048399,1599
1423.6863015385125,1575
1425.7705904241707,1574
1427.8543348076178,1549
1429.9375349347342,1590
1432.0201910514802,1525
1434.102303403894,1564
1436.1838722380944,1538
1438.2648978002767,1596
1440.3453803367174,1625
1442.4253200937692,1609
1444.5047173178677,1632
1446.5835722555234,1598
1448.6618851533285,1604
1450.739656257952,1634
1452.8168858161434,1597
1454.8935740747306,1657
1456.96972128062,1623
1459.045327680797,1658
1461.120393522327,1636
1463.1949190523528,1631
1465.2689045180973,1681
1467.3423501668608,1690
1469.415256246024,1748
1471.4876230030463,1653
1473.559450685465,1629
1475.6307395408976,1734
1477.7014898170391,1711
1479.771701761665,1706
1481.8413756226287,1653
1483.9105116478618,1711
1485.9791100853772,1743
1488.0471711832643,1686
1490.1146951896926,1711
1492.1816823529098,1725
1494.2481329212433,1696
1496.3140471430984,1679
1498.3794252669609,1681
1500.4442675413939,1675
1502.5085742150404,1759
1504.572345536622,1692
1506.6355817549388,1728
1508.6982831188702,1739
1510.7604498773744,1774
1512.8220822794883,1728
1514.8831805743293,1816
1516.9437450110909,1764
1519.003775839048,1771
1521.0632733075522,1816
1523.1222376660367,1761
1525.1806691640113,1769
1527.2385680510652,1788
1529.2959345768668,1716
1531.3527689911643,1790
1533.4090715437833,1809
1535.4648424846291,1769
1537.5200820636855,1812
1539.5747905310159,1859
1541.6289681367616,1806
1543.6826151311434,1798
1545.7357317644614,1787
1547.7883182870937,1872
1549.8403749494987,1882
1551.8919020022113,1964
1553.9428996958477,1902
1555.9933682811015,1931
1558.0433080087469,1908
1560.0927191296346,1892
1562.1416018946961,1915
1564.1899565549415,1950
1566.2377833614592,1964
1568.2850825654164,1978
1570.3318544180606,1924
1572.3780991707158,1925
1574.423817074788,1927
1576.4690083817595,1891
1578.5136733431923,1849
1580.5578122107272,1805
1582.601425236085,1814
1584.6445126710646,1764
1586.6870747675434,1757
1588.7291117774776,1786
1590.7706239529034,1774
1592.8116115459347,1762
1594.8520748087658,1692
1596.8920139936686,1743
1598.9314293529933,1663
1600.9703211391711,1694
1603.008689604711,1724
1605.0465350022005,1615
1607.0838575843068,1676
1609.1206576037753,1599
1611.1569353134305,1586
1613.1926909661765,1634
1615.2279248149953,1660
1617.2626371129481,1568
1619.2968281131757,1556
1621.3304980688963,1512
1623.3636472334088,1559
1625.39627586009,1643
1627.428384202396,1581
1629.459972513861,1577
1631.4910410480993,1548
1633.5215900588028,1584
1635.551619799744,1528
1637.5811305247717,1543
1639.6101224878166,1518
1641.6385959428862,1527
1643.6665511440683,1507
1645.693988345528,1471
1647.7209078015112,1549
1649.7473097663405,1505
1651.7731944944203,1477
1653.7985622402307,1503
1655.823413258333,1520
1657.847747803366,1571
1659.8715661300494,1577
1661.8948684931793,1538
1663.9176551476316,1447
1665.9399263483624,1512
1667.9616823504057,1553
1669.982923408873,1511
1672.0036497789574,1451
1674.0238617159293,1466
1676.043559475138,1442
1678.0627433120121,1483
1680.081413482059,1463
1682.0995702408654,1461
1684.117213844096,1520
1686.134344547495,1533
1688.1509626068864,1516
1690.1670682781705,1505
1692.182661817329,1516
1694.1977434804217,1419
1696.2123135235875,1479
1698.226372203043,1505
1700.2399197750851,1560
1702.2529564960905,1536
1704.2654826225112,1434
1706.277498410882,1483
1708.2890041178139,1605
1710.2999999999988,1527
1712.3104863142066,1502
1714.3204633172854,1466
1716.329931266163,1427
1718.3388904178469,1441
1720.3473410294214,1436
1722.3552833580516,1460
1724.3627176609807,1491
1726.3696441955308,1556
1728.3760632191033,1521
1730.3819749891782,1480
1732.3873797633146,1498
1734.3922777991502,1518
1736.3966693544012,1394
1738.4005546868639,1458
1740.4039340544127,1493
1742.406807715001,1472
1744.4091759266616,1481
1746.4110389475054,1483
1748.4123970357223,1473
1750.413250449582,1422
1752.4135994474318,1509
1754.4134442876993,1501
1756.4127852288902,1467
1758.4116225295893,1456
1760.4099564484595,1410
1762.407787244244,1469
1764.405115175764,1491
1766.4019405019203,1449
1768.3982634816916,1397
1770.3940843741357,1444
1772.3894034383907,1453
1774.3842209336717,1519
1776.378537119274,1449
1778.372352254571,1462
1780.3656665990156,1501
1782.3584804121397,1472
1784.3507939535534,1497
1786.3426074829463,1483
1788.3339212600863,1515
1790.3247355448211,1475
1792.3150505970766,1556
1794.3048666768573,1510
1796.2941840442477,1505
1798.2830029594106,1516
1800.2713236825884,1588
1802.2591464741004,1498
1804.2464715943465,1517
1806.2332993038058,1451
1808.2196298630352,1481
1810.2054635326708,1465
1812.190800573428,1509
1814.175641246101,1483
1816.1599858115628,1482
1818.1438345307652,1508
1820.127187664738,1409
1822.1100454745924,1455
1824.092408221516,1463
1826.0742761667766,1410
1828.055649571721,1480
1830.0365286977735,1489
1832.0169138064398,1434
1833.9968051593014,1458
1835.9762030180214,1469
1837.9551076443408,1446
1839.9335193000788,1423
1841.9114382471344,1460
1843.888864747485,1507
1845.8657990631878,1493
1847.842241456378,1438
1849.8181921892697,1396
1851.7936515241558,1473
1853.7686197234098,1436
1855.7430970494815,1469
1857.7170837649014,1439
1859.6905801322787,1426
1861.6635864143004,1413
1863.6361028737338,1472
1865.608129773424,1485
1867.5796673762961,1482
1869.5507159453537,1449
1871.521275743678,1416
1873.4913470344313,1486
1875.4609300808534,1507
1877.4300251462632,1427
1879.3986324940588,1488
1881.366752387717,1477
1883.3343850907936,1441
1885.3015308669228,1511
1887.268189979819,1541
1889.2343626932739,1466
1891.2000492711595,1492
1893.1652499774254,1468
1895.1299650761011,1479
1897.0941948312952,1508
1899.0579395071945,1429
1901.0211993680641,1501
1902.98397467825,1492
1904.9462657021745,1496
1906.9080727043415,1438
1908.869395949332,1515
1910.8302357018065,1457
1912.790592226504,1521
1914.7504657882428,1488
1916.7098566519212,1418
1918.6687650825133,1429
1920.6271913450764,1419
1922.5851357047422,1468
1924.5425984267245,1441
1926.499579776314,1492
1928.4560800188833,1502
1930.4120994198802,1443
1932.367638244833,1482
1934.32269675935,1451
1936.2772752291175,1516
1938.231373919899,1508
1940.1849930975404,1493
1942.1381330279637,1449
1944.0907939771696,1485
1946.0429762112412,1503
1947.9946799963363,1525
1949.9459055986945,1528
1951.896653284633,1459
1953.8469233205478,1435
1955.7967159729142,1384
1957.7460315082863,1428
1959.6948701932974,1463
1961.6432322946594,1476
1963.5911180791632,1461
1965.5385278136787,1452
1967.4854617651545,1414
1969.4319202006182,1496
1971.377903387176,1495
1973.3234115920136,1480
1975.268445082395,1462
1977.2130041256642,1540
1979.1570889892423,1436
1981.1006999406304,1441
1983.04383724741,1465
1984.986501177238,1461
1986.928691997853,1509
1988.8704099770712,1462
1990.811655382789,1461
1992.7524284829801,1469
1994.692729545698,1407
1996.6325588390755,1447
1998.5719166313224,1470
2000.5108031907307,1464
2002.4492187856677,1432
2004.387163684583,1438
2006.3246381560011,1489
2008.2616424685298,1405
2010.1981768908527,1471
2012.1342416917332,1463
2014.069837140014,1482
2016.0049635046162,1442
2017.9396210545406,1489
2019.8738100588666,1507
2021.8075307867502,1477
2023.740783507431,1478
2025.6735684902228,1447
2027.6058860045214,1463
2029.5377363198004,1476
2031.4691197056118,1450
2033.4000364315875,1437
2035.3304867674374,1445
2037.260470982952,1423
2039.189989347998,1392
2041.1190421325232,1413
2043.047629606554,1436
2044.9757520401945,1473
2046.9034097036288,1451
2048.8306028671195,1420
2050.7573318010086,1483
2052.683596775716,1460
2054.609398061742,1409
2056.5347359296647,1493
2058.4596106501403,1425
2060.384022493906,1436
2062.3079717317764,1460
2064.231458634646,1436
2066.1544834734873,1414
2068.077046519352,1414
2069.99914804337,1489
2071.9207883167524,1460
2073.8419676107865,1440
2075.7626861968406,1471
2077.6829443463607,1415
2079.6027423308715,1420
2081.522080421977,1377
2083.440958891362,1420
2085.359378010786,1396
2087.2773380520907,1438
2089.194839287196,1481
2091.111881988101,1404
2093.0284664268825,1439
2094.9445928756973,1409
2096.86026160678,1431
2098.775472892446,1395
2100.690227005088,1449
2102.604524217178,1451
2104.5183648012676,1459
2106.431749029985,1421
2108.34467717604,1460
2110.2571495122206,1428
2112.169166311393,1513
2114.080727846503,1440
2115.9918343905747,1431
2117.902486216711,1461
2119.8126835980956,1457
2121.722426807987,1460
2123.6317161197285,1431
2125.5405518067364,1423
2127.448934142509,1443
2129.356863400624,1478
2131.264339854737,1501
2133.1713637785815,1486
2135.077935445972,1482
2136.9840551308002,1479
2138.889723107037,1477
2140.7949396487334,1528
2142.699705030018,1444
2144.6040195250994,1466
2146.507883408264,1516
2148.4112969538774,1514
2150.3142604363848,1443
2152.2167741303097,1476
2154.1188383102535,1477
2156.0204532508997,1488
2157.9216192270064,1505
2159.822336513414,1486
2161.7226053850413,1443
2163.622426116884,1511
2165.5217989840185,1463
2167.4207242616,1445
2169.319202224862,1511
2171.2172331491165,1499
2173.1148173097563,1548
2175.0119549822507,1476
2176.90864644215,1464
2178.8048919650823,1556
2180.7006918267534,1527
2182.596046302952,1548
2184.4909556695407,1481
2186.3854202024645,1553
2188.279440177746,1531
2190.173015871487,1505
2192.066147559868,1508
2193.958835519149,1552
2195.851080025667,1570
2197.7428813558417,1525
2199.6342397861667,1503
2201.5251555932186,1586
2203.415629053651,1578
2205.3056604441986,1586
2207.19525004167,1572
2209.084398122958,1598
2210.9731049650327,1567
2212.861370844941,1566
2214.749196039812,1653
2216.636580826851,1570
2218.523525483344,1563
2220.410030286655,1606
2222.296095514226,1605
2224.1817214435805,1627
2226.066908352319,1542
2227.951656518121,1560
2229.835966218746,1521
2231.71983773203,1569
2233.6032713358913,1586
2235.486267308324,1569
2237.3688259274036,1615
2239.2509474712824,1566
2241.132632218193,1537
2243.013880446447,1573
2244.8946924344323,1515
2246.7750684606203,1561
2248.6550088035574,1594
2250.534513741871,1621
2252.413583554265,1617
2254.292218519526,1614
2256.170418916517,1503
2258.0481850241786,1543
2259.925517121534,1556
2261.8024154876825,1551
2263.678880401803,1591
2265.5549121431536,1576
2267.430510991071,1568
2269.305677224971,1539
2271.180411124348,1571
2273.0547129687766,1567
2274.9285830379076,1532
2276.8020216114737,1556
2278.6750289692845,1568
2280.5476053912294,1572
2282.4197511572766,1601
2284.2914665474727,1608
2286.162751841943,1596
2288.0336073208937,1607
2289.904033264608,1497
2291.774029953448,1641
2293.6435976678554,1647
2295.5127366883517,1512
2297.381447295534,1488
2299.2497297700825,1467
2301.1175843927526,1472
2302.9850114443825,1417
2304.852011205885,1422
2306.7185839582553,1378
2308.5847299825664,1346
2310.4504495599676,1312
2312.3157429716925,1352
2314.1806104990483,1328
2316.0450524234247,1260
2317.9090690262888,1291
2319.772660589186,1302
2321.635827393742,1286
2323.498569721661,1271
2325.3608878547248,1317
2327.2227820747967,1246
2329.0842526638157,1256
2330.945299903803,1293
2332.805924076857,1312
2334.6661254651535,1294
2336.525904350951,1263
2338.3852610165827,1323
2340.244195744464,1305
2342.102708817088,1252
2343.9608005170253,1288
2345.8184711269287,1244
2347.675720929526,1301
2349.532550207628,1292
2351.38895924412,1261
2353.24494832197,1245
2355.100517724223,1331
2356.955667734004,1263
2358.810398634514,1292
2360.664710709037,1313
2362.5186042409337,1286
2364.3720795136437,1306
2366.225136810686,1288
2368.0777764156583,1330
2369.929998612237,1305
2371.7818036841777,1308
2373.633191915315,1293
2375.484163589562,1241
2377.3347189909114,1287
2379.184858403434,1288
2381.03458211128,1285
2382.8838903986775,1319
2384.732783549936,1274
2386.5812618494406,1316
2388.4293255816588,1345
2390.2769750311327,1330
2392.1242104824883,1277
2393.971032220427,1274
2395.8174405297295,1235
2397.6634356952563,1298
2399.509018001947,1257
2401.3541877348193,1294
2403.1989451789705,1308
2405.043290619576,1291
2406.8872243418905,1408
2408.730746631247,1283
2410.5738577730594,1329
2412.4165580528183,1330
2414.258847756095,1318
2416.100727168537,1282
2417.9421965758734,1276
2419.783256263912,1256
2421.623906518538,1293
2423.4641476257157,1295
2425.303979871491,1291
2427.143403541984,1265
2428.9824189233977,1293
2430.821026302012,1338
2432.6592259641866,1291
2434.497018196361,1357
2436.33440328505,1301
2438.171381516851,1272
2440.00795317844,1289
2441.844118556569,1318
2443.6798779380724,1331
2445.5152316098606,1330
2447.3501798589255,1296
2449.1847229723357,1281
2451.0188612372403,1255
2452.8525949408663,1315
2454.6859243705203,1317
2456.518849813587,1292
2458.3513715575314,1286
2460.183489889895,1289
2462.015205098301,1266
2463.8465174704493,1331
2465.67742729412,1323
2467.5079348571717,1341
2469.338040447542,1305
2471.1677443532476,1277
2472.9970468623833,1319
2474.825948263123,1321
2476.6544488437207,1236
2478.482548892508,1313
2480.310248697896,1279
2482.137548548374,1278
2483.9644487325118,1276
2485.790949538956,1205
2487.617051256433,1295
2489.44275417375,1306
2491.26805857979,1279
2493.0929647635157,1327
2494.917473013971,1310
2496.741583620276,1311
2498.5652968716304,1315
2500.3886130573137,1270
2502.2115324666834,1289
2504.0340553891765,1334
2505.856182114308,1338
2507.6779129316733,1319
2509.499248130945,1341
2511.3201880018764,1315
2513.140732834298,1318
2514.9608829181198,1347
2516.780638543331,1321
2518.6,1310
2520.418967578273,1300
2522.237541568376,1314
2524.0557222606144,1331
2525.8735099453706,1310
2527.6909049131086,1286
2529.507907454368,1341
2531.32451785977,1328
2533.140736420014,1348
2534.9565634258774,1346
2536.771999168218,1317
2538.5870439379714,1355
2540.4016980261526,1304
2542.2159617238544,1327
2544.02983532225,1346
2545.8433191125914,1374
2547.656413386209,1295
2549.4691184345115,1297
2551.2814345489874,1374
2553.093362021204,1332
2554.904901142808,1315
2556.716052205523,1318
2558.526815501153,1295
2560.3371913215824,1339
2562.147179958771,1346
2563.956781704761,1353
2565.7659968516705,1362
2567.5748256916986,1355
2569.3832685171224,1342
2571.1913256202984,1298
2572.9989972936614,1354
2574.806283829725,1362
2576.613185521084,1312
2578.4197026604074,1325
2580.2258355404483,1332
2582.031584454035,1373
2583.836949694077,1388
2585.6419315535613,1319
2587.4465303255533,1364
2589.2507463032002,1401
2591.0545797797245,1408
2592.8580310484303,1348
2594.6611004026995,1358
2596.463788135992,1349
2598.266094541849,1331
2600.0680199138874,1348
2601.869564545807,1417
2603.670728731383,1332
2605.4715127644704,1316
2607.2719169390048,1397
2609.071941548998,1328
2610.8715868885433,1396
2612.670853251811,1322
2614.469740933052,1371
2616.268250226594,1383
2618.0663814268455,1322
2619.864134828292,1338
2621.6615107255006,1450
2623.458509413115,1384
2625.2551311858597,1360
2627.0513763385347,1362
2628.8472451660223,1395
2630.6427379632833,1303
2632.4378550253564,1354
2634.232596647359,1334
2636.026963124488,1355
2637.8209547520187,1341
2639.6145718253065,1379
2641.407814639785,1386
2643.200683490966,1357
2644.9931786744414,1296
2646.7853004858807,1375
2648.577049221034,1303
2650.3684251757277,1304
2652.1594286458712,1337
2653.9500599274484,1356
2655.740319316525,1347
2657.5302071092437,1346
2659.3197236018286,1325
2661.10886909058,1308
2662.8976438718782,1358
2664.686048242183,1313
2666.4740824980327,1408
2668.2617469360443,1359
2670.0490418529134,1301
2671.8359675454153,1299
2673.622524310403,1357
2675.408712444811,1328
2677.1945322456495,1244
2678.979984010009,1247
2680.76506803506,1343
2682.5497846180497,1363
2684.334134056306,1307
2686.1181166472343,1300
2687.9017326883213,1318
2689.6849824771293,1334
2691.4678663113013,1302
2693.2503844885596,1330
2695.032537306705,1317
2696.8143250636167,1302
2698.5957480572542,1304
2700.3768065856534,1295
2702.1575009469316,1290
2703.937831439283,1322
2705.717798360982,1304
2707.4974020103837,1276
2709.276642685917,1224
2711.055520686095,1261
2712.834036309506,1289
2714.612189854819,1289
2716.389981620782,1297
2718.1674119062204,1247
2719.944481010041,1284
2721.721189231226,1264
2723.4975368688415,1332
2725.273524222027,1267
2727.0491515900053,1244
2728.824419272075,1284
2730.5993275676146,1286
2732.3738767760838,1317
2734.148067197016,1326
2735.921899130031,1249
2737.6953728748194,1245
2739.468488731156,1247
2741.2412469988926,1235
2743.0136479779617,1240
2744.785691968372,1246
2746.5573792702116,1286
2748.3287101836504,1249
2750.099685008934,1288
2751.870304046388,1344
2753.640567596418,1311
2755.4104759595057,1232
2757.1800294362156,1275
2758.949228327187,1263
2760.7180729331412,1305
2762.486563554877,1246
2764.254700493272,1292
2766.022484049284,1301
2767.789914523947,1328
2769.5569922183786,1242
2771.3237174337705,1267
2773.090090471394,1250
2774.8561116326036,1278
2776.6217812188274,1291
2778.3870995315756,1216
2780.1520668724356,1240
2781.9166835430747,1291
2783.6809498452394,1224
2785.444866080754,1303
2787.2084325515225,1289
2788.971649559527,1313
2790.73451740683,1229
2792.4970363955713,1242
2794.2592068279705,1356
2796.0210290063264,1252
2797.7825032330147,1250
2799.543629810493,1248
2801.304409041296,1240
2803.0648412280366,1283
2804.8249266734088,1324
2806.5846656801846,1313
2808.344058551212,1348
2810.1031055894246,1289
2811.8618070978273,1368
2813.6201633795085,1308
2815.378174737636,1289
2817.1358414754536,1247
2818.893163896285,1280
2820.6501423035334,1276
2822.4067770006814,1276
2824.1630682912883,1255
2825.9190164789957,1240
2827.6746218675207,1269
2829.429884760661,1371
2831.184805462294,1330
2832.9393842763743,1319
2834.693621506936,1277
2836.4475174580916,1313
2838.201072434034,1254
2839.954286739034,1267
2841.707160677441,1246
2843.459694553685,1260
2845.2118886722724,1309
2846.96374333779,1307
2848.7152588549034,1310
2850.4664355283567,1319
2852.217273662973,1364
2853.9677735636546,1296
2855.7179355353833,1269
2857.4677598832186,1324
2859.217246912299,1269
2860.9663969278427,1278
2862.715210235146,1266
2864.4636871395846,1285
2866.211827946614,1297
2867.9596329617652,1336
2869.7071024906536,1265
2871.4542368389684,1301
2873.20103631248,1263
2874.947501217038,1243
2876.6936318585695,1318
2878.4394285430812,1278
2880.1848915766604,1353
2881.9300212654707,1254
2883.6748179157553,1307
2885.4192818338374,1244
2887.1634133261173,1285
2888.907212699077,1279
2890.6506802592744,1260
2892.393816313348,1279
2894.1366211680142,1290
2895.8790951300693,1277
2897.621238506388,1326
2899.363051603925,1240
2901.1045347297118,1317
2902.8456881908596,1249
2904.58651229456,1290
2906.327007348081,1268
2908.067173658772,1276
2909.8070115340597,1244
2911.5465212814497,1244
2913.285703208527,1307
2915.0245576229563,1261
2916.7630848324807,1287
2918.5012851449196,1237
2920.2391588681758,1247
2921.976706310227,1271
2923.7139277791334,1237
2925.4508235830313,1287
2927.187394030137,1250
2928.923639428745,1332
2930.6595600872306,1311
2932.395156314046,1279
2934.1304284177218,1292
2935.8653767068713,1308
2937.6000014901815,1253
2939.3343030764227,1306
2941.068281774442,1287
2942.8019378931644,1334
2944.5352717415976,1294
2946.2682836288236,1315
2948.0009738640065,1325
2949.7333427563885,1292
2951.465390615289,1316
2953.1971177501086,1317
2954.9285244703265,1281
2956.6596110855,1283
2958.3903779052657,1227
2960.1208252393385,1286
2961.8509533975125,1288
2963.5807626896617,1319
2965.3102534257378,1327
2967.0394259157715,1263
2968.768280469873,1241
2970.496817398232,1273
2972.2250370111146,1315
2973.952939618869,1260
2975.6805255319196,1262
2977.4077950607707,1299
2979.134748516006,1280
2980.861386208289,1281
2982.587708448359,1275
2984.313715547037,1300
2986.039407815222,1270
2987.764785563891,1267
2989.489849104102,1309
2991.2145987469908,1239
2992.9390348037705,1248
2994.6631575857346,1277
2996.3869674042576,1260
2998.1104645707887,1246
2999.83364939686,1255
3001.5565221940783,1252
3003.2790832741334,1255
3005.0013329487924,1253
3006.7232715298996,1263
3008.4448993293804,1257
3010.166216659239,1264
3011.887223831558,1303
3013.607921158498,1310
3015.3283089522993,1280
3017.0483875252826,1253
3018.7681571898443,1252
3020.4876182584626,1266
3022.2067710436927,1264
3023.9256158581707,1263
3025.644153014609,1289
3027.362382825801,1275
3029.0803056046193,1300
3030.797921664012,1295
3032.5152313170106,1251
3034.2322348767225,1249
3035.9489326563353,1267
3037.665324969115,1251
3039.3814121284063,1281
3041.097194447633,1245
3042.812672240299,1343
3044.5278458199855,1245
3046.2427155003525,1318
3047.9572815951406,1260
3049.671544418167,1263
3051.38550428333,1267
3053.0991615046073,1293
3054.812516396051,1246
3056.5255692717974,1244
3058.2383204460575,1277
3059.9507702331257,1250
3061.662918947372,1259
3063.3747669032446,1274
3065.0863144152736,1236
3066.7975617980674,1284
3068.508509366309,1242
3070.219157434767,1219
3071.9295063182844,1260
3073.639556331785,1267
3075.3493077902704,1298
3077.058761008821,1287
3078.7679163025964,1241
3080.476773986837,1262
3082.1853343768594,1281
3083.89359778806,1267
3085.6015645359153,1276
3087.3092349359786,1232
3089.016609303884,1249
3090.7236879553434,1284
3092.4304712061476,1273
3094.136959372166,1251
3095.843152769349,1278
3097.5490517137237,1233
3099.2546565213966,1240
3100.959967508554,1220
3102.66498499146,1234
3104.3697092864577,1252
3106.0741407099695,1264
3107.778279578498,1255
3109.482126208622,1273
3111.1856809170004,1240
3112.8889440203716,1289
3114.5919158355528,1239
3116.294596679439,1269
3117.996986869006,1239
3119.6990867213062,1257
3121.4008965534726,1261
3123.102416682717,1250
3124.803647426329,1288
3126.5045891016784,1266
3128.205242026213,1259
3129.90560651746,1226
3131.605682893025,1245
3133.3054714705922,1254
3135.0049725679282,1279
3136.7041865028714,1290
3138.4031135933465,1268
3140.101754157353,1275
3141.800108512971,1252
3143.498176978357,1245
3145.1959598717494,1237
3146.8934575114636,1270
3148.5906702158954,1279
3150.2875983035183,1234
3151.9842420928853,1255
3153.680601902627,1281
3155.376678051456,1251
3157.07247085816,1214
3158.767980641609,1234
3160.463207720748,1217
3162.158152414606,1251
3163.8528150422862,1226
3165.5471959229726,1262
3167.2412953759303,1300
3168.9351137204976,1311
3170.628651276098,1271
3172.3219083622307,1263
3174.014885298474,1272
3175.707582404485,1253
3177.4000000000005,1249
3179.092138404835,1269
3180.7839979388846,1303
3182.47557892212,1282
3184.166881674594,1201
3185.8579065164386,1250
3187.5486537678626,1182
3189.2391237491547,1262
3190.9293167806827,1240
3192.6192331828934,1212
3194.3088732763117,1271
3195.998237381542,1253
3197.687325819268,1255
3199.376138910251,1243
3201.064676975334,1232
3202.7529403354347,1207
3204.4409293115523,1275
3206.1286442247647,1259
3207.816085396229,1211
3209.5032531471825,1267
3211.190147798936,1253
3212.8767696728846,1191
3214.5631190905015,1240
3216.2491963733373,1261
3217.9350018430214,1251
3219.6205358212637,1260
3221.305798629851,1245
3222.990790590651,1203
3224.6755120256103,1236
3226.359963256751,1219
3228.0441446061795,1205
3229.7280563960758,1214
3231.411698948703,1252
3233.0950725863995,1303
3234.778177631587,1283
3236.461014406761,1302
3238.1435832345005,1312
3239.8258844374595,1273
3241.507918338374,1203
3243.1896852600576,1287
3244.8711855254023,1295
3246.552419457381,1262
3248.233387379042,1261
3249.914089613516,1229
3251.59452648401,1190
3253.274698313813,1236
3254.95460542629,1264
3256.6342481448855,1249
3258.313626793125,1240
3259.9927416946084,1217
3261.6715931730196,1232
3263.3501815521176,1201
3265.0285071557437,1210
3266.706570307815,1262
3268.3843713323286,1259
3270.0619105533615,1234
3271.739188295068,1195
3273.4162048816834,1239
3275.0929606375184,1234
3276.769455886966,1261
3278.445690954498,1272
3280.1216661646613,1227
3281.797381842087,1274
3283.4728383114807,1282
3285.1480358976296,1205
3286.8229749253996,1212
3288.4976557197333,1239
3290.172078605655,1273
3291.846243908266,1261
3293.5201519527463,1263
3295.193803064357,1319
3296.8671975684374,1284
3298.5403357904024,1240
3300.21321805575,1274
3301.8858446900567,1226
3303.558216018975,1229
3305.23033236824,1230
3306.9021940636603,1276
3308.57380143113,1288
3310.2451547966184,1230
3311.916254486174,1233
3313.5871008259246,1233
3315.2576941420766,1237
3316.9280347609147,1222
3318.5981230088046,1202
3320.2679592121895,1175
3321.9375436975924,1181
3323.606876791612,1252
3325.27595882093,1245
3326.944790112305,1301
3328.6133709925753,1227
3330.2817017886573,1282
3331.949782827547,1203
3333.617614436319,1262
3335.2851969421245,1212
3336.952530672199,1230
3338.619615953853,1219
3340.286453114475,1209
3341.9530424815357,1252
3343.619384382583,1207
3345.2854791452437,1255
3346.951327097224,1246
3348.6169285663073,1289
3350.2822838803577,1268
3351.947393367319,1221
3353.61225735521,1308
3355.2768761721345,1293
3356.9412501462693,1277
3358.605379605873,1225
3360.2692648792827,1201
3361.9329062949146,1255
3363.596304181263,1246
