CollectionTime,9/20/2024 11:05:23 AM
ExposureUsed,3
CalibratedSpectrum
-962.7078968117929,797
-959.9714848408522,823
-957.2358232597828,845
-954.5009119013725,833
-951.7667505983302,880
-949.0333391832855,899
-946.3006774887896,854
-943.5687653473143,894
-940.837602591253,796
-938.1071890529199,866
-935.3775245645503,883
-932.6486089583007,890
-929.9204420662485,860
-927.1930237203925,890
-924.4663537526524,841
-921.7404319948689,881
-919.0152582788041,892
-916.2908324361409,890
-913.5671542984834,862
-910.8442236973568,786
-908.1220404642074,872
-905.4006044304027,855
-902.679915427231,816
-899.959973285902,883
-897.2407778375464,860
-894.5223289132158,826
-891.8046263438832,865
-889.0876699604426,895
-886.3714595937089,890
-883.6559950744183,890
-880.9412762332282,865
-878.2273029007168,849
-875.5140749073835,819
-872.8015920836489,786
-870.0898542598545,884
-867.3788612662631,901
-864.6686129330585,887
-861.9591090903457,910
-859.2503495681506,903
-856.5423341964203,840
-853.8350628050229,871
-851.1285352237478,861
-848.4227512823054,902
-845.7177108103272,915
-843.0134136373656,841
-840.3098595928943,893
-837.6070485063082,876
-834.9049802069229,922
-832.2036545239757,889
-829.5030712866244,843
-826.8032303239481,930
-824.1041314649472,871
-821.4057745385428,884
-818.7081593735775,887
-816.0112857988148,865
-813.3151536429393,903
-810.6197627345566,885
-807.9251129021936,884
-805.2312039742981,862
-802.5380357792392,920
-799.8456081453069,917
-797.1539209007124,875
-794.462973873588,901
-791.772766891987,881
-789.083299783884,927
-786.3945723771743,864
-783.7065844996748,901
-781.0193359791231,890
-778.3328266431781,875
-775.6470563194197,854
-772.9620248353489,844
-770.2777320183878,915
-767.5941776958798,921
-764.9113616950891,942
-762.2292838432011,934
-759.5479439673222,886
-756.8673418944801,937
-754.1874774516235,978
-751.5083504656222,958
-748.8299607632671,932
-746.15230817127,921
-743.475392516264,917
-740.7992136248035,940
-738.1237713233636,961
-735.4490654383407,946
-732.7750957960521,976
-730.1018622227365,967
-727.4293645445534,952
-724.7576025875837,952
-722.0865761778291,971
-719.4162851412126,932
-716.7467293035781,993
-714.0779084906909,940
-711.409822528237,906
-708.7424712418238,950
-706.0758544569796,957
-703.4099719991541,961
-700.7448236937178,978
-698.0804093659622,974
-695.4167288411002,965
-692.7537819442656,977
-690.0915685005134,910
-687.4300883348199,970
-684.7693412720819,1001
-682.1093271371178,959
-679.4500457546669,973
-676.7914969493897,973
-674.1336805458676,961
-671.4765963686034,949
-668.8202442420206,962
-666.1646239904642,968
-663.5097354382001,994
-660.8555784094151,942
-658.2021527282176,999
-655.5494582186366,1031
-652.8974947046223,998
-650.2462620100463,992
-647.5957599587009,990
-644.9459883742998,1020
-642.2969470804776,995
-639.6486359007902,992
-637.0010546587141,1025
-634.3542031776476,1026
-631.7080812809096,1032
-629.0626887917401,1024
-626.4180255333008,1019
-623.7740913286734,1027
-621.1308860008619,1049
-618.4884093727904,1049
-615.8466612673046,1009
-613.2056415071715,1008
-610.5653499150785,1084
-607.9257863136347,1067
-605.28695052537,1047
-602.6488423727357,1047
-600.0114616781036,1050
-597.3748082637674,1086
-594.7388819519412,1046
-592.1036825647604,1115
-589.4692099242818,1098
-586.8354638524829,1050
-584.2024441712624,1050
-581.5701507024403,1100
-578.9385832677575,1072
-576.3077416888759,1133
-573.6776257873787,1083
-571.0482353847704,1049
-568.4195703024757,1038
-565.7916303618415,1020
-563.164415384135,1120
-560.5379251905453,1102
-557.9121596021815,1094
-555.2871184400748,1048
-552.6628015251767,1092
-550.0392086783606,1099
-547.4163397204204,1127
-544.794194472071,1075
-542.1727727539491,1132
-539.5520743866118,1149
-536.9320991905377,1153
-534.3128469861261,1177
-531.6943175936979,1168
-529.0765108334947,1187
-526.4594265256793,1267
-523.8430644903358,1486
-521.2274245474689,1537
-518.612506517005,1584
-515.9983102187913,1647
-513.3848354725959,1658
-510.77208209810846,1715
-508.16004991493924,1785
-505.5487387426199,1862
-502.9381484006032,1815
-500.3282787082628,1760
-497.71912948489364,1603
-495.1107005497117,1511
-492.5029917218539,1386
-489.8960028203786,1253
-487.28973366426493,1279
-484.68418407241325,1237
-482.07935386364494,1225
-479.47524285670266,1216
-476.87185087025,1235
-474.2691777228715,1299
-471.66722323307334,1264
-469.0659872192821,1237
-466.4654694998459,1194
-463.86566989303384,1230
-461.26658821703614,1288
-458.66822428996414,1261
-456.07057792985,1272
-453.4736489546475,1259
-450.877437182231,1238
-448.28194243039627,1214
-445.68716451686,1248
-443.09310325926003,1174
-440.49975847515555,1218
-437.9071299820263,1238
-435.31521759727354,1262
-432.72402113821954,1232
-430.13354042210767,1245
-427.5437752661022,1233
-424.95472548728867,1261
-422.36639090267386,1349
-419.7787713291855,1346
-417.1918665836721,1354
-414.60567648290385,1293
-412.0202008435715,1370
-409.4354394822874,1318
-406.8513922155845,1386
-404.26805885991723,1385
-401.685439231661,1376
-399.103533147112,1360
-396.522340422488,1321
-393.9418608739278,1265
-391.3620943174908,1227
-388.7830405691583,1272
-386.2046994448317,1212
-383.6270707603344,1242
-381.05015433141045,1066
-378.473949973725,1047
-375.8984575028645,987
-373.32367673433623,918
-370.74960748356875,841
-368.1762495659117,848
-365.60360279663576,798
-363.03166699093265,678
-360.4604419639154,620
-357.8899275306178,594
-355.32012350599507,534
-352.7510297049233,521
-350.1826459421999,497
-347.61497203254316,498
-345.04800779059235,490
-342.4817530309082,524
-339.91620756797226,552
-337.35137121618743,543
-334.7872437898774,585
-332.22382510328725,569
-329.66111497058273,562
-327.09911320585127,570
-324.53781962310075,583
-321.9772340362607,539
-319.4173562591816,517
-316.8581861056348,516
-314.2997233893127,573
-311.7419679238294,632
-309.1849195227194,689
-306.62857799943856,689
-304.0729431673641,608
-301.51801483979375,580
-298.963792829947,579
-296.41027695096386,577
-293.85746701590574,613
-291.3053628377552,650
-288.7539642294155,647
-286.2032710037115,642
-283.65328297338897,595
-281.1039999511146,631
-278.5554217494762,805
-276.007548180983,754
-273.4603790580651,650
-270.9139141930734,707
-268.3681533982807,770
-265.8230964858798,711
-263.27874326798565,834
-260.7350935566336,804
-258.1921471637804,885
-255.6499039013039,791
-253.10836358100266,685
-250.56752601459698,665
-248.02739101372765,683
-245.48795838995704,769
-242.94922795476816,811
-240.41119951956557,810
-237.8738728956746,746
-235.33724789434166,748
-232.80132432673452,759
-230.2661020039418,785
-227.73158073697357,810
-225.19776033676033,885
-222.66464061415422,876
-220.1322213799284,865
-217.60050244477725,816
-215.06948361931552,807
-212.53916471408013,832
-210.00954553952818,856
-207.48062590603843,848
-204.9524056239104,791
-202.4248845033651,909
-199.8980623545441,837
-197.37193898751036,994
-194.84651421224817,1047
-192.32178783866232,907
-189.79775967657952,964
-187.27442953574644,1027
-184.7517972258321,977
-182.2298625564256,989
-179.7086253370378,972
-177.18808537710026,984
-174.66824248596583,1014
-172.14909647290835,1110
-169.6306471471229,1041
-167.11289431772548,969
-164.59583779375328,1099
-162.07947738416453,1166
-159.5638128978386,1229
-157.04884414357605,1336
-154.53457093009854,1447
-152.02099306604828,1302
-149.50811035998936,1279
-146.99592262040665,1209
-144.48442965570587,1227
-141.97363127421409,1490
-139.46352728417958,1649
-136.95411749377126,1566
-134.44540171107985,1424
-131.93737974411636,1166
-129.43005140081357,1138
-126.92341648902493,1511
-124.41747481652521,1851
-121.91222619101006,2149
-119.40767042009657,2332
-116.90380731132257,2565
-114.40063667214702,2481
-111.8981583099503,2715
-109.3963720320337,2778
-106.89527764561933,2649
-104.39487495785067,3187
-101.89516377579241,4287
-99.39614390642998,7308
-96.89781515667039,10422
-94.40017733334128,11034
-91.90323024319173,11347
-89.40697369289148,10722
-86.91140748903172,7900
-84.41653143812482,4776
-81.92234534660395,4318
-79.42884902082358,6435
-76.93604226705907,11363
-74.4439248915071,18921
-71.95249670028534,27078
-69.46175749943245,27814
-66.97170709490854,23952
-64.48234529259423,18121
-61.99367189829195,14245
-59.50568671772464,10486
-57.01838955653636,7801
-54.53178022029283,8889
-52.045858514480074,10721
-49.560624244506016,13078
-47.07607721569923,13563
-44.59221723330904,14284
-42.10904410250669,17573
-39.62655762838392,23839
-37.14475761595372,31570
-34.66364387015028,41790
-32.18321619582866,44738
-29.70347439776515,43300
-27.224418280657005,43358
-24.74604764912317,38524
-22.26836230770266,36937
-19.7913620608565,52313
-17.315046712966478,65037
-14.83941606833514,65037
-12.36446993118659,65037
-9.89020810566592,65037
-7.416630395839093,65037
-4.94373660569363,65037
-2.471526539137585,65037
-6.821210263296962E-13,65037
2.47084320796705,65037
4.941003281093458,65037
7.410480415786196,65037
9.879274808531363,65037
12.347386655893956,65037
14.814816154518212,65037
17.28156350112681,65037
19.74762889252179,65037
22.21301252558385,23400
24.67771459727237,6662
27.141735304626195,5274
29.605074844762612,4567
32.06773341487792,4101
34.52971121224755,4894
36.99100843422559,6072
39.45162527824516,5535
41.91156194181792,4586
44.370818622535126,3530
46.82939551806646,3056
49.287292826160524,3792
51.74451074464503,4669
54.201049471426245,5487
56.65690920448981,3803
59.112090141899785,2499
61.56659248179983,2328
64.02041642241159,1933
66.4735621620365,1878
68.92602989905402,2533
71.37781983192338,2959
73.82893215918205,2875
76.27936707944684,2420
78.72912479141326,2453
81.17820549385567,2247
83.62660938562783,1627
86.07433666566146,1658
88.5213875329681,1654
90.96776218663751,1797
93.41346082583925,1702
95.85848364982041,1922
98.30283085790859,1934
100.7465026495089,1960
103.18949922410604,1879
105.63182078126385,1655
108.07346752062438,1812
110.51443964190923,1527
112.95473734491827,1382
115.39436082953114,1556
117.83331029570547,1616
120.27158594347827,1961
122.7091879729652,2293
125.1461165843615,2007
127.58237197794062,1746
130.01795435405518,1562
132.4528639131364,1431
134.88710085569494,1326
137.32066538231982,1230
139.75355769367923,1267
142.1857779905207,1379
144.61732647366978,1260
147.04820334403132,1152
149.47840880258934,1087
151.90794305040674,1341
154.33680628862487,1536
156.76499871846443,1719
159.19252054122433,1776
161.61937195828352,1770
164.04555317109896,1805
166.47106438120693,1860
168.89590579022217,2077
171.320077599839,2259
173.7435800118302,2308
176.16641322804742,2435
178.58857745042144,2407
181.01007288096173,2458
183.43089972175687,2499
185.85105817497413,2616
188.27054844285988,2564
190.6893707277394,2594
193.10752523201643,2750
195.5250121581745,2831
197.9418317087751,2887
200.3579840864594,2789
202.7734694939469,2899
205.18828813403627,3031
207.6024402096051,3039
210.01592592360964,2910
212.42874547908548,2837
214.84089907914665,2851
217.2523869269868,2816
219.66320922587727,2985
222.0733661791695,2882
224.48285799029293,2984
226.8916848627572,2991
229.29984700014882,2916
231.7073446061355,2905
234.11417788446204,2916
236.520347038953,2955
238.92585227351185,3071
241.33069379212054,3122
243.73487179884035,3251
246.1383864978112,3013
248.541238093252,2994
250.9434267894609,3013
253.34495279081432,3040
255.74581630176783,3037
258.1460175268563,3053
260.54555667069314,3130
262.9444339379703,3060
265.3426495334594,2991
267.7402036620107,3085
270.1370965285529,3172
272.53332833809407,3097
274.9288992957214,2792
277.32380960660055,2913
279.718059475976,2939
282.1116491091717,2902
284.5045787115897,2866
286.89684848871195,2866
289.2884586460981,2790
291.67940938938807,2869
294.0697009242996,2948
296.4593334566299,3000
298.84830719225477,2928
301.23662233712923,2821
303.6242790972866,2926
306.01127767884,2891
308.39761828798066,2863
310.78330113097934,2766
313.16832641418534,2869
315.5526943440269,2695
317.9364051270112,2769
320.3194589697242,2781
322.70185607883093,2684
325.0835966610754,2739
327.4646809232805,2710
329.8451090723478,2665
332.2248813152577,2733
334.6039978590701,2721
336.9824589109231,2680
339.36026467803447,2658
341.7374153677,2588
344.113911187295,2516
346.48975234427337,2594
348.8649390461686,2710
351.2394715005918,2629
353.61334991523415,2597
355.9865744978655,2650
358.35914545633375,2676
360.73106299856715,2704
363.10232733257146,2580
365.47293866643247,2573
367.84289720831396,2533
370.2122031664593,2577
372.5808567491905,2540
374.9488581649083,2453
377.31620762209275,2496
379.6829053293021,2610
382.0489514951745,2594
384.4143463284262,2617
386.7790900378528,2521
389.14318283232853,2523
391.50662492080653,2479
393.86941651231916,2615
396.23155781597745,2528
398.5930490409713,2552
400.9538903965696,2483
403.3140820921202,2552
405.6736243370498,2466
408.03251734086336,2382
410.3907613131465,2600
412.74835646356166,2510
415.10530300185144,2426
417.4616011378372,2457
419.81725108141893,2492
422.1722530425758,2413
424.5266072313656,2416
426.880313857925,2432
429.2333731324701,2441
431.58578526529516,2345
433.9375504667738,2387
436.2886689473588,2425
438.63914091758113,2457
440.9889665880513,2482
443.33814616945835,2533
445.68667987257015,2457
448.03456790823395,2469
450.3818104873759,2332
452.72840782100013,2364
455.07436012019105,2399
457.41966759611057,2318
459.7643304600007,2400
462.10834892318155,2481
464.4517231970525,2442
466.79445349309174,2476
469.1365400228566,2468
471.4779829979826,2437
473.81878263018564,2355
476.15893913125876,2461
478.4984527130747,2458
480.8373235875855,2428
483.17555196682144,2611
485.5131380628919,2601
487.8500820879857,2594
490.1863842543697,2697
492.52204477439034,2661
494.8570638604725,2683
497.1914417251204,2950
499.52517858091653,3182
501.85827464052306,3448
504.19073011668036,3709
506.5225452222086,3895
508.85372017000566,3893
511.18425517304956,4005
513.514150444396,4606
515.8434061971808,5518
518.1720226446176,6262
520.4999999999999,6245
522.8273384766991,6132
525.1540382881666,5636
527.480099647932,5190
529.8055227696037,4372
532.1303078668694,3335
534.454455153496,2875
536.777964843328,2714
539.1008371502907,2596
541.4230722883866,2594
543.744670471698,2501
546.0656319143858,2588
548.3859568306899,2519
550.7056454349294,2456
553.0246979415016,2523
555.3431145648834,2525
557.6608955196306,2515
559.978041020377,2501
562.2945512818363,2569
564.6104265188006,2528
566.9256669461412,2528
569.2402727788082,2492
571.5542442318302,2568
573.8675815203156,2599
576.1802848594508,2662
578.4923544645015,2511
580.8037905508126,2638
583.114593333807,2689
585.4247630289875,2620
587.7342998519354,2553
590.0432040183106,2530
592.3514757438526,2509
594.6591152443794,2559
596.9661227357875,2532
599.2724984340531,2493
601.578242555231,2608
603.8833553154542,2497
606.1878369309362,2563
608.4916876179676,2592
610.7949075929192,2449
613.0974970722403,2436
615.3994562724587,2523
617.7007854101818,2665
620.0014847020951,2542
622.3015543649641,2460
624.6009946156324,2503
626.8998056710224,2557
629.1979877481361,2566
631.4955410640538,2626
633.7924658359349,2544
636.0887622810175,2512
638.3844306166192,2598
640.6794710601358,2570
642.9738838290426,2561
645.2676691408932,2718
647.5608272133207,2613
649.853358264037,2697
652.1452625108324,2658
654.4365401715764,2478
656.7271914642178,2644
659.0172166067838,2581
661.3066158173809,2577
663.5953893141935,2640
665.8835373154867,2653
668.1710600396028,2619
670.4579577049639,2619
672.7442305300709,2666
675.0298787335033,2606
677.3149025339197,2644
679.599302150058,2644
681.8830778007342,2584
684.1662297048437,2660
686.4487580813608,2661
688.7306631493387,2624
691.0119451279091,2675
693.2926042362834,2664
695.5726406937516,2642
697.8520547196814,2655
700.1308465335215,2626
702.4090163547982,2570
704.6865644031171,2546
706.9634908981619,2623
709.2397960596965,2598
711.5154801075631,2711
713.7905432616823,2623
716.0649857420548,2577
718.3388077687592,2679
720.612009561953,2621
722.8845913418733,2661
725.1565533288352,2666
727.427895743234,2559
729.6986188055427,2633
731.9687227363137,2675
734.238207756178,2607
736.5070740858458,2614
738.7753219461066,2570
741.0429515578281,2663
743.3099631419569,2670
745.5763569195191,2701
747.8421331116193,2603
750.1072919394409,2656
752.3718336242467,2682
754.6357583873777,2622
756.8990664502545,2650
759.1617580343765,2695
761.423833361321,2671
763.6852926527457,2706
765.9461361303862,2698
768.206364016058,2719
770.4659765316536,2688
772.7249738991469,2674
774.9833563405886,2742
777.2411240781092,2610
779.4982773339183,2670
781.7548163303044,2693
784.010741289634,2550
786.2660524343538,2753
788.5207499869881,2705
790.7748341701416,2731
793.0283052064964,2764
795.2811633188143,2726
797.5334087299362,2820
799.7850416627813,2686
802.0360623403484,2662
804.2864709857143,2746
806.5362678220353,2650
808.7854530725468,2788
811.0340269605625,2686
813.2819897094754,2708
815.5293415427581,2746
817.77608268396,2732
820.0222133567116,2743
822.2677337847211,2699
824.5126441917765,2715
826.7569448017433,2720
829.0006358385675,2687
831.2437175262731,2679
833.4861900889629,2602
835.7280537508192,2655
837.9693087361026,2703
840.2099552691533,2738
842.4499935743896,2802
844.689423876309,2738
846.9282463994886,2672
849.1664613685833,2757
851.4040690083276,2738
853.6410695435349,2796
855.877463199097,2680
858.1132501999847,2731
860.3484307712487,2742
862.5830051380175,2761
864.8169735254988,2741
867.0503361589791,2764
869.2830932638243,2744
871.5152450654786,2808
873.7467917894654,2726
875.9777336613873,2773
878.2080709069252,2748
880.4378037518389,2739
882.666932421968,2689
884.8954571432301,2803
887.1233781416219,2748
889.3506956432192,2812
891.5774098741766,2791
893.803521060728,2758
896.0290294291852,2704
898.2539352059397,2681
900.4782386174619,2778
902.7019398903011,2649
904.925039251085,2713
907.147536926521,2695
909.3694331433943,2672
911.59072812857,2825
913.8114221089921,2825
916.0315153116827,2668
918.2510079637437,2682
920.4699002923547,2649
922.6881925247761,2756
924.905884888345,2631
927.1229776104793,2762
929.3394709186747,2672
931.555365040506,2730
933.7706602036275,2707
935.9853566357709,2717
938.1994545647489,2707
940.4129542184515,2677
942.6258558248488,2688
944.8381596119883,2778
947.0498658079974,2746
949.2609746410825,2718
951.4714863395287,2723
953.6814011316998,2751
955.8907192460387,2656
958.0994409110671,2715
960.3075663553858,2777
962.5150958076741,2758
964.7220294966913,2723
966.928367651274,2709
969.1341105003388,2725
971.3392582728806,2613
973.5438111979742,2699
975.747769504772,2727
977.9511334225061,2706
980.153903180487,2667
982.3560790081052,2685
984.5576611348289,2765
986.7586497902058,2762
988.9590452038618,2598
991.158847605503,2678
993.3580572249133,2660
995.5566742919558,2668
997.7546990365728,2602
999.952131688785,2628
1002.1489724786926,2622
1004.3452216364743,2551
1006.5408793923874,2485
1008.7359459767691,2486
1010.9304216200343,2492
1013.1243065526781,2475
1015.3176010052733,2424
1017.510305208472,2495
1019.7024193930064,2520
1021.8939437896848,2465
1024.0848786293977,2408
1026.2752241431122,2477
1028.4649805618747,2418
1030.6541481168115,2466
1032.842727039127,2548
1035.0307175601051,2445
1037.2181199111074,2415
1039.4049343235752,2435
1041.591161029029,2488
1043.7768002590683,2479
1045.9618522453698,2445
1048.1463172196918,2505
1050.3301954138697,2509
1052.513487059818,2564
1054.69619238953,2400
1056.8783116350783,2449
1059.0598450286152,2469
1061.2407928023704,2388
1063.4211551886528,2405
1065.6009324198508,2453
1067.780124728432,2441
1069.9587323469414,2400
1072.1367555080046,2419
1074.314194444325,2454
1076.4910493886855,2445
1078.667320573947,2338
1080.843008233051,2412
1083.0181125990161,2359
1085.1926339049414,2438
1087.3665723840027,2378
1089.5399282694575,2467
1091.7127017946405,2352
1093.8848931929647,2360
1096.0565026979243,2363
1098.2275305430899,2305
1100.3979769621128,2365
1102.567842188722,2373
1104.737126456726,2335
1106.9058300000124,2276
1109.0739530525475,2388
1111.2414958483764,2394
1113.4084586216231,2299
1115.5748416064907,2346
1117.7406450372605,2357
1119.9058691482942,2406
1122.0705141740304,2326
1124.2345803489884,2418
1126.3980679077658,2342
1128.5609770850388,2408
1130.7233081155623,2444
1132.8850612341707,2376
1135.0462366757774,2396
1137.2068346753745,2393
1139.3668554680326,2306
1141.526299288901,2399
1143.68516637321,2427
1145.8434569562655,2443
1148.001171273455,2370
1150.158309560244,2295
1152.3148720521767,2357
1154.470858984876,2393
1156.626270594044,2373
1158.7811071154629,2369
1160.9353687849912,2358
1163.089055838569,2382
1165.242168512213,2387
1167.3947070420209,2352
1169.5466716641677,2361
1171.6980626149075,2422
1173.8488801305748,2408
1175.9991244475814,2422
1178.1487958024186,2458
1180.2978944316555,2357
1182.4464205719428,2348
1184.5943744600072,2350
1186.7417563326567,2423
1188.8885664267755,2375
1191.0348049793297,2366
1193.1804722273619,2363
1195.325568407995,2335
1197.4700937584303,2404
1199.614048515948,2400
1201.7574329179074,2404
1203.900247201746,2366
1206.042491604982,2383
1208.1841663652099,2464
1210.3252717201053,2424
1212.465807907422,2374
1214.6057751649923,2444
1216.7451737307279,2441
1218.8840038426192,2389
1221.0222657387353,2438
1223.1599596572241,2447
1225.2970858363137,2396
1227.4336445143094,2452
1229.5696359295966,2499
1231.705060320639,2392
1233.8399179259786,2434
1235.9742089842384,2428
1238.107933734118,2430
1240.2410924143974,2467
1242.373685263935,2483
1244.5057125216676,2456
1246.6371744266116,2496
1248.7680712178621,2463
1250.898403134593,2486
1253.028170416058,2389
1255.1573733015875,2518
1257.2860120305932,2488
1259.4140868425648,2487
1261.54159797707,2481
1263.6685456737569,2495
1265.7949301723515,2505
1267.9207517126597,2527
1270.046010534565,2507
1272.1707068780306,2505
1274.2948409830983,2537
1276.4184130898889,2586
1278.541423438603,2470
1280.6638722695184,2575
1282.785759822993,2609
1284.9070863394636,2632
1287.0278520594447,2548
1289.1480572235314,2587
1291.2677020723963,2495
1293.3867868467923,2581
1295.5053117875495,2571
1297.623277135579,2672
1299.740683131868,2657
1301.8575300174857,2672
1303.973818033578,2668
1306.0895474213703,2794
1308.2047184221678,2747
1310.3193312773528,2649
1312.4333862283888,2702
1314.5468835168163,2651
1316.659823384255,2786
1318.7722060724045,2678
1320.8840318230418,2716
1322.9953008780249,2731
1325.1060134792888,2759
1327.2161698688478,2752
1329.3257702887959,2733
1331.4348149813054,2729
1333.5433041886276,2737
1335.6512381530933,2772
1337.7586171171101,2735
1339.8654413231675,2679
1341.9717110138317,2768
1344.0774264317488,2688
1346.1825878196432,2624
1348.2871954203192,2678
1350.3912494766587,2624
1352.4947502316231,2716
1354.5976979282532,2667
1356.7000928096686,2713
1358.8019351190665,2694
1360.9032250997243,2571
1363.0039629949988,2596
1365.1041490483235,2608
1367.2037835032133,2583
1369.3028666032606,2685
1371.401398592137,2694
1373.4993797135926,2626
1375.5968102114575,2642
1377.6936903296396,2669
1379.7900203121262,2679
1381.8858004029835,2607
1383.9810308463561,2626
1386.075711886469,2573
1388.1698437676241,2641
1390.2634267342032,2616
1392.356461030667,2588
1394.4489469015557,2581
1396.5408845914872,2633
1398.6322743451592,2626
1400.7231164073469,2565
1402.813411022907,2626
1404.903158436773,2717
1406.9923588939578,2712
1409.0810126395531,2645
1411.1691199187303,2579
1413.2566809767386,2590
1415.343696058907,2623
1417.4301654106425,2640
1419.5160892774315,2656
1421.6014679048399,2561
1423.6863015385125,2654
1425.7705904241707,2730
1427.8543348076178,2657
1429.9375349347342,2598
1432.0201910514802,2701
1434.102303403894,2615
1436.1838722380944,2648
1438.2648978002767,2614
1440.3453803367174,2765
1442.4253200937692,2597
1444.5047173178677,2655
1446.5835722555234,2735
1448.6618851533285,2665
1450.739656257952,2742
1452.8168858161434,2692
1454.8935740747306,2700
1456.96972128062,2832
1459.045327680797,2742
1461.120393522327,2822
1463.1949190523528,2820
1465.2689045180973,2850
1467.3423501668608,2782
1469.415256246024,2806
1471.4876230030463,2802
1473.559450685465,2956
1475.6307395408976,2918
1477.7014898170391,2898
1479.771701761665,2840
1481.8413756226287,2917
1483.9105116478618,2921
1485.9791100853772,2890
1488.0471711832643,2905
1490.1146951896926,2857
1492.1816823529098,2967
1494.2481329212433,2918
1496.3140471430984,2878
1498.3794252669609,2916
1500.4442675413939,2876
1502.5085742150404,2964
1504.572345536622,3017
1506.6355817549388,3013
1508.6982831188702,3003
1510.7604498773744,2930
1512.8220822794883,2964
1514.8831805743293,3025
1516.9437450110909,2953
1519.003775839048,2984
1521.0632733075522,3130
1523.1222376660367,3083
1525.1806691640113,3050
1527.2385680510652,3056
1529.2959345768668,3117
1531.3527689911643,3073
1533.4090715437833,3016
1535.4648424846291,3229
1537.5200820636855,3173
1539.5747905310159,3129
1541.6289681367616,3163
1543.6826151311434,3212
1545.7357317644614,3272
1547.7883182870937,3218
1549.8403749494987,3321
1551.8919020022113,3330
1553.9428996958477,3337
1555.9933682811015,3351
1558.0433080087469,3469
1560.0927191296346,3438
1562.1416018946961,3327
1564.1899565549415,3375
1566.2377833614592,3495
1568.2850825654164,3481
1570.3318544180606,3420
1572.3780991707158,3422
1574.423817074788,3384
1576.4690083817595,3456
1578.5136733431923,3363
1580.5578122107272,3350
1582.601425236085,3238
1584.6445126710646,3181
1586.6870747675434,3213
1588.7291117774776,3034
1590.7706239529034,3033
1592.8116115459347,3150
1594.8520748087658,3036
1596.8920139936686,3002
1598.9314293529933,2960
1600.9703211391711,2957
1603.008689604711,2919
1605.0465350022005,2937
1607.0838575843068,2792
1609.1206576037753,2822
1611.1569353134305,2746
1613.1926909661765,2774
1615.2279248149953,2819
1617.2626371129481,2821
1619.2968281131757,2763
1621.3304980688963,2738
1623.3636472334088,2793
1625.39627586009,2615
1627.428384202396,2740
1629.459972513861,2665
1631.4910410480993,2682
1633.5215900588028,2626
1635.551619799744,2661
1637.5811305247717,2693
1639.6101224878166,2710
1641.6385959428862,2587
1643.6665511440683,2635
1645.693988345528,2663
1647.7209078015112,2622
1649.7473097663405,2553
1651.7731944944203,2627
1653.7985622402307,2666
1655.823413258333,2642
1657.847747803366,2559
1659.8715661300494,2567
1661.8948684931793,2538
1663.9176551476316,2673
1665.9399263483624,2599
1667.9616823504057,2621
1669.982923408873,2622
1672.0036497789574,2647
1674.0238617159293,2559
1676.043559475138,2600
1678.0627433120121,2512
1680.081413482059,2636
1682.0995702408654,2526
1684.117213844096,2610
1686.134344547495,2591
1688.1509626068864,2606
1690.1670682781705,2625
1692.182661817329,2550
1694.1977434804217,2554
1696.2123135235875,2566
1698.226372203043,2560
1700.2399197750851,2597
1702.2529564960905,2530
1704.2654826225112,2658
1706.277498410882,2630
1708.2890041178139,2569
1710.2999999999988,2549
1712.3104863142066,2636
1714.3204633172854,2542
1716.329931266163,2544
1718.3388904178469,2551
1720.3473410294214,2546
1722.3552833580516,2580
1724.3627176609807,2611
1726.3696441955308,2649
1728.3760632191033,2582
1730.3819749891782,2631
1732.3873797633146,2597
1734.3922777991502,2585
1736.3966693544012,2533
1738.4005546868639,2635
1740.4039340544127,2548
1742.406807715001,2569
1744.4091759266616,2571
1746.4110389475054,2655
1748.4123970357223,2592
1750.413250449582,2545
1752.4135994474318,2624
1754.4134442876993,2632
1756.4127852288902,2665
1758.4116225295893,2617
1760.4099564484595,2600
1762.407787244244,2567
1764.405115175764,2662
1766.4019405019203,2639
1768.3982634816916,2579
1770.3940843741357,2588
1772.3894034383907,2603
1774.3842209336717,2537
1776.378537119274,2594
1778.372352254571,2557
1780.3656665990156,2535
1782.3584804121397,2560
1784.3507939535534,2597
1786.3426074829463,2575
1788.3339212600863,2481
1790.3247355448211,2513
1792.3150505970766,2567
1794.3048666768573,2562
1796.2941840442477,2565
1798.2830029594106,2575
1800.2713236825884,2598
1802.2591464741004,2595
1804.2464715943465,2514
1806.2332993038058,2601
1808.2196298630352,2515
1810.2054635326708,2614
1812.190800573428,2493
1814.175641246101,2567
1816.1599858115628,2526
1818.1438345307652,2549
1820.127187664738,2606
1822.1100454745924,2571
1824.092408221516,2665
1826.0742761667766,2687
1828.055649571721,2608
1830.0365286977735,2613
1832.0169138064398,2570
1833.9968051593014,2642
1835.9762030180214,2600
1837.9551076443408,2600
1839.9335193000788,2577
1841.9114382471344,2598
1843.888864747485,2670
1845.8657990631878,2570
1847.842241456378,2501
1849.8181921892697,2597
1851.7936515241558,2451
1853.7686197234098,2576
1855.7430970494815,2503
1857.7170837649014,2581
1859.6905801322787,2582
1861.6635864143004,2605
1863.6361028737338,2565
1865.608129773424,2546
1867.5796673762961,2591
1869.5507159453537,2603
1871.521275743678,2598
1873.4913470344313,2691
1875.4609300808534,2641
1877.4300251462632,2612
1879.3986324940588,2569
1881.366752387717,2652
1883.3343850907936,2627
1885.3015308669228,2626
1887.268189979819,2519
1889.2343626932739,2611
1891.2000492711595,2527
1893.1652499774254,2734
1895.1299650761011,2531
1897.0941948312952,2604
1899.0579395071945,2556
1901.0211993680641,2531
1902.98397467825,2592
1904.9462657021745,2622
1906.9080727043415,2610
1908.869395949332,2627
1910.8302357018065,2642
1912.790592226504,2527
1914.7504657882428,2644
1916.7098566519212,2591
1918.6687650825133,2608
1920.6271913450764,2615
1922.5851357047422,2594
1924.5425984267245,2567
1926.499579776314,2572
1928.4560800188833,2597
1930.4120994198802,2625
1932.367638244833,2592
1934.32269675935,2550
1936.2772752291175,2627
1938.231373919899,2606
1940.1849930975404,2577
1942.1381330279637,2539
1944.0907939771696,2618
1946.0429762112412,2597
1947.9946799963363,2581
1949.9459055986945,2565
1951.896653284633,2507
1953.8469233205478,2521
1955.7967159729142,2630
1957.7460315082863,2555
1959.6948701932974,2631
1961.6432322946594,2554
1963.5911180791632,2583
1965.5385278136787,2572
1967.4854617651545,2650
1969.4319202006182,2566
1971.377903387176,2584
1973.3234115920136,2583
1975.268445082395,2609
1977.2130041256642,2631
1979.1570889892423,2668
1981.1006999406304,2611
1983.04383724741,2544
1984.986501177238,2632
1986.928691997853,2580
1988.8704099770712,2584
1990.811655382789,2624
1992.7524284829801,2589
1994.692729545698,2585
1996.6325588390755,2567
1998.5719166313224,2625
2000.5108031907307,2553
2002.4492187856677,2559
2004.387163684583,2605
2006.3246381560011,2589
2008.2616424685298,2539
2010.1981768908527,2550
2012.1342416917332,2616
2014.069837140014,2623
2016.0049635046162,2618
2017.9396210545406,2616
2019.8738100588666,2616
2021.8075307867502,2555
2023.740783507431,2667
2025.6735684902228,2616
2027.6058860045214,2633
2029.5377363198004,2660
2031.4691197056118,2606
2033.4000364315875,2651
2035.3304867674374,2596
2037.260470982952,2679
2039.189989347998,2474
2041.1190421325232,2567
2043.047629606554,2601
2044.9757520401945,2622
2046.9034097036288,2646
2048.8306028671195,2553
2050.7573318010086,2533
2052.683596775716,2538
2054.609398061742,2535
2056.5347359296647,2620
2058.4596106501403,2599
2060.384022493906,2542
2062.3079717317764,2660
2064.231458634646,2565
2066.1544834734873,2622
2068.077046519352,2580
2069.99914804337,2577
2071.9207883167524,2606
2073.8419676107865,2577
2075.7626861968406,2570
2077.6829443463607,2521
2079.6027423308715,2501
2081.522080421977,2650
2083.440958891362,2625
2085.359378010786,2570
2087.2773380520907,2639
2089.194839287196,2615
2091.111881988101,2622
2093.0284664268825,2629
2094.9445928756973,2612
2096.86026160678,2532
2098.775472892446,2603
2100.690227005088,2604
2102.604524217178,2620
2104.5183648012676,2592
2106.431749029985,2563
2108.34467717604,2648
2110.2571495122206,2596
2112.169166311393,2541
2114.080727846503,2620
2115.9918343905747,2642
2117.902486216711,2660
2119.8126835980956,2585
2121.722426807987,2640
2123.6317161197285,2591
2125.5405518067364,2590
2127.448934142509,2617
2129.356863400624,2585
2131.264339854737,2676
2133.1713637785815,2617
2135.077935445972,2675
2136.9840551308002,2678
2138.889723107037,2652
2140.7949396487334,2609
2142.699705030018,2646
2144.6040195250994,2571
2146.507883408264,2583
2148.4112969538774,2660
2150.3142604363848,2621
2152.2167741303097,2686
2154.1188383102535,2652
2156.0204532508997,2687
2157.9216192270064,2615
2159.822336513414,2667
2161.7226053850413,2634
2163.622426116884,2663
2165.5217989840185,2625
2167.4207242616,2627
2169.319202224862,2632
2171.2172331491165,2621
2173.1148173097563,2589
2175.0119549822507,2750
2176.90864644215,2605
2178.8048919650823,2710
2180.7006918267534,2741
2182.596046302952,2764
2184.4909556695407,2665
2186.3854202024645,2612
2188.279440177746,2717
2190.173015871487,2662
2192.066147559868,2688
2193.958835519149,2612
2195.851080025667,2625
2197.7428813558417,2628
2199.6342397861667,2711
2201.5251555932186,2715
2203.415629053651,2670
2205.3056604441986,2690
2207.19525004167,2712
2209.084398122958,2678
2210.9731049650327,2776
2212.861370844941,2667
2214.749196039812,2702
2216.636580826851,2701
2218.523525483344,2722
2220.410030286655,2695
2222.296095514226,2725
2224.1817214435805,2716
2226.066908352319,2741
2227.951656518121,2789
2229.835966218746,2722
2231.71983773203,2793
2233.6032713358913,2686
2235.486267308324,2731
2237.3688259274036,2768
2239.2509474712824,2677
2241.132632218193,2697
2243.013880446447,2663
2244.8946924344323,2658
2246.7750684606203,2731
2248.6550088035574,2721
2250.534513741871,2637
2252.413583554265,2682
2254.292218519526,2715
2256.170418916517,2697
2258.0481850241786,2738
2259.925517121534,2750
2261.8024154876825,2797
2263.678880401803,2714
2265.5549121431536,2747
2267.430510991071,2701
2269.305677224971,2720
2271.180411124348,2635
2273.0547129687766,2620
2274.9285830379076,2688
2276.8020216114737,2678
2278.6750289692845,2747
2280.5476053912294,2696
2282.4197511572766,2745
2284.2914665474727,2823
2286.162751841943,2804
2288.0336073208937,2757
2289.904033264608,2798
2291.774029953448,2716
2293.6435976678554,2701
2295.5127366883517,2738
2297.381447295534,2728
2299.2497297700825,2723
2301.1175843927526,2741
2302.9850114443825,2631
2304.852011205885,2606
2306.7185839582553,2706
2308.5847299825664,2612
2310.4504495599676,2644
2312.3157429716925,2675
2314.1806104990483,2598
2316.0450524234247,2612
2317.9090690262888,2556
2319.772660589186,2512
2321.635827393742,2578
2323.498569721661,2597
2325.3608878547248,2604
2327.2227820747967,2585
2329.0842526638157,2615
2330.945299903803,2604
2332.805924076857,2650
2334.6661254651535,2653
2336.525904350951,2610
2338.3852610165827,2577
2340.244195744464,2553
2342.102708817088,2667
2343.9608005170253,2511
2345.8184711269287,2506
2347.675720929526,2588
2349.532550207628,2574
2351.38895924412,2577
2353.24494832197,2578
2355.100517724223,2580
2356.955667734004,2540
2358.810398634514,2533
2360.664710709037,2624
2362.5186042409337,2575
2364.3720795136437,2572
2366.225136810686,2608
2368.0777764156583,2521
2369.929998612237,2615
2371.7818036841777,2545
2373.633191915315,2618
2375.484163589562,2588
2377.3347189909114,2565
2379.184858403434,2619
2381.03458211128,2685
2382.8838903986775,2558
2384.732783549936,2662
2386.5812618494406,2598
2388.4293255816588,2536
2390.2769750311327,2625
2392.1242104824883,2574
2393.971032220427,2645
2395.8174405297295,2583
2397.6634356952563,2624
2399.509018001947,2579
2401.3541877348193,2649
2403.1989451789705,2658
2405.043290619576,2583
2406.8872243418905,2636
2408.730746631247,2592
2410.5738577730594,2559
2412.4165580528183,2508
2414.258847756095,2528
2416.100727168537,2548
2417.9421965758734,2573
2419.783256263912,2618
2421.623906518538,2656
2423.4641476257157,2656
2425.303979871491,2584
2427.143403541984,2587
2428.9824189233977,2551
2430.821026302012,2619
2432.6592259641866,2635
2434.497018196361,2626
2436.33440328505,2653
2438.171381516851,2534
2440.00795317844,2613
2441.844118556569,2632
2443.6798779380724,2672
2445.5152316098606,2624
2447.3501798589255,2641
2449.1847229723357,2635
2451.0188612372403,2555
2452.8525949408663,2590
2454.6859243705203,2603
2456.518849813587,2638
2458.3513715575314,2663
2460.183489889895,2577
2462.015205098301,2569
2463.8465174704493,2616
2465.67742729412,2582
2467.5079348571717,2715
2469.338040447542,2620
2471.1677443532476,2640
2472.9970468623833,2590
2474.825948263123,2697
2476.6544488437207,2528
2478.482548892508,2617
2480.310248697896,2587
2482.137548548374,2590
2483.9644487325118,2617
2485.790949538956,2608
2487.617051256433,2681
2489.44275417375,2683
2491.26805857979,2627
2493.0929647635157,2637
2494.917473013971,2683
2496.741583620276,2636
2498.5652968716304,2720
2500.3886130573137,2576
2502.2115324666834,2641
2504.0340553891765,2666
2505.856182114308,2682
2507.6779129316733,2618
2509.499248130945,2587
2511.3201880018764,2620
2513.140732834298,2582
2514.9608829181198,2639
2516.780638543331,2655
2518.6,2732
2520.418967578273,2554
2522.237541568376,2623
2524.0557222606144,2651
2525.8735099453706,2581
2527.6909049131086,2624
2529.507907454368,2672
2531.32451785977,2678
2533.140736420014,2727
2534.9565634258774,2728
2536.771999168218,2678
2538.5870439379714,2758
2540.4016980261526,2692
2542.2159617238544,2652
2544.02983532225,2609
2545.8433191125914,2635
2547.656413386209,2701
2549.4691184345115,2661
2551.2814345489874,2660
2553.093362021204,2690
2554.904901142808,2703
2556.716052205523,2685
2558.526815501153,2676
2560.3371913215824,2634
2562.147179958771,2697
2563.956781704761,2652
2565.7659968516705,2704
2567.5748256916986,2677
2569.3832685171224,2796
2571.1913256202984,2671
2572.9989972936614,2795
2574.806283829725,2747
2576.613185521084,2750
2578.4197026604074,2701
2580.2258355404483,2723
2582.031584454035,2764
2583.836949694077,2794
2585.6419315535613,2920
2587.4465303255533,2728
2589.2507463032002,2696
2591.0545797797245,2688
2592.8580310484303,2778
2594.6611004026995,2761
2596.463788135992,2730
2598.266094541849,2728
2600.0680199138874,2803
2601.869564545807,2840
2603.670728731383,2803
2605.4715127644704,2842
2607.2719169390048,2687
2609.071941548998,2773
2610.8715868885433,2773
2612.670853251811,2805
2614.469740933052,2790
2616.268250226594,2794
2618.0663814268455,2801
2619.864134828292,2724
2621.6615107255006,2786
2623.458509413115,2777
2625.2551311858597,2885
2627.0513763385347,2730
2628.8472451660223,2732
2630.6427379632833,2727
2632.4378550253564,2737
2634.232596647359,2696
2636.026963124488,2687
2637.8209547520187,2776
2639.6145718253065,2677
2641.407814639785,2803
2643.200683490966,2697
2644.9931786744414,2677
2646.7853004858807,2762
2648.577049221034,2746
2650.3684251757277,2667
2652.1594286458712,2783
2653.9500599274484,2678
2655.740319316525,2715
2657.5302071092437,2744
2659.3197236018286,2732
2661.10886909058,2646
2662.8976438718782,2718
2664.686048242183,2727
2666.4740824980327,2633
2668.2617469360443,2653
2670.0490418529134,2652
2671.8359675454153,2605
2673.622524310403,2652
2675.408712444811,2660
2677.1945322456495,2825
2678.979984010009,2647
2680.76506803506,2668
2682.5497846180497,2582
2684.334134056306,2650
2686.1181166472343,2623
2687.9017326883213,2649
2689.6849824771293,2688
2691.4678663113013,2623
2693.2503844885596,2687
2695.032537306705,2674
2696.8143250636167,2637
2698.5957480572542,2548
2700.3768065856534,2663
2702.1575009469316,2681
2703.937831439283,2604
2705.717798360982,2638
2707.4974020103837,2625
2709.276642685917,2691
2711.055520686095,2634
2712.834036309506,2639
2714.612189854819,2538
2716.389981620782,2585
2718.1674119062204,2602
2719.944481010041,2563
2721.721189231226,2550
2723.4975368688415,2597
2725.273524222027,2634
2727.0491515900053,2642
2728.824419272075,2624
2730.5993275676146,2544
2732.3738767760838,2600
2734.148067197016,2585
2735.921899130031,2507
2737.6953728748194,2597
2739.468488731156,2662
2741.2412469988926,2662
2743.0136479779617,2615
2744.785691968372,2686
2746.5573792702116,2534
2748.3287101836504,2593
2750.099685008934,2690
2751.870304046388,2566
2753.640567596418,2633
2755.4104759595057,2586
2757.1800294362156,2614
2758.949228327187,2537
2760.7180729331412,2600
2762.486563554877,2678
2764.254700493272,2585
2766.022484049284,2532
2767.789914523947,2573
2769.5569922183786,2620
2771.3237174337705,2576
2773.090090471394,2550
2774.8561116326036,2554
2776.6217812188274,2571
2778.3870995315756,2602
2780.1520668724356,2545
2781.9166835430747,2629
2783.6809498452394,2584
2785.444866080754,2568
2787.2084325515225,2602
2788.971649559527,2621
2790.73451740683,2593
2792.4970363955713,2556
2794.2592068279705,2636
2796.0210290063264,2577
2797.7825032330147,2594
2799.543629810493,2642
2801.304409041296,2574
2803.0648412280366,2580
2804.8249266734088,2533
2806.5846656801846,2644
2808.344058551212,2652
2810.1031055894246,2629
2811.8618070978273,2658
2813.6201633795085,2585
2815.378174737636,2634
2817.1358414754536,2631
2818.893163896285,2599
2820.6501423035334,2613
2822.4067770006814,2607
2824.1630682912883,2553
2825.9190164789957,2618
2827.6746218675207,2613
2829.429884760661,2650
2831.184805462294,2640
2832.9393842763743,2640
2834.693621506936,2581
2836.4475174580916,2664
2838.201072434034,2638
2839.954286739034,2632
2841.707160677441,2627
2843.459694553685,2647
2845.2118886722724,2647
2846.96374333779,2607
2848.7152588549034,2647
2850.4664355283567,2686
2852.217273662973,2688
2853.9677735636546,2597
2855.7179355353833,2600
2857.4677598832186,2636
2859.217246912299,2588
2860.9663969278427,2637
2862.715210235146,2606
2864.4636871395846,2670
2866.211827946614,2524
2867.9596329617652,2549
2869.7071024906536,2570
2871.4542368389684,2651
2873.20103631248,2588
2874.947501217038,2692
2876.6936318585695,2620
2878.4394285430812,2600
2880.1848915766604,2526
2881.9300212654707,2572
2883.6748179157553,2634
2885.4192818338374,2614
2887.1634133261173,2662
2888.907212699077,2675
2890.6506802592744,2659
2892.393816313348,2623
2894.1366211680142,2655
2895.8790951300693,2641
2897.621238506388,2637
2899.363051603925,2665
2901.1045347297118,2614
2902.8456881908596,2688
2904.58651229456,2571
2906.327007348081,2551
2908.067173658772,2573
2909.8070115340597,2750
2911.5465212814497,2594
2913.285703208527,2617
2915.0245576229563,2603
2916.7630848324807,2521
2918.5012851449196,2588
2920.2391588681758,2549
2921.976706310227,2564
2923.7139277791334,2590
2925.4508235830313,2636
2927.187394030137,2556
2928.923639428745,2650
2930.6595600872306,2661
2932.395156314046,2608
2934.1304284177218,2723
2935.8653767068713,2683
2937.6000014901815,2625
2939.3343030764227,2645
2941.068281774442,2712
2942.8019378931644,2566
2944.5352717415976,2661
2946.2682836288236,2700
2948.0009738640065,2670
2949.7333427563885,2665
2951.465390615289,2688
2953.1971177501086,2730
2954.9285244703265,2659
2956.6596110855,2625
2958.3903779052657,2699
2960.1208252393385,2620
2961.8509533975125,2651
2963.5807626896617,2577
2965.3102534257378,2625
2967.0394259157715,2577
2968.768280469873,2664
2970.496817398232,2700
2972.2250370111146,2655
2973.952939618869,2564
2975.6805255319196,2602
2977.4077950607707,2601
2979.134748516006,2740
2980.861386208289,2659
2982.587708448359,2618
2984.313715547037,2665
2986.039407815222,2616
2987.764785563891,2633
2989.489849104102,2698
2991.2145987469908,2672
2992.9390348037705,2701
2994.6631575857346,2615
2996.3869674042576,2604
2998.1104645707887,2603
2999.83364939686,2656
3001.5565221940783,2644
3003.2790832741334,2658
3005.0013329487924,2643
3006.7232715298996,2675
3008.4448993293804,2579
3010.166216659239,2563
3011.887223831558,2654
3013.607921158498,2636
3015.3283089522993,2615
3017.0483875252826,2594
3018.7681571898443,2693
3020.4876182584626,2619
3022.2067710436927,2600
3023.9256158581707,2631
3025.644153014609,2609
3027.362382825801,2638
3029.0803056046193,2570
3030.797921664012,2622
3032.5152313170106,2623
3034.2322348767225,2630
3035.9489326563353,2543
3037.665324969115,2584
3039.3814121284063,2566
3041.097194447633,2666
3042.812672240299,2594
3044.5278458199855,2666
3046.2427155003525,2676
3047.9572815951406,2692
3049.671544418167,2660
3051.38550428333,2627
3053.0991615046073,2669
3054.812516396051,2640
3056.5255692717974,2583
3058.2383204460575,2571
3059.9507702331257,2625
3061.662918947372,2672
3063.3747669032446,2597
3065.0863144152736,2644
3066.7975617980674,2676
3068.508509366309,2621
3070.219157434767,2680
3071.9295063182844,2547
3073.639556331785,2625
3075.3493077902704,2601
3077.058761008821,2644
3078.7679163025964,2685
3080.476773986837,2615
3082.1853343768594,2561
3083.89359778806,2602
3085.6015645359153,2590
3087.3092349359786,2666
3089.016609303884,2606
3090.7236879553434,2627
3092.4304712061476,2605
3094.136959372166,2617
3095.843152769349,2610
3097.5490517137237,2630
3099.2546565213966,2712
3100.959967508554,2597
3102.66498499146,2630
3104.3697092864577,2556
3106.0741407099695,2603
3107.778279578498,2615
3109.482126208622,2628
3111.1856809170004,2680
3112.8889440203716,2648
3114.5919158355528,2585
3116.294596679439,2676
3117.996986869006,2632
3119.6990867213062,2680
3121.4008965534726,2645
3123.102416682717,2628
3124.803647426329,2624
3126.5045891016784,2684
3128.205242026213,2715
3129.90560651746,2679
3131.605682893025,2603
3133.3054714705922,2701
3135.0049725679282,2641
3136.7041865028714,2669
3138.4031135933465,2621
3140.101754157353,2575
3141.800108512971,2647
3143.498176978357,2709
3145.1959598717494,2649
3146.8934575114636,2587
3148.5906702158954,2597
3150.2875983035183,2586
3151.9842420928853,2578
3153.680601902627,2600
3155.376678051456,2646
3157.07247085816,2659
3158.767980641609,2637
3160.463207720748,2603
3162.158152414606,2655
3163.8528150422862,2686
3165.5471959229726,2597
3167.2412953759303,2632
3168.9351137204976,2673
3170.628651276098,2651
3172.3219083622307,2656
3174.014885298474,2682
3175.707582404485,2613
3177.4000000000005,2723
3179.092138404835,2673
3180.7839979388846,2693
3182.47557892212,2678
3184.166881674594,2626
3185.8579065164386,2673
3187.5486537678626,2573
3189.2391237491547,2665
3190.9293167806827,2646
3192.6192331828934,2688
3194.3088732763117,2724
3195.998237381542,2626
3197.687325819268,2640
3199.376138910251,2609
3201.064676975334,2703
3202.7529403354347,2691
3204.4409293115523,2594
3206.1286442247647,2624
3207.816085396229,2610
3209.5032531471825,2605
3211.190147798936,2676
3212.8767696728846,2639
3214.5631190905015,2572
3216.2491963733373,2575
3217.9350018430214,2587
3219.6205358212637,2631
3221.305798629851,2569
3222.990790590651,2582
3224.6755120256103,2618
3226.359963256751,2694
3228.0441446061795,2701
3229.7280563960758,2573
3231.411698948703,2580
3233.0950725863995,2662
3234.778177631587,2612
3236.461014406761,2613
3238.1435832345005,2636
3239.8258844374595,2725
3241.507918338374,2675
3243.1896852600576,2716
3244.8711855254023,2661
3246.552419457381,2644
3248.233387379042,2598
3249.914089613516,2694
3251.59452648401,2678
3253.274698313813,2657
3254.95460542629,2606
3256.6342481448855,2603
3258.313626793125,2616
3259.9927416946084,2537
3261.6715931730196,2649
3263.3501815521176,2623
3265.0285071557437,2552
3266.706570307815,2599
3268.3843713323286,2635
3270.0619105533615,2601
3271.739188295068,2635
3273.4162048816834,2668
3275.0929606375184,2605
3276.769455886966,2620
3278.445690954498,2651
3280.1216661646613,2712
3281.797381842087,2630
3283.4728383114807,2679
3285.1480358976296,2596
3286.8229749253996,2644
3288.4976557197333,2649
3290.172078605655,2596
3291.846243908266,2562
3293.5201519527463,2701
3295.193803064357,2671
3296.8671975684374,2543
3298.5403357904024,2634
3300.21321805575,2638
3301.8858446900567,2587
3303.558216018975,2654
3305.23033236824,2669
3306.9021940636603,2545
3308.57380143113,2639
3310.2451547966184,2683
3311.916254486174,2700
3313.5871008259246,2647
3315.2576941420766,2663
3316.9280347609147,2673
3318.5981230088046,2606
3320.2679592121895,2715
3321.9375436975924,2590
3323.606876791612,2613
3325.27595882093,2676
3326.944790112305,2616
3328.6133709925753,2588
3330.2817017886573,2610
3331.949782827547,2607
3333.617614436319,2637
3335.2851969421245,2669
3336.952530672199,2635
3338.619615953853,2657
3340.286453114475,2720
3341.9530424815357,2657
3343.619384382583,2726
3345.2854791452437,2737
3346.951327097224,2655
3348.6169285663073,2668
3350.2822838803577,2600
3351.947393367319,2657
3353.61225735521,2646
3355.2768761721345,2628
3356.9412501462693,2699
3358.605379605873,2699
3360.2692648792827,2680
3361.9329062949146,2587
3363.596304181263,2643
