CollectionTime,9/26/2024 8:03:45 AM
ExposureUsed,3
CalibratedSpectrum
-962.7078968117929,675
-959.9714848408522,722
-957.2358232597828,664
-954.5009119013725,653
-951.7667505983302,680
-949.0333391832855,621
-946.3006774887896,633
-943.5687653473143,682
-940.837602591253,808
-938.1071890529199,683
-935.3775245645503,654
-932.6486089583007,654
-929.9204420662485,731
-927.1930237203925,739
-924.4663537526524,663
-921.7404319948689,692
-919.0152582788041,794
-916.2908324361409,822
-913.5671542984834,798
-910.8442236973568,754
-908.1220404642074,779
-905.4006044304027,732
-902.679915427231,682
-899.959973285902,752
-897.2407778375464,732
-894.5223289132158,679
-891.8046263438832,664
-889.0876699604426,654
-886.3714595937089,730
-883.6559950744183,771
-880.9412762332282,774
-878.2273029007168,664
-875.5140749073835,667
-872.8015920836489,578
-870.0898542598545,564
-867.3788612662631,600
-864.6686129330585,600
-861.9591090903457,591
-859.2503495681506,553
-856.5423341964203,584
-853.8350628050229,657
-851.1285352237478,597
-848.4227512823054,622
-845.7177108103272,707
-843.0134136373656,832
-840.3098595928943,757
-837.6070485063082,718
-834.9049802069229,664
-832.2036545239757,667
-829.5030712866244,681
-826.8032303239481,691
-824.1041314649472,739
-821.4057745385428,664
-818.7081593735775,618
-816.0112857988148,657
-813.3151536429393,674
-810.6197627345566,661
-807.9251129021936,730
-805.2312039742981,724
-802.5380357792392,684
-799.8456081453069,693
-797.1539209007124,727
-794.462973873588,720
-791.772766891987,679
-789.083299783884,705
-786.3945723771743,719
-783.7065844996748,675
-781.0193359791231,697
-778.3328266431781,686
-775.6470563194197,671
-772.9620248353489,696
-770.2777320183878,623
-767.5941776958798,573
-764.9113616950891,573
-762.2292838432011,612
-759.5479439673222,649
-756.8673418944801,654
-754.1874774516235,697
-751.5083504656222,682
-748.8299607632671,694
-746.15230817127,805
-743.475392516264,754
-740.7992136248035,669
-738.1237713233636,692
-735.4490654383407,756
-732.7750957960521,661
-730.1018622227365,698
-727.4293645445534,687
-724.7576025875837,712
-722.0865761778291,694
-719.4162851412126,707
-716.7467293035781,967
-714.0779084906909,878
-711.409822528237,702
-708.7424712418238,719
-706.0758544569796,739
-703.4099719991541,699
-700.7448236937178,713
-698.0804093659622,769
-695.4167288411002,782
-692.7537819442656,778
-690.0915685005134,802
-687.4300883348199,755
-684.7693412720819,682
-682.1093271371178,677
-679.4500457546669,704
-676.7914969493897,734
-674.1336805458676,651
-671.4765963686034,668
-668.8202442420206,704
-666.1646239904642,703
-663.5097354382001,682
-660.8555784094151,696
-658.2021527282176,634
-655.5494582186366,652
-652.8974947046223,766
-650.2462620100463,763
-647.5957599587009,804
-644.9459883742998,835
-642.2969470804776,845
-639.6486359007902,854
-637.0010546587141,786
-634.3542031776476,668
-631.7080812809096,687
-629.0626887917401,1027
-626.4180255333008,1249
-623.7740913286734,1078
-621.1308860008619,732
-618.4884093727904,861
-615.8466612673046,802
-613.2056415071715,806
-610.5653499150785,871
-607.9257863136347,892
-605.28695052537,808
-602.6488423727357,813
-600.0114616781036,1042
-597.3748082637674,1431
-594.7388819519412,1244
-592.1036825647604,1104
-589.4692099242818,1253
-586.8354638524829,1379
-584.2024441712624,1113
-581.5701507024403,997
-578.9385832677575,903
-576.3077416888759,1011
-573.6776257873787,1300
-571.0482353847704,1115
-568.4195703024757,929
-565.7916303618415,824
-563.164415384135,808
-560.5379251905453,789
-557.9121596021815,940
-555.2871184400748,932
-552.6628015251767,913
-550.0392086783606,950
-547.4163397204204,1014
-544.794194472071,1101
-542.1727727539491,1106
-539.5520743866118,1056
-536.9320991905377,1018
-534.3128469861261,1183
-531.6943175936979,1110
-529.0765108334947,1241
-526.4594265256793,1389
-523.8430644903358,1572
-521.2274245474689,1759
-518.612506517005,1931
-515.9983102187913,2265
-513.3848354725959,2539
-510.77208209810846,2642
-508.16004991493924,2802
-505.5487387426199,2898
-502.9381484006032,2397
-500.3282787082628,2107
-497.71912948489364,1748
-495.1107005497117,1433
-492.5029917218539,1305
-489.8960028203786,1143
-487.28973366426493,974
-484.68418407241325,1038
-482.07935386364494,1012
-479.47524285670266,962
-476.87185087025,915
-474.2691777228715,1033
-471.66722323307334,1046
-469.0659872192821,1029
-466.4654694998459,1005
-463.86566989303384,936
-461.26658821703614,1121
-458.66822428996414,1140
-456.07057792985,1166
-453.4736489546475,1245
-450.877437182231,1061
-448.28194243039627,1022
-445.68716451686,1072
-443.09310325926003,1076
-440.49975847515555,1079
-437.9071299820263,1056
-435.31521759727354,1154
-432.72402113821954,1407
-430.13354042210767,1112
-427.5437752661022,1075
-424.95472548728867,1113
-422.36639090267386,1258
-419.7787713291855,1521
-417.1918665836721,1634
-414.60567648290385,1400
-412.0202008435715,1304
-409.4354394822874,1413
-406.8513922155845,1358
-404.26805885991723,1255
-401.685439231661,1197
-399.103533147112,1114
-396.522340422488,1141
-393.9418608739278,1194
-391.3620943174908,1383
-388.7830405691583,1291
-386.2046994448317,1207
-383.6270707603344,1343
-381.05015433141045,1395
-378.473949973725,1071
-375.8984575028645,1014
-373.32367673433623,1001
-370.74960748356875,982
-368.1762495659117,1026
-365.60360279663576,1061
-363.03166699093265,1037
-360.4604419639154,928
-357.8899275306178,880
-355.32012350599507,832
-352.7510297049233,821
-350.1826459421999,850
-347.61497203254316,816
-345.04800779059235,929
-342.4817530309082,1331
-339.91620756797226,1383
-337.35137121618743,1265
-334.7872437898774,1328
-332.22382510328725,1694
-329.66111497058273,1389
-327.09911320585127,949
-324.53781962310075,902
-321.9772340362607,903
-319.4173562591816,918
-316.8581861056348,950
-314.2997233893127,920
-311.7419679238294,958
-309.1849195227194,955
-306.62857799943856,1213
-304.0729431673641,1140
-301.51801483979375,1115
-298.963792829947,1219
-296.41027695096386,1265
-293.85746701590574,1530
-291.3053628377552,1536
-288.7539642294155,1592
-286.2032710037115,1755
-283.65328297338897,2001
-281.1039999511146,2387
-278.5554217494762,2642
-276.007548180983,1509
-273.4603790580651,1185
-270.9139141930734,1375
-268.3681533982807,1722
-265.8230964858798,1922
-263.27874326798565,1477
-260.7350935566336,1459
-258.1921471637804,1522
-255.6499039013039,1751
-253.10836358100266,1335
-250.56752601459698,1649
-248.02739101372765,2246
-245.48795838995704,2073
-242.94922795476816,1695
-240.41119951956557,1372
-237.8738728956746,1696
-235.33724789434166,1881
-232.80132432673452,1698
-230.2661020039418,1606
-227.73158073697357,1820
-225.19776033676033,2233
-222.66464061415422,2172
-220.1322213799284,1761
-217.60050244477725,1627
-215.06948361931552,2402
-212.53916471408013,3294
-210.00954553952818,3299
-207.48062590603843,2059
-204.9524056239104,1672
-202.4248845033651,2215
-199.8980623545441,2722
-197.37193898751036,2748
-194.84651421224817,1816
-192.32178783866232,1952
-189.79775967657952,2601
-187.27442953574644,3484
-184.7517972258321,3433
-182.2298625564256,2520
-179.7086253370378,2518
-177.18808537710026,3219
-174.66824248596583,4028
-172.14909647290835,3509
-169.6306471471229,2380
-167.11289431772548,2150
-164.59583779375328,2725
-162.07947738416453,3806
-159.5638128978386,4336
-157.04884414357605,4120
-154.53457093009854,2845
-152.02099306604828,2571
-149.50811035998936,3016
-146.99592262040665,3934
-144.48442965570587,5214
-141.97363127421409,6733
-139.46352728417958,5743
-136.95411749377126,3994
-134.44540171107985,3246
-131.93737974411636,3084
-129.43005140081357,4626
-126.92341648902493,8290
-124.41747481652521,12152
-121.91222619101006,10988
-119.40767042009657,8264
-116.90380731132257,6106
-114.40063667214702,4176
-111.8981583099503,4591
-109.3963720320337,8722
-106.89527764561933,16562
-104.39487495785067,26432
-101.89516377579241,26806
-99.39614390642998,21997
-96.89781515667039,14844
-94.40017733334128,13387
-91.90323024319173,11549
-89.40697369289148,11851
-86.91140748903172,19661
-84.41653143812482,37147
-81.92234534660395,55997
-79.42884902082358,60188
-76.93604226705907,65025
-74.4439248915071,65025
-71.95249670028534,65025
-69.46175749943245,65025
-66.97170709490854,65025
-64.48234529259423,65025
-61.99367189829195,65025
-59.50568671772464,65025
-57.01838955653636,65025
-54.53178022029283,65025
-52.045858514480074,65025
-49.560624244506016,65025
-47.07607721569923,50000
-44.59221723330904,42559
-42.10904410250669,43510
-39.62655762838392,43823
-37.14475761595372,56520
-34.66364387015028,56512
-32.18321619582866,62934
-29.70347439776515,65025
-27.224418280657005,65025
-24.74604764912317,65025
-22.26836230770266,65025
-19.7913620608565,65025
-17.315046712966478,65025
-14.83941606833514,65025
-12.36446993118659,65025
-9.89020810566592,65025
-7.416630395839093,65025
-4.94373660569363,65025
-2.471526539137585,65025
-6.821210263296962E-13,65025
2.47084320796705,65025
4.941003281093458,65025
7.410480415786196,65025
9.879274808531363,65025
12.347386655893956,65025
14.814816154518212,65025
17.28156350112681,65025
19.74762889252179,65025
22.21301252558385,30462
24.67771459727237,13016
27.141735304626195,14371
29.605074844762612,12562
32.06773341487792,10845
34.52971121224755,11970
36.99100843422559,14464
39.45162527824516,13387
41.91156194181792,12486
44.370818622535126,9948
46.82939551806646,8942
49.287292826160524,10489
51.74451074464503,10290
54.201049471426245,9757
56.65690920448981,7763
59.112090141899785,7022
61.56659248179983,5460
64.02041642241159,4216
66.4735621620365,5460
68.92602989905402,6636
71.37781983192338,6725
73.82893215918205,7285
76.27936707944684,7326
78.72912479141326,7003
81.17820549385567,7272
83.62660938562783,6234
86.07433666566146,5448
88.5213875329681,4240
90.96776218663751,4821
93.41346082583925,4651
95.85848364982041,4589
98.30283085790859,7363
100.7465026495089,7050
103.18949922410604,5147
105.63182078126385,4544
108.07346752062438,4003
110.51443964190923,2979
112.95473734491827,3495
115.39436082953114,4197
117.83331029570547,4404
120.27158594347827,3985
122.7091879729652,3755
125.1461165843615,4004
127.58237197794062,4077
130.01795435405518,4008
132.4528639131364,3641
134.88710085569494,3979
137.32066538231982,3602
139.75355769367923,2910
142.1857779905207,2843
144.61732647366978,3423
147.04820334403132,3280
149.47840880258934,2538
151.90794305040674,2554
154.33680628862487,2746
156.76499871846443,2533
159.19252054122433,2658
161.61937195828352,2758
164.04555317109896,3305
166.47106438120693,3241
168.89590579022217,2922
171.320077599839,3124
173.7435800118302,4201
176.16641322804742,4163
178.58857745042144,3463
181.01007288096173,3589
183.43089972175687,3909
185.85105817497413,3254
188.27054844285988,2851
190.6893707277394,2970
193.10752523201643,3451
195.5250121581745,3254
197.9418317087751,2794
200.3579840864594,3079
202.7734694939469,3401
205.18828813403627,3080
207.6024402096051,2986
210.01592592360964,3216
212.42874547908548,2876
214.84089907914665,3029
217.2523869269868,3259
219.66320922587727,2981
222.0733661791695,2649
224.48285799029293,2863
226.8916848627572,2924
229.29984700014882,2958
231.7073446061355,2901
234.11417788446204,2960
236.520347038953,3171
238.92585227351185,3243
241.33069379212054,2912
243.73487179884035,3016
246.1383864978112,3114
248.541238093252,3335
250.9434267894609,3203
253.34495279081432,3125
255.74581630176783,2790
258.1460175268563,2745
260.54555667069314,3014
262.9444339379703,3263
265.3426495334594,3302
267.7402036620107,3241
270.1370965285529,3284
272.53332833809407,3243
274.9288992957214,3321
277.32380960660055,3404
279.718059475976,3185
282.1116491091717,2871
284.5045787115897,2746
286.89684848871195,2698
289.2884586460981,2774
291.67940938938807,3244
294.0697009242996,3064
296.4593334566299,3116
298.84830719225477,3062
301.23662233712923,3137
303.6242790972866,2897
306.01127767884,2900
308.39761828798066,2949
310.78330113097934,2613
313.16832641418534,2481
315.5526943440269,2672
317.9364051270112,2781
320.3194589697242,2663
322.70185607883093,2598
325.0835966610754,2600
327.4646809232805,2674
329.8451090723478,2632
332.2248813152577,2649
334.6039978590701,2423
336.9824589109231,2301
339.36026467803447,2234
341.7374153677,2292
344.113911187295,2273
346.48975234427337,2272
348.8649390461686,2341
351.2394715005918,2360
353.61334991523415,2237
355.9865744978655,2272
358.35914545633375,2255
360.73106299856715,2295
363.10232733257146,2391
365.47293866643247,2387
367.84289720831396,2272
370.2122031664593,2175
372.5808567491905,2291
374.9488581649083,2133
377.31620762209275,2050
379.6829053293021,2128
382.0489514951745,2343
384.4143463284262,2317
386.7790900378528,2262
389.14318283232853,2193
391.50662492080653,2448
393.86941651231916,2700
396.23155781597745,2802
398.5930490409713,2531
400.9538903965696,2304
403.3140820921202,2267
405.6736243370498,2363
408.03251734086336,2173
410.3907613131465,2076
412.74835646356166,2106
415.10530300185144,2160
417.4616011378372,2298
419.81725108141893,2122
422.1722530425758,2083
424.5266072313656,2234
426.880313857925,2152
429.2333731324701,2030
431.58578526529516,1921
433.9375504667738,1993
436.2886689473588,1955
438.63914091758113,1928
440.9889665880513,1890
443.33814616945835,1935
445.68667987257015,2009
448.03456790823395,2007
450.3818104873759,1876
452.72840782100013,1840
455.07436012019105,1895
457.41966759611057,1919
459.7643304600007,1921
462.10834892318155,1911
464.4517231970525,2023
466.79445349309174,2078
469.1365400228566,1984
471.4779829979826,2018
473.81878263018564,1929
476.15893913125876,2079
478.4984527130747,2271
480.8373235875855,2324
483.17555196682144,2156
485.5131380628919,2158
487.8500820879857,2229
490.1863842543697,2445
492.52204477439034,2630
494.8570638604725,3019
497.1914417251204,3544
499.52517858091653,4352
501.85827464052306,5149
504.19073011668036,5960
506.5225452222086,6350
508.85372017000566,6842
511.18425517304956,7239
513.514150444396,8618
515.8434061971808,9668
518.1720226446176,9495
520.4999999999999,8974
522.8273384766991,8094
525.1540382881666,7041
527.480099647932,5658
529.8055227696037,3989
532.1303078668694,2992
534.454455153496,2739
536.777964843328,2470
539.1008371502907,2312
541.4230722883866,2350
543.744670471698,2367
546.0656319143858,2351
548.3859568306899,2454
550.7056454349294,2529
553.0246979415016,2632
555.3431145648834,2444
557.6608955196306,2208
559.978041020377,2298
562.2945512818363,2340
564.6104265188006,2133
566.9256669461412,2184
569.2402727788082,2264
571.5542442318302,2291
573.8675815203156,2122
576.1802848594508,2078
578.4923544645015,2151
580.8037905508126,2116
583.114593333807,2029
585.4247630289875,2099
587.7342998519354,2365
590.0432040183106,2366
592.3514757438526,2027
594.6591152443794,2032
596.9661227357875,2219
599.2724984340531,2072
601.578242555231,2081
603.8833553154542,1991
606.1878369309362,2052
608.4916876179676,1956
610.7949075929192,1989
613.0974970722403,2095
615.3994562724587,1963
617.7007854101818,2119
620.0014847020951,2030
622.3015543649641,1939
624.6009946156324,2039
626.8998056710224,1979
629.1979877481361,1970
631.4955410640538,1927
633.7924658359349,1961
636.0887622810175,1908
638.3844306166192,1898
640.6794710601358,2004
642.9738838290426,2091
645.2676691408932,2069
647.5608272133207,2111
649.853358264037,2111
652.1452625108324,2070
654.4365401715764,2007
656.7271914642178,2120
659.0172166067838,2158
661.3066158173809,2020
663.5953893141935,2085
665.8835373154867,2114
668.1710600396028,2171
670.4579577049639,2093
672.7442305300709,1960
675.0298787335033,2031
677.3149025339197,1998
679.599302150058,1919
681.8830778007342,1979
684.1662297048437,2067
686.4487580813608,2003
688.7306631493387,1949
691.0119451279091,1947
693.2926042362834,2022
695.5726406937516,2051
697.8520547196814,2062
700.1308465335215,1929
702.4090163547982,1952
704.6865644031171,1897
706.9634908981619,1954
709.2397960596965,1942
711.5154801075631,1955
713.7905432616823,1962
716.0649857420548,2004
718.3388077687592,2062
720.612009561953,1970
722.8845913418733,1829
725.1565533288352,1920
727.427895743234,1880
729.6986188055427,2021
731.9687227363137,2131
734.238207756178,1966
736.5070740858458,1962
738.7753219461066,1972
741.0429515578281,1960
743.3099631419569,2024
745.5763569195191,1915
747.8421331116193,1901
750.1072919394409,2019
752.3718336242467,2047
754.6357583873777,1949
756.8990664502545,1925
759.1617580343765,2000
761.423833361321,1949
763.6852926527457,1949
765.9461361303862,2040
768.206364016058,2187
770.4659765316536,2206
772.7249738991469,2074
774.9833563405886,2016
777.2411240781092,1946
779.4982773339183,2012
781.7548163303044,2037
784.010741289634,2044
786.2660524343538,2177
788.5207499869881,2161
790.7748341701416,2187
793.0283052064964,2093
795.2811633188143,2002
797.5334087299362,2005
799.7850416627813,1941
802.0360623403484,2102
804.2864709857143,2208
806.5362678220353,2165
808.7854530725468,2008
811.0340269605625,2132
813.2819897094754,2116
815.5293415427581,2105
817.77608268396,1981
820.0222133567116,2021
822.2677337847211,2276
824.5126441917765,2365
826.7569448017433,2017
829.0006358385675,1934
831.2437175262731,2036
833.4861900889629,2056
835.7280537508192,2048
837.9693087361026,1905
840.2099552691533,1862
842.4499935743896,1877
844.689423876309,1971
846.9282463994886,2038
849.1664613685833,1859
851.4040690083276,1930
853.6410695435349,1954
855.877463199097,2065
858.1132501999847,1990
860.3484307712487,1993
862.5830051380175,2003
864.8169735254988,1967
867.0503361589791,1998
869.2830932638243,1992
871.5152450654786,1898
873.7467917894654,1933
875.9777336613873,2051
878.2080709069252,2018
880.4378037518389,2021
882.666932421968,2131
884.8954571432301,2193
887.1233781416219,2243
889.3506956432192,2082
891.5774098741766,1948
893.803521060728,1920
896.0290294291852,1986
898.2539352059397,2034
900.4782386174619,2251
902.7019398903011,2265
904.925039251085,2062
907.147536926521,2012
909.3694331433943,2047
911.59072812857,2132
913.8114221089921,2053
916.0315153116827,2047
918.2510079637437,2037
920.4699002923547,2027
922.6881925247761,2079
924.905884888345,2141
927.1229776104793,2180
929.3394709186747,2084
931.555365040506,2098
933.7706602036275,2066
935.9853566357709,2147
938.1994545647489,2259
940.4129542184515,2181
942.6258558248488,2159
944.8381596119883,2342
947.0498658079974,2324
949.2609746410825,2270
951.4714863395287,2180
953.6814011316998,2137
955.8907192460387,2091
958.0994409110671,2215
960.3075663553858,2316
962.5150958076741,2325
964.7220294966913,2153
966.928367651274,2218
969.1341105003388,2064
971.3392582728806,2102
973.5438111979742,2012
975.747769504772,2052
977.9511334225061,2031
980.153903180487,2045
982.3560790081052,1962
984.5576611348289,1981
986.7586497902058,1957
988.9590452038618,2099
991.158847605503,2096
993.3580572249133,2048
995.5566742919558,1905
997.7546990365728,1813
999.952131688785,1796
1002.1489724786926,1756
1004.3452216364743,1660
1006.5408793923874,1673
1008.7359459767691,1685
1010.9304216200343,1601
1013.1243065526781,1605
1015.3176010052733,1610
1017.510305208472,1656
1019.7024193930064,1910
1021.8939437896848,1813
1024.0848786293977,1622
1026.2752241431122,1545
1028.4649805618747,1524
1030.6541481168115,1558
1032.842727039127,1555
1035.0307175601051,1411
1037.2181199111074,1528
1039.4049343235752,1428
1041.591161029029,1476
1043.7768002590683,1491
1045.9618522453698,1431
1048.1463172196918,1528
1050.3301954138697,1461
1052.513487059818,1479
1054.69619238953,1509
1056.8783116350783,1410
1059.0598450286152,1577
1061.2407928023704,1533
1063.4211551886528,1511
1065.6009324198508,1468
1067.780124728432,1471
1069.9587323469414,1426
1072.1367555080046,1438
1074.314194444325,1473
1076.4910493886855,1449
1078.667320573947,1372
1080.843008233051,1387
1083.0181125990161,1414
1085.1926339049414,1365
1087.3665723840027,1427
1089.5399282694575,1372
1091.7127017946405,1380
1093.8848931929647,1427
1096.0565026979243,1441
1098.2275305430899,1390
1100.3979769621128,1434
1102.567842188722,1400
1104.737126456726,1420
1106.9058300000124,1449
1109.0739530525475,1369
1111.2414958483764,1423
1113.4084586216231,1442
1115.5748416064907,1418
1117.7406450372605,1448
1119.9058691482942,1416
1122.0705141740304,1394
1124.2345803489884,1387
1126.3980679077658,1389
1128.5609770850388,1407
1130.7233081155623,1362
1132.8850612341707,1305
1135.0462366757774,1301
1137.2068346753745,1318
1139.3668554680326,1342
1141.526299288901,1337
1143.68516637321,1422
1145.8434569562655,1405
1148.001171273455,1374
1150.158309560244,1349
1152.3148720521767,1360
1154.470858984876,1395
1156.626270594044,1383
1158.7811071154629,1392
1160.9353687849912,1377
1163.089055838569,1464
1165.242168512213,1358
1167.3947070420209,1391
1169.5466716641677,1376
1171.6980626149075,1461
1173.8488801305748,1530
1175.9991244475814,1466
1178.1487958024186,1416
1180.2978944316555,1397
1182.4464205719428,1331
1184.5943744600072,1302
1186.7417563326567,1297
1188.8885664267755,1321
1191.0348049793297,1272
1193.1804722273619,1316
1195.325568407995,1299
1197.4700937584303,1288
1199.614048515948,1212
1201.7574329179074,1279
1203.900247201746,1248
1206.042491604982,1350
1208.1841663652099,1319
1210.3252717201053,1309
1212.465807907422,1415
1214.6057751649923,1355
1216.7451737307279,1365
1218.8840038426192,1386
1221.0222657387353,1411
1223.1599596572241,1306
1225.2970858363137,1318
1227.4336445143094,1288
1229.5696359295966,1295
1231.705060320639,1327
1233.8399179259786,1359
1235.9742089842384,1376
1238.107933734118,1363
1240.2410924143974,1304
1242.373685263935,1327
1244.5057125216676,1329
1246.6371744266116,1317
1248.7680712178621,1353
1250.898403134593,1377
1253.028170416058,1318
1255.1573733015875,1338
1257.2860120305932,1291
1259.4140868425648,1385
1261.54159797707,1369
1263.6685456737569,1479
1265.7949301723515,1487
1267.9207517126597,1395
1270.046010534565,1294
1272.1707068780306,1341
1274.2948409830983,1386
1276.4184130898889,1355
1278.541423438603,1346
1280.6638722695184,1282
1282.785759822993,1296
1284.9070863394636,1316
1287.0278520594447,1286
1289.1480572235314,1396
1291.2677020723963,1349
1293.3867868467923,1393
1295.5053117875495,1364
1297.623277135579,1391
1299.740683131868,1350
1301.8575300174857,1438
1303.973818033578,1442
1306.0895474213703,1473
1308.2047184221678,1423
1310.3193312773528,1448
1312.4333862283888,1447
1314.5468835168163,1297
1316.659823384255,1334
1318.7722060724045,1289
1320.8840318230418,1308
1322.9953008780249,1302
1325.1060134792888,1309
1327.2161698688478,1333
1329.3257702887959,1379
1331.4348149813054,1368
1333.5433041886276,1358
1335.6512381530933,1266
1337.7586171171101,1319
1339.8654413231675,1293
1341.9717110138317,1320
1344.0774264317488,1298
1346.1825878196432,1367
1348.2871954203192,1372
1350.3912494766587,1358
1352.4947502316231,1347
1354.5976979282532,1285
1356.7000928096686,1368
1358.8019351190665,1359
1360.9032250997243,1284
1363.0039629949988,1267
1365.1041490483235,1331
1367.2037835032133,1278
1369.3028666032606,1328
1371.401398592137,1399
1373.4993797135926,1373
1375.5968102114575,1343
1377.6936903296396,1365
1379.7900203121262,1335
1381.8858004029835,1347
1383.9810308463561,1326
1386.075711886469,1284
1388.1698437676241,1392
1390.2634267342032,1408
1392.356461030667,1442
1394.4489469015557,1440
1396.5408845914872,1313
1398.6322743451592,1301
1400.7231164073469,1356
1402.813411022907,1393
1404.903158436773,1316
1406.9923588939578,1396
1409.0810126395531,1379
1411.1691199187303,1350
1413.2566809767386,1269
1415.343696058907,1338
1417.4301654106425,1346
1419.5160892774315,1371
1421.6014679048399,1335
1423.6863015385125,1331
1425.7705904241707,1354
1427.8543348076178,1295
1429.9375349347342,1315
1432.0201910514802,1340
1434.102303403894,1334
1436.1838722380944,1305
1438.2648978002767,1374
1440.3453803367174,1309
1442.4253200937692,1383
1444.5047173178677,1321
1446.5835722555234,1405
1448.6618851533285,1417
1450.739656257952,1364
1452.8168858161434,1313
1454.8935740747306,1434
1456.96972128062,1389
1459.045327680797,1342
1461.120393522327,1399
1463.1949190523528,1344
1465.2689045180973,1336
1467.3423501668608,1267
1469.415256246024,1349
1471.4876230030463,1373
1473.559450685465,1324
1475.6307395408976,1373
1477.7014898170391,1423
1479.771701761665,1371
1481.8413756226287,1358
1483.9105116478618,1339
1485.9791100853772,1348
1488.0471711832643,1388
1490.1146951896926,1397
1492.1816823529098,1319
1494.2481329212433,1445
1496.3140471430984,1358
1498.3794252669609,1301
1500.4442675413939,1364
1502.5085742150404,1416
1504.572345536622,1376
1506.6355817549388,1293
1508.6982831188702,1292
1510.7604498773744,1345
1512.8220822794883,1361
1514.8831805743293,1442
1516.9437450110909,1367
1519.003775839048,1370
1521.0632733075522,1324
1523.1222376660367,1309
1525.1806691640113,1281
1527.2385680510652,1271
1529.2959345768668,1356
1531.3527689911643,1365
1533.4090715437833,1323
1535.4648424846291,1347
1537.5200820636855,1345
1539.5747905310159,1416
1541.6289681367616,1328
1543.6826151311434,1354
1545.7357317644614,1326
1547.7883182870937,1299
1549.8403749494987,1264
1551.8919020022113,1317
1553.9428996958477,1418
1555.9933682811015,1388
1558.0433080087469,1412
1560.0927191296346,1314
1562.1416018946961,1351
1564.1899565549415,1349
1566.2377833614592,1381
1568.2850825654164,1327
1570.3318544180606,1364
1572.3780991707158,1371
1574.423817074788,1330
1576.4690083817595,1311
1578.5136733431923,1266
1580.5578122107272,1275
1582.601425236085,1329
1584.6445126710646,1279
1586.6870747675434,1317
1588.7291117774776,1344
1590.7706239529034,1273
1592.8116115459347,1311
1594.8520748087658,1268
1596.8920139936686,1313
1598.9314293529933,1337
1600.9703211391711,1277
1603.008689604711,1294
1605.0465350022005,1335
1607.0838575843068,1327
1609.1206576037753,1310
1611.1569353134305,1359
1613.1926909661765,1340
1615.2279248149953,1336
1617.2626371129481,1349
1619.2968281131757,1381
1621.3304980688963,1339
1623.3636472334088,1307
1625.39627586009,1333
1627.428384202396,1305
1629.459972513861,1318
1631.4910410480993,1392
1633.5215900588028,1345
1635.551619799744,1370
1637.5811305247717,1382
1639.6101224878166,1362
1641.6385959428862,1438
1643.6665511440683,1316
1645.693988345528,1323
1647.7209078015112,1306
1649.7473097663405,1338
1651.7731944944203,1377
1653.7985622402307,1415
1655.823413258333,1334
1657.847747803366,1350
1659.8715661300494,1324
1661.8948684931793,1362
1663.9176551476316,1360
1665.9399263483624,1327
1667.9616823504057,1343
1669.982923408873,1255
1672.0036497789574,1301
1674.0238617159293,1329
1676.043559475138,1289
1678.0627433120121,1280
1680.081413482059,1263
1682.0995702408654,1349
1684.117213844096,1348
1686.134344547495,1323
1688.1509626068864,1283
1690.1670682781705,1312
1692.182661817329,1315
1694.1977434804217,1376
1696.2123135235875,1396
1698.226372203043,1385
1700.2399197750851,1395
1702.2529564960905,1448
1704.2654826225112,1332
1706.277498410882,1241
1708.2890041178139,1260
1710.2999999999988,1313
1712.3104863142066,1338
1714.3204633172854,1313
1716.329931266163,1345
1718.3388904178469,1340
1720.3473410294214,1422
1722.3552833580516,1351
1724.3627176609807,1292
1726.3696441955308,1307
1728.3760632191033,1359
1730.3819749891782,1301
1732.3873797633146,1326
1734.3922777991502,1249
1736.3966693544012,1310
1738.4005546868639,1344
1740.4039340544127,1265
1742.406807715001,1274
1744.4091759266616,1351
1746.4110389475054,1286
1748.4123970357223,1413
1750.413250449582,1289
1752.4135994474318,1324
1754.4134442876993,1301
1756.4127852288902,1288
1758.4116225295893,1243
1760.4099564484595,1296
1762.407787244244,1362
1764.405115175764,1296
1766.4019405019203,1296
1768.3982634816916,1289
1770.3940843741357,1296
1772.3894034383907,1333
1774.3842209336717,1389
1776.378537119274,1302
1778.372352254571,1306
1780.3656665990156,1254
1782.3584804121397,1315
1784.3507939535534,1309
1786.3426074829463,1297
1788.3339212600863,1267
1790.3247355448211,1308
1792.3150505970766,1270
1794.3048666768573,1398
1796.2941840442477,1308
1798.2830029594106,1329
1800.2713236825884,1331
1802.2591464741004,1312
1804.2464715943465,1318
1806.2332993038058,1316
1808.2196298630352,1338
1810.2054635326708,1325
1812.190800573428,1309
1814.175641246101,1328
1816.1599858115628,1325
1818.1438345307652,1331
1820.127187664738,1335
1822.1100454745924,1290
1824.092408221516,1338
1826.0742761667766,1287
1828.055649571721,1306
1830.0365286977735,1302
1832.0169138064398,1333
1833.9968051593014,1403
1835.9762030180214,1418
1837.9551076443408,1375
1839.9335193000788,1334
1841.9114382471344,1308
1843.888864747485,1296
1845.8657990631878,1333
1847.842241456378,1357
1849.8181921892697,1305
1851.7936515241558,1280
1853.7686197234098,1342
1855.7430970494815,1290
1857.7170837649014,1302
1859.6905801322787,1336
1861.6635864143004,1301
1863.6361028737338,1355
1865.608129773424,1341
1867.5796673762961,1369
1869.5507159453537,1368
1871.521275743678,1275
1873.4913470344313,1363
1875.4609300808534,1291
1877.4300251462632,1363
1879.3986324940588,1339
1881.366752387717,1355
1883.3343850907936,1364
1885.3015308669228,1428
1887.268189979819,1365
1889.2343626932739,1305
1891.2000492711595,1316
1893.1652499774254,1346
1895.1299650761011,1376
1897.0941948312952,1339
1899.0579395071945,1322
1901.0211993680641,1362
1902.98397467825,1337
1904.9462657021745,1362
1906.9080727043415,1365
1908.869395949332,1327
1910.8302357018065,1305
1912.790592226504,1316
1914.7504657882428,1328
1916.7098566519212,1345
1918.6687650825133,1314
1920.6271913450764,1284
1922.5851357047422,1321
1924.5425984267245,1295
1926.499579776314,1326
1928.4560800188833,1379
1930.4120994198802,1372
1932.367638244833,1419
1934.32269675935,1362
1936.2772752291175,1362
1938.231373919899,1360
1940.1849930975404,1411
1942.1381330279637,1448
1944.0907939771696,1353
1946.0429762112412,1310
1947.9946799963363,1364
1949.9459055986945,1350
1951.896653284633,1345
1953.8469233205478,1318
1955.7967159729142,1359
1957.7460315082863,1307
1959.6948701932974,1358
1961.6432322946594,1330
1963.5911180791632,1318
1965.5385278136787,1326
1967.4854617651545,1358
1969.4319202006182,1351
1971.377903387176,1333
1973.3234115920136,1307
1975.268445082395,1345
1977.2130041256642,1301
1979.1570889892423,1308
1981.1006999406304,1343
1983.04383724741,1331
1984.986501177238,1422
1986.928691997853,1357
1988.8704099770712,1381
1990.811655382789,1377
1992.7524284829801,1419
1994.692729545698,1390
1996.6325588390755,1397
1998.5719166313224,1357
2000.5108031907307,1303
2002.4492187856677,1358
2004.387163684583,1316
2006.3246381560011,1363
2008.2616424685298,1348
2010.1981768908527,1346
2012.1342416917332,1388
2014.069837140014,1347
2016.0049635046162,1332
2017.9396210545406,1309
2019.8738100588666,1310
2021.8075307867502,1254
2023.740783507431,1408
2025.6735684902228,1345
2027.6058860045214,1382
2029.5377363198004,1392
2031.4691197056118,1355
2033.4000364315875,1297
2035.3304867674374,1370
2037.260470982952,1349
2039.189989347998,1380
2041.1190421325232,1376
2043.047629606554,1270
2044.9757520401945,1331
2046.9034097036288,1262
2048.8306028671195,1333
2050.7573318010086,1379
2052.683596775716,1308
2054.609398061742,1376
2056.5347359296647,1354
2058.4596106501403,1379
2060.384022493906,1359
2062.3079717317764,1330
2064.231458634646,1356
2066.1544834734873,1292
2068.077046519352,1337
2069.99914804337,1342
2071.9207883167524,1322
2073.8419676107865,1351
2075.7626861968406,1351
2077.6829443463607,1263
2079.6027423308715,1355
2081.522080421977,1372
2083.440958891362,1392
2085.359378010786,1337
2087.2773380520907,1343
2089.194839287196,1376
2091.111881988101,1378
2093.0284664268825,1318
2094.9445928756973,1301
2096.86026160678,1330
2098.775472892446,1319
2100.690227005088,1353
2102.604524217178,1399
2104.5183648012676,1381
2106.431749029985,1429
2108.34467717604,1334
2110.2571495122206,1312
2112.169166311393,1394
2114.080727846503,1393
2115.9918343905747,1348
2117.902486216711,1340
2119.8126835980956,1333
2121.722426807987,1326
2123.6317161197285,1362
2125.5405518067364,1371
2127.448934142509,1365
2129.356863400624,1339
2131.264339854737,1332
2133.1713637785815,1382
2135.077935445972,1385
2136.9840551308002,1299
2138.889723107037,1381
2140.7949396487334,1374
2142.699705030018,1382
2144.6040195250994,1373
2146.507883408264,1381
2148.4112969538774,1345
2150.3142604363848,1389
2152.2167741303097,1398
2154.1188383102535,1397
2156.0204532508997,1336
2157.9216192270064,1383
2159.822336513414,1356
2161.7226053850413,1384
2163.622426116884,1367
2165.5217989840185,1384
2167.4207242616,1352
2169.319202224862,1378
2171.2172331491165,1325
2173.1148173097563,1357
2175.0119549822507,1386
2176.90864644215,1437
2178.8048919650823,1368
2180.7006918267534,1357
2182.596046302952,1364
2184.4909556695407,1399
2186.3854202024645,1362
2188.279440177746,1398
2190.173015871487,1342
2192.066147559868,1435
2193.958835519149,1394
2195.851080025667,1353
2197.7428813558417,1358
2199.6342397861667,1399
2201.5251555932186,1351
2203.415629053651,1368
2205.3056604441986,1393
2207.19525004167,1364
2209.084398122958,1360
2210.9731049650327,1412
2212.861370844941,1389
2214.749196039812,1403
2216.636580826851,1444
2218.523525483344,1391
2220.410030286655,1414
2222.296095514226,1412
2224.1817214435805,1415
2226.066908352319,1367
2227.951656518121,1434
2229.835966218746,1376
2231.71983773203,1388
2233.6032713358913,1333
2235.486267308324,1406
2237.3688259274036,1408
2239.2509474712824,1422
2241.132632218193,1392
2243.013880446447,1386
2244.8946924344323,1398
2246.7750684606203,1368
2248.6550088035574,1399
2250.534513741871,1407
2252.413583554265,1416
2254.292218519526,1437
2256.170418916517,1388
2258.0481850241786,1384
2259.925517121534,1372
2261.8024154876825,1395
2263.678880401803,1322
2265.5549121431536,1376
2267.430510991071,1317
2269.305677224971,1327
2271.180411124348,1367
2273.0547129687766,1399
2274.9285830379076,1371
2276.8020216114737,1348
2278.6750289692845,1311
2280.5476053912294,1368
2282.4197511572766,1357
2284.2914665474727,1391
2286.162751841943,1354
2288.0336073208937,1337
2289.904033264608,1351
2291.774029953448,1361
2293.6435976678554,1426
2295.5127366883517,1339
2297.381447295534,1310
2299.2497297700825,1377
2301.1175843927526,1267
2302.9850114443825,1244
2304.852011205885,1262
2306.7185839582553,1307
2308.5847299825664,1271
2310.4504495599676,1216
2312.3157429716925,1203
2314.1806104990483,1230
2316.0450524234247,1214
2317.9090690262888,1210
2319.772660589186,1241
2321.635827393742,1186
2323.498569721661,1201
2325.3608878547248,1146
2327.2227820747967,1184
2329.0842526638157,1195
2330.945299903803,1208
2332.805924076857,1169
2334.6661254651535,1128
2336.525904350951,1148
2338.3852610165827,1120
2340.244195744464,1165
2342.102708817088,1131
2343.9608005170253,1166
2345.8184711269287,1127
2347.675720929526,1163
2349.532550207628,1189
2351.38895924412,1180
2353.24494832197,1188
2355.100517724223,1149
2356.955667734004,1190
2358.810398634514,1228
2360.664710709037,1252
2362.5186042409337,1208
2364.3720795136437,1162
2366.225136810686,1192
2368.0777764156583,1221
2369.929998612237,1215
2371.7818036841777,1167
2373.633191915315,1213
2375.484163589562,1166
2377.3347189909114,1172
2379.184858403434,1163
2381.03458211128,1176
2382.8838903986775,1187
2384.732783549936,1230
2386.5812618494406,1154
2388.4293255816588,1133
2390.2769750311327,1155
2392.1242104824883,1117
2393.971032220427,1205
2395.8174405297295,1186
2397.6634356952563,1151
2399.509018001947,1206
2401.3541877348193,1141
2403.1989451789705,1188
2405.043290619576,1171
2406.8872243418905,1166
2408.730746631247,1144
2410.5738577730594,1185
2412.4165580528183,1141
2414.258847756095,1186
2416.100727168537,1160
2417.9421965758734,1194
2419.783256263912,1148
2421.623906518538,1188
2423.4641476257157,1194
2425.303979871491,1163
2427.143403541984,1165
2428.9824189233977,1130
2430.821026302012,1199
2432.6592259641866,1157
2434.497018196361,1162
2436.33440328505,1179
2438.171381516851,1207
2440.00795317844,1142
2441.844118556569,1163
2443.6798779380724,1194
2445.5152316098606,1173
2447.3501798589255,1237
2449.1847229723357,1225
2451.0188612372403,1231
2452.8525949408663,1162
2454.6859243705203,1125
2456.518849813587,1185
2458.3513715575314,1226
2460.183489889895,1190
2462.015205098301,1138
2463.8465174704493,1179
2465.67742729412,1185
2467.5079348571717,1197
2469.338040447542,1171
2471.1677443532476,1145
2472.9970468623833,1164
2474.825948263123,1162
2476.6544488437207,1197
2478.482548892508,1179
2480.310248697896,1230
2482.137548548374,1187
2483.9644487325118,1179
2485.790949538956,1217
2487.617051256433,1154
2489.44275417375,1138
2491.26805857979,1158
2493.0929647635157,1161
2494.917473013971,1166
2496.741583620276,1152
2498.5652968716304,1160
2500.3886130573137,1205
2502.2115324666834,1208
2504.0340553891765,1167
2505.856182114308,1187
2507.6779129316733,1223
2509.499248130945,1203
2511.3201880018764,1164
2513.140732834298,1193
2514.9608829181198,1135
2516.780638543331,1146
2518.6,1174
2520.418967578273,1188
2522.237541568376,1133
2524.0557222606144,1186
2525.8735099453706,1200
2527.6909049131086,1115
2529.507907454368,1142
2531.32451785977,1150
2533.140736420014,1176
2534.9565634258774,1176
2536.771999168218,1162
2538.5870439379714,1200
2540.4016980261526,1188
2542.2159617238544,1149
2544.02983532225,1150
2545.8433191125914,1192
2547.656413386209,1150
2549.4691184345115,1218
2551.2814345489874,1213
2553.093362021204,1164
2554.904901142808,1169
2556.716052205523,1158
2558.526815501153,1164
2560.3371913215824,1165
2562.147179958771,1132
2563.956781704761,1161
2565.7659968516705,1129
2567.5748256916986,1151
2569.3832685171224,1181
2571.1913256202984,1100
2572.9989972936614,1155
2574.806283829725,1146
2576.613185521084,1237
2578.4197026604074,1140
2580.2258355404483,1172
2582.031584454035,1169
2583.836949694077,1166
2585.6419315535613,1174
2587.4465303255533,1145
2589.2507463032002,1183
2591.0545797797245,1146
2592.8580310484303,1142
2594.6611004026995,1150
2596.463788135992,1201
2598.266094541849,1172
2600.0680199138874,1135
2601.869564545807,1168
2603.670728731383,1145
2605.4715127644704,1120
2607.2719169390048,1220
2609.071941548998,1236
2610.8715868885433,1151
2612.670853251811,1204
2614.469740933052,1176
2616.268250226594,1212
2618.0663814268455,1193
2619.864134828292,1185
2621.6615107255006,1195
2623.458509413115,1189
2625.2551311858597,1133
2627.0513763385347,1152
2628.8472451660223,1219
2630.6427379632833,1172
2632.4378550253564,1125
2634.232596647359,1187
2636.026963124488,1198
2637.8209547520187,1174
2639.6145718253065,1126
2641.407814639785,1167
2643.200683490966,1145
2644.9931786744414,1174
2646.7853004858807,1186
2648.577049221034,1240
2650.3684251757277,1172
2652.1594286458712,1187
2653.9500599274484,1167
2655.740319316525,1226
2657.5302071092437,1216
2659.3197236018286,1132
2661.10886909058,1176
2662.8976438718782,1156
2664.686048242183,1157
2666.4740824980327,1178
2668.2617469360443,1169
2670.0490418529134,1207
2671.8359675454153,1139
2673.622524310403,1182
2675.408712444811,1194
2677.1945322456495,1174
2678.979984010009,1154
2680.76506803506,1207
2682.5497846180497,1136
2684.334134056306,1147
2686.1181166472343,1201
2687.9017326883213,1232
2689.6849824771293,1181
2691.4678663113013,1208
2693.2503844885596,1200
2695.032537306705,1245
2696.8143250636167,1245
2698.5957480572542,1198
2700.3768065856534,1213
2702.1575009469316,1189
2703.937831439283,1172
2705.717798360982,1148
2707.4974020103837,1153
2709.276642685917,1151
2711.055520686095,1155
2712.834036309506,1125
2714.612189854819,1149
2716.389981620782,1128
2718.1674119062204,1128
2719.944481010041,1153
2721.721189231226,1191
2723.4975368688415,1229
2725.273524222027,1145
2727.0491515900053,1156
2728.824419272075,1191
2730.5993275676146,1193
2732.3738767760838,1166
2734.148067197016,1175
2735.921899130031,1114
2737.6953728748194,1155
2739.468488731156,1143
2741.2412469988926,1201
2743.0136479779617,1211
2744.785691968372,1208
2746.5573792702116,1177
2748.3287101836504,1150
2750.099685008934,1190
2751.870304046388,1203
2753.640567596418,1161
2755.4104759595057,1182
2757.1800294362156,1231
2758.949228327187,1163
2760.7180729331412,1189
2762.486563554877,1209
2764.254700493272,1153
2766.022484049284,1137
2767.789914523947,1118
2769.5569922183786,1184
2771.3237174337705,1188
2773.090090471394,1170
2774.8561116326036,1195
2776.6217812188274,1182
2778.3870995315756,1174
2780.1520668724356,1198
2781.9166835430747,1212
2783.6809498452394,1150
2785.444866080754,1201
2787.2084325515225,1170
2788.971649559527,1091
2790.73451740683,1158
2792.4970363955713,1146
2794.2592068279705,1173
2796.0210290063264,1168
2797.7825032330147,1137
2799.543629810493,1166
2801.304409041296,1185
2803.0648412280366,1185
2804.8249266734088,1145
2806.5846656801846,1157
2808.344058551212,1174
2810.1031055894246,1203
2811.8618070978273,1186
2813.6201633795085,1152
2815.378174737636,1146
2817.1358414754536,1135
2818.893163896285,1197
2820.6501423035334,1182
2822.4067770006814,1116
2824.1630682912883,1160
2825.9190164789957,1145
2827.6746218675207,1186
2829.429884760661,1165
2831.184805462294,1220
2832.9393842763743,1185
2834.693621506936,1163
2836.4475174580916,1164
2838.201072434034,1131
2839.954286739034,1165
2841.707160677441,1164
2843.459694553685,1185
2845.2118886722724,1250
2846.96374333779,1171
2848.7152588549034,1195
2850.4664355283567,1173
2852.217273662973,1169
2853.9677735636546,1160
2855.7179355353833,1137
2857.4677598832186,1132
2859.217246912299,1136
2860.9663969278427,1188
2862.715210235146,1161
2864.4636871395846,1161
2866.211827946614,1156
2867.9596329617652,1152
2869.7071024906536,1112
2871.4542368389684,1183
2873.20103631248,1152
2874.947501217038,1160
2876.6936318585695,1225
2878.4394285430812,1188
2880.1848915766604,1160
2881.9300212654707,1221
2883.6748179157553,1198
2885.4192818338374,1207
2887.1634133261173,1185
2888.907212699077,1177
2890.6506802592744,1221
2892.393816313348,1192
2894.1366211680142,1132
2895.8790951300693,1204
2897.621238506388,1135
2899.363051603925,1121
2901.1045347297118,1175
2902.8456881908596,1127
2904.58651229456,1113
2906.327007348081,1149
2908.067173658772,1160
2909.8070115340597,1162
2911.5465212814497,1197
2913.285703208527,1186
2915.0245576229563,1203
2916.7630848324807,1167
2918.5012851449196,1131
2920.2391588681758,1171
2921.976706310227,1125
2923.7139277791334,1180
2925.4508235830313,1140
2927.187394030137,1183
2928.923639428745,1235
2930.6595600872306,1214
2932.395156314046,1195
2934.1304284177218,1162
2935.8653767068713,1174
2937.6000014901815,1241
2939.3343030764227,1175
2941.068281774442,1166
2942.8019378931644,1162
2944.5352717415976,1145
2946.2682836288236,1185
2948.0009738640065,1161
2949.7333427563885,1192
2951.465390615289,1144
2953.1971177501086,1179
2954.9285244703265,1147
2956.6596110855,1142
2958.3903779052657,1220
2960.1208252393385,1209
2961.8509533975125,1200
2963.5807626896617,1244
2965.3102534257378,1196
2967.0394259157715,1144
2968.768280469873,1177
2970.496817398232,1178
2972.2250370111146,1160
2973.952939618869,1156
2975.6805255319196,1220
2977.4077950607707,1157
2979.134748516006,1150
2980.861386208289,1203
2982.587708448359,1180
2984.313715547037,1175
2986.039407815222,1196
2987.764785563891,1205
2989.489849104102,1211
2991.2145987469908,1195
2992.9390348037705,1174
2994.6631575857346,1140
2996.3869674042576,1165
2998.1104645707887,1164
2999.83364939686,1213
3001.5565221940783,1139
3003.2790832741334,1169
3005.0013329487924,1142
3006.7232715298996,1156
3008.4448993293804,1073
3010.166216659239,1156
3011.887223831558,1159
3013.607921158498,1125
3015.3283089522993,1141
3017.0483875252826,1230
3018.7681571898443,1196
3020.4876182584626,1109
3022.2067710436927,1190
3023.9256158581707,1163
3025.644153014609,1149
3027.362382825801,1177
3029.0803056046193,1137
3030.797921664012,1153
3032.5152313170106,1186
3034.2322348767225,1133
3035.9489326563353,1183
3037.665324969115,1131
3039.3814121284063,1147
3041.097194447633,1168
3042.812672240299,1187
3044.5278458199855,1155
3046.2427155003525,1166
3047.9572815951406,1156
3049.671544418167,1144
3051.38550428333,1144
3053.0991615046073,1168
3054.812516396051,1140
3056.5255692717974,1136
3058.2383204460575,1213
3059.9507702331257,1178
3061.662918947372,1161
3063.3747669032446,1113
3065.0863144152736,1130
3066.7975617980674,1117
3068.508509366309,1162
3070.219157434767,1182
3071.9295063182844,1137
3073.639556331785,1195
3075.3493077902704,1115
3077.058761008821,1152
3078.7679163025964,1173
3080.476773986837,1111
3082.1853343768594,1105
3083.89359778806,1125
3085.6015645359153,1122
3087.3092349359786,1160
3089.016609303884,1155
3090.7236879553434,1155
3092.4304712061476,1146
3094.136959372166,1181
3095.843152769349,1198
3097.5490517137237,1149
3099.2546565213966,1117
3100.959967508554,1161
3102.66498499146,1168
3104.3697092864577,1203
3106.0741407099695,1125
3107.778279578498,1134
3109.482126208622,1189
3111.1856809170004,1194
3112.8889440203716,1170
3114.5919158355528,1199
3116.294596679439,1105
3117.996986869006,1142
3119.6990867213062,1162
3121.4008965534726,1155
3123.102416682717,1120
3124.803647426329,1155
3126.5045891016784,1186
3128.205242026213,1146
3129.90560651746,1080
3131.605682893025,1175
3133.3054714705922,1158
3135.0049725679282,1115
3136.7041865028714,1144
3138.4031135933465,1188
3140.101754157353,1165
3141.800108512971,1105
3143.498176978357,1148
3145.1959598717494,1136
3146.8934575114636,1153
3148.5906702158954,1108
3150.2875983035183,1163
3151.9842420928853,1117
3153.680601902627,1170
3155.376678051456,1139
3157.07247085816,1130
3158.767980641609,1158
3160.463207720748,1116
3162.158152414606,1127
3163.8528150422862,1116
3165.5471959229726,1167
3167.2412953759303,1128
3168.9351137204976,1136
3170.628651276098,1111
3172.3219083622307,1180
3174.014885298474,1160
3175.707582404485,1104
3177.4000000000005,1158
3179.092138404835,1143
3180.7839979388846,1145
3182.47557892212,1111
3184.166881674594,1144
3185.8579065164386,1138
3187.5486537678626,1156
3189.2391237491547,1152
3190.9293167806827,1107
3192.6192331828934,1091
3194.3088732763117,1160
3195.998237381542,1133
3197.687325819268,1117
3199.376138910251,1168
3201.064676975334,1142
3202.7529403354347,1145
3204.4409293115523,1135
3206.1286442247647,1117
3207.816085396229,1104
3209.5032531471825,1177
3211.190147798936,1125
3212.8767696728846,1197
3214.5631190905015,1095
3216.2491963733373,1101
3217.9350018430214,1127
3219.6205358212637,1111
3221.305798629851,1088
3222.990790590651,1101
3224.6755120256103,1154
3226.359963256751,1113
3228.0441446061795,1134
3229.7280563960758,1153
3231.411698948703,1098
3233.0950725863995,1132
3234.778177631587,1165
3236.461014406761,1161
3238.1435832345005,1159
3239.8258844374595,1106
3241.507918338374,1151
3243.1896852600576,1115
3244.8711855254023,1193
3246.552419457381,1118
3248.233387379042,1145
3249.914089613516,1156
3251.59452648401,1105
3253.274698313813,1193
3254.95460542629,1137
3256.6342481448855,1091
3258.313626793125,1121
3259.9927416946084,1151
3261.6715931730196,1104
3263.3501815521176,1120
3265.0285071557437,1085
3266.706570307815,1119
3268.3843713323286,1148
3270.0619105533615,1149
3271.739188295068,1140
3273.4162048816834,1125
3275.0929606375184,1172
3276.769455886966,1110
3278.445690954498,1097
3280.1216661646613,1129
3281.797381842087,1110
3283.4728383114807,1168
3285.1480358976296,1141
3286.8229749253996,1126
3288.4976557197333,1173
3290.172078605655,1167
3291.846243908266,1114
3293.5201519527463,1200
3295.193803064357,1103
3296.8671975684374,1117
3298.5403357904024,1124
3300.21321805575,1114
3301.8858446900567,1148
3303.558216018975,1106
3305.23033236824,1173
3306.9021940636603,1159
3308.57380143113,1119
3310.2451547966184,1172
3311.916254486174,1199
3313.5871008259246,1157
3315.2576941420766,1172
3316.9280347609147,1195
3318.5981230088046,1176
3320.2679592121895,1130
3321.9375436975924,1184
3323.606876791612,1162
3325.27595882093,1167
3326.944790112305,1164
3328.6133709925753,1103
3330.2817017886573,1131
3331.949782827547,1106
3333.617614436319,1147
3335.2851969421245,1152
3336.952530672199,1176
3338.619615953853,1141
3340.286453114475,1114
3341.9530424815357,1093
3343.619384382583,1132
3345.2854791452437,1149
3346.951327097224,1099
3348.6169285663073,1171
3350.2822838803577,1164
3351.947393367319,1171
3353.61225735521,1126
3355.2768761721345,1093
3356.9412501462693,1063
3358.605379605873,1131
3360.2692648792827,1123
3361.9329062949146,1183
3363.596304181263,1131
