CollectionTime,9/26/2024 8:02:49 AM
ExposureUsed,3
CalibratedSpectrum
-962.7078968117929,687
-959.9714848408522,761
-957.2358232597828,680
-954.5009119013725,681
-951.7667505983302,693
-949.0333391832855,615
-946.3006774887896,646
-943.5687653473143,641
-940.837602591253,789
-938.1071890529199,673
-935.3775245645503,685
-932.6486089583007,658
-929.9204420662485,736
-927.1930237203925,762
-924.4663537526524,712
-921.7404319948689,712
-919.0152582788041,751
-916.2908324361409,866
-913.5671542984834,769
-910.8442236973568,766
-908.1220404642074,738
-905.4006044304027,753
-902.679915427231,719
-899.959973285902,715
-897.2407778375464,728
-894.5223289132158,674
-891.8046263438832,630
-889.0876699604426,671
-886.3714595937089,715
-883.6559950744183,807
-880.9412762332282,790
-878.2273029007168,664
-875.5140749073835,690
-872.8015920836489,588
-870.0898542598545,590
-867.3788612662631,589
-864.6686129330585,567
-861.9591090903457,576
-859.2503495681506,571
-856.5423341964203,570
-853.8350628050229,610
-851.1285352237478,638
-848.4227512823054,640
-845.7177108103272,738
-843.0134136373656,782
-840.3098595928943,749
-837.6070485063082,725
-834.9049802069229,724
-832.2036545239757,699
-829.5030712866244,721
-826.8032303239481,761
-824.1041314649472,720
-821.4057745385428,619
-818.7081593735775,635
-816.0112857988148,655
-813.3151536429393,670
-810.6197627345566,686
-807.9251129021936,713
-805.2312039742981,640
-802.5380357792392,639
-799.8456081453069,708
-797.1539209007124,699
-794.462973873588,720
-791.772766891987,685
-789.083299783884,710
-786.3945723771743,706
-783.7065844996748,694
-781.0193359791231,670
-778.3328266431781,665
-775.6470563194197,655
-772.9620248353489,721
-770.2777320183878,659
-767.5941776958798,608
-764.9113616950891,569
-762.2292838432011,608
-759.5479439673222,614
-756.8673418944801,659
-754.1874774516235,704
-751.5083504656222,669
-748.8299607632671,717
-746.15230817127,768
-743.475392516264,724
-740.7992136248035,669
-738.1237713233636,698
-735.4490654383407,822
-732.7750957960521,756
-730.1018622227365,695
-727.4293645445534,665
-724.7576025875837,711
-722.0865761778291,700
-719.4162851412126,766
-716.7467293035781,824
-714.0779084906909,846
-711.409822528237,684
-708.7424712418238,751
-706.0758544569796,782
-703.4099719991541,732
-700.7448236937178,746
-698.0804093659622,758
-695.4167288411002,774
-692.7537819442656,805
-690.0915685005134,806
-687.4300883348199,741
-684.7693412720819,728
-682.1093271371178,645
-679.4500457546669,687
-676.7914969493897,745
-674.1336805458676,657
-671.4765963686034,637
-668.8202442420206,697
-666.1646239904642,641
-663.5097354382001,741
-660.8555784094151,764
-658.2021527282176,670
-655.5494582186366,685
-652.8974947046223,733
-650.2462620100463,769
-647.5957599587009,766
-644.9459883742998,803
-642.2969470804776,859
-639.6486359007902,867
-637.0010546587141,753
-634.3542031776476,697
-631.7080812809096,715
-629.0626887917401,1060
-626.4180255333008,1287
-623.7740913286734,1041
-621.1308860008619,800
-618.4884093727904,840
-615.8466612673046,839
-613.2056415071715,804
-610.5653499150785,843
-607.9257863136347,817
-605.28695052537,817
-602.6488423727357,824
-600.0114616781036,973
-597.3748082637674,1286
-594.7388819519412,1220
-592.1036825647604,1075
-589.4692099242818,1299
-586.8354638524829,1328
-584.2024441712624,1149
-581.5701507024403,910
-578.9385832677575,798
-576.3077416888759,968
-573.6776257873787,1214
-571.0482353847704,1231
-568.4195703024757,993
-565.7916303618415,830
-563.164415384135,783
-560.5379251905453,807
-557.9121596021815,894
-555.2871184400748,934
-552.6628015251767,871
-550.0392086783606,983
-547.4163397204204,1004
-544.794194472071,1020
-542.1727727539491,1001
-539.5520743866118,1011
-536.9320991905377,1022
-534.3128469861261,1196
-531.6943175936979,1165
-529.0765108334947,1270
-526.4594265256793,1416
-523.8430644903358,1571
-521.2274245474689,1725
-518.612506517005,1901
-515.9983102187913,2153
-513.3848354725959,2540
-510.77208209810846,2586
-508.16004991493924,2820
-505.5487387426199,2834
-502.9381484006032,2448
-500.3282787082628,2181
-497.71912948489364,1860
-495.1107005497117,1501
-492.5029917218539,1336
-489.8960028203786,1159
-487.28973366426493,1024
-484.68418407241325,994
-482.07935386364494,1087
-479.47524285670266,1010
-476.87185087025,1081
-474.2691777228715,1043
-471.66722323307334,961
-469.0659872192821,1005
-466.4654694998459,1026
-463.86566989303384,990
-461.26658821703614,1148
-458.66822428996414,1163
-456.07057792985,1045
-453.4736489546475,1167
-450.877437182231,980
-448.28194243039627,967
-445.68716451686,1014
-443.09310325926003,967
-440.49975847515555,979
-437.9071299820263,1026
-435.31521759727354,1069
-432.72402113821954,1429
-430.13354042210767,1113
-427.5437752661022,1024
-424.95472548728867,1175
-422.36639090267386,1243
-419.7787713291855,1550
-417.1918665836721,1630
-414.60567648290385,1451
-412.0202008435715,1221
-409.4354394822874,1376
-406.8513922155845,1354
-404.26805885991723,1286
-401.685439231661,1165
-399.103533147112,1007
-396.522340422488,1120
-393.9418608739278,1197
-391.3620943174908,1318
-388.7830405691583,1249
-386.2046994448317,1180
-383.6270707603344,1353
-381.05015433141045,1364
-378.473949973725,1064
-375.8984575028645,1034
-373.32367673433623,984
-370.74960748356875,881
-368.1762495659117,926
-365.60360279663576,1084
-363.03166699093265,1030
-360.4604419639154,916
-357.8899275306178,851
-355.32012350599507,816
-352.7510297049233,805
-350.1826459421999,805
-347.61497203254316,786
-345.04800779059235,913
-342.4817530309082,1392
-339.91620756797226,1410
-337.35137121618743,1354
-334.7872437898774,1366
-332.22382510328725,1607
-329.66111497058273,1406
-327.09911320585127,940
-324.53781962310075,835
-321.9772340362607,818
-319.4173562591816,960
-316.8581861056348,910
-314.2997233893127,848
-311.7419679238294,1022
-309.1849195227194,1013
-306.62857799943856,1133
-304.0729431673641,1075
-301.51801483979375,1138
-298.963792829947,1247
-296.41027695096386,1353
-293.85746701590574,1717
-291.3053628377552,1684
-288.7539642294155,1612
-286.2032710037115,1652
-283.65328297338897,2154
-281.1039999511146,2530
-278.5554217494762,2758
-276.007548180983,1687
-273.4603790580651,1147
-270.9139141930734,1322
-268.3681533982807,1681
-265.8230964858798,1999
-263.27874326798565,1636
-260.7350935566336,1443
-258.1921471637804,1612
-255.6499039013039,1697
-253.10836358100266,1278
-250.56752601459698,1665
-248.02739101372765,2395
-245.48795838995704,2304
-242.94922795476816,1880
-240.41119951956557,1464
-237.8738728956746,1689
-235.33724789434166,1788
-232.80132432673452,1568
-230.2661020039418,1629
-227.73158073697357,2023
-225.19776033676033,2383
-222.66464061415422,2275
-220.1322213799284,1755
-217.60050244477725,1716
-215.06948361931552,2485
-212.53916471408013,3163
-210.00954553952818,3145
-207.48062590603843,2107
-204.9524056239104,1921
-202.4248845033651,2177
-199.8980623545441,2683
-197.37193898751036,2664
-194.84651421224817,1822
-192.32178783866232,2092
-189.79775967657952,2849
-187.27442953574644,3630
-184.7517972258321,3314
-182.2298625564256,2534
-179.7086253370378,2658
-177.18808537710026,3289
-174.66824248596583,3886
-172.14909647290835,3632
-169.6306471471229,2443
-167.11289431772548,2328
-164.59583779375328,2732
-162.07947738416453,3772
-159.5638128978386,4532
-157.04884414357605,4733
-154.53457093009854,3332
-152.02099306604828,2825
-149.50811035998936,2797
-146.99592262040665,3727
-144.48442965570587,5474
-141.97363127421409,7566
-139.46352728417958,6249
-136.95411749377126,4286
-134.44540171107985,3175
-131.93737974411636,3064
-129.43005140081357,4887
-126.92341648902493,8428
-124.41747481652521,12840
-121.91222619101006,11964
-119.40767042009657,9089
-116.90380731132257,6802
-114.40063667214702,4411
-111.8981583099503,4601
-109.3963720320337,8545
-106.89527764561933,16926
-104.39487495785067,27534
-101.89516377579241,29288
-99.39614390642998,25034
-96.89781515667039,17080
-94.40017733334128,14942
-91.90323024319173,12564
-89.40697369289148,12643
-86.91140748903172,19942
-84.41653143812482,38205
-81.92234534660395,58627
-79.42884902082358,65026
-76.93604226705907,65026
-74.4439248915071,65026
-71.95249670028534,65026
-69.46175749943245,65026
-66.97170709490854,65026
-64.48234529259423,65026
-61.99367189829195,65026
-59.50568671772464,65026
-57.01838955653636,65026
-54.53178022029283,65026
-52.045858514480074,65026
-49.560624244506016,53666
-47.07607721569923,34188
-44.59221723330904,40008
-42.10904410250669,44970
-39.62655762838392,47185
-37.14475761595372,58640
-34.66364387015028,59077
-32.18321619582866,65026
-29.70347439776515,65026
-27.224418280657005,65026
-24.74604764912317,65026
-22.26836230770266,65026
-19.7913620608565,65026
-17.315046712966478,65026
-14.83941606833514,65026
-12.36446993118659,65026
-9.89020810566592,65026
-7.416630395839093,65026
-4.94373660569363,65026
-2.471526539137585,65026
-6.821210263296962E-13,65026
2.47084320796705,65026
4.941003281093458,65026
7.410480415786196,65026
9.879274808531363,65026
12.347386655893956,65026
14.814816154518212,65026
17.28156350112681,65026
19.74762889252179,65026
22.21301252558385,30173
24.67771459727237,12259
27.141735304626195,13699
29.605074844762612,11834
32.06773341487792,11418
34.52971121224755,11884
36.99100843422559,15160
39.45162527824516,13207
41.91156194181792,11614
44.370818622535126,9360
46.82939551806646,9593
49.287292826160524,12344
51.74451074464503,11271
54.201049471426245,9667
56.65690920448981,7669
59.112090141899785,6797
61.56659248179983,5590
64.02041642241159,4494
66.4735621620365,5340
68.92602989905402,6629
71.37781983192338,6405
73.82893215918205,7213
76.27936707944684,7193
78.72912479141326,6661
81.17820549385567,7902
83.62660938562783,6590
86.07433666566146,5868
88.5213875329681,4387
90.96776218663751,5083
93.41346082583925,5087
95.85848364982041,4584
98.30283085790859,7461
100.7465026495089,7397
103.18949922410604,5511
105.63182078126385,4634
108.07346752062438,4027
110.51443964190923,2885
112.95473734491827,3363
115.39436082953114,4210
117.83331029570547,4623
120.27158594347827,4137
122.7091879729652,3441
125.1461165843615,3642
127.58237197794062,4273
130.01795435405518,3909
132.4528639131364,3283
134.88710085569494,3843
137.32066538231982,3781
139.75355769367923,3234
142.1857779905207,3068
144.61732647366978,3457
147.04820334403132,3256
149.47840880258934,2634
151.90794305040674,2807
154.33680628862487,2857
156.76499871846443,2550
159.19252054122433,2575
161.61937195828352,2673
164.04555317109896,3206
166.47106438120693,3199
168.89590579022217,2954
171.320077599839,3083
173.7435800118302,3789
176.16641322804742,4097
178.58857745042144,3622
181.01007288096173,3894
183.43089972175687,4144
185.85105817497413,3367
188.27054844285988,2866
190.6893707277394,2982
193.10752523201643,3540
195.5250121581745,3354
197.9418317087751,2949
200.3579840864594,3134
202.7734694939469,3303
205.18828813403627,3112
207.6024402096051,2992
210.01592592360964,3174
212.42874547908548,2924
214.84089907914665,3111
217.2523869269868,3269
219.66320922587727,3043
222.0733661791695,2724
224.48285799029293,2852
226.8916848627572,3068
229.29984700014882,2828
231.7073446061355,2934
234.11417788446204,3125
236.520347038953,3288
238.92585227351185,3232
241.33069379212054,2989
243.73487179884035,2912
246.1383864978112,3119
248.541238093252,3374
250.9434267894609,3212
253.34495279081432,3043
255.74581630176783,2764
258.1460175268563,2732
260.54555667069314,2869
262.9444339379703,3331
265.3426495334594,3525
267.7402036620107,3485
270.1370965285529,3322
272.53332833809407,3223
274.9288992957214,3466
277.32380960660055,3429
279.718059475976,3223
282.1116491091717,2863
284.5045787115897,2731
286.89684848871195,2730
289.2884586460981,2802
291.67940938938807,3251
294.0697009242996,3010
296.4593334566299,3176
298.84830719225477,3322
301.23662233712923,3076
303.6242790972866,2846
306.01127767884,2913
308.39761828798066,2886
310.78330113097934,2712
313.16832641418534,2485
315.5526943440269,2603
317.9364051270112,2854
320.3194589697242,2913
322.70185607883093,2644
325.0835966610754,2635
327.4646809232805,2693
329.8451090723478,2743
332.2248813152577,2634
334.6039978590701,2489
336.9824589109231,2463
339.36026467803447,2345
341.7374153677,2339
344.113911187295,2316
346.48975234427337,2259
348.8649390461686,2390
351.2394715005918,2368
353.61334991523415,2268
355.9865744978655,2215
358.35914545633375,2293
360.73106299856715,2313
363.10232733257146,2451
365.47293866643247,2560
367.84289720831396,2399
370.2122031664593,2278
372.5808567491905,2179
374.9488581649083,2141
377.31620762209275,2110
379.6829053293021,2114
382.0489514951745,2191
384.4143463284262,2286
386.7790900378528,2252
389.14318283232853,2208
391.50662492080653,2379
393.86941651231916,2599
396.23155781597745,2883
398.5930490409713,2584
400.9538903965696,2358
403.3140820921202,2445
405.6736243370498,2383
408.03251734086336,2263
410.3907613131465,2206
412.74835646356166,2201
415.10530300185144,2146
417.4616011378372,2189
419.81725108141893,2078
422.1722530425758,2050
424.5266072313656,2286
426.880313857925,2085
429.2333731324701,2051
431.58578526529516,2021
433.9375504667738,1987
436.2886689473588,2023
438.63914091758113,1965
440.9889665880513,1913
443.33814616945835,1921
445.68667987257015,2013
448.03456790823395,2038
450.3818104873759,2033
452.72840782100013,1934
455.07436012019105,1893
457.41966759611057,1937
459.7643304600007,1894
462.10834892318155,1940
464.4517231970525,2109
466.79445349309174,2035
469.1365400228566,1983
471.4779829979826,2114
473.81878263018564,2000
476.15893913125876,2028
478.4984527130747,2273
480.8373235875855,2279
483.17555196682144,2204
485.5131380628919,2269
487.8500820879857,2265
490.1863842543697,2354
492.52204477439034,2670
494.8570638604725,3183
497.1914417251204,3652
499.52517858091653,4359
501.85827464052306,5427
504.19073011668036,6042
506.5225452222086,6607
508.85372017000566,6865
511.18425517304956,7321
513.514150444396,8372
515.8434061971808,9655
518.1720226446176,9938
520.4999999999999,9310
522.8273384766991,8316
525.1540382881666,7267
527.480099647932,5883
529.8055227696037,4141
532.1303078668694,3164
534.454455153496,2844
536.777964843328,2539
539.1008371502907,2392
541.4230722883866,2451
543.744670471698,2426
546.0656319143858,2368
548.3859568306899,2409
550.7056454349294,2594
553.0246979415016,2642
555.3431145648834,2454
557.6608955196306,2138
559.978041020377,2191
562.2945512818363,2202
564.6104265188006,2127
566.9256669461412,2084
569.2402727788082,2250
571.5542442318302,2254
573.8675815203156,2098
576.1802848594508,2081
578.4923544645015,2193
580.8037905508126,2133
583.114593333807,2058
585.4247630289875,2189
587.7342998519354,2189
590.0432040183106,2305
592.3514757438526,2016
594.6591152443794,2112
596.9661227357875,2170
599.2724984340531,2182
601.578242555231,2132
603.8833553154542,2056
606.1878369309362,2042
608.4916876179676,2004
610.7949075929192,1977
613.0974970722403,2028
615.3994562724587,1980
617.7007854101818,2022
620.0014847020951,1953
622.3015543649641,1997
624.6009946156324,1962
626.8998056710224,1958
629.1979877481361,1960
631.4955410640538,1872
633.7924658359349,1925
636.0887622810175,1921
638.3844306166192,1906
640.6794710601358,1943
642.9738838290426,2126
645.2676691408932,2116
647.5608272133207,2150
649.853358264037,2032
652.1452625108324,1980
654.4365401715764,1957
656.7271914642178,2072
659.0172166067838,2084
661.3066158173809,2057
663.5953893141935,2033
665.8835373154867,2071
668.1710600396028,2131
670.4579577049639,2125
672.7442305300709,1884
675.0298787335033,1988
677.3149025339197,2008
679.599302150058,1888
681.8830778007342,2074
684.1662297048437,2062
686.4487580813608,2003
688.7306631493387,2034
691.0119451279091,1967
693.2926042362834,1978
695.5726406937516,2020
697.8520547196814,1974
700.1308465335215,1959
702.4090163547982,1924
704.6865644031171,1934
706.9634908981619,1845
709.2397960596965,1819
711.5154801075631,1935
713.7905432616823,1977
716.0649857420548,1941
718.3388077687592,1861
720.612009561953,1886
722.8845913418733,1864
725.1565533288352,1854
727.427895743234,1912
729.6986188055427,1957
731.9687227363137,2048
734.238207756178,2027
736.5070740858458,1936
738.7753219461066,1992
741.0429515578281,2004
743.3099631419569,1989
745.5763569195191,1913
747.8421331116193,1869
750.1072919394409,1987
752.3718336242467,2081
754.6357583873777,1949
756.8990664502545,1975
759.1617580343765,1905
761.423833361321,1934
763.6852926527457,1918
765.9461361303862,1966
768.206364016058,2056
770.4659765316536,2038
772.7249738991469,2096
774.9833563405886,1983
777.2411240781092,2036
779.4982773339183,1962
781.7548163303044,1941
784.010741289634,2064
786.2660524343538,2063
788.5207499869881,2110
790.7748341701416,2072
793.0283052064964,2052
795.2811633188143,1942
797.5334087299362,2011
799.7850416627813,2051
802.0360623403484,2059
804.2864709857143,2287
806.5362678220353,2128
808.7854530725468,1966
811.0340269605625,2071
813.2819897094754,2194
815.5293415427581,2078
817.77608268396,2024
820.0222133567116,1939
822.2677337847211,2265
824.5126441917765,2278
826.7569448017433,2082
829.0006358385675,2017
831.2437175262731,1986
833.4861900889629,2093
835.7280537508192,2068
837.9693087361026,1882
840.2099552691533,1874
842.4499935743896,1923
844.689423876309,1952
846.9282463994886,1978
849.1664613685833,1920
851.4040690083276,1925
853.6410695435349,1902
855.877463199097,1984
858.1132501999847,2057
860.3484307712487,1996
862.5830051380175,1933
864.8169735254988,1910
867.0503361589791,1990
869.2830932638243,2062
871.5152450654786,2030
873.7467917894654,1991
875.9777336613873,2111
878.2080709069252,1990
880.4378037518389,2049
882.666932421968,2189
884.8954571432301,2147
887.1233781416219,2246
889.3506956432192,2029
891.5774098741766,1945
893.803521060728,1889
896.0290294291852,1975
898.2539352059397,2008
900.4782386174619,2282
902.7019398903011,2238
904.925039251085,2026
907.147536926521,2061
909.3694331433943,2006
911.59072812857,2053
913.8114221089921,2045
916.0315153116827,2030
918.2510079637437,2037
920.4699002923547,2062
922.6881925247761,2129
924.905884888345,2073
927.1229776104793,2105
929.3394709186747,2055
931.555365040506,1993
933.7706602036275,2043
935.9853566357709,2108
938.1994545647489,2341
940.4129542184515,2190
942.6258558248488,2233
944.8381596119883,2341
947.0498658079974,2447
949.2609746410825,2235
951.4714863395287,2156
953.6814011316998,2146
955.8907192460387,2091
958.0994409110671,2272
960.3075663553858,2314
962.5150958076741,2314
964.7220294966913,2248
966.928367651274,2088
969.1341105003388,2211
971.3392582728806,2156
973.5438111979742,2064
975.747769504772,1985
977.9511334225061,1961
980.153903180487,2108
982.3560790081052,1911
984.5576611348289,2052
986.7586497902058,2055
988.9590452038618,2083
991.158847605503,2093
993.3580572249133,2104
995.5566742919558,1940
997.7546990365728,1872
999.952131688785,1796
1002.1489724786926,1713
1004.3452216364743,1701
1006.5408793923874,1649
1008.7359459767691,1649
1010.9304216200343,1696
1013.1243065526781,1716
1015.3176010052733,1643
1017.510305208472,1656
1019.7024193930064,1935
1021.8939437896848,1870
1024.0848786293977,1609
1026.2752241431122,1557
1028.4649805618747,1578
1030.6541481168115,1581
1032.842727039127,1501
1035.0307175601051,1534
1037.2181199111074,1514
1039.4049343235752,1485
1041.591161029029,1528
1043.7768002590683,1461
1045.9618522453698,1450
1048.1463172196918,1552
1050.3301954138697,1487
1052.513487059818,1553
1054.69619238953,1509
1056.8783116350783,1495
1059.0598450286152,1626
1061.2407928023704,1531
1063.4211551886528,1505
1065.6009324198508,1504
1067.780124728432,1466
1069.9587323469414,1423
1072.1367555080046,1389
1074.314194444325,1442
1076.4910493886855,1462
1078.667320573947,1406
1080.843008233051,1404
1083.0181125990161,1345
1085.1926339049414,1370
1087.3665723840027,1395
1089.5399282694575,1391
1091.7127017946405,1448
1093.8848931929647,1401
1096.0565026979243,1387
1098.2275305430899,1410
1100.3979769621128,1443
1102.567842188722,1466
1104.737126456726,1453
1106.9058300000124,1443
1109.0739530525475,1430
1111.2414958483764,1387
1113.4084586216231,1436
1115.5748416064907,1394
1117.7406450372605,1448
1119.9058691482942,1424
1122.0705141740304,1414
1124.2345803489884,1384
1126.3980679077658,1362
1128.5609770850388,1463
1130.7233081155623,1341
1132.8850612341707,1288
1135.0462366757774,1319
1137.2068346753745,1353
1139.3668554680326,1356
1141.526299288901,1345
1143.68516637321,1338
1145.8434569562655,1318
1148.001171273455,1284
1150.158309560244,1365
1152.3148720521767,1345
1154.470858984876,1363
1156.626270594044,1327
1158.7811071154629,1368
1160.9353687849912,1366
1163.089055838569,1483
1165.242168512213,1414
1167.3947070420209,1393
1169.5466716641677,1373
1171.6980626149075,1381
1173.8488801305748,1526
1175.9991244475814,1355
1178.1487958024186,1431
1180.2978944316555,1425
1182.4464205719428,1357
1184.5943744600072,1357
1186.7417563326567,1299
1188.8885664267755,1297
1191.0348049793297,1280
1193.1804722273619,1339
1195.325568407995,1329
1197.4700937584303,1317
1199.614048515948,1297
1201.7574329179074,1273
1203.900247201746,1325
1206.042491604982,1350
1208.1841663652099,1307
1210.3252717201053,1309
1212.465807907422,1324
1214.6057751649923,1320
1216.7451737307279,1362
1218.8840038426192,1416
1221.0222657387353,1386
1223.1599596572241,1339
1225.2970858363137,1273
1227.4336445143094,1305
1229.5696359295966,1262
1231.705060320639,1321
1233.8399179259786,1374
1235.9742089842384,1371
1238.107933734118,1372
1240.2410924143974,1330
1242.373685263935,1393
1244.5057125216676,1369
1246.6371744266116,1463
1248.7680712178621,1378
1250.898403134593,1388
1253.028170416058,1308
1255.1573733015875,1334
1257.2860120305932,1412
1259.4140868425648,1463
1261.54159797707,1361
1263.6685456737569,1522
1265.7949301723515,1490
1267.9207517126597,1405
1270.046010534565,1374
1272.1707068780306,1362
1274.2948409830983,1363
1276.4184130898889,1334
1278.541423438603,1340
1280.6638722695184,1299
1282.785759822993,1336
1284.9070863394636,1387
1287.0278520594447,1278
1289.1480572235314,1410
1291.2677020723963,1389
1293.3867868467923,1405
1295.5053117875495,1294
1297.623277135579,1331
1299.740683131868,1370
1301.8575300174857,1464
1303.973818033578,1478
1306.0895474213703,1434
1308.2047184221678,1424
1310.3193312773528,1493
1312.4333862283888,1435
1314.5468835168163,1360
1316.659823384255,1326
1318.7722060724045,1269
1320.8840318230418,1319
1322.9953008780249,1353
1325.1060134792888,1300
1327.2161698688478,1309
1329.3257702887959,1399
1331.4348149813054,1316
1333.5433041886276,1312
1335.6512381530933,1223
1337.7586171171101,1334
1339.8654413231675,1261
1341.9717110138317,1268
1344.0774264317488,1325
1346.1825878196432,1353
1348.2871954203192,1312
1350.3912494766587,1286
1352.4947502316231,1367
1354.5976979282532,1286
1356.7000928096686,1267
1358.8019351190665,1257
1360.9032250997243,1265
1363.0039629949988,1276
1365.1041490483235,1236
1367.2037835032133,1308
1369.3028666032606,1334
1371.401398592137,1351
1373.4993797135926,1335
1375.5968102114575,1323
1377.6936903296396,1345
1379.7900203121262,1323
1381.8858004029835,1356
1383.9810308463561,1265
1386.075711886469,1326
1388.1698437676241,1293
1390.2634267342032,1444
1392.356461030667,1477
1394.4489469015557,1356
1396.5408845914872,1287
1398.6322743451592,1305
1400.7231164073469,1371
1402.813411022907,1347
1404.903158436773,1369
1406.9923588939578,1429
1409.0810126395531,1402
1411.1691199187303,1391
1413.2566809767386,1307
1415.343696058907,1352
1417.4301654106425,1379
1419.5160892774315,1366
1421.6014679048399,1329
1423.6863015385125,1307
1425.7705904241707,1356
1427.8543348076178,1359
1429.9375349347342,1314
1432.0201910514802,1325
1434.102303403894,1346
1436.1838722380944,1335
1438.2648978002767,1366
1440.3453803367174,1347
1442.4253200937692,1379
1444.5047173178677,1329
1446.5835722555234,1355
1448.6618851533285,1365
1450.739656257952,1355
1452.8168858161434,1368
1454.8935740747306,1297
1456.96972128062,1358
1459.045327680797,1331
1461.120393522327,1314
1463.1949190523528,1398
1465.2689045180973,1313
1467.3423501668608,1314
1469.415256246024,1323
1471.4876230030463,1380
1473.559450685465,1322
1475.6307395408976,1384
1477.7014898170391,1467
1479.771701761665,1340
1481.8413756226287,1359
1483.9105116478618,1326
1485.9791100853772,1302
1488.0471711832643,1398
1490.1146951896926,1356
1492.1816823529098,1329
1494.2481329212433,1371
1496.3140471430984,1324
1498.3794252669609,1375
1500.4442675413939,1330
1502.5085742150404,1364
1504.572345536622,1381
1506.6355817549388,1334
1508.6982831188702,1298
1510.7604498773744,1316
1512.8220822794883,1366
1514.8831805743293,1361
1516.9437450110909,1301
1519.003775839048,1361
1521.0632733075522,1336
1523.1222376660367,1356
1525.1806691640113,1249
1527.2385680510652,1276
1529.2959345768668,1306
1531.3527689911643,1324
1533.4090715437833,1362
1535.4648424846291,1339
1537.5200820636855,1348
1539.5747905310159,1351
1541.6289681367616,1327
1543.6826151311434,1356
1545.7357317644614,1408
1547.7883182870937,1325
1549.8403749494987,1297
1551.8919020022113,1315
1553.9428996958477,1361
1555.9933682811015,1308
1558.0433080087469,1356
1560.0927191296346,1345
1562.1416018946961,1339
1564.1899565549415,1358
1566.2377833614592,1361
1568.2850825654164,1342
1570.3318544180606,1399
1572.3780991707158,1278
1574.423817074788,1387
1576.4690083817595,1300
1578.5136733431923,1331
1580.5578122107272,1246
1582.601425236085,1325
1584.6445126710646,1322
1586.6870747675434,1293
1588.7291117774776,1328
1590.7706239529034,1305
1592.8116115459347,1287
1594.8520748087658,1322
1596.8920139936686,1320
1598.9314293529933,1326
1600.9703211391711,1270
1603.008689604711,1311
1605.0465350022005,1357
1607.0838575843068,1297
1609.1206576037753,1301
1611.1569353134305,1313
1613.1926909661765,1315
1615.2279248149953,1353
1617.2626371129481,1281
1619.2968281131757,1295
1621.3304980688963,1382
1623.3636472334088,1338
1625.39627586009,1330
1627.428384202396,1261
1629.459972513861,1316
1631.4910410480993,1303
1633.5215900588028,1374
1635.551619799744,1431
1637.5811305247717,1422
1639.6101224878166,1315
1641.6385959428862,1371
1643.6665511440683,1378
1645.693988345528,1308
1647.7209078015112,1351
1649.7473097663405,1333
1651.7731944944203,1398
1653.7985622402307,1391
1655.823413258333,1344
1657.847747803366,1291
1659.8715661300494,1347
1661.8948684931793,1371
1663.9176551476316,1353
1665.9399263483624,1341
1667.9616823504057,1322
1669.982923408873,1301
1672.0036497789574,1353
1674.0238617159293,1357
1676.043559475138,1335
1678.0627433120121,1285
1680.081413482059,1274
1682.0995702408654,1356
1684.117213844096,1328
1686.134344547495,1346
1688.1509626068864,1243
1690.1670682781705,1303
1692.182661817329,1297
1694.1977434804217,1313
1696.2123135235875,1379
1698.226372203043,1423
1700.2399197750851,1326
1702.2529564960905,1366
1704.2654826225112,1391
1706.277498410882,1296
1708.2890041178139,1349
1710.2999999999988,1372
1712.3104863142066,1300
1714.3204633172854,1285
1716.329931266163,1327
1718.3388904178469,1342
1720.3473410294214,1374
1722.3552833580516,1397
1724.3627176609807,1338
1726.3696441955308,1313
1728.3760632191033,1348
1730.3819749891782,1323
1732.3873797633146,1341
1734.3922777991502,1342
1736.3966693544012,1308
1738.4005546868639,1331
1740.4039340544127,1328
1742.406807715001,1338
1744.4091759266616,1316
1746.4110389475054,1366
1748.4123970357223,1317
1750.413250449582,1313
1752.4135994474318,1349
1754.4134442876993,1332
1756.4127852288902,1359
1758.4116225295893,1367
1760.4099564484595,1358
1762.407787244244,1367
1764.405115175764,1302
1766.4019405019203,1275
1768.3982634816916,1274
1770.3940843741357,1373
1772.3894034383907,1358
1774.3842209336717,1397
1776.378537119274,1306
1778.372352254571,1294
1780.3656665990156,1266
1782.3584804121397,1271
1784.3507939535534,1311
1786.3426074829463,1370
1788.3339212600863,1308
1790.3247355448211,1350
1792.3150505970766,1314
1794.3048666768573,1353
1796.2941840442477,1330
1798.2830029594106,1335
1800.2713236825884,1293
1802.2591464741004,1283
1804.2464715943465,1342
1806.2332993038058,1333
1808.2196298630352,1343
1810.2054635326708,1357
1812.190800573428,1308
1814.175641246101,1323
1816.1599858115628,1380
1818.1438345307652,1365
1820.127187664738,1340
1822.1100454745924,1350
1824.092408221516,1368
1826.0742761667766,1376
1828.055649571721,1345
1830.0365286977735,1337
1832.0169138064398,1328
1833.9968051593014,1354
1835.9762030180214,1356
1837.9551076443408,1356
1839.9335193000788,1335
1841.9114382471344,1283
1843.888864747485,1313
1845.8657990631878,1379
1847.842241456378,1325
1849.8181921892697,1293
1851.7936515241558,1360
1853.7686197234098,1313
1855.7430970494815,1273
1857.7170837649014,1352
1859.6905801322787,1298
1861.6635864143004,1340
1863.6361028737338,1329
1865.608129773424,1326
1867.5796673762961,1390
1869.5507159453537,1352
1871.521275743678,1315
1873.4913470344313,1397
1875.4609300808534,1332
1877.4300251462632,1308
1879.3986324940588,1339
1881.366752387717,1341
1883.3343850907936,1376
1885.3015308669228,1379
1887.268189979819,1366
1889.2343626932739,1299
1891.2000492711595,1324
1893.1652499774254,1299
1895.1299650761011,1342
1897.0941948312952,1362
1899.0579395071945,1345
1901.0211993680641,1374
1902.98397467825,1318
1904.9462657021745,1369
1906.9080727043415,1452
1908.869395949332,1382
1910.8302357018065,1311
1912.790592226504,1338
1914.7504657882428,1369
1916.7098566519212,1351
1918.6687650825133,1337
1920.6271913450764,1337
1922.5851357047422,1306
1924.5425984267245,1346
1926.499579776314,1326
1928.4560800188833,1384
1930.4120994198802,1393
1932.367638244833,1375
1934.32269675935,1358
1936.2772752291175,1390
1938.231373919899,1386
1940.1849930975404,1412
1942.1381330279637,1397
1944.0907939771696,1400
1946.0429762112412,1365
1947.9946799963363,1374
1949.9459055986945,1405
1951.896653284633,1400
1953.8469233205478,1319
1955.7967159729142,1326
1957.7460315082863,1274
1959.6948701932974,1344
1961.6432322946594,1334
1963.5911180791632,1358
1965.5385278136787,1330
1967.4854617651545,1426
1969.4319202006182,1328
1971.377903387176,1308
1973.3234115920136,1311
1975.268445082395,1304
1977.2130041256642,1363
1979.1570889892423,1363
1981.1006999406304,1345
1983.04383724741,1366
1984.986501177238,1452
1986.928691997853,1391
1988.8704099770712,1408
1990.811655382789,1375
1992.7524284829801,1363
1994.692729545698,1328
1996.6325588390755,1382
1998.5719166313224,1383
2000.5108031907307,1347
2002.4492187856677,1347
2004.387163684583,1350
2006.3246381560011,1368
2008.2616424685298,1320
2010.1981768908527,1359
2012.1342416917332,1379
2014.069837140014,1391
2016.0049635046162,1367
2017.9396210545406,1298
2019.8738100588666,1273
2021.8075307867502,1325
2023.740783507431,1388
2025.6735684902228,1388
2027.6058860045214,1379
2029.5377363198004,1349
2031.4691197056118,1347
2033.4000364315875,1408
2035.3304867674374,1421
2037.260470982952,1389
2039.189989347998,1328
2041.1190421325232,1319
2043.047629606554,1277
2044.9757520401945,1261
2046.9034097036288,1343
2048.8306028671195,1343
2050.7573318010086,1322
2052.683596775716,1381
2054.609398061742,1375
2056.5347359296647,1361
2058.4596106501403,1332
2060.384022493906,1342
2062.3079717317764,1354
2064.231458634646,1301
2066.1544834734873,1330
2068.077046519352,1337
2069.99914804337,1304
2071.9207883167524,1351
2073.8419676107865,1339
2075.7626861968406,1341
2077.6829443463607,1303
2079.6027423308715,1336
2081.522080421977,1314
2083.440958891362,1294
2085.359378010786,1353
2087.2773380520907,1375
2089.194839287196,1307
2091.111881988101,1347
2093.0284664268825,1308
2094.9445928756973,1272
2096.86026160678,1359
2098.775472892446,1357
2100.690227005088,1355
2102.604524217178,1386
2104.5183648012676,1368
2106.431749029985,1354
2108.34467717604,1350
2110.2571495122206,1349
2112.169166311393,1406
2114.080727846503,1393
2115.9918343905747,1297
2117.902486216711,1347
2119.8126835980956,1278
2121.722426807987,1364
2123.6317161197285,1295
2125.5405518067364,1315
2127.448934142509,1311
2129.356863400624,1332
2131.264339854737,1380
2133.1713637785815,1348
2135.077935445972,1358
2136.9840551308002,1293
2138.889723107037,1324
2140.7949396487334,1309
2142.699705030018,1400
2144.6040195250994,1406
2146.507883408264,1378
2148.4112969538774,1369
2150.3142604363848,1375
2152.2167741303097,1377
2154.1188383102535,1342
2156.0204532508997,1357
2157.9216192270064,1377
2159.822336513414,1330
2161.7226053850413,1339
2163.622426116884,1360
2165.5217989840185,1371
2167.4207242616,1348
2169.319202224862,1326
2171.2172331491165,1335
2173.1148173097563,1340
2175.0119549822507,1409
2176.90864644215,1420
2178.8048919650823,1363
2180.7006918267534,1332
2182.596046302952,1314
2184.4909556695407,1338
2186.3854202024645,1273
2188.279440177746,1417
2190.173015871487,1351
2192.066147559868,1417
2193.958835519149,1376
2195.851080025667,1389
2197.7428813558417,1321
2199.6342397861667,1413
2201.5251555932186,1364
2203.415629053651,1371
2205.3056604441986,1361
2207.19525004167,1350
2209.084398122958,1354
2210.9731049650327,1411
2212.861370844941,1390
2214.749196039812,1378
2216.636580826851,1381
2218.523525483344,1433
2220.410030286655,1315
2222.296095514226,1401
2224.1817214435805,1384
2226.066908352319,1366
2227.951656518121,1376
2229.835966218746,1349
2231.71983773203,1375
2233.6032713358913,1342
2235.486267308324,1358
2237.3688259274036,1331
2239.2509474712824,1403
2241.132632218193,1356
2243.013880446447,1377
2244.8946924344323,1364
2246.7750684606203,1408
2248.6550088035574,1374
2250.534513741871,1351
2252.413583554265,1378
2254.292218519526,1375
2256.170418916517,1386
2258.0481850241786,1415
2259.925517121534,1307
2261.8024154876825,1364
2263.678880401803,1295
2265.5549121431536,1376
2267.430510991071,1350
2269.305677224971,1378
2271.180411124348,1416
2273.0547129687766,1335
2274.9285830379076,1354
2276.8020216114737,1382
2278.6750289692845,1375
2280.5476053912294,1434
2282.4197511572766,1351
2284.2914665474727,1410
2286.162751841943,1346
2288.0336073208937,1338
2289.904033264608,1352
2291.774029953448,1396
2293.6435976678554,1401
2295.5127366883517,1382
2297.381447295534,1325
2299.2497297700825,1350
2301.1175843927526,1255
2302.9850114443825,1276
2304.852011205885,1271
2306.7185839582553,1197
2308.5847299825664,1236
2310.4504495599676,1214
2312.3157429716925,1187
2314.1806104990483,1186
2316.0450524234247,1218
2317.9090690262888,1229
2319.772660589186,1169
2321.635827393742,1180
2323.498569721661,1177
2325.3608878547248,1135
2327.2227820747967,1178
2329.0842526638157,1178
2330.945299903803,1190
2332.805924076857,1168
2334.6661254651535,1155
2336.525904350951,1159
2338.3852610165827,1190
2340.244195744464,1167
2342.102708817088,1134
2343.9608005170253,1230
2345.8184711269287,1154
2347.675720929526,1147
2349.532550207628,1198
2351.38895924412,1189
2353.24494832197,1220
2355.100517724223,1206
2356.955667734004,1229
2358.810398634514,1266
2360.664710709037,1263
2362.5186042409337,1216
2364.3720795136437,1170
2366.225136810686,1198
2368.0777764156583,1220
2369.929998612237,1188
2371.7818036841777,1188
2373.633191915315,1190
2375.484163589562,1204
2377.3347189909114,1191
2379.184858403434,1134
2381.03458211128,1124
2382.8838903986775,1173
2384.732783549936,1187
2386.5812618494406,1183
2388.4293255816588,1177
2390.2769750311327,1196
2392.1242104824883,1172
2393.971032220427,1235
2395.8174405297295,1180
2397.6634356952563,1178
2399.509018001947,1191
2401.3541877348193,1186
2403.1989451789705,1228
2405.043290619576,1181
2406.8872243418905,1184
2408.730746631247,1208
2410.5738577730594,1177
2412.4165580528183,1129
2414.258847756095,1113
2416.100727168537,1116
2417.9421965758734,1180
2419.783256263912,1191
2421.623906518538,1221
2423.4641476257157,1191
2425.303979871491,1172
2427.143403541984,1164
2428.9824189233977,1209
2430.821026302012,1147
2432.6592259641866,1221
2434.497018196361,1172
2436.33440328505,1151
2438.171381516851,1131
2440.00795317844,1139
2441.844118556569,1195
2443.6798779380724,1210
2445.5152316098606,1223
2447.3501798589255,1241
2449.1847229723357,1250
2451.0188612372403,1177
2452.8525949408663,1165
2454.6859243705203,1161
2456.518849813587,1194
2458.3513715575314,1136
2460.183489889895,1159
2462.015205098301,1193
2463.8465174704493,1203
2465.67742729412,1182
2467.5079348571717,1161
2469.338040447542,1144
2471.1677443532476,1138
2472.9970468623833,1151
2474.825948263123,1141
2476.6544488437207,1186
2478.482548892508,1172
2480.310248697896,1129
2482.137548548374,1188
2483.9644487325118,1163
2485.790949538956,1191
2487.617051256433,1176
2489.44275417375,1190
2491.26805857979,1175
2493.0929647635157,1182
2494.917473013971,1202
2496.741583620276,1184
2498.5652968716304,1200
2500.3886130573137,1181
2502.2115324666834,1217
2504.0340553891765,1170
2505.856182114308,1177
2507.6779129316733,1222
2509.499248130945,1189
2511.3201880018764,1265
2513.140732834298,1186
2514.9608829181198,1178
2516.780638543331,1238
2518.6,1144
2520.418967578273,1175
2522.237541568376,1154
2524.0557222606144,1164
2525.8735099453706,1214
2527.6909049131086,1137
2529.507907454368,1145
2531.32451785977,1142
2533.140736420014,1149
2534.9565634258774,1161
2536.771999168218,1179
2538.5870439379714,1190
2540.4016980261526,1214
2542.2159617238544,1136
2544.02983532225,1172
2545.8433191125914,1168
2547.656413386209,1170
2549.4691184345115,1222
2551.2814345489874,1238
2553.093362021204,1198
2554.904901142808,1179
2556.716052205523,1113
2558.526815501153,1249
2560.3371913215824,1164
2562.147179958771,1168
2563.956781704761,1137
2565.7659968516705,1191
2567.5748256916986,1189
2569.3832685171224,1192
2571.1913256202984,1176
2572.9989972936614,1129
2574.806283829725,1128
2576.613185521084,1197
2578.4197026604074,1227
2580.2258355404483,1252
2582.031584454035,1125
2583.836949694077,1230
2585.6419315535613,1173
2587.4465303255533,1189
2589.2507463032002,1208
2591.0545797797245,1151
2592.8580310484303,1191
2594.6611004026995,1177
2596.463788135992,1122
2598.266094541849,1157
2600.0680199138874,1158
2601.869564545807,1178
2603.670728731383,1168
2605.4715127644704,1177
2607.2719169390048,1217
2609.071941548998,1194
2610.8715868885433,1196
2612.670853251811,1193
2614.469740933052,1157
2616.268250226594,1215
2618.0663814268455,1129
2619.864134828292,1152
2621.6615107255006,1178
2623.458509413115,1244
2625.2551311858597,1163
2627.0513763385347,1154
2628.8472451660223,1201
2630.6427379632833,1165
2632.4378550253564,1206
2634.232596647359,1254
2636.026963124488,1210
2637.8209547520187,1165
2639.6145718253065,1228
2641.407814639785,1194
2643.200683490966,1162
2644.9931786744414,1157
2646.7853004858807,1158
2648.577049221034,1206
2650.3684251757277,1196
2652.1594286458712,1194
2653.9500599274484,1177
2655.740319316525,1172
2657.5302071092437,1176
2659.3197236018286,1182
2661.10886909058,1162
2662.8976438718782,1198
2664.686048242183,1191
2666.4740824980327,1185
2668.2617469360443,1231
2670.0490418529134,1169
2671.8359675454153,1191
2673.622524310403,1212
2675.408712444811,1171
2677.1945322456495,1202
2678.979984010009,1213
2680.76506803506,1118
2682.5497846180497,1176
2684.334134056306,1150
2686.1181166472343,1196
2687.9017326883213,1198
2689.6849824771293,1185
2691.4678663113013,1241
2693.2503844885596,1191
2695.032537306705,1253
2696.8143250636167,1299
2698.5957480572542,1186
2700.3768065856534,1186
2702.1575009469316,1187
2703.937831439283,1158
2705.717798360982,1210
2707.4974020103837,1183
2709.276642685917,1161
2711.055520686095,1192
2712.834036309506,1160
2714.612189854819,1187
2716.389981620782,1147
2718.1674119062204,1201
2719.944481010041,1175
2721.721189231226,1185
2723.4975368688415,1201
2725.273524222027,1132
2727.0491515900053,1162
2728.824419272075,1141
2730.5993275676146,1148
2732.3738767760838,1144
2734.148067197016,1183
2735.921899130031,1189
2737.6953728748194,1195
2739.468488731156,1155
2741.2412469988926,1172
2743.0136479779617,1150
2744.785691968372,1242
2746.5573792702116,1198
2748.3287101836504,1193
2750.099685008934,1157
2751.870304046388,1150
2753.640567596418,1144
2755.4104759595057,1187
2757.1800294362156,1189
2758.949228327187,1226
2760.7180729331412,1138
2762.486563554877,1158
2764.254700493272,1172
2766.022484049284,1166
2767.789914523947,1176
2769.5569922183786,1169
2771.3237174337705,1148
2773.090090471394,1160
2774.8561116326036,1218
2776.6217812188274,1241
2778.3870995315756,1155
2780.1520668724356,1174
2781.9166835430747,1162
2783.6809498452394,1196
2785.444866080754,1215
2787.2084325515225,1156
2788.971649559527,1173
2790.73451740683,1125
2792.4970363955713,1167
2794.2592068279705,1128
2796.0210290063264,1161
2797.7825032330147,1183
2799.543629810493,1186
2801.304409041296,1154
2803.0648412280366,1194
2804.8249266734088,1142
2806.5846656801846,1187
2808.344058551212,1153
2810.1031055894246,1199
2811.8618070978273,1153
2813.6201633795085,1170
2815.378174737636,1140
2817.1358414754536,1176
2818.893163896285,1151
2820.6501423035334,1163
2822.4067770006814,1130
2824.1630682912883,1168
2825.9190164789957,1193
2827.6746218675207,1162
2829.429884760661,1195
2831.184805462294,1220
2832.9393842763743,1169
2834.693621506936,1193
2836.4475174580916,1179
2838.201072434034,1143
2839.954286739034,1230
2841.707160677441,1163
2843.459694553685,1146
2845.2118886722724,1209
2846.96374333779,1192
2848.7152588549034,1174
2850.4664355283567,1153
2852.217273662973,1170
2853.9677735636546,1180
2855.7179355353833,1215
2857.4677598832186,1155
2859.217246912299,1176
2860.9663969278427,1188
2862.715210235146,1182
2864.4636871395846,1159
2866.211827946614,1159
2867.9596329617652,1168
2869.7071024906536,1170
2871.4542368389684,1201
2873.20103631248,1185
2874.947501217038,1141
2876.6936318585695,1189
2878.4394285430812,1154
2880.1848915766604,1191
2881.9300212654707,1193
2883.6748179157553,1206
2885.4192818338374,1191
2887.1634133261173,1231
2888.907212699077,1184
2890.6506802592744,1178
2892.393816313348,1198
2894.1366211680142,1158
2895.8790951300693,1157
2897.621238506388,1230
2899.363051603925,1194
2901.1045347297118,1169
2902.8456881908596,1162
2904.58651229456,1127
2906.327007348081,1129
2908.067173658772,1123
2909.8070115340597,1149
2911.5465212814497,1193
2913.285703208527,1169
2915.0245576229563,1149
2916.7630848324807,1156
2918.5012851449196,1186
2920.2391588681758,1120
2921.976706310227,1186
2923.7139277791334,1198
2925.4508235830313,1189
2927.187394030137,1205
2928.923639428745,1196
2930.6595600872306,1185
2932.395156314046,1188
2934.1304284177218,1207
2935.8653767068713,1142
2937.6000014901815,1250
2939.3343030764227,1237
2941.068281774442,1166
2942.8019378931644,1163
2944.5352717415976,1159
2946.2682836288236,1178
2948.0009738640065,1154
2949.7333427563885,1229
2951.465390615289,1226
2953.1971177501086,1206
2954.9285244703265,1205
2956.6596110855,1206
2958.3903779052657,1176
2960.1208252393385,1273
2961.8509533975125,1212
2963.5807626896617,1198
2965.3102534257378,1211
2967.0394259157715,1156
2968.768280469873,1181
2970.496817398232,1192
2972.2250370111146,1216
2973.952939618869,1145
2975.6805255319196,1199
2977.4077950607707,1198
2979.134748516006,1248
2980.861386208289,1219
2982.587708448359,1199
2984.313715547037,1204
2986.039407815222,1178
2987.764785563891,1120
2989.489849104102,1191
2991.2145987469908,1218
2992.9390348037705,1180
2994.6631575857346,1126
2996.3869674042576,1170
2998.1104645707887,1186
2999.83364939686,1197
3001.5565221940783,1192
3003.2790832741334,1153
3005.0013329487924,1155
3006.7232715298996,1185
3008.4448993293804,1181
3010.166216659239,1204
3011.887223831558,1149
3013.607921158498,1083
3015.3283089522993,1158
3017.0483875252826,1174
3018.7681571898443,1161
3020.4876182584626,1245
3022.2067710436927,1169
3023.9256158581707,1178
3025.644153014609,1172
3027.362382825801,1192
3029.0803056046193,1149
3030.797921664012,1223
3032.5152313170106,1140
3034.2322348767225,1145
3035.9489326563353,1186
3037.665324969115,1169
3039.3814121284063,1202
3041.097194447633,1230
3042.812672240299,1176
3044.5278458199855,1161
3046.2427155003525,1186
3047.9572815951406,1178
3049.671544418167,1154
3051.38550428333,1171
3053.0991615046073,1178
3054.812516396051,1162
3056.5255692717974,1215
3058.2383204460575,1216
3059.9507702331257,1212
3061.662918947372,1223
3063.3747669032446,1212
3065.0863144152736,1149
3066.7975617980674,1180
3068.508509366309,1147
3070.219157434767,1131
3071.9295063182844,1211
3073.639556331785,1189
3075.3493077902704,1188
3077.058761008821,1192
3078.7679163025964,1155
3080.476773986837,1200
3082.1853343768594,1169
3083.89359778806,1139
3085.6015645359153,1172
3087.3092349359786,1149
3089.016609303884,1098
3090.7236879553434,1199
3092.4304712061476,1157
3094.136959372166,1184
3095.843152769349,1161
3097.5490517137237,1155
3099.2546565213966,1148
3100.959967508554,1195
3102.66498499146,1171
3104.3697092864577,1204
3106.0741407099695,1119
3107.778279578498,1155
3109.482126208622,1104
3111.1856809170004,1152
3112.8889440203716,1110
3114.5919158355528,1144
3116.294596679439,1179
3117.996986869006,1155
3119.6990867213062,1198
3121.4008965534726,1215
3123.102416682717,1211
3124.803647426329,1191
3126.5045891016784,1185
3128.205242026213,1162
3129.90560651746,1137
3131.605682893025,1112
3133.3054714705922,1105
3135.0049725679282,1147
3136.7041865028714,1161
3138.4031135933465,1237
3140.101754157353,1214
3141.800108512971,1210
3143.498176978357,1154
3145.1959598717494,1165
3146.8934575114636,1134
3148.5906702158954,1134
3150.2875983035183,1164
3151.9842420928853,1172
3153.680601902627,1166
3155.376678051456,1149
3157.07247085816,1133
3158.767980641609,1127
3160.463207720748,1114
3162.158152414606,1132
3163.8528150422862,1156
3165.5471959229726,1147
3167.2412953759303,1120
3168.9351137204976,1188
3170.628651276098,1183
3172.3219083622307,1131
3174.014885298474,1168
3175.707582404485,1157
3177.4000000000005,1144
3179.092138404835,1149
3180.7839979388846,1188
3182.47557892212,1185
3184.166881674594,1193
3185.8579065164386,1195
3187.5486537678626,1188
3189.2391237491547,1177
3190.9293167806827,1147
3192.6192331828934,1104
3194.3088732763117,1097
3195.998237381542,1130
3197.687325819268,1117
3199.376138910251,1182
3201.064676975334,1109
3202.7529403354347,1142
3204.4409293115523,1169
3206.1286442247647,1100
3207.816085396229,1126
3209.5032531471825,1134
3211.190147798936,1180
3212.8767696728846,1164
3214.5631190905015,1150
3216.2491963733373,1095
3217.9350018430214,1112
3219.6205358212637,1115
3221.305798629851,1146
3222.990790590651,1109
3224.6755120256103,1146
3226.359963256751,1146
3228.0441446061795,1126
3229.7280563960758,1154
3231.411698948703,1111
3233.0950725863995,1170
3234.778177631587,1173
3236.461014406761,1180
3238.1435832345005,1177
3239.8258844374595,1096
3241.507918338374,1132
3243.1896852600576,1121
3244.8711855254023,1106
3246.552419457381,1130
3248.233387379042,1079
3249.914089613516,1153
3251.59452648401,1152
3253.274698313813,1126
3254.95460542629,1098
3256.6342481448855,1092
3258.313626793125,1167
3259.9927416946084,1131
3261.6715931730196,1118
3263.3501815521176,1148
3265.0285071557437,1106
3266.706570307815,1142
3268.3843713323286,1140
3270.0619105533615,1137
3271.739188295068,1140
3273.4162048816834,1138
3275.0929606375184,1150
3276.769455886966,1176
3278.445690954498,1112
3280.1216661646613,1142
3281.797381842087,1151
3283.4728383114807,1167
3285.1480358976296,1158
3286.8229749253996,1167
3288.4976557197333,1081
3290.172078605655,1170
3291.846243908266,1145
3293.5201519527463,1159
3295.193803064357,1081
3296.8671975684374,1179
3298.5403357904024,1113
3300.21321805575,1207
3301.8858446900567,1131
3303.558216018975,1150
3305.23033236824,1138
3306.9021940636603,1147
3308.57380143113,1150
3310.2451547966184,1147
3311.916254486174,1149
3313.5871008259246,1199
3315.2576941420766,1198
3316.9280347609147,1162
3318.5981230088046,1131
3320.2679592121895,1151
3321.9375436975924,1140
3323.606876791612,1151
3325.27595882093,1129
3326.944790112305,1137
3328.6133709925753,1150
3330.2817017886573,1132
3331.949782827547,1181
3333.617614436319,1159
3335.2851969421245,1173
3336.952530672199,1155
3338.619615953853,1168
3340.286453114475,1152
3341.9530424815357,1135
3343.619384382583,1161
3345.2854791452437,1142
3346.951327097224,1130
3348.6169285663073,1162
3350.2822838803577,1154
3351.947393367319,1152
3353.61225735521,1105
3355.2768761721345,1152
3356.9412501462693,1116
3358.605379605873,1127
3360.2692648792827,1136
3361.9329062949146,1147
3363.596304181263,1142
