CollectionTime,9/26/2024 8:01:07 AM
ExposureUsed,3
CalibratedSpectrum
-962.7078968117929,711
-959.9714848408522,737
-957.2358232597828,761
-954.5009119013725,709
-951.7667505983302,765
-949.0333391832855,646
-946.3006774887896,700
-943.5687653473143,707
-940.837602591253,824
-938.1071890529199,706
-935.3775245645503,701
-932.6486089583007,682
-929.9204420662485,780
-927.1930237203925,824
-924.4663537526524,752
-921.7404319948689,788
-919.0152582788041,805
-916.2908324361409,944
-913.5671542984834,883
-910.8442236973568,796
-908.1220404642074,820
-905.4006044304027,784
-902.679915427231,772
-899.959973285902,790
-897.2407778375464,814
-894.5223289132158,756
-891.8046263438832,738
-889.0876699604426,707
-886.3714595937089,740
-883.6559950744183,864
-880.9412762332282,863
-878.2273029007168,720
-875.5140749073835,705
-872.8015920836489,655
-870.0898542598545,644
-867.3788612662631,666
-864.6686129330585,647
-861.9591090903457,607
-859.2503495681506,608
-856.5423341964203,622
-853.8350628050229,649
-851.1285352237478,716
-848.4227512823054,668
-845.7177108103272,775
-843.0134136373656,821
-840.3098595928943,825
-837.6070485063082,736
-834.9049802069229,734
-832.2036545239757,740
-829.5030712866244,776
-826.8032303239481,801
-824.1041314649472,825
-821.4057745385428,741
-818.7081593735775,663
-816.0112857988148,712
-813.3151536429393,705
-810.6197627345566,676
-807.9251129021936,793
-805.2312039742981,753
-802.5380357792392,699
-799.8456081453069,791
-797.1539209007124,787
-794.462973873588,820
-791.772766891987,746
-789.083299783884,750
-786.3945723771743,785
-783.7065844996748,721
-781.0193359791231,743
-778.3328266431781,741
-775.6470563194197,754
-772.9620248353489,820
-770.2777320183878,745
-767.5941776958798,651
-764.9113616950891,629
-762.2292838432011,617
-759.5479439673222,661
-756.8673418944801,700
-754.1874774516235,695
-751.5083504656222,723
-748.8299607632671,738
-746.15230817127,805
-743.475392516264,786
-740.7992136248035,763
-738.1237713233636,799
-735.4490654383407,877
-732.7750957960521,737
-730.1018622227365,717
-727.4293645445534,693
-724.7576025875837,754
-722.0865761778291,779
-719.4162851412126,802
-716.7467293035781,986
-714.0779084906909,1023
-711.409822528237,768
-708.7424712418238,764
-706.0758544569796,789
-703.4099719991541,745
-700.7448236937178,802
-698.0804093659622,786
-695.4167288411002,887
-692.7537819442656,850
-690.0915685005134,889
-687.4300883348199,852
-684.7693412720819,800
-682.1093271371178,685
-679.4500457546669,775
-676.7914969493897,810
-674.1336805458676,730
-671.4765963686034,700
-668.8202442420206,684
-666.1646239904642,691
-663.5097354382001,767
-660.8555784094151,788
-658.2021527282176,736
-655.5494582186366,717
-652.8974947046223,781
-650.2462620100463,807
-647.5957599587009,891
-644.9459883742998,919
-642.2969470804776,955
-639.6486359007902,919
-637.0010546587141,810
-634.3542031776476,790
-631.7080812809096,758
-629.0626887917401,1143
-626.4180255333008,1337
-623.7740913286734,1057
-621.1308860008619,852
-618.4884093727904,901
-615.8466612673046,881
-613.2056415071715,831
-610.5653499150785,916
-607.9257863136347,887
-605.28695052537,840
-602.6488423727357,870
-600.0114616781036,1050
-597.3748082637674,1453
-594.7388819519412,1406
-592.1036825647604,1125
-589.4692099242818,1343
-586.8354638524829,1567
-584.2024441712624,1361
-581.5701507024403,1141
-578.9385832677575,947
-576.3077416888759,1057
-573.6776257873787,1452
-571.0482353847704,1299
-568.4195703024757,1042
-565.7916303618415,915
-563.164415384135,918
-560.5379251905453,909
-557.9121596021815,980
-555.2871184400748,998
-552.6628015251767,908
-550.0392086783606,1054
-547.4163397204204,1078
-544.794194472071,1184
-542.1727727539491,1125
-539.5520743866118,1143
-536.9320991905377,1165
-534.3128469861261,1304
-531.6943175936979,1260
-529.0765108334947,1402
-526.4594265256793,1616
-523.8430644903358,1651
-521.2274245474689,1755
-518.612506517005,1937
-515.9983102187913,2288
-513.3848354725959,2744
-510.77208209810846,2809
-508.16004991493924,2844
-505.5487387426199,3060
-502.9381484006032,2743
-500.3282787082628,2337
-497.71912948489364,2034
-495.1107005497117,1623
-492.5029917218539,1359
-489.8960028203786,1259
-487.28973366426493,1134
-484.68418407241325,1148
-482.07935386364494,1193
-479.47524285670266,1043
-476.87185087025,1098
-474.2691777228715,1129
-471.66722323307334,1168
-469.0659872192821,1060
-466.4654694998459,1075
-463.86566989303384,1120
-461.26658821703614,1289
-458.66822428996414,1256
-456.07057792985,1212
-453.4736489546475,1368
-450.877437182231,1151
-448.28194243039627,1021
-445.68716451686,1143
-443.09310325926003,1073
-440.49975847515555,1087
-437.9071299820263,1121
-435.31521759727354,1303
-432.72402113821954,1592
-430.13354042210767,1243
-427.5437752661022,1110
-424.95472548728867,1217
-422.36639090267386,1345
-419.7787713291855,1582
-417.1918665836721,1774
-414.60567648290385,1474
-412.0202008435715,1348
-409.4354394822874,1539
-406.8513922155845,1527
-404.26805885991723,1401
-401.685439231661,1379
-399.103533147112,1242
-396.522340422488,1287
-393.9418608739278,1285
-391.3620943174908,1386
-388.7830405691583,1324
-386.2046994448317,1349
-383.6270707603344,1495
-381.05015433141045,1542
-378.473949973725,1196
-375.8984575028645,1116
-373.32367673433623,1018
-370.74960748356875,989
-368.1762495659117,1033
-365.60360279663576,1210
-363.03166699093265,1239
-360.4604419639154,1037
-357.8899275306178,966
-355.32012350599507,935
-352.7510297049233,868
-350.1826459421999,909
-347.61497203254316,867
-345.04800779059235,989
-342.4817530309082,1581
-339.91620756797226,1583
-337.35137121618743,1481
-334.7872437898774,1408
-332.22382510328725,1892
-329.66111497058273,1574
-327.09911320585127,1056
-324.53781962310075,976
-321.9772340362607,959
-319.4173562591816,1032
-316.8581861056348,1007
-314.2997233893127,1024
-311.7419679238294,1080
-309.1849195227194,1131
-306.62857799943856,1249
-304.0729431673641,1276
-301.51801483979375,1319
-298.963792829947,1466
-296.41027695096386,1442
-293.85746701590574,1801
-291.3053628377552,1800
-288.7539642294155,1951
-286.2032710037115,1987
-283.65328297338897,2440
-281.1039999511146,2816
-278.5554217494762,3016
-276.007548180983,1915
-273.4603790580651,1334
-270.9139141930734,1593
-268.3681533982807,2004
-265.8230964858798,2229
-263.27874326798565,1725
-260.7350935566336,1528
-258.1921471637804,1745
-255.6499039013039,2081
-253.10836358100266,1404
-250.56752601459698,1998
-248.02739101372765,2652
-245.48795838995704,2661
-242.94922795476816,2050
-240.41119951956557,1611
-237.8738728956746,1935
-235.33724789434166,2179
-232.80132432673452,1879
-230.2661020039418,1819
-227.73158073697357,2257
-225.19776033676033,2701
-222.66464061415422,2626
-220.1322213799284,1991
-217.60050244477725,1845
-215.06948361931552,2736
-212.53916471408013,3612
-210.00954553952818,3665
-207.48062590603843,2455
-204.9524056239104,1988
-202.4248845033651,2497
-199.8980623545441,2994
-197.37193898751036,3245
-194.84651421224817,2158
-192.32178783866232,2281
-189.79775967657952,3216
-187.27442953574644,4106
-184.7517972258321,3868
-182.2298625564256,2819
-179.7086253370378,2800
-177.18808537710026,3827
-174.66824248596583,4410
-172.14909647290835,4133
-169.6306471471229,2793
-167.11289431772548,2549
-164.59583779375328,3068
-162.07947738416453,4496
-159.5638128978386,5292
-157.04884414357605,5310
-154.53457093009854,3621
-152.02099306604828,3077
-149.50811035998936,3405
-146.99592262040665,4464
-144.48442965570587,6292
-141.97363127421409,8201
-139.46352728417958,6758
-136.95411749377126,4889
-134.44540171107985,3851
-131.93737974411636,3632
-129.43005140081357,5633
-126.92341648902493,9542
-124.41747481652521,14050
-121.91222619101006,12651
-119.40767042009657,9727
-116.90380731132257,7375
-114.40063667214702,5054
-111.8981583099503,5332
-109.3963720320337,9792
-106.89527764561933,18830
-104.39487495785067,30092
-101.89516377579241,31949
-99.39614390642998,27018
-96.89781515667039,19491
-94.40017733334128,16087
-91.90323024319173,13190
-89.40697369289148,13416
-86.91140748903172,21786
-84.41653143812482,40666
-81.92234534660395,62857
-79.42884902082358,65029
-76.93604226705907,65029
-74.4439248915071,65029
-71.95249670028534,65029
-69.46175749943245,65029
-66.97170709490854,65029
-64.48234529259423,65029
-61.99367189829195,65029
-59.50568671772464,65029
-57.01838955653636,65029
-54.53178022029283,65029
-52.045858514480074,65029
-49.560624244506016,65029
-47.07607721569923,65029
-44.59221723330904,65029
-42.10904410250669,65029
-39.62655762838392,65029
-37.14475761595372,65029
-34.66364387015028,65029
-32.18321619582866,65029
-29.70347439776515,65029
-27.224418280657005,65029
-24.74604764912317,65029
-22.26836230770266,65029
-19.7913620608565,65029
-17.315046712966478,65029
-14.83941606833514,65029
-12.36446993118659,65029
-9.89020810566592,65029
-7.416630395839093,65029
-4.94373660569363,65029
-2.471526539137585,65029
-6.821210263296962E-13,65029
2.47084320796705,65029
4.941003281093458,65029
7.410480415786196,65029
9.879274808531363,65029
12.347386655893956,65029
14.814816154518212,65029
17.28156350112681,65029
19.74762889252179,65029
22.21301252558385,31388
24.67771459727237,14157
27.141735304626195,16977
29.605074844762612,14708
32.06773341487792,13011
34.52971121224755,13750
36.99100843422559,17103
39.45162527824516,15025
41.91156194181792,14105
44.370818622535126,11267
46.82939551806646,11490
49.287292826160524,13539
51.74451074464503,12316
54.201049471426245,11366
56.65690920448981,9259
59.112090141899785,8035
61.56659248179983,6709
64.02041642241159,5133
66.4735621620365,6778
68.92602989905402,8385
71.37781983192338,8093
73.82893215918205,9022
76.27936707944684,8672
78.72912479141326,8066
81.17820549385567,9058
83.62660938562783,7230
86.07433666566146,6803
88.5213875329681,5331
90.96776218663751,5969
93.41346082583925,5500
95.85848364982041,5214
98.30283085790859,8210
100.7465026495089,8340
103.18949922410604,6055
105.63182078126385,5053
108.07346752062438,4523
110.51443964190923,3572
112.95473734491827,3924
115.39436082953114,5081
117.83331029570547,5255
120.27158594347827,4566
122.7091879729652,4305
125.1461165843615,4674
127.58237197794062,4954
130.01795435405518,4568
132.4528639131364,4273
134.88710085569494,4893
137.32066538231982,4422
139.75355769367923,3411
142.1857779905207,3610
144.61732647366978,4231
147.04820334403132,4017
149.47840880258934,2949
151.90794305040674,3036
154.33680628862487,3215
156.76499871846443,2996
159.19252054122433,3100
161.61937195828352,3057
164.04555317109896,3877
166.47106438120693,3752
168.89590579022217,3273
171.320077599839,3529
173.7435800118302,4539
176.16641322804742,4759
178.58857745042144,3900
181.01007288096173,4049
183.43089972175687,4542
185.85105817497413,3731
188.27054844285988,3197
190.6893707277394,3206
193.10752523201643,3727
195.5250121581745,3645
197.9418317087751,3126
200.3579840864594,3451
202.7734694939469,3707
205.18828813403627,3395
207.6024402096051,3435
210.01592592360964,3408
212.42874547908548,3285
214.84089907914665,3584
217.2523869269868,3620
219.66320922587727,3365
222.0733661791695,3024
224.48285799029293,3198
226.8916848627572,3423
229.29984700014882,3189
231.7073446061355,3250
234.11417788446204,3317
236.520347038953,3583
238.92585227351185,3509
241.33069379212054,3333
243.73487179884035,3062
246.1383864978112,3320
248.541238093252,3642
250.9434267894609,3691
253.34495279081432,3433
255.74581630176783,2972
258.1460175268563,3135
260.54555667069314,3296
262.9444339379703,3789
265.3426495334594,3766
267.7402036620107,3748
270.1370965285529,3838
272.53332833809407,3683
274.9288992957214,3609
277.32380960660055,3727
279.718059475976,3528
282.1116491091717,3085
284.5045787115897,2956
286.89684848871195,2997
289.2884586460981,3140
291.67940938938807,3580
294.0697009242996,3419
296.4593334566299,3438
298.84830719225477,3590
301.23662233712923,3468
303.6242790972866,3217
306.01127767884,3172
308.39761828798066,3295
310.78330113097934,2842
313.16832641418534,2668
315.5526943440269,2820
317.9364051270112,3061
320.3194589697242,3036
322.70185607883093,2730
325.0835966610754,2801
327.4646809232805,2891
329.8451090723478,2904
332.2248813152577,2934
334.6039978590701,2754
336.9824589109231,2611
339.36026467803447,2459
341.7374153677,2456
344.113911187295,2413
346.48975234427337,2473
348.8649390461686,2674
351.2394715005918,2629
353.61334991523415,2496
355.9865744978655,2342
358.35914545633375,2397
360.73106299856715,2506
363.10232733257146,2565
365.47293866643247,2660
367.84289720831396,2535
370.2122031664593,2324
372.5808567491905,2359
374.9488581649083,2363
377.31620762209275,2230
379.6829053293021,2248
382.0489514951745,2508
384.4143463284262,2567
386.7790900378528,2455
389.14318283232853,2479
391.50662492080653,2677
393.86941651231916,2867
396.23155781597745,3210
398.5930490409713,2809
400.9538903965696,2460
403.3140820921202,2553
405.6736243370498,2545
408.03251734086336,2399
410.3907613131465,2376
412.74835646356166,2293
415.10530300185144,2285
417.4616011378372,2497
419.81725108141893,2264
422.1722530425758,2237
424.5266072313656,2403
426.880313857925,2286
429.2333731324701,2236
431.58578526529516,2109
433.9375504667738,2121
436.2886689473588,2079
438.63914091758113,2012
440.9889665880513,2050
443.33814616945835,2075
445.68667987257015,2212
448.03456790823395,2281
450.3818104873759,2130
452.72840782100013,2020
455.07436012019105,2068
457.41966759611057,2063
459.7643304600007,2145
462.10834892318155,2061
464.4517231970525,2183
466.79445349309174,2256
469.1365400228566,2189
471.4779829979826,2179
473.81878263018564,2079
476.15893913125876,2289
478.4984527130747,2552
480.8373235875855,2578
483.17555196682144,2430
485.5131380628919,2428
487.8500820879857,2354
490.1863842543697,2572
492.52204477439034,2976
494.8570638604725,3356
497.1914417251204,3932
499.52517858091653,4671
501.85827464052306,5751
504.19073011668036,6319
506.5225452222086,6638
508.85372017000566,6981
511.18425517304956,7487
513.514150444396,8768
515.8434061971808,10301
518.1720226446176,10369
520.4999999999999,9868
522.8273384766991,9057
525.1540382881666,7877
527.480099647932,6130
529.8055227696037,4469
532.1303078668694,3374
534.454455153496,3042
536.777964843328,2711
539.1008371502907,2559
541.4230722883866,2642
543.744670471698,2462
546.0656319143858,2579
548.3859568306899,2545
550.7056454349294,2700
553.0246979415016,2860
555.3431145648834,2671
557.6608955196306,2408
559.978041020377,2392
562.2945512818363,2446
564.6104265188006,2250
566.9256669461412,2215
569.2402727788082,2411
571.5542442318302,2396
573.8675815203156,2281
576.1802848594508,2264
578.4923544645015,2299
580.8037905508126,2328
583.114593333807,2140
585.4247630289875,2266
587.7342998519354,2500
590.0432040183106,2459
592.3514757438526,2186
594.6591152443794,2182
596.9661227357875,2370
599.2724984340531,2303
601.578242555231,2226
603.8833553154542,2167
606.1878369309362,2142
608.4916876179676,2114
610.7949075929192,2182
613.0974970722403,2228
615.3994562724587,2156
617.7007854101818,2160
620.0014847020951,2106
622.3015543649641,2065
624.6009946156324,2082
626.8998056710224,2094
629.1979877481361,2086
631.4955410640538,2006
633.7924658359349,2068
636.0887622810175,2076
638.3844306166192,2085
640.6794710601358,2161
642.9738838290426,2257
645.2676691408932,2188
647.5608272133207,2164
649.853358264037,2337
652.1452625108324,2251
654.4365401715764,2147
656.7271914642178,2237
659.0172166067838,2257
661.3066158173809,2075
663.5953893141935,2185
665.8835373154867,2337
668.1710600396028,2292
670.4579577049639,2384
672.7442305300709,2038
675.0298787335033,2069
677.3149025339197,2107
679.599302150058,2114
681.8830778007342,2251
684.1662297048437,2221
686.4487580813608,2113
688.7306631493387,2152
691.0119451279091,2191
693.2926042362834,2037
695.5726406937516,2131
697.8520547196814,2156
700.1308465335215,2108
702.4090163547982,2060
704.6865644031171,2059
706.9634908981619,2137
709.2397960596965,1981
711.5154801075631,2063
713.7905432616823,2122
716.0649857420548,2181
718.3388077687592,2077
720.612009561953,2127
722.8845913418733,2048
725.1565533288352,2008
727.427895743234,2073
729.6986188055427,2189
731.9687227363137,2193
734.238207756178,2199
736.5070740858458,2122
738.7753219461066,2034
741.0429515578281,2151
743.3099631419569,2195
745.5763569195191,2034
747.8421331116193,2072
750.1072919394409,2105
752.3718336242467,2372
754.6357583873777,2209
756.8990664502545,2177
759.1617580343765,2134
761.423833361321,2043
763.6852926527457,2153
765.9461361303862,2131
768.206364016058,2343
770.4659765316536,2398
772.7249738991469,2160
774.9833563405886,2045
777.2411240781092,2074
779.4982773339183,2204
781.7548163303044,2216
784.010741289634,2194
786.2660524343538,2241
788.5207499869881,2269
790.7748341701416,2311
793.0283052064964,2208
795.2811633188143,2237
797.5334087299362,2258
799.7850416627813,2180
802.0360623403484,2226
804.2864709857143,2319
806.5362678220353,2298
808.7854530725468,2181
811.0340269605625,2189
813.2819897094754,2319
815.5293415427581,2286
817.77608268396,2204
820.0222133567116,2146
822.2677337847211,2409
824.5126441917765,2471
826.7569448017433,2161
829.0006358385675,2105
831.2437175262731,2106
833.4861900889629,2191
835.7280537508192,2186
837.9693087361026,2054
840.2099552691533,1947
842.4499935743896,1972
844.689423876309,2164
846.9282463994886,2110
849.1664613685833,2075
851.4040690083276,2028
853.6410695435349,2089
855.877463199097,2145
858.1132501999847,2095
860.3484307712487,2148
862.5830051380175,2102
864.8169735254988,2030
867.0503361589791,2142
869.2830932638243,2235
871.5152450654786,2115
873.7467917894654,2180
875.9777336613873,2118
878.2080709069252,2188
880.4378037518389,2185
882.666932421968,2316
884.8954571432301,2406
887.1233781416219,2433
889.3506956432192,2204
891.5774098741766,2031
893.803521060728,2114
896.0290294291852,2124
898.2539352059397,2206
900.4782386174619,2482
902.7019398903011,2450
904.925039251085,2237
907.147536926521,2147
909.3694331433943,2224
911.59072812857,2192
913.8114221089921,2154
916.0315153116827,2194
918.2510079637437,2159
920.4699002923547,2183
922.6881925247761,2274
924.905884888345,2280
927.1229776104793,2196
929.3394709186747,2203
931.555365040506,2149
933.7706602036275,2213
935.9853566357709,2299
938.1994545647489,2595
940.4129542184515,2406
942.6258558248488,2294
944.8381596119883,2441
947.0498658079974,2523
949.2609746410825,2414
951.4714863395287,2321
953.6814011316998,2249
955.8907192460387,2252
958.0994409110671,2401
960.3075663553858,2497
962.5150958076741,2460
964.7220294966913,2351
966.928367651274,2232
969.1341105003388,2170
971.3392582728806,2249
973.5438111979742,2252
975.747769504772,2182
977.9511334225061,2039
980.153903180487,2248
982.3560790081052,2181
984.5576611348289,2206
986.7586497902058,2159
988.9590452038618,2196
991.158847605503,2252
993.3580572249133,2275
995.5566742919558,2126
997.7546990365728,2005
999.952131688785,1946
1002.1489724786926,1860
1004.3452216364743,1871
1006.5408793923874,1781
1008.7359459767691,1797
1010.9304216200343,1781
1013.1243065526781,1787
1015.3176010052733,1701
1017.510305208472,1786
1019.7024193930064,2022
1021.8939437896848,1999
1024.0848786293977,1719
1026.2752241431122,1652
1028.4649805618747,1648
1030.6541481168115,1703
1032.842727039127,1626
1035.0307175601051,1671
1037.2181199111074,1658
1039.4049343235752,1603
1041.591161029029,1565
1043.7768002590683,1594
1045.9618522453698,1610
1048.1463172196918,1619
1050.3301954138697,1625
1052.513487059818,1552
1054.69619238953,1554
1056.8783116350783,1619
1059.0598450286152,1726
1061.2407928023704,1681
1063.4211551886528,1551
1065.6009324198508,1638
1067.780124728432,1582
1069.9587323469414,1567
1072.1367555080046,1531
1074.314194444325,1567
1076.4910493886855,1570
1078.667320573947,1513
1080.843008233051,1471
1083.0181125990161,1503
1085.1926339049414,1496
1087.3665723840027,1538
1089.5399282694575,1569
1091.7127017946405,1507
1093.8848931929647,1499
1096.0565026979243,1461
1098.2275305430899,1466
1100.3979769621128,1514
1102.567842188722,1601
1104.737126456726,1575
1106.9058300000124,1512
1109.0739530525475,1475
1111.2414958483764,1539
1113.4084586216231,1436
1115.5748416064907,1550
1117.7406450372605,1548
1119.9058691482942,1535
1122.0705141740304,1583
1124.2345803489884,1455
1126.3980679077658,1526
1128.5609770850388,1537
1130.7233081155623,1479
1132.8850612341707,1379
1135.0462366757774,1411
1137.2068346753745,1431
1139.3668554680326,1452
1141.526299288901,1423
1143.68516637321,1545
1145.8434569562655,1522
1148.001171273455,1450
1150.158309560244,1451
1152.3148720521767,1453
1154.470858984876,1494
1156.626270594044,1443
1158.7811071154629,1456
1160.9353687849912,1486
1163.089055838569,1601
1165.242168512213,1601
1167.3947070420209,1479
1169.5466716641677,1487
1171.6980626149075,1577
1173.8488801305748,1567
1175.9991244475814,1455
1178.1487958024186,1594
1180.2978944316555,1629
1182.4464205719428,1492
1184.5943744600072,1368
1186.7417563326567,1417
1188.8885664267755,1374
1191.0348049793297,1373
1193.1804722273619,1438
1195.325568407995,1457
1197.4700937584303,1443
1199.614048515948,1374
1201.7574329179074,1363
1203.900247201746,1361
1206.042491604982,1397
1208.1841663652099,1476
1210.3252717201053,1445
1212.465807907422,1498
1214.6057751649923,1409
1216.7451737307279,1466
1218.8840038426192,1540
1221.0222657387353,1529
1223.1599596572241,1457
1225.2970858363137,1465
1227.4336445143094,1434
1229.5696359295966,1416
1231.705060320639,1420
1233.8399179259786,1497
1235.9742089842384,1581
1238.107933734118,1470
1240.2410924143974,1462
1242.373685263935,1559
1244.5057125216676,1564
1246.6371744266116,1515
1248.7680712178621,1504
1250.898403134593,1546
1253.028170416058,1415
1255.1573733015875,1484
1257.2860120305932,1552
1259.4140868425648,1503
1261.54159797707,1461
1263.6685456737569,1621
1265.7949301723515,1619
1267.9207517126597,1505
1270.046010534565,1422
1272.1707068780306,1454
1274.2948409830983,1500
1276.4184130898889,1514
1278.541423438603,1479
1280.6638722695184,1450
1282.785759822993,1434
1284.9070863394636,1490
1287.0278520594447,1507
1289.1480572235314,1457
1291.2677020723963,1496
1293.3867868467923,1559
1295.5053117875495,1398
1297.623277135579,1435
1299.740683131868,1469
1301.8575300174857,1579
1303.973818033578,1534
1306.0895474213703,1554
1308.2047184221678,1519
1310.3193312773528,1581
1312.4333862283888,1557
1314.5468835168163,1435
1316.659823384255,1459
1318.7722060724045,1365
1320.8840318230418,1362
1322.9953008780249,1380
1325.1060134792888,1417
1327.2161698688478,1486
1329.3257702887959,1472
1331.4348149813054,1444
1333.5433041886276,1427
1335.6512381530933,1434
1337.7586171171101,1421
1339.8654413231675,1422
1341.9717110138317,1449
1344.0774264317488,1407
1346.1825878196432,1410
1348.2871954203192,1384
1350.3912494766587,1410
1352.4947502316231,1414
1354.5976979282532,1451
1356.7000928096686,1423
1358.8019351190665,1500
1360.9032250997243,1344
1363.0039629949988,1364
1365.1041490483235,1373
1367.2037835032133,1453
1369.3028666032606,1423
1371.401398592137,1512
1373.4993797135926,1485
1375.5968102114575,1520
1377.6936903296396,1429
1379.7900203121262,1417
1381.8858004029835,1421
1383.9810308463561,1431
1386.075711886469,1419
1388.1698437676241,1470
1390.2634267342032,1529
1392.356461030667,1557
1394.4489469015557,1472
1396.5408845914872,1396
1398.6322743451592,1477
1400.7231164073469,1457
1402.813411022907,1500
1404.903158436773,1541
1406.9923588939578,1560
1409.0810126395531,1559
1411.1691199187303,1452
1413.2566809767386,1404
1415.343696058907,1478
1417.4301654106425,1533
1419.5160892774315,1553
1421.6014679048399,1449
1423.6863015385125,1460
1425.7705904241707,1426
1427.8543348076178,1460
1429.9375349347342,1378
1432.0201910514802,1487
1434.102303403894,1531
1436.1838722380944,1489
1438.2648978002767,1440
1440.3453803367174,1508
1442.4253200937692,1437
1444.5047173178677,1436
1446.5835722555234,1506
1448.6618851533285,1525
1450.739656257952,1462
1452.8168858161434,1420
1454.8935740747306,1468
1456.96972128062,1509
1459.045327680797,1501
1461.120393522327,1453
1463.1949190523528,1509
1465.2689045180973,1452
1467.3423501668608,1528
1469.415256246024,1475
1471.4876230030463,1406
1473.559450685465,1436
1475.6307395408976,1553
1477.7014898170391,1552
1479.771701761665,1499
1481.8413756226287,1397
1483.9105116478618,1415
1485.9791100853772,1484
1488.0471711832643,1451
1490.1146951896926,1463
1492.1816823529098,1515
1494.2481329212433,1530
1496.3140471430984,1436
1498.3794252669609,1431
1500.4442675413939,1445
1502.5085742150404,1534
1504.572345536622,1554
1506.6355817549388,1442
1508.6982831188702,1426
1510.7604498773744,1484
1512.8220822794883,1535
1514.8831805743293,1480
1516.9437450110909,1453
1519.003775839048,1448
1521.0632733075522,1432
1523.1222376660367,1424
1525.1806691640113,1391
1527.2385680510652,1460
1529.2959345768668,1451
1531.3527689911643,1480
1533.4090715437833,1527
1535.4648424846291,1528
1537.5200820636855,1515
1539.5747905310159,1431
1541.6289681367616,1501
1543.6826151311434,1485
1545.7357317644614,1463
1547.7883182870937,1394
1549.8403749494987,1471
1551.8919020022113,1446
1553.9428996958477,1461
1555.9933682811015,1510
1558.0433080087469,1483
1560.0927191296346,1460
1562.1416018946961,1501
1564.1899565549415,1469
1566.2377833614592,1474
1568.2850825654164,1515
1570.3318544180606,1433
1572.3780991707158,1471
1574.423817074788,1423
1576.4690083817595,1401
1578.5136733431923,1452
1580.5578122107272,1400
1582.601425236085,1465
1584.6445126710646,1424
1586.6870747675434,1341
1588.7291117774776,1413
1590.7706239529034,1433
1592.8116115459347,1423
1594.8520748087658,1385
1596.8920139936686,1456
1598.9314293529933,1363
1600.9703211391711,1381
1603.008689604711,1397
1605.0465350022005,1433
1607.0838575843068,1360
1609.1206576037753,1418
1611.1569353134305,1426
1613.1926909661765,1460
1615.2279248149953,1481
1617.2626371129481,1508
1619.2968281131757,1450
1621.3304980688963,1522
1623.3636472334088,1564
1625.39627586009,1478
1627.428384202396,1392
1629.459972513861,1407
1631.4910410480993,1485
1633.5215900588028,1439
1635.551619799744,1448
1637.5811305247717,1525
1639.6101224878166,1435
1641.6385959428862,1494
1643.6665511440683,1460
1645.693988345528,1484
1647.7209078015112,1440
1649.7473097663405,1502
1651.7731944944203,1548
1653.7985622402307,1539
1655.823413258333,1412
1657.847747803366,1484
1659.8715661300494,1502
1661.8948684931793,1537
1663.9176551476316,1441
1665.9399263483624,1442
1667.9616823504057,1395
1669.982923408873,1396
1672.0036497789574,1413
1674.0238617159293,1431
1676.043559475138,1427
1678.0627433120121,1434
1680.081413482059,1381
1682.0995702408654,1441
1684.117213844096,1437
1686.134344547495,1445
1688.1509626068864,1423
1690.1670682781705,1452
1692.182661817329,1408
1694.1977434804217,1465
1696.2123135235875,1537
1698.226372203043,1548
1700.2399197750851,1499
1702.2529564960905,1529
1704.2654826225112,1550
1706.277498410882,1426
1708.2890041178139,1421
1710.2999999999988,1444
1712.3104863142066,1409
1714.3204633172854,1420
1716.329931266163,1407
1718.3388904178469,1409
1720.3473410294214,1477
1722.3552833580516,1491
1724.3627176609807,1434
1726.3696441955308,1347
1728.3760632191033,1388
1730.3819749891782,1432
1732.3873797633146,1459
1734.3922777991502,1346
1736.3966693544012,1441
1738.4005546868639,1465
1740.4039340544127,1450
1742.406807715001,1453
1744.4091759266616,1426
1746.4110389475054,1446
1748.4123970357223,1455
1750.413250449582,1443
1752.4135994474318,1391
1754.4134442876993,1472
1756.4127852288902,1406
1758.4116225295893,1446
1760.4099564484595,1417
1762.407787244244,1468
1764.405115175764,1416
1766.4019405019203,1412
1768.3982634816916,1409
1770.3940843741357,1509
1772.3894034383907,1519
1774.3842209336717,1446
1776.378537119274,1394
1778.372352254571,1403
1780.3656665990156,1364
1782.3584804121397,1362
1784.3507939535534,1396
1786.3426074829463,1439
1788.3339212600863,1419
1790.3247355448211,1446
1792.3150505970766,1426
1794.3048666768573,1455
1796.2941840442477,1414
1798.2830029594106,1488
1800.2713236825884,1454
1802.2591464741004,1389
1804.2464715943465,1368
1806.2332993038058,1395
1808.2196298630352,1397
1810.2054635326708,1482
1812.190800573428,1471
1814.175641246101,1457
1816.1599858115628,1462
1818.1438345307652,1475
1820.127187664738,1507
1822.1100454745924,1477
1824.092408221516,1379
1826.0742761667766,1379
1828.055649571721,1401
1830.0365286977735,1424
1832.0169138064398,1471
1833.9968051593014,1441
1835.9762030180214,1473
1837.9551076443408,1506
1839.9335193000788,1417
1841.9114382471344,1406
1843.888864747485,1454
1845.8657990631878,1456
1847.842241456378,1398
1849.8181921892697,1455
1851.7936515241558,1408
1853.7686197234098,1443
1855.7430970494815,1445
1857.7170837649014,1468
1859.6905801322787,1380
1861.6635864143004,1460
1863.6361028737338,1442
1865.608129773424,1452
1867.5796673762961,1478
1869.5507159453537,1414
1871.521275743678,1396
1873.4913470344313,1501
1875.4609300808534,1441
1877.4300251462632,1412
1879.3986324940588,1409
1881.366752387717,1475
1883.3343850907936,1476
1885.3015308669228,1482
1887.268189979819,1493
1889.2343626932739,1428
1891.2000492711595,1400
1893.1652499774254,1421
1895.1299650761011,1446
1897.0941948312952,1404
1899.0579395071945,1472
1901.0211993680641,1390
1902.98397467825,1422
1904.9462657021745,1485
1906.9080727043415,1459
1908.869395949332,1441
1910.8302357018065,1422
1912.790592226504,1391
1914.7504657882428,1432
1916.7098566519212,1433
1918.6687650825133,1360
1920.6271913450764,1458
1922.5851357047422,1466
1924.5425984267245,1425
1926.499579776314,1395
1928.4560800188833,1444
1930.4120994198802,1536
1932.367638244833,1529
1934.32269675935,1444
1936.2772752291175,1409
1938.231373919899,1473
1940.1849930975404,1571
1942.1381330279637,1527
1944.0907939771696,1459
1946.0429762112412,1393
1947.9946799963363,1440
1949.9459055986945,1480
1951.896653284633,1444
1953.8469233205478,1417
1955.7967159729142,1425
1957.7460315082863,1378
1959.6948701932974,1402
1961.6432322946594,1439
1963.5911180791632,1440
1965.5385278136787,1473
1967.4854617651545,1452
1969.4319202006182,1479
1971.377903387176,1449
1973.3234115920136,1461
1975.268445082395,1388
1977.2130041256642,1435
1979.1570889892423,1501
1981.1006999406304,1514
1983.04383724741,1474
1984.986501177238,1520
1986.928691997853,1472
1988.8704099770712,1469
1990.811655382789,1516
1992.7524284829801,1435
1994.692729545698,1450
1996.6325588390755,1371
1998.5719166313224,1415
2000.5108031907307,1388
2002.4492187856677,1444
2004.387163684583,1439
2006.3246381560011,1476
2008.2616424685298,1459
2010.1981768908527,1474
2012.1342416917332,1504
2014.069837140014,1413
2016.0049635046162,1438
2017.9396210545406,1457
2019.8738100588666,1399
2021.8075307867502,1447
2023.740783507431,1475
2025.6735684902228,1463
2027.6058860045214,1520
2029.5377363198004,1533
2031.4691197056118,1532
2033.4000364315875,1441
2035.3304867674374,1491
2037.260470982952,1503
2039.189989347998,1505
2041.1190421325232,1487
2043.047629606554,1388
2044.9757520401945,1387
2046.9034097036288,1398
2048.8306028671195,1430
2050.7573318010086,1431
2052.683596775716,1400
2054.609398061742,1429
2056.5347359296647,1428
2058.4596106501403,1436
2060.384022493906,1470
2062.3079717317764,1421
2064.231458634646,1412
2066.1544834734873,1369
2068.077046519352,1395
2069.99914804337,1388
2071.9207883167524,1458
2073.8419676107865,1440
2075.7626861968406,1399
2077.6829443463607,1445
2079.6027423308715,1469
2081.522080421977,1474
2083.440958891362,1473
2085.359378010786,1489
2087.2773380520907,1413
2089.194839287196,1413
2091.111881988101,1455
2093.0284664268825,1375
2094.9445928756973,1451
2096.86026160678,1419
2098.775472892446,1478
2100.690227005088,1419
2102.604524217178,1405
2104.5183648012676,1485
2106.431749029985,1461
2108.34467717604,1456
2110.2571495122206,1417
2112.169166311393,1473
2114.080727846503,1399
2115.9918343905747,1438
2117.902486216711,1410
2119.8126835980956,1406
2121.722426807987,1427
2123.6317161197285,1399
2125.5405518067364,1468
2127.448934142509,1488
2129.356863400624,1430
2131.264339854737,1524
2133.1713637785815,1478
2135.077935445972,1435
2136.9840551308002,1450
2138.889723107037,1443
2140.7949396487334,1486
2142.699705030018,1442
2144.6040195250994,1473
2146.507883408264,1464
2148.4112969538774,1397
2150.3142604363848,1418
2152.2167741303097,1467
2154.1188383102535,1476
2156.0204532508997,1470
2157.9216192270064,1438
2159.822336513414,1413
2161.7226053850413,1468
2163.622426116884,1445
2165.5217989840185,1442
2167.4207242616,1371
2169.319202224862,1445
2171.2172331491165,1420
2173.1148173097563,1451
2175.0119549822507,1435
2176.90864644215,1452
2178.8048919650823,1408
2180.7006918267534,1469
2182.596046302952,1493
2184.4909556695407,1417
2186.3854202024645,1410
2188.279440177746,1454
2190.173015871487,1512
2192.066147559868,1511
2193.958835519149,1435
2195.851080025667,1443
2197.7428813558417,1429
2199.6342397861667,1411
2201.5251555932186,1472
2203.415629053651,1491
2205.3056604441986,1454
2207.19525004167,1420
2209.084398122958,1506
2210.9731049650327,1459
2212.861370844941,1468
2214.749196039812,1491
2216.636580826851,1474
2218.523525483344,1554
2220.410030286655,1532
2222.296095514226,1475
2224.1817214435805,1453
2226.066908352319,1466
2227.951656518121,1480
2229.835966218746,1457
2231.71983773203,1470
2233.6032713358913,1476
2235.486267308324,1518
2237.3688259274036,1529
2239.2509474712824,1527
2241.132632218193,1499
2243.013880446447,1446
2244.8946924344323,1457
2246.7750684606203,1470
2248.6550088035574,1500
2250.534513741871,1589
2252.413583554265,1455
2254.292218519526,1483
2256.170418916517,1497
2258.0481850241786,1533
2259.925517121534,1508
2261.8024154876825,1461
2263.678880401803,1425
2265.5549121431536,1436
2267.430510991071,1480
2269.305677224971,1456
2271.180411124348,1423
2273.0547129687766,1432
2274.9285830379076,1446
2276.8020216114737,1451
2278.6750289692845,1487
2280.5476053912294,1464
2282.4197511572766,1474
2284.2914665474727,1524
2286.162751841943,1485
2288.0336073208937,1428
2289.904033264608,1463
2291.774029953448,1536
2293.6435976678554,1469
2295.5127366883517,1481
2297.381447295534,1465
2299.2497297700825,1401
2301.1175843927526,1332
2302.9850114443825,1369
2304.852011205885,1357
2306.7185839582553,1297
2308.5847299825664,1329
2310.4504495599676,1254
2312.3157429716925,1275
2314.1806104990483,1297
2316.0450524234247,1320
2317.9090690262888,1306
2319.772660589186,1267
2321.635827393742,1293
2323.498569721661,1204
2325.3608878547248,1289
2327.2227820747967,1229
2329.0842526638157,1261
2330.945299903803,1253
2332.805924076857,1216
2334.6661254651535,1246
2336.525904350951,1282
2338.3852610165827,1214
2340.244195744464,1195
2342.102708817088,1251
2343.9608005170253,1246
2345.8184711269287,1215
2347.675720929526,1247
2349.532550207628,1298
2351.38895924412,1274
2353.24494832197,1305
2355.100517724223,1251
2356.955667734004,1366
2358.810398634514,1383
2360.664710709037,1413
2362.5186042409337,1255
2364.3720795136437,1227
2366.225136810686,1252
2368.0777764156583,1249
2369.929998612237,1260
2371.7818036841777,1289
2373.633191915315,1254
2375.484163589562,1294
2377.3347189909114,1312
2379.184858403434,1266
2381.03458211128,1261
2382.8838903986775,1271
2384.732783549936,1309
2386.5812618494406,1293
2388.4293255816588,1249
2390.2769750311327,1256
2392.1242104824883,1274
2393.971032220427,1276
2395.8174405297295,1254
2397.6634356952563,1226
2399.509018001947,1253
2401.3541877348193,1294
2403.1989451789705,1244
2405.043290619576,1279
2406.8872243418905,1299
2408.730746631247,1226
2410.5738577730594,1279
2412.4165580528183,1275
2414.258847756095,1236
2416.100727168537,1293
2417.9421965758734,1290
2419.783256263912,1279
2421.623906518538,1262
2423.4641476257157,1270
2425.303979871491,1237
2427.143403541984,1250
2428.9824189233977,1283
2430.821026302012,1205
2432.6592259641866,1238
2434.497018196361,1265
2436.33440328505,1289
2438.171381516851,1273
2440.00795317844,1218
2441.844118556569,1314
2443.6798779380724,1242
2445.5152316098606,1270
2447.3501798589255,1293
2449.1847229723357,1308
2451.0188612372403,1229
2452.8525949408663,1261
2454.6859243705203,1262
2456.518849813587,1298
2458.3513715575314,1214
2460.183489889895,1233
2462.015205098301,1252
2463.8465174704493,1274
2465.67742729412,1287
2467.5079348571717,1316
2469.338040447542,1225
2471.1677443532476,1290
2472.9970468623833,1272
2474.825948263123,1266
2476.6544488437207,1220
2478.482548892508,1255
2480.310248697896,1236
2482.137548548374,1268
2483.9644487325118,1237
2485.790949538956,1231
2487.617051256433,1230
2489.44275417375,1205
2491.26805857979,1254
2493.0929647635157,1239
2494.917473013971,1224
2496.741583620276,1211
2498.5652968716304,1269
2500.3886130573137,1270
2502.2115324666834,1266
2504.0340553891765,1277
2505.856182114308,1294
2507.6779129316733,1302
2509.499248130945,1286
2511.3201880018764,1274
2513.140732834298,1229
2514.9608829181198,1234
2516.780638543331,1234
2518.6,1239
2520.418967578273,1295
2522.237541568376,1315
2524.0557222606144,1299
2525.8735099453706,1242
2527.6909049131086,1271
2529.507907454368,1242
2531.32451785977,1273
2533.140736420014,1227
2534.9565634258774,1231
2536.771999168218,1273
2538.5870439379714,1281
2540.4016980261526,1249
2542.2159617238544,1229
2544.02983532225,1215
2545.8433191125914,1192
2547.656413386209,1261
2549.4691184345115,1254
2551.2814345489874,1279
2553.093362021204,1227
2554.904901142808,1245
2556.716052205523,1233
2558.526815501153,1268
2560.3371913215824,1233
2562.147179958771,1206
2563.956781704761,1207
2565.7659968516705,1240
2567.5748256916986,1257
2569.3832685171224,1233
2571.1913256202984,1281
2572.9989972936614,1249
2574.806283829725,1271
2576.613185521084,1251
2578.4197026604074,1219
2580.2258355404483,1290
2582.031584454035,1228
2583.836949694077,1191
2585.6419315535613,1282
2587.4465303255533,1223
2589.2507463032002,1233
2591.0545797797245,1211
2592.8580310484303,1248
2594.6611004026995,1175
2596.463788135992,1248
2598.266094541849,1224
2600.0680199138874,1302
2601.869564545807,1218
2603.670728731383,1231
2605.4715127644704,1264
2607.2719169390048,1218
2609.071941548998,1230
2610.8715868885433,1236
2612.670853251811,1230
2614.469740933052,1253
2616.268250226594,1289
2618.0663814268455,1237
2619.864134828292,1244
2621.6615107255006,1270
2623.458509413115,1326
2625.2551311858597,1281
2627.0513763385347,1265
2628.8472451660223,1274
2630.6427379632833,1235
2632.4378550253564,1200
2634.232596647359,1292
2636.026963124488,1240
2637.8209547520187,1264
2639.6145718253065,1307
2641.407814639785,1312
2643.200683490966,1270
2644.9931786744414,1235
2646.7853004858807,1279
2648.577049221034,1286
2650.3684251757277,1287
2652.1594286458712,1242
2653.9500599274484,1282
2655.740319316525,1272
2657.5302071092437,1296
2659.3197236018286,1239
2661.10886909058,1184
2662.8976438718782,1231
2664.686048242183,1239
2666.4740824980327,1278
2668.2617469360443,1325
2670.0490418529134,1286
2671.8359675454153,1290
2673.622524310403,1314
2675.408712444811,1262
2677.1945322456495,1245
2678.979984010009,1227
2680.76506803506,1231
2682.5497846180497,1229
2684.334134056306,1224
2686.1181166472343,1293
2687.9017326883213,1279
2689.6849824771293,1235
2691.4678663113013,1289
2693.2503844885596,1339
2695.032537306705,1270
2696.8143250636167,1308
2698.5957480572542,1263
2700.3768065856534,1251
2702.1575009469316,1243
2703.937831439283,1260
2705.717798360982,1242
2707.4974020103837,1242
2709.276642685917,1242
2711.055520686095,1274
2712.834036309506,1250
2714.612189854819,1273
2716.389981620782,1263
2718.1674119062204,1257
2719.944481010041,1247
2721.721189231226,1265
2723.4975368688415,1283
2725.273524222027,1303
2727.0491515900053,1248
2728.824419272075,1290
2730.5993275676146,1259
2732.3738767760838,1277
2734.148067197016,1287
2735.921899130031,1294
2737.6953728748194,1197
2739.468488731156,1256
2741.2412469988926,1249
2743.0136479779617,1275
2744.785691968372,1281
2746.5573792702116,1313
2748.3287101836504,1239
2750.099685008934,1252
2751.870304046388,1250
2753.640567596418,1227
2755.4104759595057,1255
2757.1800294362156,1256
2758.949228327187,1209
2760.7180729331412,1300
2762.486563554877,1266
2764.254700493272,1253
2766.022484049284,1222
2767.789914523947,1257
2769.5569922183786,1230
2771.3237174337705,1261
2773.090090471394,1267
2774.8561116326036,1216
2776.6217812188274,1219
2778.3870995315756,1254
2780.1520668724356,1227
2781.9166835430747,1286
2783.6809498452394,1200
2785.444866080754,1252
2787.2084325515225,1245
2788.971649559527,1285
2790.73451740683,1189
2792.4970363955713,1280
2794.2592068279705,1223
2796.0210290063264,1230
2797.7825032330147,1246
2799.543629810493,1280
2801.304409041296,1268
2803.0648412280366,1231
2804.8249266734088,1251
2806.5846656801846,1230
2808.344058551212,1266
2810.1031055894246,1276
2811.8618070978273,1265
2813.6201633795085,1263
2815.378174737636,1260
2817.1358414754536,1263
2818.893163896285,1276
2820.6501423035334,1239
2822.4067770006814,1238
2824.1630682912883,1200
2825.9190164789957,1224
2827.6746218675207,1245
2829.429884760661,1212
2831.184805462294,1297
2832.9393842763743,1308
2834.693621506936,1241
2836.4475174580916,1294
2838.201072434034,1270
2839.954286739034,1227
2841.707160677441,1292
2843.459694553685,1272
2845.2118886722724,1281
2846.96374333779,1273
2848.7152588549034,1298
2850.4664355283567,1240
2852.217273662973,1265
2853.9677735636546,1270
2855.7179355353833,1238
2857.4677598832186,1184
2859.217246912299,1299
2860.9663969278427,1292
2862.715210235146,1264
2864.4636871395846,1212
2866.211827946614,1187
2867.9596329617652,1223
2869.7071024906536,1259
2871.4542368389684,1229
2873.20103631248,1237
2874.947501217038,1282
2876.6936318585695,1195
2878.4394285430812,1273
2880.1848915766604,1260
2881.9300212654707,1311
2883.6748179157553,1235
2885.4192818338374,1218
2887.1634133261173,1308
2888.907212699077,1299
2890.6506802592744,1265
2892.393816313348,1278
2894.1366211680142,1243
2895.8790951300693,1245
2897.621238506388,1236
2899.363051603925,1265
2901.1045347297118,1251
2902.8456881908596,1221
2904.58651229456,1225
2906.327007348081,1251
2908.067173658772,1259
2909.8070115340597,1296
2911.5465212814497,1279
2913.285703208527,1248
2915.0245576229563,1259
2916.7630848324807,1261
2918.5012851449196,1247
2920.2391588681758,1236
2921.976706310227,1283
2923.7139277791334,1269
2925.4508235830313,1317
2927.187394030137,1224
2928.923639428745,1292
2930.6595600872306,1254
2932.395156314046,1248
2934.1304284177218,1243
2935.8653767068713,1242
2937.6000014901815,1230
2939.3343030764227,1249
2941.068281774442,1263
2942.8019378931644,1266
2944.5352717415976,1253
2946.2682836288236,1264
2948.0009738640065,1249
2949.7333427563885,1296
2951.465390615289,1288
2953.1971177501086,1292
2954.9285244703265,1250
2956.6596110855,1293
2958.3903779052657,1304
2960.1208252393385,1355
2961.8509533975125,1216
2963.5807626896617,1263
2965.3102534257378,1219
2967.0394259157715,1276
2968.768280469873,1226
2970.496817398232,1212
2972.2250370111146,1279
2973.952939618869,1290
2975.6805255319196,1264
2977.4077950607707,1329
2979.134748516006,1331
2980.861386208289,1233
2982.587708448359,1250
2984.313715547037,1246
2986.039407815222,1269
2987.764785563891,1298
2989.489849104102,1254
2991.2145987469908,1311
2992.9390348037705,1297
2994.6631575857346,1273
2996.3869674042576,1275
2998.1104645707887,1226
2999.83364939686,1273
3001.5565221940783,1245
3003.2790832741334,1249
3005.0013329487924,1256
3006.7232715298996,1267
3008.4448993293804,1217
3010.166216659239,1262
3011.887223831558,1259
3013.607921158498,1260
3015.3283089522993,1234
3017.0483875252826,1254
3018.7681571898443,1238
3020.4876182584626,1284
3022.2067710436927,1296
3023.9256158581707,1325
3025.644153014609,1189
3027.362382825801,1276
3029.0803056046193,1281
3030.797921664012,1230
3032.5152313170106,1238
3034.2322348767225,1202
3035.9489326563353,1202
3037.665324969115,1217
3039.3814121284063,1279
3041.097194447633,1212
3042.812672240299,1271
3044.5278458199855,1211
3046.2427155003525,1198
3047.9572815951406,1293
3049.671544418167,1256
3051.38550428333,1229
3053.0991615046073,1259
3054.812516396051,1213
3056.5255692717974,1258
3058.2383204460575,1254
3059.9507702331257,1304
3061.662918947372,1246
3063.3747669032446,1248
3065.0863144152736,1228
3066.7975617980674,1220
3068.508509366309,1233
3070.219157434767,1224
3071.9295063182844,1272
3073.639556331785,1224
3075.3493077902704,1213
3077.058761008821,1261
3078.7679163025964,1309
3080.476773986837,1214
3082.1853343768594,1238
3083.89359778806,1201
3085.6015645359153,1279
3087.3092349359786,1206
3089.016609303884,1213
3090.7236879553434,1249
3092.4304712061476,1210
3094.136959372166,1201
3095.843152769349,1274
3097.5490517137237,1275
3099.2546565213966,1202
3100.959967508554,1281
3102.66498499146,1301
3104.3697092864577,1259
3106.0741407099695,1241
3107.778279578498,1233
3109.482126208622,1206
3111.1856809170004,1189
3112.8889440203716,1217
3114.5919158355528,1252
3116.294596679439,1171
3117.996986869006,1245
3119.6990867213062,1293
3121.4008965534726,1294
3123.102416682717,1263
3124.803647426329,1243
3126.5045891016784,1253
3128.205242026213,1247
3129.90560651746,1258
3131.605682893025,1228
3133.3054714705922,1233
3135.0049725679282,1257
3136.7041865028714,1216
3138.4031135933465,1246
3140.101754157353,1231
3141.800108512971,1206
3143.498176978357,1217
3145.1959598717494,1275
3146.8934575114636,1288
3148.5906702158954,1218
3150.2875983035183,1202
3151.9842420928853,1219
3153.680601902627,1247
3155.376678051456,1278
3157.07247085816,1230
3158.767980641609,1254
3160.463207720748,1235
3162.158152414606,1212
3163.8528150422862,1216
3165.5471959229726,1194
3167.2412953759303,1205
3168.9351137204976,1177
3170.628651276098,1183
3172.3219083622307,1213
3174.014885298474,1166
3175.707582404485,1231
3177.4000000000005,1232
3179.092138404835,1238
3180.7839979388846,1256
3182.47557892212,1245
3184.166881674594,1250
3185.8579065164386,1265
3187.5486537678626,1211
3189.2391237491547,1204
3190.9293167806827,1153
3192.6192331828934,1215
3194.3088732763117,1270
3195.998237381542,1218
3197.687325819268,1258
3199.376138910251,1258
3201.064676975334,1223
3202.7529403354347,1219
3204.4409293115523,1159
3206.1286442247647,1205
3207.816085396229,1172
3209.5032531471825,1257
3211.190147798936,1256
3212.8767696728846,1233
3214.5631190905015,1294
3216.2491963733373,1218
3217.9350018430214,1236
3219.6205358212637,1190
3221.305798629851,1180
3222.990790590651,1140
3224.6755120256103,1169
3226.359963256751,1158
3228.0441446061795,1184
3229.7280563960758,1203
3231.411698948703,1222
3233.0950725863995,1219
3234.778177631587,1227
3236.461014406761,1290
3238.1435832345005,1192
3239.8258844374595,1204
3241.507918338374,1246
3243.1896852600576,1212
3244.8711855254023,1212
3246.552419457381,1208
3248.233387379042,1184
3249.914089613516,1201
3251.59452648401,1162
3253.274698313813,1231
3254.95460542629,1197
3256.6342481448855,1212
3258.313626793125,1231
3259.9927416946084,1189
3261.6715931730196,1172
3263.3501815521176,1205
3265.0285071557437,1240
3266.706570307815,1191
3268.3843713323286,1202
3270.0619105533615,1168
3271.739188295068,1200
3273.4162048816834,1182
3275.0929606375184,1197
3276.769455886966,1206
3278.445690954498,1231
3280.1216661646613,1217
3281.797381842087,1288
3283.4728383114807,1280
3285.1480358976296,1284
3286.8229749253996,1214
3288.4976557197333,1216
3290.172078605655,1272
3291.846243908266,1211
3293.5201519527463,1219
3295.193803064357,1199
3296.8671975684374,1189
3298.5403357904024,1197
3300.21321805575,1216
3301.8858446900567,1217
3303.558216018975,1291
3305.23033236824,1166
3306.9021940636603,1205
3308.57380143113,1216
3310.2451547966184,1200
3311.916254486174,1196
3313.5871008259246,1243
3315.2576941420766,1302
3316.9280347609147,1242
3318.5981230088046,1217
3320.2679592121895,1192
3321.9375436975924,1179
3323.606876791612,1169
3325.27595882093,1228
3326.944790112305,1180
3328.6133709925753,1189
3330.2817017886573,1232
3331.949782827547,1217
3333.617614436319,1229
3335.2851969421245,1267
3336.952530672199,1277
3338.619615953853,1190
3340.286453114475,1244
3341.9530424815357,1220
3343.619384382583,1215
3345.2854791452437,1271
3346.951327097224,1195
3348.6169285663073,1240
3350.2822838803577,1244
3351.947393367319,1209
3353.61225735521,1229
3355.2768761721345,1205
3356.9412501462693,1183
3358.605379605873,1231
3360.2692648792827,1275
3361.9329062949146,1223
3363.596304181263,1223
