CollectionTime,9/26/2024 8:02:13 AM
ExposureUsed,3
CalibratedSpectrum
-962.7078968117929,728
-959.9714848408522,755
-957.2358232597828,723
-954.5009119013725,705
-951.7667505983302,707
-949.0333391832855,640
-946.3006774887896,699
-943.5687653473143,704
-940.837602591253,788
-938.1071890529199,669
-935.3775245645503,673
-932.6486089583007,688
-929.9204420662485,773
-927.1930237203925,787
-924.4663537526524,707
-921.7404319948689,748
-919.0152582788041,758
-916.2908324361409,865
-913.5671542984834,850
-910.8442236973568,791
-908.1220404642074,798
-905.4006044304027,717
-902.679915427231,736
-899.959973285902,725
-897.2407778375464,782
-894.5223289132158,685
-891.8046263438832,695
-889.0876699604426,670
-886.3714595937089,756
-883.6559950744183,810
-880.9412762332282,809
-878.2273029007168,703
-875.5140749073835,672
-872.8015920836489,628
-870.0898542598545,582
-867.3788612662631,603
-864.6686129330585,592
-861.9591090903457,590
-859.2503495681506,567
-856.5423341964203,585
-853.8350628050229,606
-851.1285352237478,645
-848.4227512823054,663
-845.7177108103272,729
-843.0134136373656,837
-840.3098595928943,760
-837.6070485063082,721
-834.9049802069229,710
-832.2036545239757,695
-829.5030712866244,712
-826.8032303239481,758
-824.1041314649472,783
-821.4057745385428,694
-818.7081593735775,651
-816.0112857988148,702
-813.3151536429393,680
-810.6197627345566,650
-807.9251129021936,711
-805.2312039742981,674
-802.5380357792392,646
-799.8456081453069,702
-797.1539209007124,775
-794.462973873588,803
-791.772766891987,700
-789.083299783884,706
-786.3945723771743,678
-783.7065844996748,667
-781.0193359791231,675
-778.3328266431781,691
-775.6470563194197,703
-772.9620248353489,743
-770.2777320183878,667
-767.5941776958798,599
-764.9113616950891,592
-762.2292838432011,602
-759.5479439673222,641
-756.8673418944801,670
-754.1874774516235,691
-751.5083504656222,696
-748.8299607632671,733
-746.15230817127,754
-743.475392516264,791
-740.7992136248035,734
-738.1237713233636,707
-735.4490654383407,824
-732.7750957960521,716
-730.1018622227365,698
-727.4293645445534,671
-724.7576025875837,718
-722.0865761778291,750
-719.4162851412126,766
-716.7467293035781,889
-714.0779084906909,856
-711.409822528237,667
-708.7424712418238,684
-706.0758544569796,744
-703.4099719991541,739
-700.7448236937178,724
-698.0804093659622,742
-695.4167288411002,767
-692.7537819442656,784
-690.0915685005134,817
-687.4300883348199,761
-684.7693412720819,700
-682.1093271371178,687
-679.4500457546669,704
-676.7914969493897,699
-674.1336805458676,703
-671.4765963686034,681
-668.8202442420206,708
-666.1646239904642,685
-663.5097354382001,731
-660.8555784094151,700
-658.2021527282176,678
-655.5494582186366,678
-652.8974947046223,737
-650.2462620100463,800
-647.5957599587009,797
-644.9459883742998,830
-642.2969470804776,884
-639.6486359007902,825
-637.0010546587141,773
-634.3542031776476,733
-631.7080812809096,728
-629.0626887917401,1117
-626.4180255333008,1318
-623.7740913286734,1021
-621.1308860008619,829
-618.4884093727904,900
-615.8466612673046,838
-613.2056415071715,842
-610.5653499150785,904
-607.9257863136347,906
-605.28695052537,793
-602.6488423727357,824
-600.0114616781036,1024
-597.3748082637674,1317
-594.7388819519412,1236
-592.1036825647604,1077
-589.4692099242818,1297
-586.8354638524829,1391
-584.2024441712624,1159
-581.5701507024403,938
-578.9385832677575,873
-576.3077416888759,1009
-573.6776257873787,1236
-571.0482353847704,1232
-568.4195703024757,970
-565.7916303618415,848
-563.164415384135,799
-560.5379251905453,802
-557.9121596021815,920
-555.2871184400748,972
-552.6628015251767,907
-550.0392086783606,994
-547.4163397204204,1039
-544.794194472071,1077
-542.1727727539491,1050
-539.5520743866118,1124
-536.9320991905377,1101
-534.3128469861261,1242
-531.6943175936979,1187
-529.0765108334947,1369
-526.4594265256793,1467
-523.8430644903358,1583
-521.2274245474689,1709
-518.612506517005,1910
-515.9983102187913,2179
-513.3848354725959,2612
-510.77208209810846,2723
-508.16004991493924,2877
-505.5487387426199,3003
-502.9381484006032,2470
-500.3282787082628,2223
-497.71912948489364,1911
-495.1107005497117,1564
-492.5029917218539,1313
-489.8960028203786,1246
-487.28973366426493,1043
-484.68418407241325,1094
-482.07935386364494,1158
-479.47524285670266,1035
-476.87185087025,1023
-474.2691777228715,1033
-471.66722323307334,1041
-469.0659872192821,1018
-466.4654694998459,993
-463.86566989303384,992
-461.26658821703614,1163
-458.66822428996414,1241
-456.07057792985,1087
-453.4736489546475,1199
-450.877437182231,1011
-448.28194243039627,985
-445.68716451686,1125
-443.09310325926003,1098
-440.49975847515555,1013
-437.9071299820263,996
-435.31521759727354,1080
-432.72402113821954,1472
-430.13354042210767,1179
-427.5437752661022,1062
-424.95472548728867,1164
-422.36639090267386,1332
-419.7787713291855,1498
-417.1918665836721,1628
-414.60567648290385,1322
-412.0202008435715,1226
-409.4354394822874,1371
-406.8513922155845,1386
-404.26805885991723,1311
-401.685439231661,1192
-399.103533147112,1080
-396.522340422488,1156
-393.9418608739278,1246
-391.3620943174908,1346
-388.7830405691583,1294
-386.2046994448317,1232
-383.6270707603344,1414
-381.05015433141045,1440
-378.473949973725,1095
-375.8984575028645,1067
-373.32367673433623,1041
-370.74960748356875,983
-368.1762495659117,944
-365.60360279663576,1086
-363.03166699093265,1130
-360.4604419639154,981
-357.8899275306178,883
-355.32012350599507,855
-352.7510297049233,832
-350.1826459421999,867
-347.61497203254316,826
-345.04800779059235,1017
-342.4817530309082,1418
-339.91620756797226,1454
-337.35137121618743,1399
-334.7872437898774,1318
-332.22382510328725,1660
-329.66111497058273,1489
-327.09911320585127,997
-324.53781962310075,858
-321.9772340362607,862
-319.4173562591816,953
-316.8581861056348,918
-314.2997233893127,887
-311.7419679238294,935
-309.1849195227194,945
-306.62857799943856,1168
-304.0729431673641,1132
-301.51801483979375,1166
-298.963792829947,1284
-296.41027695096386,1329
-293.85746701590574,1640
-291.3053628377552,1679
-288.7539642294155,1626
-286.2032710037115,1737
-283.65328297338897,2275
-281.1039999511146,2479
-278.5554217494762,2794
-276.007548180983,1746
-273.4603790580651,1223
-270.9139141930734,1328
-268.3681533982807,1759
-265.8230964858798,2079
-263.27874326798565,1698
-260.7350935566336,1581
-258.1921471637804,1760
-255.6499039013039,1780
-253.10836358100266,1276
-250.56752601459698,1873
-248.02739101372765,2375
-245.48795838995704,2304
-242.94922795476816,1879
-240.41119951956557,1560
-237.8738728956746,1785
-235.33724789434166,1906
-232.80132432673452,1724
-230.2661020039418,1618
-227.73158073697357,2086
-225.19776033676033,2522
-222.66464061415422,2403
-220.1322213799284,1826
-217.60050244477725,1709
-215.06948361931552,2520
-212.53916471408013,3396
-210.00954553952818,3460
-207.48062590603843,2133
-204.9524056239104,1969
-202.4248845033651,2235
-199.8980623545441,2891
-197.37193898751036,2911
-194.84651421224817,1909
-192.32178783866232,2111
-189.79775967657952,2841
-187.27442953574644,3719
-184.7517972258321,3418
-182.2298625564256,2531
-179.7086253370378,2565
-177.18808537710026,3316
-174.66824248596583,4073
-172.14909647290835,3685
-169.6306471471229,2417
-167.11289431772548,2488
-164.59583779375328,2837
-162.07947738416453,4067
-159.5638128978386,4720
-157.04884414357605,4762
-154.53457093009854,3322
-152.02099306604828,2802
-149.50811035998936,3027
-146.99592262040665,3896
-144.48442965570587,5659
-141.97363127421409,7673
-139.46352728417958,6407
-136.95411749377126,4406
-134.44540171107985,3326
-131.93737974411636,3186
-129.43005140081357,5044
-126.92341648902493,8663
-124.41747481652521,12940
-121.91222619101006,12084
-119.40767042009657,9513
-116.90380731132257,6910
-114.40063667214702,4603
-111.8981583099503,4789
-109.3963720320337,8861
-106.89527764561933,17444
-104.39487495785067,28385
-101.89516377579241,29713
-99.39614390642998,25185
-96.89781515667039,17871
-94.40017733334128,15349
-91.90323024319173,12662
-89.40697369289148,13019
-86.91140748903172,20909
-84.41653143812482,39739
-81.92234534660395,60635
-79.42884902082358,65027
-76.93604226705907,65027
-74.4439248915071,65027
-71.95249670028534,65027
-69.46175749943245,65027
-66.97170709490854,65027
-64.48234529259423,65027
-61.99367189829195,65027
-59.50568671772464,65027
-57.01838955653636,65027
-54.53178022029283,65027
-52.045858514480074,65027
-49.560624244506016,65027
-47.07607721569923,61614
-44.59221723330904,49408
-42.10904410250669,50068
-39.62655762838392,49392
-37.14475761595372,60675
-34.66364387015028,61222
-32.18321619582866,65027
-29.70347439776515,65027
-27.224418280657005,65027
-24.74604764912317,65027
-22.26836230770266,65027
-19.7913620608565,65027
-17.315046712966478,65027
-14.83941606833514,65027
-12.36446993118659,65027
-9.89020810566592,65027
-7.416630395839093,65027
-4.94373660569363,65027
-2.471526539137585,65027
-6.821210263296962E-13,65027
2.47084320796705,65027
4.941003281093458,65027
7.410480415786196,65027
9.879274808531363,65027
12.347386655893956,65027
14.814816154518212,65027
17.28156350112681,65027
19.74762889252179,65027
22.21301252558385,30276
24.67771459727237,13052
27.141735304626195,14687
29.605074844762612,12484
32.06773341487792,11388
34.52971121224755,12293
36.99100843422559,16061
39.45162527824516,14161
41.91156194181792,12522
44.370818622535126,10039
46.82939551806646,10214
49.287292826160524,12932
51.74451074464503,11765
54.201049471426245,10141
56.65690920448981,7681
59.112090141899785,7089
61.56659248179983,5847
64.02041642241159,4619
66.4735621620365,5875
68.92602989905402,7270
71.37781983192338,6894
73.82893215918205,7787
76.27936707944684,8064
78.72912479141326,6998
81.17820549385567,7638
83.62660938562783,6671
86.07433666566146,6052
88.5213875329681,4657
90.96776218663751,5238
93.41346082583925,5165
95.85848364982041,4900
98.30283085790859,7804
100.7465026495089,7630
103.18949922410604,5886
105.63182078126385,4877
108.07346752062438,4011
110.51443964190923,3057
112.95473734491827,3678
115.39436082953114,4383
117.83331029570547,4876
120.27158594347827,4309
122.7091879729652,3797
125.1461165843615,4069
127.58237197794062,4499
130.01795435405518,4197
132.4528639131364,3656
134.88710085569494,4016
137.32066538231982,3945
139.75355769367923,3084
142.1857779905207,3122
144.61732647366978,3591
147.04820334403132,3472
149.47840880258934,2718
151.90794305040674,2868
154.33680628862487,2860
156.76499871846443,2756
159.19252054122433,2693
161.61937195828352,2799
164.04555317109896,3417
166.47106438120693,3304
168.89590579022217,2987
171.320077599839,3126
173.7435800118302,4030
176.16641322804742,4076
178.58857745042144,3513
181.01007288096173,3874
183.43089972175687,4298
185.85105817497413,3531
188.27054844285988,2868
190.6893707277394,2946
193.10752523201643,3522
195.5250121581745,3446
197.9418317087751,3004
200.3579840864594,3115
202.7734694939469,3438
205.18828813403627,3136
207.6024402096051,3185
210.01592592360964,3368
212.42874547908548,2959
214.84089907914665,3333
217.2523869269868,3451
219.66320922587727,3173
222.0733661791695,2774
224.48285799029293,2888
226.8916848627572,3152
229.29984700014882,3007
231.7073446061355,3036
234.11417788446204,3144
236.520347038953,3341
238.92585227351185,3426
241.33069379212054,2986
243.73487179884035,2998
246.1383864978112,3212
248.541238093252,3489
250.9434267894609,3412
253.34495279081432,3257
255.74581630176783,2790
258.1460175268563,2794
260.54555667069314,3107
262.9444339379703,3439
265.3426495334594,3571
267.7402036620107,3547
270.1370965285529,3478
272.53332833809407,3343
274.9288992957214,3501
277.32380960660055,3659
279.718059475976,3378
282.1116491091717,2957
284.5045787115897,2865
286.89684848871195,2830
289.2884586460981,2948
291.67940938938807,3330
294.0697009242996,3021
296.4593334566299,3297
298.84830719225477,3329
301.23662233712923,3227
303.6242790972866,3073
306.01127767884,3028
308.39761828798066,3058
310.78330113097934,2702
313.16832641418534,2538
315.5526943440269,2597
317.9364051270112,2878
320.3194589697242,2900
322.70185607883093,2775
325.0835966610754,2664
327.4646809232805,2691
329.8451090723478,2822
332.2248813152577,2679
334.6039978590701,2517
336.9824589109231,2346
339.36026467803447,2298
341.7374153677,2308
344.113911187295,2280
346.48975234427337,2289
348.8649390461686,2492
351.2394715005918,2421
353.61334991523415,2367
355.9865744978655,2350
358.35914545633375,2289
360.73106299856715,2358
363.10232733257146,2556
365.47293866643247,2679
367.84289720831396,2455
370.2122031664593,2268
372.5808567491905,2315
374.9488581649083,2263
377.31620762209275,2132
379.6829053293021,2184
382.0489514951745,2374
384.4143463284262,2315
386.7790900378528,2236
389.14318283232853,2251
391.50662492080653,2396
393.86941651231916,2578
396.23155781597745,2857
398.5930490409713,2692
400.9538903965696,2404
403.3140820921202,2398
405.6736243370498,2302
408.03251734086336,2294
410.3907613131465,2215
412.74835646356166,2167
415.10530300185144,2198
417.4616011378372,2331
419.81725108141893,2199
422.1722530425758,2164
424.5266072313656,2368
426.880313857925,2201
429.2333731324701,2083
431.58578526529516,1981
433.9375504667738,2070
436.2886689473588,2036
438.63914091758113,2021
440.9889665880513,1920
443.33814616945835,1960
445.68667987257015,2074
448.03456790823395,2144
450.3818104873759,2019
452.72840782100013,1999
455.07436012019105,1983
457.41966759611057,2001
459.7643304600007,2013
462.10834892318155,2012
464.4517231970525,2111
466.79445349309174,2082
469.1365400228566,2044
471.4779829979826,2113
473.81878263018564,2058
476.15893913125876,2119
478.4984527130747,2270
480.8373235875855,2401
483.17555196682144,2223
485.5131380628919,2311
487.8500820879857,2313
490.1863842543697,2556
492.52204477439034,2803
494.8570638604725,3235
497.1914417251204,3840
499.52517858091653,4666
501.85827464052306,5458
504.19073011668036,6055
506.5225452222086,6621
508.85372017000566,7085
511.18425517304956,7272
513.514150444396,8585
515.8434061971808,9802
518.1720226446176,9814
520.4999999999999,9101
522.8273384766991,8288
525.1540382881666,7368
527.480099647932,5754
529.8055227696037,4114
532.1303078668694,3209
534.454455153496,2766
536.777964843328,2638
539.1008371502907,2379
541.4230722883866,2418
543.744670471698,2360
546.0656319143858,2330
548.3859568306899,2531
550.7056454349294,2774
553.0246979415016,2764
555.3431145648834,2446
557.6608955196306,2211
559.978041020377,2204
562.2945512818363,2335
564.6104265188006,2170
566.9256669461412,2173
569.2402727788082,2262
571.5542442318302,2357
573.8675815203156,2154
576.1802848594508,2153
578.4923544645015,2245
580.8037905508126,2139
583.114593333807,2044
585.4247630289875,2121
587.7342998519354,2299
590.0432040183106,2289
592.3514757438526,2126
594.6591152443794,2073
596.9661227357875,2205
599.2724984340531,2147
601.578242555231,2093
603.8833553154542,2064
606.1878369309362,2033
608.4916876179676,1996
610.7949075929192,1951
613.0974970722403,2092
615.3994562724587,2067
617.7007854101818,2024
620.0014847020951,2008
622.3015543649641,1974
624.6009946156324,1991
626.8998056710224,1968
629.1979877481361,2008
631.4955410640538,1892
633.7924658359349,1908
636.0887622810175,1964
638.3844306166192,1935
640.6794710601358,2066
642.9738838290426,2119
645.2676691408932,2147
647.5608272133207,2094
649.853358264037,2110
652.1452625108324,2000
654.4365401715764,1993
656.7271914642178,2159
659.0172166067838,2098
661.3066158173809,2038
663.5953893141935,2081
665.8835373154867,2161
668.1710600396028,2232
670.4579577049639,2096
672.7442305300709,1959
675.0298787335033,1917
677.3149025339197,2017
679.599302150058,2037
681.8830778007342,2148
684.1662297048437,2172
686.4487580813608,2066
688.7306631493387,1982
691.0119451279091,1962
693.2926042362834,1931
695.5726406937516,2104
697.8520547196814,2003
700.1308465335215,1981
702.4090163547982,1920
704.6865644031171,1924
706.9634908981619,1947
709.2397960596965,1884
711.5154801075631,1919
713.7905432616823,1984
716.0649857420548,1966
718.3388077687592,1994
720.612009561953,1938
722.8845913418733,1900
725.1565533288352,1905
727.427895743234,1990
729.6986188055427,1982
731.9687227363137,1993
734.238207756178,2042
736.5070740858458,2022
738.7753219461066,2105
741.0429515578281,2075
743.3099631419569,1979
745.5763569195191,1899
747.8421331116193,1945
750.1072919394409,2022
752.3718336242467,2167
754.6357583873777,1965
756.8990664502545,1980
759.1617580343765,2030
761.423833361321,2036
763.6852926527457,2018
765.9461361303862,2032
768.206364016058,2146
770.4659765316536,2118
772.7249738991469,2079
774.9833563405886,2038
777.2411240781092,1979
779.4982773339183,1960
781.7548163303044,2023
784.010741289634,2083
786.2660524343538,2095
788.5207499869881,2135
790.7748341701416,2165
793.0283052064964,2106
795.2811633188143,2000
797.5334087299362,2065
799.7850416627813,2095
802.0360623403484,2020
804.2864709857143,2285
806.5362678220353,2199
808.7854530725468,2046
811.0340269605625,2156
813.2819897094754,2169
815.5293415427581,2155
817.77608268396,2044
820.0222133567116,2062
822.2677337847211,2342
824.5126441917765,2372
826.7569448017433,2030
829.0006358385675,2031
831.2437175262731,2075
833.4861900889629,2070
835.7280537508192,2048
837.9693087361026,2019
840.2099552691533,1874
842.4499935743896,1927
844.689423876309,2023
846.9282463994886,2059
849.1664613685833,1986
851.4040690083276,2023
853.6410695435349,1990
855.877463199097,2010
858.1132501999847,2053
860.3484307712487,2014
862.5830051380175,2025
864.8169735254988,1917
867.0503361589791,2006
869.2830932638243,2122
871.5152450654786,2072
873.7467917894654,2040
875.9777336613873,2103
878.2080709069252,2030
880.4378037518389,2127
882.666932421968,2330
884.8954571432301,2319
887.1233781416219,2300
889.3506956432192,2068
891.5774098741766,1939
893.803521060728,1990
896.0290294291852,1974
898.2539352059397,2027
900.4782386174619,2284
902.7019398903011,2304
904.925039251085,2158
907.147536926521,2149
909.3694331433943,2114
911.59072812857,2100
913.8114221089921,2038
916.0315153116827,2083
918.2510079637437,2056
920.4699002923547,2048
922.6881925247761,2122
924.905884888345,2225
927.1229776104793,2165
929.3394709186747,2080
931.555365040506,2112
933.7706602036275,2107
935.9853566357709,2308
938.1994545647489,2400
940.4129542184515,2250
942.6258558248488,2232
944.8381596119883,2397
947.0498658079974,2346
949.2609746410825,2273
951.4714863395287,2269
953.6814011316998,2232
955.8907192460387,2233
958.0994409110671,2247
960.3075663553858,2308
962.5150958076741,2427
964.7220294966913,2213
966.928367651274,2188
969.1341105003388,2158
971.3392582728806,2163
973.5438111979742,2056
975.747769504772,2010
977.9511334225061,1975
980.153903180487,2173
982.3560790081052,2069
984.5576611348289,1985
986.7586497902058,2065
988.9590452038618,2082
991.158847605503,2145
993.3580572249133,2107
995.5566742919558,1923
997.7546990365728,1868
999.952131688785,1897
1002.1489724786926,1732
1004.3452216364743,1736
1006.5408793923874,1687
1008.7359459767691,1658
1010.9304216200343,1635
1013.1243065526781,1654
1015.3176010052733,1612
1017.510305208472,1645
1019.7024193930064,1947
1021.8939437896848,1972
1024.0848786293977,1660
1026.2752241431122,1527
1028.4649805618747,1586
1030.6541481168115,1563
1032.842727039127,1522
1035.0307175601051,1498
1037.2181199111074,1594
1039.4049343235752,1563
1041.591161029029,1525
1043.7768002590683,1457
1045.9618522453698,1521
1048.1463172196918,1534
1050.3301954138697,1542
1052.513487059818,1540
1054.69619238953,1515
1056.8783116350783,1540
1059.0598450286152,1589
1061.2407928023704,1561
1063.4211551886528,1507
1065.6009324198508,1487
1067.780124728432,1442
1069.9587323469414,1500
1072.1367555080046,1487
1074.314194444325,1453
1076.4910493886855,1474
1078.667320573947,1410
1080.843008233051,1397
1083.0181125990161,1413
1085.1926339049414,1442
1087.3665723840027,1380
1089.5399282694575,1407
1091.7127017946405,1395
1093.8848931929647,1408
1096.0565026979243,1425
1098.2275305430899,1426
1100.3979769621128,1459
1102.567842188722,1454
1104.737126456726,1464
1106.9058300000124,1467
1109.0739530525475,1470
1111.2414958483764,1402
1113.4084586216231,1402
1115.5748416064907,1445
1117.7406450372605,1442
1119.9058691482942,1448
1122.0705141740304,1428
1124.2345803489884,1393
1126.3980679077658,1413
1128.5609770850388,1430
1130.7233081155623,1372
1132.8850612341707,1265
1135.0462366757774,1342
1137.2068346753745,1347
1139.3668554680326,1318
1141.526299288901,1375
1143.68516637321,1401
1145.8434569562655,1460
1148.001171273455,1403
1150.158309560244,1367
1152.3148720521767,1387
1154.470858984876,1397
1156.626270594044,1354
1158.7811071154629,1366
1160.9353687849912,1485
1163.089055838569,1499
1165.242168512213,1448
1167.3947070420209,1415
1169.5466716641677,1399
1171.6980626149075,1457
1173.8488801305748,1482
1175.9991244475814,1448
1178.1487958024186,1430
1180.2978944316555,1505
1182.4464205719428,1318
1184.5943744600072,1306
1186.7417563326567,1293
1188.8885664267755,1326
1191.0348049793297,1273
1193.1804722273619,1322
1195.325568407995,1353
1197.4700937584303,1346
1199.614048515948,1317
1201.7574329179074,1294
1203.900247201746,1350
1206.042491604982,1315
1208.1841663652099,1335
1210.3252717201053,1300
1212.465807907422,1291
1214.6057751649923,1335
1216.7451737307279,1330
1218.8840038426192,1442
1221.0222657387353,1392
1223.1599596572241,1322
1225.2970858363137,1365
1227.4336445143094,1340
1229.5696359295966,1346
1231.705060320639,1288
1233.8399179259786,1376
1235.9742089842384,1435
1238.107933734118,1395
1240.2410924143974,1328
1242.373685263935,1383
1244.5057125216676,1426
1246.6371744266116,1430
1248.7680712178621,1400
1250.898403134593,1419
1253.028170416058,1378
1255.1573733015875,1328
1257.2860120305932,1390
1259.4140868425648,1494
1261.54159797707,1406
1263.6685456737569,1491
1265.7949301723515,1467
1267.9207517126597,1456
1270.046010534565,1378
1272.1707068780306,1378
1274.2948409830983,1348
1276.4184130898889,1381
1278.541423438603,1423
1280.6638722695184,1321
1282.785759822993,1340
1284.9070863394636,1341
1287.0278520594447,1325
1289.1480572235314,1381
1291.2677020723963,1482
1293.3867868467923,1388
1295.5053117875495,1360
1297.623277135579,1358
1299.740683131868,1339
1301.8575300174857,1478
1303.973818033578,1463
1306.0895474213703,1487
1308.2047184221678,1408
1310.3193312773528,1522
1312.4333862283888,1503
1314.5468835168163,1380
1316.659823384255,1391
1318.7722060724045,1339
1320.8840318230418,1238
1322.9953008780249,1314
1325.1060134792888,1293
1327.2161698688478,1319
1329.3257702887959,1416
1331.4348149813054,1405
1333.5433041886276,1341
1335.6512381530933,1366
1337.7586171171101,1330
1339.8654413231675,1306
1341.9717110138317,1316
1344.0774264317488,1330
1346.1825878196432,1311
1348.2871954203192,1331
1350.3912494766587,1350
1352.4947502316231,1376
1354.5976979282532,1339
1356.7000928096686,1353
1358.8019351190665,1333
1360.9032250997243,1319
1363.0039629949988,1342
1365.1041490483235,1355
1367.2037835032133,1377
1369.3028666032606,1375
1371.401398592137,1381
1373.4993797135926,1371
1375.5968102114575,1380
1377.6936903296396,1387
1379.7900203121262,1362
1381.8858004029835,1403
1383.9810308463561,1315
1386.075711886469,1352
1388.1698437676241,1386
1390.2634267342032,1493
1392.356461030667,1517
1394.4489469015557,1369
1396.5408845914872,1347
1398.6322743451592,1289
1400.7231164073469,1407
1402.813411022907,1345
1404.903158436773,1485
1406.9923588939578,1445
1409.0810126395531,1422
1411.1691199187303,1383
1413.2566809767386,1313
1415.343696058907,1432
1417.4301654106425,1389
1419.5160892774315,1358
1421.6014679048399,1329
1423.6863015385125,1308
1425.7705904241707,1344
1427.8543348076178,1345
1429.9375349347342,1393
1432.0201910514802,1360
1434.102303403894,1372
1436.1838722380944,1432
1438.2648978002767,1447
1440.3453803367174,1342
1442.4253200937692,1345
1444.5047173178677,1354
1446.5835722555234,1394
1448.6618851533285,1366
1450.739656257952,1378
1452.8168858161434,1422
1454.8935740747306,1424
1456.96972128062,1316
1459.045327680797,1411
1461.120393522327,1432
1463.1949190523528,1335
1465.2689045180973,1446
1467.3423501668608,1430
1469.415256246024,1415
1471.4876230030463,1383
1473.559450685465,1375
1475.6307395408976,1392
1477.7014898170391,1409
1479.771701761665,1448
1481.8413756226287,1363
1483.9105116478618,1395
1485.9791100853772,1337
1488.0471711832643,1371
1490.1146951896926,1378
1492.1816823529098,1438
1494.2481329212433,1389
1496.3140471430984,1355
1498.3794252669609,1338
1500.4442675413939,1421
1502.5085742150404,1419
1504.572345536622,1486
1506.6355817549388,1371
1508.6982831188702,1370
1510.7604498773744,1398
1512.8220822794883,1383
1514.8831805743293,1406
1516.9437450110909,1361
1519.003775839048,1348
1521.0632733075522,1348
1523.1222376660367,1389
1525.1806691640113,1324
1527.2385680510652,1339
1529.2959345768668,1353
1531.3527689911643,1340
1533.4090715437833,1391
1535.4648424846291,1392
1537.5200820636855,1354
1539.5747905310159,1404
1541.6289681367616,1357
1543.6826151311434,1350
1545.7357317644614,1433
1547.7883182870937,1316
1549.8403749494987,1382
1551.8919020022113,1321
1553.9428996958477,1378
1555.9933682811015,1374
1558.0433080087469,1431
1560.0927191296346,1367
1562.1416018946961,1387
1564.1899565549415,1393
1566.2377833614592,1406
1568.2850825654164,1422
1570.3318544180606,1380
1572.3780991707158,1358
1574.423817074788,1380
1576.4690083817595,1321
1578.5136733431923,1351
1580.5578122107272,1440
1582.601425236085,1421
1584.6445126710646,1404
1586.6870747675434,1375
1588.7291117774776,1412
1590.7706239529034,1412
1592.8116115459347,1312
1594.8520748087658,1336
1596.8920139936686,1332
1598.9314293529933,1278
1600.9703211391711,1317
1603.008689604711,1338
1605.0465350022005,1341
1607.0838575843068,1355
1609.1206576037753,1350
1611.1569353134305,1361
1613.1926909661765,1365
1615.2279248149953,1393
1617.2626371129481,1370
1619.2968281131757,1420
1621.3304980688963,1352
1623.3636472334088,1347
1625.39627586009,1360
1627.428384202396,1351
1629.459972513861,1353
1631.4910410480993,1372
1633.5215900588028,1413
1635.551619799744,1440
1637.5811305247717,1508
1639.6101224878166,1427
1641.6385959428862,1383
1643.6665511440683,1372
1645.693988345528,1331
1647.7209078015112,1390
1649.7473097663405,1391
1651.7731944944203,1405
1653.7985622402307,1434
1655.823413258333,1366
1657.847747803366,1308
1659.8715661300494,1413
1661.8948684931793,1478
1663.9176551476316,1316
1665.9399263483624,1361
1667.9616823504057,1327
1669.982923408873,1340
1672.0036497789574,1353
1674.0238617159293,1400
1676.043559475138,1356
1678.0627433120121,1383
1680.081413482059,1311
1682.0995702408654,1292
1684.117213844096,1316
1686.134344547495,1324
1688.1509626068864,1356
1690.1670682781705,1337
1692.182661817329,1325
1694.1977434804217,1388
1696.2123135235875,1462
1698.226372203043,1473
1700.2399197750851,1408
1702.2529564960905,1403
1704.2654826225112,1326
1706.277498410882,1370
1708.2890041178139,1349
1710.2999999999988,1369
1712.3104863142066,1391
1714.3204633172854,1339
1716.329931266163,1280
1718.3388904178469,1351
1720.3473410294214,1347
1722.3552833580516,1370
1724.3627176609807,1343
1726.3696441955308,1378
1728.3760632191033,1358
1730.3819749891782,1336
1732.3873797633146,1319
1734.3922777991502,1325
1736.3966693544012,1301
1738.4005546868639,1366
1740.4039340544127,1367
1742.406807715001,1336
1744.4091759266616,1413
1746.4110389475054,1390
1748.4123970357223,1331
1750.413250449582,1342
1752.4135994474318,1334
1754.4134442876993,1367
1756.4127852288902,1353
1758.4116225295893,1350
1760.4099564484595,1325
1762.407787244244,1365
1764.405115175764,1341
1766.4019405019203,1319
1768.3982634816916,1342
1770.3940843741357,1403
1772.3894034383907,1411
1774.3842209336717,1347
1776.378537119274,1352
1778.372352254571,1332
1780.3656665990156,1334
1782.3584804121397,1284
1784.3507939535534,1391
1786.3426074829463,1315
1788.3339212600863,1398
1790.3247355448211,1379
1792.3150505970766,1373
1794.3048666768573,1384
1796.2941840442477,1329
1798.2830029594106,1419
1800.2713236825884,1372
1802.2591464741004,1408
1804.2464715943465,1328
1806.2332993038058,1324
1808.2196298630352,1354
1810.2054635326708,1359
1812.190800573428,1321
1814.175641246101,1355
1816.1599858115628,1383
1818.1438345307652,1409
1820.127187664738,1420
1822.1100454745924,1339
1824.092408221516,1341
1826.0742761667766,1321
1828.055649571721,1373
1830.0365286977735,1360
1832.0169138064398,1386
1833.9968051593014,1393
1835.9762030180214,1399
1837.9551076443408,1412
1839.9335193000788,1355
1841.9114382471344,1315
1843.888864747485,1308
1845.8657990631878,1332
1847.842241456378,1398
1849.8181921892697,1390
1851.7936515241558,1344
1853.7686197234098,1317
1855.7430970494815,1317
1857.7170837649014,1292
1859.6905801322787,1322
1861.6635864143004,1301
1863.6361028737338,1401
1865.608129773424,1384
1867.5796673762961,1368
1869.5507159453537,1384
1871.521275743678,1350
1873.4913470344313,1394
1875.4609300808534,1378
1877.4300251462632,1367
1879.3986324940588,1318
1881.366752387717,1394
1883.3343850907936,1423
1885.3015308669228,1376
1887.268189979819,1356
1889.2343626932739,1352
1891.2000492711595,1398
1893.1652499774254,1367
1895.1299650761011,1420
1897.0941948312952,1379
1899.0579395071945,1342
1901.0211993680641,1366
1902.98397467825,1396
1904.9462657021745,1416
1906.9080727043415,1350
1908.869395949332,1377
1910.8302357018065,1349
1912.790592226504,1458
1914.7504657882428,1432
1916.7098566519212,1330
1918.6687650825133,1319
1920.6271913450764,1387
1922.5851357047422,1353
1924.5425984267245,1374
1926.499579776314,1460
1928.4560800188833,1417
1930.4120994198802,1365
1932.367638244833,1440
1934.32269675935,1350
1936.2772752291175,1431
1938.231373919899,1406
1940.1849930975404,1455
1942.1381330279637,1452
1944.0907939771696,1395
1946.0429762112412,1392
1947.9946799963363,1359
1949.9459055986945,1383
1951.896653284633,1361
1953.8469233205478,1378
1955.7967159729142,1334
1957.7460315082863,1284
1959.6948701932974,1374
1961.6432322946594,1342
1963.5911180791632,1373
1965.5385278136787,1377
1967.4854617651545,1383
1969.4319202006182,1427
1971.377903387176,1341
1973.3234115920136,1366
1975.268445082395,1406
1977.2130041256642,1403
1979.1570889892423,1410
1981.1006999406304,1407
1983.04383724741,1357
1984.986501177238,1462
1986.928691997853,1430
1988.8704099770712,1433
1990.811655382789,1418
1992.7524284829801,1433
1994.692729545698,1401
1996.6325588390755,1419
1998.5719166313224,1399
2000.5108031907307,1383
2002.4492187856677,1401
2004.387163684583,1368
2006.3246381560011,1380
2008.2616424685298,1388
2010.1981768908527,1409
2012.1342416917332,1379
2014.069837140014,1357
2016.0049635046162,1355
2017.9396210545406,1364
2019.8738100588666,1328
2021.8075307867502,1334
2023.740783507431,1374
2025.6735684902228,1366
2027.6058860045214,1392
2029.5377363198004,1397
2031.4691197056118,1385
2033.4000364315875,1417
2035.3304867674374,1390
2037.260470982952,1370
2039.189989347998,1421
2041.1190421325232,1317
2043.047629606554,1359
2044.9757520401945,1349
2046.9034097036288,1393
2048.8306028671195,1397
2050.7573318010086,1379
2052.683596775716,1364
2054.609398061742,1358
2056.5347359296647,1382
2058.4596106501403,1349
2060.384022493906,1380
2062.3079717317764,1356
2064.231458634646,1399
2066.1544834734873,1334
2068.077046519352,1346
2069.99914804337,1295
2071.9207883167524,1343
2073.8419676107865,1353
2075.7626861968406,1338
2077.6829443463607,1324
2079.6027423308715,1319
2081.522080421977,1393
2083.440958891362,1407
2085.359378010786,1319
2087.2773380520907,1346
2089.194839287196,1393
2091.111881988101,1354
2093.0284664268825,1325
2094.9445928756973,1389
2096.86026160678,1337
2098.775472892446,1370
2100.690227005088,1343
2102.604524217178,1417
2104.5183648012676,1357
2106.431749029985,1383
2108.34467717604,1441
2110.2571495122206,1433
2112.169166311393,1366
2114.080727846503,1328
2115.9918343905747,1372
2117.902486216711,1331
2119.8126835980956,1344
2121.722426807987,1361
2123.6317161197285,1349
2125.5405518067364,1394
2127.448934142509,1347
2129.356863400624,1373
2131.264339854737,1424
2133.1713637785815,1385
2135.077935445972,1366
2136.9840551308002,1401
2138.889723107037,1339
2140.7949396487334,1424
2142.699705030018,1362
2144.6040195250994,1371
2146.507883408264,1372
2148.4112969538774,1338
2150.3142604363848,1374
2152.2167741303097,1394
2154.1188383102535,1353
2156.0204532508997,1335
2157.9216192270064,1356
2159.822336513414,1336
2161.7226053850413,1415
2163.622426116884,1377
2165.5217989840185,1401
2167.4207242616,1431
2169.319202224862,1422
2171.2172331491165,1394
2173.1148173097563,1438
2175.0119549822507,1402
2176.90864644215,1341
2178.8048919650823,1399
2180.7006918267534,1403
2182.596046302952,1329
2184.4909556695407,1308
2186.3854202024645,1421
2188.279440177746,1430
2190.173015871487,1410
2192.066147559868,1452
2193.958835519149,1408
2195.851080025667,1405
2197.7428813558417,1387
2199.6342397861667,1390
2201.5251555932186,1328
2203.415629053651,1384
2205.3056604441986,1388
2207.19525004167,1419
2209.084398122958,1454
2210.9731049650327,1365
2212.861370844941,1419
2214.749196039812,1446
2216.636580826851,1403
2218.523525483344,1505
2220.410030286655,1389
2222.296095514226,1422
2224.1817214435805,1379
2226.066908352319,1411
2227.951656518121,1411
2229.835966218746,1358
2231.71983773203,1409
2233.6032713358913,1424
2235.486267308324,1431
2237.3688259274036,1391
2239.2509474712824,1459
2241.132632218193,1374
2243.013880446447,1378
2244.8946924344323,1351
2246.7750684606203,1455
2248.6550088035574,1451
2250.534513741871,1418
2252.413583554265,1406
2254.292218519526,1430
2256.170418916517,1427
2258.0481850241786,1482
2259.925517121534,1344
2261.8024154876825,1407
2263.678880401803,1377
2265.5549121431536,1354
2267.430510991071,1371
2269.305677224971,1348
2271.180411124348,1352
2273.0547129687766,1381
2274.9285830379076,1392
2276.8020216114737,1323
2278.6750289692845,1372
2280.5476053912294,1403
2282.4197511572766,1456
2284.2914665474727,1436
2286.162751841943,1466
2288.0336073208937,1431
2289.904033264608,1434
2291.774029953448,1378
2293.6435976678554,1436
2295.5127366883517,1404
2297.381447295534,1341
2299.2497297700825,1375
2301.1175843927526,1291
2302.9850114443825,1335
2304.852011205885,1305
2306.7185839582553,1272
2308.5847299825664,1246
2310.4504495599676,1266
2312.3157429716925,1229
2314.1806104990483,1289
2316.0450524234247,1235
2317.9090690262888,1267
2319.772660589186,1204
2321.635827393742,1193
2323.498569721661,1239
2325.3608878547248,1227
2327.2227820747967,1234
2329.0842526638157,1209
2330.945299903803,1229
2332.805924076857,1259
2334.6661254651535,1226
2336.525904350951,1136
2338.3852610165827,1187
2340.244195744464,1160
2342.102708817088,1204
2343.9608005170253,1198
2345.8184711269287,1214
2347.675720929526,1229
2349.532550207628,1197
2351.38895924412,1205
2353.24494832197,1190
2355.100517724223,1252
2356.955667734004,1253
2358.810398634514,1252
2360.664710709037,1316
2362.5186042409337,1248
2364.3720795136437,1251
2366.225136810686,1163
2368.0777764156583,1154
2369.929998612237,1196
2371.7818036841777,1204
2373.633191915315,1257
2375.484163589562,1218
2377.3347189909114,1202
2379.184858403434,1199
2381.03458211128,1132
2382.8838903986775,1176
2384.732783549936,1234
2386.5812618494406,1180
2388.4293255816588,1181
2390.2769750311327,1220
2392.1242104824883,1186
2393.971032220427,1230
2395.8174405297295,1192
2397.6634356952563,1192
2399.509018001947,1175
2401.3541877348193,1207
2403.1989451789705,1231
2405.043290619576,1213
2406.8872243418905,1226
2408.730746631247,1230
2410.5738577730594,1189
2412.4165580528183,1206
2414.258847756095,1291
2416.100727168537,1223
2417.9421965758734,1184
2419.783256263912,1191
2421.623906518538,1214
2423.4641476257157,1267
2425.303979871491,1182
2427.143403541984,1255
2428.9824189233977,1177
2430.821026302012,1183
2432.6592259641866,1198
2434.497018196361,1204
2436.33440328505,1280
2438.171381516851,1234
2440.00795317844,1208
2441.844118556569,1228
2443.6798779380724,1236
2445.5152316098606,1259
2447.3501798589255,1250
2449.1847229723357,1254
2451.0188612372403,1237
2452.8525949408663,1133
2454.6859243705203,1173
2456.518849813587,1253
2458.3513715575314,1228
2460.183489889895,1205
2462.015205098301,1222
2463.8465174704493,1186
2465.67742729412,1272
2467.5079348571717,1239
2469.338040447542,1194
2471.1677443532476,1217
2472.9970468623833,1215
2474.825948263123,1127
2476.6544488437207,1225
2478.482548892508,1148
2480.310248697896,1207
2482.137548548374,1168
2483.9644487325118,1165
2485.790949538956,1174
2487.617051256433,1155
2489.44275417375,1214
2491.26805857979,1193
2493.0929647635157,1210
2494.917473013971,1174
2496.741583620276,1191
2498.5652968716304,1162
2500.3886130573137,1185
2502.2115324666834,1258
2504.0340553891765,1200
2505.856182114308,1191
2507.6779129316733,1207
2509.499248130945,1233
2511.3201880018764,1241
2513.140732834298,1201
2514.9608829181198,1180
2516.780638543331,1203
2518.6,1208
2520.418967578273,1161
2522.237541568376,1191
2524.0557222606144,1201
2525.8735099453706,1232
2527.6909049131086,1163
2529.507907454368,1235
2531.32451785977,1180
2533.140736420014,1126
2534.9565634258774,1188
2536.771999168218,1192
2538.5870439379714,1169
2540.4016980261526,1203
2542.2159617238544,1179
2544.02983532225,1210
2545.8433191125914,1249
2547.656413386209,1241
2549.4691184345115,1184
2551.2814345489874,1228
2553.093362021204,1201
2554.904901142808,1203
2556.716052205523,1219
2558.526815501153,1194
2560.3371913215824,1231
2562.147179958771,1218
2563.956781704761,1183
2565.7659968516705,1218
2567.5748256916986,1215
2569.3832685171224,1185
2571.1913256202984,1230
2572.9989972936614,1197
2574.806283829725,1233
2576.613185521084,1173
2578.4197026604074,1213
2580.2258355404483,1225
2582.031584454035,1197
2583.836949694077,1208
2585.6419315535613,1174
2587.4465303255533,1207
2589.2507463032002,1147
2591.0545797797245,1143
2592.8580310484303,1186
2594.6611004026995,1181
2596.463788135992,1212
2598.266094541849,1222
2600.0680199138874,1170
2601.869564545807,1177
2603.670728731383,1221
2605.4715127644704,1180
2607.2719169390048,1175
2609.071941548998,1195
2610.8715868885433,1220
2612.670853251811,1192
2614.469740933052,1162
2616.268250226594,1196
2618.0663814268455,1172
2619.864134828292,1201
2621.6615107255006,1206
2623.458509413115,1225
2625.2551311858597,1233
2627.0513763385347,1220
2628.8472451660223,1219
2630.6427379632833,1203
2632.4378550253564,1133
2634.232596647359,1184
2636.026963124488,1186
2637.8209547520187,1182
2639.6145718253065,1225
2641.407814639785,1168
2643.200683490966,1185
2644.9931786744414,1194
2646.7853004858807,1220
2648.577049221034,1179
2650.3684251757277,1264
2652.1594286458712,1223
2653.9500599274484,1177
2655.740319316525,1263
2657.5302071092437,1190
2659.3197236018286,1233
2661.10886909058,1223
2662.8976438718782,1203
2664.686048242183,1264
2666.4740824980327,1219
2668.2617469360443,1239
2670.0490418529134,1183
2671.8359675454153,1217
2673.622524310403,1229
2675.408712444811,1232
2677.1945322456495,1175
2678.979984010009,1190
2680.76506803506,1195
2682.5497846180497,1170
2684.334134056306,1136
2686.1181166472343,1137
2687.9017326883213,1319
2689.6849824771293,1220
2691.4678663113013,1196
2693.2503844885596,1259
2695.032537306705,1257
2696.8143250636167,1317
2698.5957480572542,1276
2700.3768065856534,1263
2702.1575009469316,1249
2703.937831439283,1223
2705.717798360982,1187
2707.4974020103837,1182
2709.276642685917,1221
2711.055520686095,1177
2712.834036309506,1203
2714.612189854819,1211
2716.389981620782,1190
2718.1674119062204,1219
2719.944481010041,1159
2721.721189231226,1190
2723.4975368688415,1223
2725.273524222027,1188
2727.0491515900053,1203
2728.824419272075,1164
2730.5993275676146,1206
2732.3738767760838,1168
2734.148067197016,1161
2735.921899130031,1227
2737.6953728748194,1230
2739.468488731156,1259
2741.2412469988926,1260
2743.0136479779617,1211
2744.785691968372,1209
2746.5573792702116,1315
2748.3287101836504,1251
2750.099685008934,1214
2751.870304046388,1196
2753.640567596418,1198
2755.4104759595057,1180
2757.1800294362156,1165
2758.949228327187,1174
2760.7180729331412,1215
2762.486563554877,1246
2764.254700493272,1220
2766.022484049284,1163
2767.789914523947,1176
2769.5569922183786,1165
2771.3237174337705,1195
2773.090090471394,1208
2774.8561116326036,1219
2776.6217812188274,1222
2778.3870995315756,1192
2780.1520668724356,1222
2781.9166835430747,1223
2783.6809498452394,1189
2785.444866080754,1239
2787.2084325515225,1173
2788.971649559527,1178
2790.73451740683,1213
2792.4970363955713,1183
2794.2592068279705,1165
2796.0210290063264,1163
2797.7825032330147,1236
2799.543629810493,1155
2801.304409041296,1229
2803.0648412280366,1203
2804.8249266734088,1158
2806.5846656801846,1209
2808.344058551212,1189
2810.1031055894246,1170
2811.8618070978273,1209
2813.6201633795085,1203
2815.378174737636,1277
2817.1358414754536,1187
2818.893163896285,1223
2820.6501423035334,1169
2822.4067770006814,1199
2824.1630682912883,1208
2825.9190164789957,1203
2827.6746218675207,1249
2829.429884760661,1230
2831.184805462294,1198
2832.9393842763743,1208
2834.693621506936,1178
2836.4475174580916,1171
2838.201072434034,1161
2839.954286739034,1140
2841.707160677441,1210
2843.459694553685,1196
2845.2118886722724,1224
2846.96374333779,1213
2848.7152588549034,1234
2850.4664355283567,1231
2852.217273662973,1186
2853.9677735636546,1206
2855.7179355353833,1159
2857.4677598832186,1242
2859.217246912299,1188
2860.9663969278427,1172
2862.715210235146,1197
2864.4636871395846,1183
2866.211827946614,1173
2867.9596329617652,1191
2869.7071024906536,1175
2871.4542368389684,1184
2873.20103631248,1204
2874.947501217038,1174
2876.6936318585695,1208
2878.4394285430812,1141
2880.1848915766604,1227
2881.9300212654707,1226
2883.6748179157553,1194
2885.4192818338374,1275
2887.1634133261173,1164
2888.907212699077,1177
2890.6506802592744,1260
2892.393816313348,1190
2894.1366211680142,1199
2895.8790951300693,1156
2897.621238506388,1209
2899.363051603925,1144
2901.1045347297118,1165
2902.8456881908596,1189
2904.58651229456,1227
2906.327007348081,1157
2908.067173658772,1149
2909.8070115340597,1115
2911.5465212814497,1218
2913.285703208527,1160
2915.0245576229563,1167
2916.7630848324807,1203
2918.5012851449196,1184
2920.2391588681758,1161
2921.976706310227,1199
2923.7139277791334,1221
2925.4508235830313,1231
2927.187394030137,1240
2928.923639428745,1244
2930.6595600872306,1194
2932.395156314046,1200
2934.1304284177218,1187
2935.8653767068713,1214
2937.6000014901815,1209
2939.3343030764227,1219
2941.068281774442,1176
2942.8019378931644,1206
2944.5352717415976,1191
2946.2682836288236,1201
2948.0009738640065,1252
2949.7333427563885,1278
2951.465390615289,1198
2953.1971177501086,1185
2954.9285244703265,1221
2956.6596110855,1233
2958.3903779052657,1264
2960.1208252393385,1267
2961.8509533975125,1233
2963.5807626896617,1181
2965.3102534257378,1237
2967.0394259157715,1149
2968.768280469873,1187
2970.496817398232,1264
2972.2250370111146,1220
2973.952939618869,1251
2975.6805255319196,1195
2977.4077950607707,1169
2979.134748516006,1247
2980.861386208289,1186
2982.587708448359,1203
2984.313715547037,1205
2986.039407815222,1214
2987.764785563891,1190
2989.489849104102,1187
2991.2145987469908,1210
2992.9390348037705,1165
2994.6631575857346,1228
2996.3869674042576,1222
2998.1104645707887,1192
2999.83364939686,1221
3001.5565221940783,1155
3003.2790832741334,1183
3005.0013329487924,1187
3006.7232715298996,1196
3008.4448993293804,1140
3010.166216659239,1182
3011.887223831558,1179
3013.607921158498,1143
3015.3283089522993,1163
3017.0483875252826,1140
3018.7681571898443,1198
3020.4876182584626,1204
3022.2067710436927,1249
3023.9256158581707,1218
3025.644153014609,1202
3027.362382825801,1179
3029.0803056046193,1184
3030.797921664012,1183
3032.5152313170106,1202
3034.2322348767225,1183
3035.9489326563353,1173
3037.665324969115,1169
3039.3814121284063,1128
3041.097194447633,1196
3042.812672240299,1266
3044.5278458199855,1203
3046.2427155003525,1192
3047.9572815951406,1218
3049.671544418167,1168
3051.38550428333,1206
3053.0991615046073,1245
3054.812516396051,1206
3056.5255692717974,1236
3058.2383204460575,1250
3059.9507702331257,1184
3061.662918947372,1235
3063.3747669032446,1217
3065.0863144152736,1232
3066.7975617980674,1163
3068.508509366309,1137
3070.219157434767,1181
3071.9295063182844,1183
3073.639556331785,1201
3075.3493077902704,1198
3077.058761008821,1160
3078.7679163025964,1191
3080.476773986837,1200
3082.1853343768594,1200
3083.89359778806,1117
3085.6015645359153,1172
3087.3092349359786,1114
3089.016609303884,1126
3090.7236879553434,1158
3092.4304712061476,1210
3094.136959372166,1193
3095.843152769349,1189
3097.5490517137237,1221
3099.2546565213966,1198
3100.959967508554,1182
3102.66498499146,1175
3104.3697092864577,1213
3106.0741407099695,1217
3107.778279578498,1148
3109.482126208622,1133
3111.1856809170004,1187
3112.8889440203716,1175
3114.5919158355528,1141
3116.294596679439,1227
3117.996986869006,1193
3119.6990867213062,1227
3121.4008965534726,1223
3123.102416682717,1189
3124.803647426329,1191
3126.5045891016784,1169
3128.205242026213,1169
3129.90560651746,1163
3131.605682893025,1108
3133.3054714705922,1167
3135.0049725679282,1192
3136.7041865028714,1154
3138.4031135933465,1138
3140.101754157353,1191
3141.800108512971,1160
3143.498176978357,1158
3145.1959598717494,1156
3146.8934575114636,1173
3148.5906702158954,1133
3150.2875983035183,1139
3151.9842420928853,1187
3153.680601902627,1142
3155.376678051456,1159
3157.07247085816,1213
3158.767980641609,1173
3160.463207720748,1167
3162.158152414606,1190
3163.8528150422862,1234
3165.5471959229726,1214
3167.2412953759303,1173
3168.9351137204976,1168
3170.628651276098,1172
3172.3219083622307,1199
3174.014885298474,1175
3175.707582404485,1199
3177.4000000000005,1196
3179.092138404835,1180
3180.7839979388846,1188
3182.47557892212,1157
3184.166881674594,1180
3185.8579065164386,1195
3187.5486537678626,1145
3189.2391237491547,1178
3190.9293167806827,1147
3192.6192331828934,1159
3194.3088732763117,1218
3195.998237381542,1131
3197.687325819268,1174
3199.376138910251,1195
3201.064676975334,1218
3202.7529403354347,1158
3204.4409293115523,1191
3206.1286442247647,1187
3207.816085396229,1145
3209.5032531471825,1167
3211.190147798936,1158
3212.8767696728846,1211
3214.5631190905015,1201
3216.2491963733373,1226
3217.9350018430214,1138
3219.6205358212637,1133
3221.305798629851,1103
3222.990790590651,1169
3224.6755120256103,1120
3226.359963256751,1142
3228.0441446061795,1168
3229.7280563960758,1176
3231.411698948703,1186
3233.0950725863995,1179
3234.778177631587,1182
3236.461014406761,1157
3238.1435832345005,1136
3239.8258844374595,1213
3241.507918338374,1155
3243.1896852600576,1165
3244.8711855254023,1148
3246.552419457381,1135
3248.233387379042,1171
3249.914089613516,1197
3251.59452648401,1187
3253.274698313813,1133
3254.95460542629,1198
3256.6342481448855,1202
3258.313626793125,1135
3259.9927416946084,1122
3261.6715931730196,1130
3263.3501815521176,1132
3265.0285071557437,1177
3266.706570307815,1122
3268.3843713323286,1132
3270.0619105533615,1166
3271.739188295068,1174
3273.4162048816834,1202
3275.0929606375184,1169
3276.769455886966,1140
3278.445690954498,1219
3280.1216661646613,1208
3281.797381842087,1205
3283.4728383114807,1179
3285.1480358976296,1199
3286.8229749253996,1169
3288.4976557197333,1206
3290.172078605655,1146
3291.846243908266,1187
3293.5201519527463,1135
3295.193803064357,1196
3296.8671975684374,1105
3298.5403357904024,1149
3300.21321805575,1139
3301.8858446900567,1168
3303.558216018975,1180
3305.23033236824,1231
3306.9021940636603,1164
3308.57380143113,1219
3310.2451547966184,1170
3311.916254486174,1184
3313.5871008259246,1166
3315.2576941420766,1225
3316.9280347609147,1212
3318.5981230088046,1156
3320.2679592121895,1151
3321.9375436975924,1184
3323.606876791612,1154
3325.27595882093,1213
3326.944790112305,1147
3328.6133709925753,1213
3330.2817017886573,1151
3331.949782827547,1176
3333.617614436319,1184
3335.2851969421245,1188
3336.952530672199,1141
3338.619615953853,1177
3340.286453114475,1199
3341.9530424815357,1155
3343.619384382583,1200
3345.2854791452437,1179
3346.951327097224,1172
3348.6169285663073,1217
3350.2822838803577,1179
3351.947393367319,1163
3353.61225735521,1215
3355.2768761721345,1154
3356.9412501462693,1117
3358.605379605873,1124
3360.2692648792827,1133
3361.9329062949146,1183
3363.596304181263,1138
