CollectionTime,9/26/2024 8:03:48 AM
ExposureUsed,3
CalibratedSpectrum
-962.7078968117929,687
-959.9714848408522,733
-957.2358232597828,704
-954.5009119013725,698
-951.7667505983302,745
-949.0333391832855,623
-946.3006774887896,623
-943.5687653473143,687
-940.837602591253,820
-938.1071890529199,705
-935.3775245645503,689
-932.6486089583007,702
-929.9204420662485,766
-927.1930237203925,778
-924.4663537526524,724
-921.7404319948689,733
-919.0152582788041,799
-916.2908324361409,905
-913.5671542984834,825
-910.8442236973568,752
-908.1220404642074,816
-905.4006044304027,744
-902.679915427231,683
-899.959973285902,755
-897.2407778375464,813
-894.5223289132158,708
-891.8046263438832,700
-889.0876699604426,673
-886.3714595937089,726
-883.6559950744183,819
-880.9412762332282,825
-878.2273029007168,692
-875.5140749073835,686
-872.8015920836489,625
-870.0898542598545,622
-867.3788612662631,626
-864.6686129330585,625
-861.9591090903457,628
-859.2503495681506,600
-856.5423341964203,627
-853.8350628050229,639
-851.1285352237478,648
-848.4227512823054,640
-845.7177108103272,749
-843.0134136373656,813
-840.3098595928943,774
-837.6070485063082,727
-834.9049802069229,703
-832.2036545239757,665
-829.5030712866244,683
-826.8032303239481,736
-824.1041314649472,777
-821.4057745385428,699
-818.7081593735775,624
-816.0112857988148,708
-813.3151536429393,677
-810.6197627345566,686
-807.9251129021936,712
-805.2312039742981,727
-802.5380357792392,648
-799.8456081453069,724
-797.1539209007124,758
-794.462973873588,748
-791.772766891987,710
-789.083299783884,770
-786.3945723771743,747
-783.7065844996748,720
-781.0193359791231,723
-778.3328266431781,721
-775.6470563194197,694
-772.9620248353489,690
-770.2777320183878,659
-767.5941776958798,587
-764.9113616950891,583
-762.2292838432011,618
-759.5479439673222,637
-756.8673418944801,663
-754.1874774516235,730
-751.5083504656222,697
-748.8299607632671,730
-746.15230817127,800
-743.475392516264,811
-740.7992136248035,683
-738.1237713233636,710
-735.4490654383407,803
-732.7750957960521,728
-730.1018622227365,723
-727.4293645445534,709
-724.7576025875837,741
-722.0865761778291,713
-719.4162851412126,737
-716.7467293035781,932
-714.0779084906909,880
-711.409822528237,718
-708.7424712418238,775
-706.0758544569796,815
-703.4099719991541,722
-700.7448236937178,715
-698.0804093659622,751
-695.4167288411002,796
-692.7537819442656,822
-690.0915685005134,829
-687.4300883348199,816
-684.7693412720819,722
-682.1093271371178,692
-679.4500457546669,693
-676.7914969493897,743
-674.1336805458676,688
-671.4765963686034,698
-668.8202442420206,687
-666.1646239904642,667
-663.5097354382001,751
-660.8555784094151,702
-658.2021527282176,665
-655.5494582186366,673
-652.8974947046223,735
-650.2462620100463,799
-647.5957599587009,812
-644.9459883742998,810
-642.2969470804776,867
-639.6486359007902,822
-637.0010546587141,807
-634.3542031776476,703
-631.7080812809096,725
-629.0626887917401,1085
-626.4180255333008,1317
-623.7740913286734,1012
-621.1308860008619,796
-618.4884093727904,847
-615.8466612673046,792
-613.2056415071715,837
-610.5653499150785,896
-607.9257863136347,883
-605.28695052537,826
-602.6488423727357,785
-600.0114616781036,1019
-597.3748082637674,1445
-594.7388819519412,1370
-592.1036825647604,1097
-589.4692099242818,1295
-586.8354638524829,1431
-584.2024441712624,1228
-581.5701507024403,1045
-578.9385832677575,931
-576.3077416888759,1018
-573.6776257873787,1288
-571.0482353847704,1195
-568.4195703024757,989
-565.7916303618415,875
-563.164415384135,866
-560.5379251905453,862
-557.9121596021815,965
-555.2871184400748,1016
-552.6628015251767,953
-550.0392086783606,989
-547.4163397204204,1056
-544.794194472071,1177
-542.1727727539491,1095
-539.5520743866118,1085
-536.9320991905377,1078
-534.3128469861261,1224
-531.6943175936979,1235
-529.0765108334947,1317
-526.4594265256793,1464
-523.8430644903358,1566
-521.2274245474689,1730
-518.612506517005,1953
-515.9983102187913,2249
-513.3848354725959,2679
-510.77208209810846,2742
-508.16004991493924,2895
-505.5487387426199,2931
-502.9381484006032,2525
-500.3282787082628,2144
-497.71912948489364,1892
-495.1107005497117,1496
-492.5029917218539,1288
-489.8960028203786,1204
-487.28973366426493,1060
-484.68418407241325,1058
-482.07935386364494,1051
-479.47524285670266,976
-476.87185087025,997
-474.2691777228715,1069
-471.66722323307334,1030
-469.0659872192821,1054
-466.4654694998459,1016
-463.86566989303384,967
-461.26658821703614,1181
-458.66822428996414,1127
-456.07057792985,1180
-453.4736489546475,1259
-450.877437182231,1079
-448.28194243039627,1002
-445.68716451686,1102
-443.09310325926003,1080
-440.49975847515555,1102
-437.9071299820263,1091
-435.31521759727354,1160
-432.72402113821954,1457
-430.13354042210767,1172
-427.5437752661022,1107
-424.95472548728867,1134
-422.36639090267386,1308
-419.7787713291855,1639
-417.1918665836721,1580
-414.60567648290385,1430
-412.0202008435715,1284
-409.4354394822874,1441
-406.8513922155845,1461
-404.26805885991723,1341
-401.685439231661,1236
-399.103533147112,1156
-396.522340422488,1195
-393.9418608739278,1221
-391.3620943174908,1337
-388.7830405691583,1344
-386.2046994448317,1238
-383.6270707603344,1368
-381.05015433141045,1443
-378.473949973725,1107
-375.8984575028645,1021
-373.32367673433623,1046
-370.74960748356875,1011
-368.1762495659117,980
-365.60360279663576,1030
-363.03166699093265,1131
-360.4604419639154,953
-357.8899275306178,878
-355.32012350599507,831
-352.7510297049233,870
-350.1826459421999,829
-347.61497203254316,845
-345.04800779059235,945
-342.4817530309082,1449
-339.91620756797226,1604
-337.35137121618743,1445
-334.7872437898774,1351
-332.22382510328725,1690
-329.66111497058273,1490
-327.09911320585127,1018
-324.53781962310075,870
-321.9772340362607,903
-319.4173562591816,958
-316.8581861056348,929
-314.2997233893127,961
-311.7419679238294,931
-309.1849195227194,1014
-306.62857799943856,1263
-304.0729431673641,1180
-301.51801483979375,1182
-298.963792829947,1275
-296.41027695096386,1327
-293.85746701590574,1688
-291.3053628377552,1723
-288.7539642294155,1765
-286.2032710037115,1834
-283.65328297338897,2211
-281.1039999511146,2541
-278.5554217494762,2891
-276.007548180983,1682
-273.4603790580651,1218
-270.9139141930734,1450
-268.3681533982807,1837
-265.8230964858798,2107
-263.27874326798565,1665
-260.7350935566336,1503
-258.1921471637804,1679
-255.6499039013039,1929
-253.10836358100266,1315
-250.56752601459698,1750
-248.02739101372765,2334
-245.48795838995704,2333
-242.94922795476816,1807
-240.41119951956557,1435
-237.8738728956746,1720
-235.33724789434166,1929
-232.80132432673452,1757
-230.2661020039418,1658
-227.73158073697357,2004
-225.19776033676033,2367
-222.66464061415422,2335
-220.1322213799284,1786
-217.60050244477725,1681
-215.06948361931552,2537
-212.53916471408013,3462
-210.00954553952818,3629
-207.48062590603843,2306
-204.9524056239104,1926
-202.4248845033651,2357
-199.8980623545441,2949
-197.37193898751036,2973
-194.84651421224817,2091
-192.32178783866232,2066
-189.79775967657952,2790
-187.27442953574644,3690
-184.7517972258321,3592
-182.2298625564256,2625
-179.7086253370378,2609
-177.18808537710026,3501
-174.66824248596583,4274
-172.14909647290835,3885
-169.6306471471229,2564
-167.11289431772548,2334
-164.59583779375328,2839
-162.07947738416453,4266
-159.5638128978386,4770
-157.04884414357605,4636
-154.53457093009854,3236
-152.02099306604828,2730
-149.50811035998936,3244
-146.99592262040665,4110
-144.48442965570587,5653
-141.97363127421409,7648
-139.46352728417958,6555
-136.95411749377126,4573
-134.44540171107985,3600
-131.93737974411636,3340
-129.43005140081357,4648
-126.92341648902493,8443
-124.41747481652521,12830
-121.91222619101006,12143
-119.40767042009657,9465
-116.90380731132257,7187
-114.40063667214702,4626
-111.8981583099503,4679
-109.3963720320337,8562
-106.89527764561933,16861
-104.39487495785067,28101
-101.89516377579241,29840
-99.39614390642998,25961
-96.89781515667039,17756
-94.40017733334128,16128
-91.90323024319173,13245
-89.40697369289148,12472
-86.91140748903172,18579
-84.41653143812482,35963
-81.92234534660395,58580
-79.42884902082358,65026
-76.93604226705907,65026
-74.4439248915071,65026
-71.95249670028534,65026
-69.46175749943245,65026
-66.97170709490854,65026
-64.48234529259423,65026
-61.99367189829195,65026
-59.50568671772464,65026
-57.01838955653636,65026
-54.53178022029283,65026
-52.045858514480074,65026
-49.560624244506016,65026
-47.07607721569923,65026
-44.59221723330904,65026
-42.10904410250669,65026
-39.62655762838392,65026
-37.14475761595372,65026
-34.66364387015028,65026
-32.18321619582866,65026
-29.70347439776515,65026
-27.224418280657005,65026
-24.74604764912317,65026
-22.26836230770266,65026
-19.7913620608565,65026
-17.315046712966478,65026
-14.83941606833514,65026
-12.36446993118659,65026
-9.89020810566592,65026
-7.416630395839093,65026
-4.94373660569363,65026
-2.471526539137585,65026
-6.821210263296962E-13,65026
2.47084320796705,65026
4.941003281093458,65026
7.410480415786196,65026
9.879274808531363,65026
12.347386655893956,65026
14.814816154518212,65026
17.28156350112681,65026
19.74762889252179,65026
22.21301252558385,31365
24.67771459727237,13659
27.141735304626195,16252
29.605074844762612,14035
32.06773341487792,11870
34.52971121224755,12460
36.99100843422559,15983
39.45162527824516,14654
41.91156194181792,13644
44.370818622535126,11007
46.82939551806646,10131
49.287292826160524,12394
51.74451074464503,11443
54.201049471426245,10611
56.65690920448981,8455
59.112090141899785,7516
61.56659248179983,6233
64.02041642241159,4884
66.4735621620365,6028
68.92602989905402,7736
71.37781983192338,7370
73.82893215918205,8243
76.27936707944684,8222
78.72912479141326,7754
81.17820549385567,7978
83.62660938562783,6884
86.07433666566146,6203
88.5213875329681,4638
90.96776218663751,5245
93.41346082583925,5204
95.85848364982041,4939
98.30283085790859,7996
100.7465026495089,7857
103.18949922410604,5931
105.63182078126385,5013
108.07346752062438,4382
110.51443964190923,3277
112.95473734491827,3813
115.39436082953114,4908
117.83331029570547,4910
120.27158594347827,4342
122.7091879729652,3973
125.1461165843615,4208
127.58237197794062,4585
130.01795435405518,4379
132.4528639131364,4046
134.88710085569494,4505
137.32066538231982,4075
139.75355769367923,3232
142.1857779905207,3213
144.61732647366978,3786
147.04820334403132,3690
149.47840880258934,2721
151.90794305040674,2810
154.33680628862487,3009
156.76499871846443,2775
159.19252054122433,2974
161.61937195828352,2912
164.04555317109896,3722
166.47106438120693,3592
168.89590579022217,3176
171.320077599839,3341
173.7435800118302,4293
176.16641322804742,4323
178.58857745042144,3566
181.01007288096173,3883
183.43089972175687,4360
185.85105817497413,3530
188.27054844285988,3093
190.6893707277394,3098
193.10752523201643,3720
195.5250121581745,3428
197.9418317087751,3075
200.3579840864594,3325
202.7734694939469,3613
205.18828813403627,3231
207.6024402096051,3269
210.01592592360964,3383
212.42874547908548,3109
214.84089907914665,3322
217.2523869269868,3399
219.66320922587727,3166
222.0733661791695,2814
224.48285799029293,2973
226.8916848627572,3148
229.29984700014882,2973
231.7073446061355,3032
234.11417788446204,3115
236.520347038953,3319
238.92585227351185,3283
241.33069379212054,3082
243.73487179884035,3010
246.1383864978112,3194
248.541238093252,3529
250.9434267894609,3424
253.34495279081432,3190
255.74581630176783,2740
258.1460175268563,2826
260.54555667069314,3092
262.9444339379703,3563
265.3426495334594,3398
267.7402036620107,3490
270.1370965285529,3476
272.53332833809407,3226
274.9288992957214,3433
277.32380960660055,3706
279.718059475976,3295
282.1116491091717,2849
284.5045787115897,2794
286.89684848871195,2801
289.2884586460981,2830
291.67940938938807,3343
294.0697009242996,3036
296.4593334566299,3145
298.84830719225477,3267
301.23662233712923,3259
303.6242790972866,3021
306.01127767884,2967
308.39761828798066,3150
310.78330113097934,2682
313.16832641418534,2525
315.5526943440269,2617
317.9364051270112,2902
320.3194589697242,2792
322.70185607883093,2702
325.0835966610754,2668
327.4646809232805,2584
329.8451090723478,2698
332.2248813152577,2581
334.6039978590701,2443
336.9824589109231,2365
339.36026467803447,2291
341.7374153677,2279
344.113911187295,2325
346.48975234427337,2372
348.8649390461686,2485
351.2394715005918,2379
353.61334991523415,2392
355.9865744978655,2206
358.35914545633375,2286
360.73106299856715,2368
363.10232733257146,2473
365.47293866643247,2509
367.84289720831396,2287
370.2122031664593,2206
372.5808567491905,2397
374.9488581649083,2188
377.31620762209275,2062
379.6829053293021,2099
382.0489514951745,2352
384.4143463284262,2409
386.7790900378528,2253
389.14318283232853,2355
391.50662492080653,2481
393.86941651231916,2694
396.23155781597745,2925
398.5930490409713,2669
400.9538903965696,2398
403.3140820921202,2397
405.6736243370498,2393
408.03251734086336,2263
410.3907613131465,2148
412.74835646356166,2129
415.10530300185144,2168
417.4616011378372,2257
419.81725108141893,2172
422.1722530425758,2160
424.5266072313656,2294
426.880313857925,2261
429.2333731324701,2054
431.58578526529516,1930
433.9375504667738,2003
436.2886689473588,1982
438.63914091758113,1902
440.9889665880513,1977
443.33814616945835,1969
445.68667987257015,2068
448.03456790823395,2069
450.3818104873759,1987
452.72840782100013,1964
455.07436012019105,1936
457.41966759611057,1912
459.7643304600007,1919
462.10834892318155,2055
464.4517231970525,2040
466.79445349309174,2028
469.1365400228566,2015
471.4779829979826,2097
473.81878263018564,1942
476.15893913125876,2074
478.4984527130747,2401
480.8373235875855,2357
483.17555196682144,2236
485.5131380628919,2266
487.8500820879857,2270
490.1863842543697,2379
492.52204477439034,2807
494.8570638604725,3050
497.1914417251204,3662
499.52517858091653,4322
501.85827464052306,5325
504.19073011668036,6108
506.5225452222086,6542
508.85372017000566,6895
511.18425517304956,7255
513.514150444396,8251
515.8434061971808,9662
518.1720226446176,9680
520.4999999999999,9104
522.8273384766991,8091
525.1540382881666,6963
527.480099647932,5570
529.8055227696037,4037
532.1303078668694,3199
534.454455153496,2714
536.777964843328,2532
539.1008371502907,2348
541.4230722883866,2490
543.744670471698,2303
546.0656319143858,2297
548.3859568306899,2484
550.7056454349294,2657
553.0246979415016,2786
555.3431145648834,2504
557.6608955196306,2217
559.978041020377,2398
562.2945512818363,2266
564.6104265188006,2109
566.9256669461412,2125
569.2402727788082,2318
571.5542442318302,2348
573.8675815203156,2079
576.1802848594508,2143
578.4923544645015,2146
580.8037905508126,2146
583.114593333807,2011
585.4247630289875,2155
587.7342998519354,2338
590.0432040183106,2391
592.3514757438526,2106
594.6591152443794,2015
596.9661227357875,2246
599.2724984340531,2209
601.578242555231,2130
603.8833553154542,2143
606.1878369309362,2045
608.4916876179676,1901
610.7949075929192,1961
613.0974970722403,2024
615.3994562724587,2013
617.7007854101818,1973
620.0014847020951,1966
622.3015543649641,1941
624.6009946156324,1956
626.8998056710224,1978
629.1979877481361,1981
631.4955410640538,1895
633.7924658359349,1863
636.0887622810175,1955
638.3844306166192,1908
640.6794710601358,2048
642.9738838290426,2085
645.2676691408932,2168
647.5608272133207,2142
649.853358264037,2175
652.1452625108324,2109
654.4365401715764,2027
656.7271914642178,2120
659.0172166067838,2170
661.3066158173809,1997
663.5953893141935,1997
665.8835373154867,2178
668.1710600396028,2182
670.4579577049639,2190
672.7442305300709,1966
675.0298787335033,2034
677.3149025339197,2021
679.599302150058,2064
681.8830778007342,2131
684.1662297048437,2112
686.4487580813608,1993
688.7306631493387,2000
691.0119451279091,2075
693.2926042362834,1943
695.5726406937516,2050
697.8520547196814,2046
700.1308465335215,1946
702.4090163547982,1983
704.6865644031171,1975
706.9634908981619,2026
709.2397960596965,1940
711.5154801075631,1935
713.7905432616823,2085
716.0649857420548,1961
718.3388077687592,1937
720.612009561953,1977
722.8845913418733,1835
725.1565533288352,1870
727.427895743234,1888
729.6986188055427,2080
731.9687227363137,2121
734.238207756178,1973
736.5070740858458,1939
738.7753219461066,2045
741.0429515578281,2032
743.3099631419569,2100
745.5763569195191,1989
747.8421331116193,1963
750.1072919394409,2002
752.3718336242467,2108
754.6357583873777,1954
756.8990664502545,2011
759.1617580343765,1959
761.423833361321,2052
763.6852926527457,1979
765.9461361303862,2025
768.206364016058,2202
770.4659765316536,2213
772.7249738991469,2020
774.9833563405886,1959
777.2411240781092,2042
779.4982773339183,1969
781.7548163303044,2117
784.010741289634,2098
786.2660524343538,2182
788.5207499869881,2175
790.7748341701416,2148
793.0283052064964,2060
795.2811633188143,2062
797.5334087299362,2059
799.7850416627813,1955
802.0360623403484,2130
804.2864709857143,2207
806.5362678220353,2175
808.7854530725468,2022
811.0340269605625,2106
813.2819897094754,2249
815.5293415427581,2170
817.77608268396,2057
820.0222133567116,2038
822.2677337847211,2293
824.5126441917765,2336
826.7569448017433,2079
829.0006358385675,1955
831.2437175262731,2035
833.4861900889629,2019
835.7280537508192,2087
837.9693087361026,1878
840.2099552691533,1809
842.4499935743896,1774
844.689423876309,2035
846.9282463994886,2026
849.1664613685833,1934
851.4040690083276,1854
853.6410695435349,1962
855.877463199097,2062
858.1132501999847,2018
860.3484307712487,2047
862.5830051380175,1954
864.8169735254988,1958
867.0503361589791,1976
869.2830932638243,2037
871.5152450654786,2001
873.7467917894654,1978
875.9777336613873,2067
878.2080709069252,1967
880.4378037518389,2003
882.666932421968,2159
884.8954571432301,2339
887.1233781416219,2280
889.3506956432192,2077
891.5774098741766,1925
893.803521060728,1960
896.0290294291852,1990
898.2539352059397,2066
900.4782386174619,2249
902.7019398903011,2305
904.925039251085,2234
907.147536926521,1991
909.3694331433943,2052
911.59072812857,2128
913.8114221089921,2054
916.0315153116827,2065
918.2510079637437,2029
920.4699002923547,2008
922.6881925247761,2099
924.905884888345,2130
927.1229776104793,2117
929.3394709186747,2070
931.555365040506,2033
933.7706602036275,2089
935.9853566357709,2213
938.1994545647489,2325
940.4129542184515,2240
942.6258558248488,2220
944.8381596119883,2296
947.0498658079974,2329
949.2609746410825,2310
951.4714863395287,2181
953.6814011316998,2229
955.8907192460387,2130
958.0994409110671,2269
960.3075663553858,2300
962.5150958076741,2312
964.7220294966913,2255
966.928367651274,2158
969.1341105003388,2089
971.3392582728806,2133
973.5438111979742,2058
975.747769504772,1995
977.9511334225061,1985
980.153903180487,2087
982.3560790081052,2022
984.5576611348289,2028
986.7586497902058,1970
988.9590452038618,2043
991.158847605503,2041
993.3580572249133,2104
995.5566742919558,2022
997.7546990365728,1869
999.952131688785,1823
1002.1489724786926,1687
1004.3452216364743,1739
1006.5408793923874,1667
1008.7359459767691,1603
1010.9304216200343,1601
1013.1243065526781,1555
1015.3176010052733,1532
1017.510305208472,1649
1019.7024193930064,1960
1021.8939437896848,1848
1024.0848786293977,1622
1026.2752241431122,1549
1028.4649805618747,1518
1030.6541481168115,1546
1032.842727039127,1516
1035.0307175601051,1509
1037.2181199111074,1548
1039.4049343235752,1481
1041.591161029029,1494
1043.7768002590683,1441
1045.9618522453698,1489
1048.1463172196918,1573
1050.3301954138697,1560
1052.513487059818,1482
1054.69619238953,1460
1056.8783116350783,1475
1059.0598450286152,1602
1061.2407928023704,1547
1063.4211551886528,1487
1065.6009324198508,1451
1067.780124728432,1435
1069.9587323469414,1428
1072.1367555080046,1387
1074.314194444325,1474
1076.4910493886855,1456
1078.667320573947,1414
1080.843008233051,1432
1083.0181125990161,1363
1085.1926339049414,1452
1087.3665723840027,1379
1089.5399282694575,1416
1091.7127017946405,1416
1093.8848931929647,1387
1096.0565026979243,1424
1098.2275305430899,1403
1100.3979769621128,1475
1102.567842188722,1436
1104.737126456726,1440
1106.9058300000124,1411
1109.0739530525475,1353
1111.2414958483764,1384
1113.4084586216231,1387
1115.5748416064907,1437
1117.7406450372605,1458
1119.9058691482942,1467
1122.0705141740304,1418
1124.2345803489884,1435
1126.3980679077658,1430
1128.5609770850388,1475
1130.7233081155623,1323
1132.8850612341707,1290
1135.0462366757774,1276
1137.2068346753745,1309
1139.3668554680326,1425
1141.526299288901,1292
1143.68516637321,1452
1145.8434569562655,1388
1148.001171273455,1394
1150.158309560244,1374
1152.3148720521767,1363
1154.470858984876,1428
1156.626270594044,1405
1158.7811071154629,1329
1160.9353687849912,1379
1163.089055838569,1423
1165.242168512213,1465
1167.3947070420209,1353
1169.5466716641677,1344
1171.6980626149075,1488
1173.8488801305748,1502
1175.9991244475814,1412
1178.1487958024186,1412
1180.2978944316555,1459
1182.4464205719428,1371
1184.5943744600072,1267
1186.7417563326567,1352
1188.8885664267755,1228
1191.0348049793297,1321
1193.1804722273619,1273
1195.325568407995,1363
1197.4700937584303,1374
1199.614048515948,1311
1201.7574329179074,1335
1203.900247201746,1326
1206.042491604982,1324
1208.1841663652099,1320
1210.3252717201053,1274
1212.465807907422,1361
1214.6057751649923,1315
1216.7451737307279,1328
1218.8840038426192,1416
1221.0222657387353,1349
1223.1599596572241,1334
1225.2970858363137,1290
1227.4336445143094,1333
1229.5696359295966,1348
1231.705060320639,1303
1233.8399179259786,1373
1235.9742089842384,1443
1238.107933734118,1377
1240.2410924143974,1390
1242.373685263935,1402
1244.5057125216676,1363
1246.6371744266116,1387
1248.7680712178621,1410
1250.898403134593,1377
1253.028170416058,1340
1255.1573733015875,1395
1257.2860120305932,1358
1259.4140868425648,1415
1261.54159797707,1407
1263.6685456737569,1448
1265.7949301723515,1506
1267.9207517126597,1357
1270.046010534565,1403
1272.1707068780306,1346
1274.2948409830983,1326
1276.4184130898889,1425
1278.541423438603,1339
1280.6638722695184,1364
1282.785759822993,1336
1284.9070863394636,1371
1287.0278520594447,1390
1289.1480572235314,1371
1291.2677020723963,1384
1293.3867868467923,1434
1295.5053117875495,1351
1297.623277135579,1397
1299.740683131868,1378
1301.8575300174857,1434
1303.973818033578,1494
1306.0895474213703,1356
1308.2047184221678,1488
1310.3193312773528,1461
1312.4333862283888,1462
1314.5468835168163,1350
1316.659823384255,1347
1318.7722060724045,1229
1320.8840318230418,1333
1322.9953008780249,1369
1325.1060134792888,1317
1327.2161698688478,1386
1329.3257702887959,1415
1331.4348149813054,1362
1333.5433041886276,1302
1335.6512381530933,1265
1337.7586171171101,1324
1339.8654413231675,1291
1341.9717110138317,1282
1344.0774264317488,1329
1346.1825878196432,1316
1348.2871954203192,1338
1350.3912494766587,1307
1352.4947502316231,1357
1354.5976979282532,1294
1356.7000928096686,1244
1358.8019351190665,1359
1360.9032250997243,1323
1363.0039629949988,1304
1365.1041490483235,1300
1367.2037835032133,1303
1369.3028666032606,1304
1371.401398592137,1374
1373.4993797135926,1373
1375.5968102114575,1333
1377.6936903296396,1377
1379.7900203121262,1390
1381.8858004029835,1353
1383.9810308463561,1303
1386.075711886469,1344
1388.1698437676241,1401
1390.2634267342032,1382
1392.356461030667,1465
1394.4489469015557,1351
1396.5408845914872,1329
1398.6322743451592,1286
1400.7231164073469,1325
1402.813411022907,1450
1404.903158436773,1434
1406.9923588939578,1451
1409.0810126395531,1404
1411.1691199187303,1399
1413.2566809767386,1329
1415.343696058907,1357
1417.4301654106425,1396
1419.5160892774315,1439
1421.6014679048399,1323
1423.6863015385125,1335
1425.7705904241707,1390
1427.8543348076178,1370
1429.9375349347342,1363
1432.0201910514802,1344
1434.102303403894,1422
1436.1838722380944,1354
1438.2648978002767,1330
1440.3453803367174,1406
1442.4253200937692,1382
1444.5047173178677,1347
1446.5835722555234,1312
1448.6618851533285,1315
1450.739656257952,1345
1452.8168858161434,1335
1454.8935740747306,1395
1456.96972128062,1368
1459.045327680797,1411
1461.120393522327,1390
1463.1949190523528,1345
1465.2689045180973,1368
1467.3423501668608,1361
1469.415256246024,1360
1471.4876230030463,1301
1473.559450685465,1346
1475.6307395408976,1413
1477.7014898170391,1455
1479.771701761665,1394
1481.8413756226287,1354
1483.9105116478618,1381
1485.9791100853772,1405
1488.0471711832643,1355
1490.1146951896926,1401
1492.1816823529098,1357
1494.2481329212433,1391
1496.3140471430984,1408
1498.3794252669609,1397
1500.4442675413939,1386
1502.5085742150404,1479
1504.572345536622,1492
1506.6355817549388,1366
1508.6982831188702,1337
1510.7604498773744,1362
1512.8220822794883,1398
1514.8831805743293,1387
1516.9437450110909,1428
1519.003775839048,1332
1521.0632733075522,1314
1523.1222376660367,1391
1525.1806691640113,1307
1527.2385680510652,1303
1529.2959345768668,1296
1531.3527689911643,1318
1533.4090715437833,1337
1535.4648424846291,1357
1537.5200820636855,1382
1539.5747905310159,1380
1541.6289681367616,1366
1543.6826151311434,1369
1545.7357317644614,1427
1547.7883182870937,1316
1549.8403749494987,1321
1551.8919020022113,1325
1553.9428996958477,1382
1555.9933682811015,1365
1558.0433080087469,1393
1560.0927191296346,1311
1562.1416018946961,1327
1564.1899565549415,1369
1566.2377833614592,1355
1568.2850825654164,1363
1570.3318544180606,1315
1572.3780991707158,1330
1574.423817074788,1317
1576.4690083817595,1317
1578.5136733431923,1298
1580.5578122107272,1327
1582.601425236085,1420
1584.6445126710646,1366
1586.6870747675434,1296
1588.7291117774776,1361
1590.7706239529034,1337
1592.8116115459347,1371
1594.8520748087658,1342
1596.8920139936686,1275
1598.9314293529933,1340
1600.9703211391711,1339
1603.008689604711,1345
1605.0465350022005,1328
1607.0838575843068,1331
1609.1206576037753,1323
1611.1569353134305,1307
1613.1926909661765,1352
1615.2279248149953,1374
1617.2626371129481,1345
1619.2968281131757,1377
1621.3304980688963,1377
1623.3636472334088,1298
1625.39627586009,1326
1627.428384202396,1313
1629.459972513861,1315
1631.4910410480993,1366
1633.5215900588028,1365
1635.551619799744,1408
1637.5811305247717,1446
1639.6101224878166,1396
1641.6385959428862,1410
1643.6665511440683,1349
1645.693988345528,1255
1647.7209078015112,1334
1649.7473097663405,1355
1651.7731944944203,1410
1653.7985622402307,1350
1655.823413258333,1323
1657.847747803366,1324
1659.8715661300494,1342
1661.8948684931793,1352
1663.9176551476316,1391
1665.9399263483624,1411
1667.9616823504057,1311
1669.982923408873,1332
1672.0036497789574,1340
1674.0238617159293,1319
1676.043559475138,1310
1678.0627433120121,1257
1680.081413482059,1337
1682.0995702408654,1320
1684.117213844096,1306
1686.134344547495,1309
1688.1509626068864,1280
1690.1670682781705,1311
1692.182661817329,1363
1694.1977434804217,1435
1696.2123135235875,1456
1698.226372203043,1528
1700.2399197750851,1406
1702.2529564960905,1395
1704.2654826225112,1315
1706.277498410882,1326
1708.2890041178139,1315
1710.2999999999988,1310
1712.3104863142066,1346
1714.3204633172854,1312
1716.329931266163,1287
1718.3388904178469,1331
1720.3473410294214,1402
1722.3552833580516,1323
1724.3627176609807,1356
1726.3696441955308,1323
1728.3760632191033,1277
1730.3819749891782,1332
1732.3873797633146,1357
1734.3922777991502,1283
1736.3966693544012,1286
1738.4005546868639,1282
1740.4039340544127,1341
1742.406807715001,1366
1744.4091759266616,1354
1746.4110389475054,1323
1748.4123970357223,1368
1750.413250449582,1294
1752.4135994474318,1300
1754.4134442876993,1278
1756.4127852288902,1283
1758.4116225295893,1337
1760.4099564484595,1341
1762.407787244244,1386
1764.405115175764,1325
1766.4019405019203,1304
1768.3982634816916,1290
1770.3940843741357,1355
1772.3894034383907,1399
1774.3842209336717,1385
1776.378537119274,1342
1778.372352254571,1286
1780.3656665990156,1322
1782.3584804121397,1312
1784.3507939535534,1354
1786.3426074829463,1331
1788.3339212600863,1346
1790.3247355448211,1384
1792.3150505970766,1297
1794.3048666768573,1296
1796.2941840442477,1316
1798.2830029594106,1380
1800.2713236825884,1323
1802.2591464741004,1333
1804.2464715943465,1376
1806.2332993038058,1375
1808.2196298630352,1349
1810.2054635326708,1388
1812.190800573428,1380
1814.175641246101,1325
1816.1599858115628,1393
1818.1438345307652,1356
1820.127187664738,1376
1822.1100454745924,1339
1824.092408221516,1387
1826.0742761667766,1344
1828.055649571721,1332
1830.0365286977735,1317
1832.0169138064398,1345
1833.9968051593014,1346
1835.9762030180214,1388
1837.9551076443408,1423
1839.9335193000788,1399
1841.9114382471344,1316
1843.888864747485,1296
1845.8657990631878,1309
1847.842241456378,1326
1849.8181921892697,1332
1851.7936515241558,1316
1853.7686197234098,1307
1855.7430970494815,1347
1857.7170837649014,1301
1859.6905801322787,1283
1861.6635864143004,1359
1863.6361028737338,1318
1865.608129773424,1325
1867.5796673762961,1297
1869.5507159453537,1344
1871.521275743678,1336
1873.4913470344313,1370
1875.4609300808534,1358
1877.4300251462632,1315
1879.3986324940588,1370
1881.366752387717,1368
1883.3343850907936,1376
1885.3015308669228,1379
1887.268189979819,1372
1889.2343626932739,1364
1891.2000492711595,1308
1893.1652499774254,1424
1895.1299650761011,1332
1897.0941948312952,1373
1899.0579395071945,1331
1901.0211993680641,1370
1902.98397467825,1365
1904.9462657021745,1360
1906.9080727043415,1270
1908.869395949332,1353
1910.8302357018065,1363
1912.790592226504,1378
1914.7504657882428,1320
1916.7098566519212,1267
1918.6687650825133,1261
1920.6271913450764,1241
1922.5851357047422,1330
1924.5425984267245,1326
1926.499579776314,1355
1928.4560800188833,1368
1930.4120994198802,1355
1932.367638244833,1381
1934.32269675935,1374
1936.2772752291175,1360
1938.231373919899,1407
1940.1849930975404,1435
1942.1381330279637,1403
1944.0907939771696,1395
1946.0429762112412,1349
1947.9946799963363,1297
1949.9459055986945,1398
1951.896653284633,1353
1953.8469233205478,1349
1955.7967159729142,1310
1957.7460315082863,1364
1959.6948701932974,1339
1961.6432322946594,1318
1963.5911180791632,1353
1965.5385278136787,1271
1967.4854617651545,1360
1969.4319202006182,1375
1971.377903387176,1326
1973.3234115920136,1291
1975.268445082395,1327
1977.2130041256642,1311
1979.1570889892423,1269
1981.1006999406304,1375
1983.04383724741,1411
1984.986501177238,1392
1986.928691997853,1457
1988.8704099770712,1400
1990.811655382789,1413
1992.7524284829801,1335
1994.692729545698,1335
1996.6325588390755,1356
1998.5719166313224,1338
2000.5108031907307,1339
2002.4492187856677,1335
2004.387163684583,1370
2006.3246381560011,1389
2008.2616424685298,1318
2010.1981768908527,1345
2012.1342416917332,1332
2014.069837140014,1367
2016.0049635046162,1395
2017.9396210545406,1339
2019.8738100588666,1326
2021.8075307867502,1347
2023.740783507431,1361
2025.6735684902228,1345
2027.6058860045214,1353
2029.5377363198004,1351
2031.4691197056118,1380
2033.4000364315875,1408
2035.3304867674374,1375
2037.260470982952,1413
2039.189989347998,1447
2041.1190421325232,1425
2043.047629606554,1354
2044.9757520401945,1365
2046.9034097036288,1304
2048.8306028671195,1371
2050.7573318010086,1388
2052.683596775716,1331
2054.609398061742,1315
2056.5347359296647,1334
2058.4596106501403,1342
2060.384022493906,1318
2062.3079717317764,1353
2064.231458634646,1370
2066.1544834734873,1273
2068.077046519352,1342
2069.99914804337,1383
2071.9207883167524,1324
2073.8419676107865,1346
2075.7626861968406,1329
2077.6829443463607,1328
2079.6027423308715,1315
2081.522080421977,1355
2083.440958891362,1365
2085.359378010786,1361
2087.2773380520907,1371
2089.194839287196,1367
2091.111881988101,1333
2093.0284664268825,1362
2094.9445928756973,1347
2096.86026160678,1346
2098.775472892446,1336
2100.690227005088,1355
2102.604524217178,1385
2104.5183648012676,1417
2106.431749029985,1391
2108.34467717604,1360
2110.2571495122206,1369
2112.169166311393,1419
2114.080727846503,1330
2115.9918343905747,1374
2117.902486216711,1312
2119.8126835980956,1322
2121.722426807987,1333
2123.6317161197285,1356
2125.5405518067364,1332
2127.448934142509,1391
2129.356863400624,1354
2131.264339854737,1400
2133.1713637785815,1356
2135.077935445972,1328
2136.9840551308002,1341
2138.889723107037,1358
2140.7949396487334,1389
2142.699705030018,1382
2144.6040195250994,1363
2146.507883408264,1381
2148.4112969538774,1362
2150.3142604363848,1355
2152.2167741303097,1447
2154.1188383102535,1379
2156.0204532508997,1352
2157.9216192270064,1351
2159.822336513414,1345
2161.7226053850413,1347
2163.622426116884,1369
2165.5217989840185,1405
2167.4207242616,1390
2169.319202224862,1389
2171.2172331491165,1453
2173.1148173097563,1370
2175.0119549822507,1364
2176.90864644215,1426
2178.8048919650823,1417
2180.7006918267534,1423
2182.596046302952,1381
2184.4909556695407,1354
2186.3854202024645,1371
2188.279440177746,1429
2190.173015871487,1407
2192.066147559868,1427
2193.958835519149,1341
2195.851080025667,1358
2197.7428813558417,1359
2199.6342397861667,1359
2201.5251555932186,1429
2203.415629053651,1363
2205.3056604441986,1421
2207.19525004167,1381
2209.084398122958,1451
2210.9731049650327,1406
2212.861370844941,1402
2214.749196039812,1415
2216.636580826851,1374
2218.523525483344,1440
2220.410030286655,1381
2222.296095514226,1373
2224.1817214435805,1453
2226.066908352319,1391
2227.951656518121,1430
2229.835966218746,1388
2231.71983773203,1365
2233.6032713358913,1355
2235.486267308324,1396
2237.3688259274036,1401
2239.2509474712824,1407
2241.132632218193,1401
2243.013880446447,1395
2244.8946924344323,1394
2246.7750684606203,1411
2248.6550088035574,1409
2250.534513741871,1440
2252.413583554265,1399
2254.292218519526,1390
2256.170418916517,1449
2258.0481850241786,1436
2259.925517121534,1372
2261.8024154876825,1363
2263.678880401803,1396
2265.5549121431536,1429
2267.430510991071,1427
2269.305677224971,1329
2271.180411124348,1335
2273.0547129687766,1414
2274.9285830379076,1353
2276.8020216114737,1406
2278.6750289692845,1418
2280.5476053912294,1333
2282.4197511572766,1345
2284.2914665474727,1433
2286.162751841943,1308
2288.0336073208937,1374
2289.904033264608,1420
2291.774029953448,1405
2293.6435976678554,1392
2295.5127366883517,1402
2297.381447295534,1356
2299.2497297700825,1359
2301.1175843927526,1317
2302.9850114443825,1263
2304.852011205885,1309
2306.7185839582553,1252
2308.5847299825664,1231
2310.4504495599676,1245
2312.3157429716925,1188
2314.1806104990483,1177
2316.0450524234247,1194
2317.9090690262888,1182
2319.772660589186,1177
2321.635827393742,1162
2323.498569721661,1114
2325.3608878547248,1198
2327.2227820747967,1186
2329.0842526638157,1184
2330.945299903803,1189
2332.805924076857,1157
2334.6661254651535,1105
2336.525904350951,1201
2338.3852610165827,1163
2340.244195744464,1159
2342.102708817088,1152
2343.9608005170253,1193
2345.8184711269287,1218
2347.675720929526,1184
2349.532550207628,1217
2351.38895924412,1258
2353.24494832197,1169
2355.100517724223,1178
2356.955667734004,1221
2358.810398634514,1281
2360.664710709037,1262
2362.5186042409337,1169
2364.3720795136437,1161
2366.225136810686,1171
2368.0777764156583,1180
2369.929998612237,1159
2371.7818036841777,1217
2373.633191915315,1147
2375.484163589562,1192
2377.3347189909114,1163
2379.184858403434,1154
2381.03458211128,1159
2382.8838903986775,1173
2384.732783549936,1225
2386.5812618494406,1193
2388.4293255816588,1154
2390.2769750311327,1209
2392.1242104824883,1247
2393.971032220427,1167
2395.8174405297295,1166
2397.6634356952563,1188
2399.509018001947,1177
2401.3541877348193,1197
2403.1989451789705,1197
2405.043290619576,1230
2406.8872243418905,1209
2408.730746631247,1140
2410.5738577730594,1169
2412.4165580528183,1198
2414.258847756095,1177
2416.100727168537,1134
2417.9421965758734,1135
2419.783256263912,1154
2421.623906518538,1236
2423.4641476257157,1193
2425.303979871491,1216
2427.143403541984,1191
2428.9824189233977,1173
2430.821026302012,1201
2432.6592259641866,1178
2434.497018196361,1137
2436.33440328505,1180
2438.171381516851,1136
2440.00795317844,1209
2441.844118556569,1186
2443.6798779380724,1216
2445.5152316098606,1205
2447.3501798589255,1211
2449.1847229723357,1179
2451.0188612372403,1188
2452.8525949408663,1167
2454.6859243705203,1175
2456.518849813587,1153
2458.3513715575314,1238
2460.183489889895,1170
2462.015205098301,1162
2463.8465174704493,1131
2465.67742729412,1218
2467.5079348571717,1180
2469.338040447542,1157
2471.1677443532476,1185
2472.9970468623833,1172
2474.825948263123,1144
2476.6544488437207,1118
2478.482548892508,1162
2480.310248697896,1181
2482.137548548374,1187
2483.9644487325118,1197
2485.790949538956,1160
2487.617051256433,1160
2489.44275417375,1142
2491.26805857979,1199
2493.0929647635157,1196
2494.917473013971,1181
2496.741583620276,1146
2498.5652968716304,1149
2500.3886130573137,1149
2502.2115324666834,1187
2504.0340553891765,1127
2505.856182114308,1206
2507.6779129316733,1218
2509.499248130945,1218
2511.3201880018764,1298
2513.140732834298,1166
2514.9608829181198,1165
2516.780638543331,1180
2518.6,1128
2520.418967578273,1116
2522.237541568376,1186
2524.0557222606144,1218
2525.8735099453706,1175
2527.6909049131086,1150
2529.507907454368,1198
2531.32451785977,1128
2533.140736420014,1170
2534.9565634258774,1187
2536.771999168218,1199
2538.5870439379714,1198
2540.4016980261526,1158
2542.2159617238544,1155
2544.02983532225,1143
2545.8433191125914,1167
2547.656413386209,1139
2549.4691184345115,1190
2551.2814345489874,1235
2553.093362021204,1178
2554.904901142808,1137
2556.716052205523,1149
2558.526815501153,1166
2560.3371913215824,1205
2562.147179958771,1160
2563.956781704761,1194
2565.7659968516705,1160
2567.5748256916986,1179
2569.3832685171224,1206
2571.1913256202984,1158
2572.9989972936614,1163
2574.806283829725,1148
2576.613185521084,1216
2578.4197026604074,1200
2580.2258355404483,1214
2582.031584454035,1161
2583.836949694077,1148
2585.6419315535613,1192
2587.4465303255533,1173
2589.2507463032002,1186
2591.0545797797245,1164
2592.8580310484303,1147
2594.6611004026995,1147
2596.463788135992,1198
2598.266094541849,1213
2600.0680199138874,1216
2601.869564545807,1145
2603.670728731383,1136
2605.4715127644704,1157
2607.2719169390048,1218
2609.071941548998,1224
2610.8715868885433,1134
2612.670853251811,1147
2614.469740933052,1193
2616.268250226594,1214
2618.0663814268455,1179
2619.864134828292,1186
2621.6615107255006,1183
2623.458509413115,1198
2625.2551311858597,1156
2627.0513763385347,1152
2628.8472451660223,1167
2630.6427379632833,1185
2632.4378550253564,1181
2634.232596647359,1174
2636.026963124488,1149
2637.8209547520187,1137
2639.6145718253065,1192
2641.407814639785,1199
2643.200683490966,1150
2644.9931786744414,1200
2646.7853004858807,1170
2648.577049221034,1166
2650.3684251757277,1176
2652.1594286458712,1171
2653.9500599274484,1194
2655.740319316525,1175
2657.5302071092437,1121
2659.3197236018286,1178
2661.10886909058,1150
2662.8976438718782,1192
2664.686048242183,1152
2666.4740824980327,1194
2668.2617469360443,1177
2670.0490418529134,1140
2671.8359675454153,1226
2673.622524310403,1216
2675.408712444811,1195
2677.1945322456495,1219
2678.979984010009,1187
2680.76506803506,1218
2682.5497846180497,1136
2684.334134056306,1187
2686.1181166472343,1197
2687.9017326883213,1161
2689.6849824771293,1192
2691.4678663113013,1188
2693.2503844885596,1208
2695.032537306705,1250
2696.8143250636167,1245
2698.5957480572542,1207
2700.3768065856534,1180
2702.1575009469316,1172
2703.937831439283,1180
2705.717798360982,1158
2707.4974020103837,1150
2709.276642685917,1169
2711.055520686095,1119
2712.834036309506,1174
2714.612189854819,1179
2716.389981620782,1136
2718.1674119062204,1129
2719.944481010041,1166
2721.721189231226,1198
2723.4975368688415,1202
2725.273524222027,1171
2727.0491515900053,1132
2728.824419272075,1175
2730.5993275676146,1121
2732.3738767760838,1207
2734.148067197016,1156
2735.921899130031,1185
2737.6953728748194,1204
2739.468488731156,1144
2741.2412469988926,1186
2743.0136479779617,1169
2744.785691968372,1224
2746.5573792702116,1195
2748.3287101836504,1188
2750.099685008934,1155
2751.870304046388,1216
2753.640567596418,1174
2755.4104759595057,1190
2757.1800294362156,1163
2758.949228327187,1143
2760.7180729331412,1155
2762.486563554877,1225
2764.254700493272,1198
2766.022484049284,1186
2767.789914523947,1118
2769.5569922183786,1206
2771.3237174337705,1146
2773.090090471394,1121
2774.8561116326036,1137
2776.6217812188274,1167
2778.3870995315756,1177
2780.1520668724356,1156
2781.9166835430747,1133
2783.6809498452394,1196
2785.444866080754,1226
2787.2084325515225,1182
2788.971649559527,1176
2790.73451740683,1158
2792.4970363955713,1215
2794.2592068279705,1159
2796.0210290063264,1195
2797.7825032330147,1182
2799.543629810493,1230
2801.304409041296,1160
2803.0648412280366,1135
2804.8249266734088,1164
2806.5846656801846,1164
2808.344058551212,1184
2810.1031055894246,1185
2811.8618070978273,1164
2813.6201633795085,1183
2815.378174737636,1196
2817.1358414754536,1148
2818.893163896285,1104
2820.6501423035334,1150
2822.4067770006814,1158
2824.1630682912883,1153
2825.9190164789957,1136
2827.6746218675207,1167
2829.429884760661,1132
2831.184805462294,1241
2832.9393842763743,1161
2834.693621506936,1199
2836.4475174580916,1153
2838.201072434034,1162
2839.954286739034,1156
2841.707160677441,1150
2843.459694553685,1194
2845.2118886722724,1265
2846.96374333779,1205
2848.7152588549034,1198
2850.4664355283567,1201
2852.217273662973,1191
2853.9677735636546,1157
2855.7179355353833,1179
2857.4677598832186,1193
2859.217246912299,1155
2860.9663969278427,1134
2862.715210235146,1163
2864.4636871395846,1176
2866.211827946614,1166
2867.9596329617652,1138
2869.7071024906536,1176
2871.4542368389684,1149
2873.20103631248,1121
2874.947501217038,1124
2876.6936318585695,1205
2878.4394285430812,1235
2880.1848915766604,1157
2881.9300212654707,1210
2883.6748179157553,1199
2885.4192818338374,1180
2887.1634133261173,1141
2888.907212699077,1210
2890.6506802592744,1191
2892.393816313348,1257
2894.1366211680142,1181
2895.8790951300693,1130
2897.621238506388,1172
2899.363051603925,1178
2901.1045347297118,1127
2902.8456881908596,1156
2904.58651229456,1125
2906.327007348081,1160
2908.067173658772,1174
2909.8070115340597,1172
2911.5465212814497,1183
2913.285703208527,1204
2915.0245576229563,1140
2916.7630848324807,1153
2918.5012851449196,1148
2920.2391588681758,1158
2921.976706310227,1235
2923.7139277791334,1165
2925.4508235830313,1192
2927.187394030137,1197
2928.923639428745,1217
2930.6595600872306,1195
2932.395156314046,1239
2934.1304284177218,1165
2935.8653767068713,1191
2937.6000014901815,1204
2939.3343030764227,1180
2941.068281774442,1139
2942.8019378931644,1172
2944.5352717415976,1162
2946.2682836288236,1179
2948.0009738640065,1169
2949.7333427563885,1221
2951.465390615289,1173
2953.1971177501086,1197
2954.9285244703265,1175
2956.6596110855,1204
2958.3903779052657,1199
2960.1208252393385,1198
2961.8509533975125,1185
2963.5807626896617,1170
2965.3102534257378,1198
2967.0394259157715,1156
2968.768280469873,1174
2970.496817398232,1167
2972.2250370111146,1200
2973.952939618869,1183
2975.6805255319196,1205
2977.4077950607707,1192
2979.134748516006,1151
2980.861386208289,1219
2982.587708448359,1185
2984.313715547037,1195
2986.039407815222,1224
2987.764785563891,1127
2989.489849104102,1214
2991.2145987469908,1167
2992.9390348037705,1221
2994.6631575857346,1189
2996.3869674042576,1204
2998.1104645707887,1192
2999.83364939686,1147
3001.5565221940783,1166
3003.2790832741334,1066
3005.0013329487924,1189
3006.7232715298996,1146
3008.4448993293804,1158
3010.166216659239,1134
3011.887223831558,1172
3013.607921158498,1157
3015.3283089522993,1161
3017.0483875252826,1184
3018.7681571898443,1187
3020.4876182584626,1153
3022.2067710436927,1207
3023.9256158581707,1195
3025.644153014609,1132
3027.362382825801,1158
3029.0803056046193,1192
3030.797921664012,1138
3032.5152313170106,1147
3034.2322348767225,1167
3035.9489326563353,1176
3037.665324969115,1147
3039.3814121284063,1107
3041.097194447633,1130
3042.812672240299,1171
3044.5278458199855,1174
3046.2427155003525,1194
3047.9572815951406,1124
3049.671544418167,1170
3051.38550428333,1197
3053.0991615046073,1211
3054.812516396051,1194
3056.5255692717974,1245
3058.2383204460575,1190
3059.9507702331257,1200
3061.662918947372,1227
3063.3747669032446,1182
3065.0863144152736,1116
3066.7975617980674,1160
3068.508509366309,1116
3070.219157434767,1112
3071.9295063182844,1174
3073.639556331785,1186
3075.3493077902704,1153
3077.058761008821,1134
3078.7679163025964,1168
3080.476773986837,1176
3082.1853343768594,1126
3083.89359778806,1150
3085.6015645359153,1173
3087.3092349359786,1143
3089.016609303884,1175
3090.7236879553434,1148
3092.4304712061476,1166
3094.136959372166,1186
3095.843152769349,1208
3097.5490517137237,1216
3099.2546565213966,1115
3100.959967508554,1168
3102.66498499146,1151
3104.3697092864577,1157
3106.0741407099695,1186
3107.778279578498,1138
3109.482126208622,1137
3111.1856809170004,1162
3112.8889440203716,1136
3114.5919158355528,1130
3116.294596679439,1174
3117.996986869006,1146
3119.6990867213062,1226
3121.4008965534726,1182
3123.102416682717,1229
3124.803647426329,1135
3126.5045891016784,1170
3128.205242026213,1152
3129.90560651746,1147
3131.605682893025,1124
3133.3054714705922,1122
3135.0049725679282,1154
3136.7041865028714,1167
3138.4031135933465,1186
3140.101754157353,1195
3141.800108512971,1215
3143.498176978357,1187
3145.1959598717494,1136
3146.8934575114636,1124
3148.5906702158954,1141
3150.2875983035183,1138
3151.9842420928853,1128
3153.680601902627,1163
3155.376678051456,1161
3157.07247085816,1126
3158.767980641609,1187
3160.463207720748,1147
3162.158152414606,1153
3163.8528150422862,1116
3165.5471959229726,1145
3167.2412953759303,1149
3168.9351137204976,1127
3170.628651276098,1141
3172.3219083622307,1186
3174.014885298474,1160
3175.707582404485,1138
3177.4000000000005,1132
3179.092138404835,1174
3180.7839979388846,1161
3182.47557892212,1177
3184.166881674594,1155
3185.8579065164386,1160
3187.5486537678626,1173
3189.2391237491547,1159
3190.9293167806827,1116
3192.6192331828934,1139
3194.3088732763117,1133
3195.998237381542,1098
3197.687325819268,1127
3199.376138910251,1158
3201.064676975334,1115
3202.7529403354347,1134
3204.4409293115523,1133
3206.1286442247647,1135
3207.816085396229,1125
3209.5032531471825,1119
3211.190147798936,1153
3212.8767696728846,1159
3214.5631190905015,1134
3216.2491963733373,1113
3217.9350018430214,1125
3219.6205358212637,1143
3221.305798629851,1145
3222.990790590651,1144
3224.6755120256103,1144
3226.359963256751,1087
3228.0441446061795,1148
3229.7280563960758,1140
3231.411698948703,1101
3233.0950725863995,1181
3234.778177631587,1185
3236.461014406761,1177
3238.1435832345005,1196
3239.8258844374595,1138
3241.507918338374,1092
3243.1896852600576,1131
3244.8711855254023,1110
3246.552419457381,1141
3248.233387379042,1131
3249.914089613516,1150
3251.59452648401,1144
3253.274698313813,1198
3254.95460542629,1168
3256.6342481448855,1082
3258.313626793125,1092
3259.9927416946084,1135
3261.6715931730196,1071
3263.3501815521176,1126
3265.0285071557437,1123
3266.706570307815,1162
3268.3843713323286,1114
3270.0619105533615,1087
3271.739188295068,1147
3273.4162048816834,1131
3275.0929606375184,1111
3276.769455886966,1117
3278.445690954498,1187
3280.1216661646613,1135
3281.797381842087,1139
3283.4728383114807,1150
3285.1480358976296,1102
3286.8229749253996,1153
3288.4976557197333,1133
3290.172078605655,1156
3291.846243908266,1124
3293.5201519527463,1148
3295.193803064357,1134
3296.8671975684374,1154
3298.5403357904024,1097
3300.21321805575,1141
3301.8858446900567,1133
3303.558216018975,1144
3305.23033236824,1175
3306.9021940636603,1162
3308.57380143113,1155
3310.2451547966184,1163
3311.916254486174,1187
3313.5871008259246,1182
3315.2576941420766,1190
3316.9280347609147,1173
3318.5981230088046,1177
3320.2679592121895,1112
3321.9375436975924,1185
3323.606876791612,1166
3325.27595882093,1112
3326.944790112305,1167
3328.6133709925753,1078
3330.2817017886573,1164
3331.949782827547,1158
3333.617614436319,1111
3335.2851969421245,1171
3336.952530672199,1144
3338.619615953853,1150
3340.286453114475,1179
3341.9530424815357,1124
3343.619384382583,1181
3345.2854791452437,1166
3346.951327097224,1146
3348.6169285663073,1160
3350.2822838803577,1122
3351.947393367319,1142
3353.61225735521,1094
3355.2768761721345,1146
3356.9412501462693,1114
3358.605379605873,1134
3360.2692648792827,1083
3361.9329062949146,1133
3363.596304181263,1088
