CollectionTime,9/20/2024 10:55:18 AM
ExposureUsed,3
CalibratedSpectrum
-962.7078968117929,587
-959.9714848408522,648
-957.2358232597828,690
-954.5009119013725,674
-951.7667505983302,684
-949.0333391832855,695
-946.3006774887896,708
-943.5687653473143,661
-940.837602591253,690
-938.1071890529199,675
-935.3775245645503,648
-932.6486089583007,653
-929.9204420662485,635
-927.1930237203925,651
-924.4663537526524,689
-921.7404319948689,703
-919.0152582788041,698
-916.2908324361409,705
-913.5671542984834,700
-910.8442236973568,680
-908.1220404642074,620
-905.4006044304027,663
-902.679915427231,658
-899.959973285902,628
-897.2407778375464,643
-894.5223289132158,645
-891.8046263438832,675
-889.0876699604426,670
-886.3714595937089,652
-883.6559950744183,619
-880.9412762332282,642
-878.2273029007168,659
-875.5140749073835,648
-872.8015920836489,639
-870.0898542598545,630
-867.3788612662631,641
-864.6686129330585,660
-861.9591090903457,709
-859.2503495681506,620
-856.5423341964203,634
-853.8350628050229,655
-851.1285352237478,654
-848.4227512823054,651
-845.7177108103272,631
-843.0134136373656,663
-840.3098595928943,653
-837.6070485063082,681
-834.9049802069229,649
-832.2036545239757,638
-829.5030712866244,694
-826.8032303239481,704
-824.1041314649472,644
-821.4057745385428,684
-818.7081593735775,720
-816.0112857988148,702
-813.3151536429393,699
-810.6197627345566,680
-807.9251129021936,707
-805.2312039742981,693
-802.5380357792392,706
-799.8456081453069,701
-797.1539209007124,681
-794.462973873588,667
-791.772766891987,710
-789.083299783884,713
-786.3945723771743,700
-783.7065844996748,675
-781.0193359791231,659
-778.3328266431781,711
-775.6470563194197,669
-772.9620248353489,645
-770.2777320183878,705
-767.5941776958798,707
-764.9113616950891,743
-762.2292838432011,704
-759.5479439673222,654
-756.8673418944801,679
-754.1874774516235,719
-751.5083504656222,710
-748.8299607632671,697
-746.15230817127,744
-743.475392516264,696
-740.7992136248035,702
-738.1237713233636,717
-735.4490654383407,701
-732.7750957960521,678
-730.1018622227365,657
-727.4293645445534,715
-724.7576025875837,730
-722.0865761778291,713
-719.4162851412126,721
-716.7467293035781,719
-714.0779084906909,700
-711.409822528237,750
-708.7424712418238,712
-706.0758544569796,751
-703.4099719991541,748
-700.7448236937178,718
-698.0804093659622,735
-695.4167288411002,720
-692.7537819442656,753
-690.0915685005134,729
-687.4300883348199,746
-684.7693412720819,760
-682.1093271371178,747
-679.4500457546669,772
-676.7914969493897,776
-674.1336805458676,738
-671.4765963686034,765
-668.8202442420206,746
-666.1646239904642,766
-663.5097354382001,736
-660.8555784094151,748
-658.2021527282176,738
-655.5494582186366,788
-652.8974947046223,800
-650.2462620100463,802
-647.5957599587009,774
-644.9459883742998,769
-642.2969470804776,793
-639.6486359007902,799
-637.0010546587141,781
-634.3542031776476,852
-631.7080812809096,793
-629.0626887917401,797
-626.4180255333008,752
-623.7740913286734,790
-621.1308860008619,807
-618.4884093727904,856
-615.8466612673046,827
-613.2056415071715,801
-610.5653499150785,852
-607.9257863136347,877
-605.28695052537,847
-602.6488423727357,798
-600.0114616781036,808
-597.3748082637674,793
-594.7388819519412,847
-592.1036825647604,823
-589.4692099242818,811
-586.8354638524829,823
-584.2024441712624,855
-581.5701507024403,791
-578.9385832677575,828
-576.3077416888759,844
-573.6776257873787,849
-571.0482353847704,804
-568.4195703024757,817
-565.7916303618415,839
-563.164415384135,844
-560.5379251905453,802
-557.9121596021815,839
-555.2871184400748,877
-552.6628015251767,837
-550.0392086783606,840
-547.4163397204204,826
-544.794194472071,885
-542.1727727539491,893
-539.5520743866118,909
-536.9320991905377,904
-534.3128469861261,948
-531.6943175936979,946
-529.0765108334947,928
-526.4594265256793,1036
-523.8430644903358,1219
-521.2274245474689,1322
-518.612506517005,1376
-515.9983102187913,1410
-513.3848354725959,1473
-510.77208209810846,1473
-508.16004991493924,1545
-505.5487387426199,1619
-502.9381484006032,1727
-500.3282787082628,1653
-497.71912948489364,1558
-495.1107005497117,1515
-492.5029917218539,1285
-489.8960028203786,1226
-487.28973366426493,1157
-484.68418407241325,1025
-482.07935386364494,962
-479.47524285670266,1003
-476.87185087025,1047
-474.2691777228715,1020
-471.66722323307334,983
-469.0659872192821,952
-466.4654694998459,1003
-463.86566989303384,1041
-461.26658821703614,966
-458.66822428996414,1050
-456.07057792985,1097
-453.4736489546475,1071
-450.877437182231,1048
-448.28194243039627,959
-445.68716451686,949
-443.09310325926003,964
-440.49975847515555,985
-437.9071299820263,997
-435.31521759727354,1017
-432.72402113821954,1013
-430.13354042210767,991
-427.5437752661022,1005
-424.95472548728867,1071
-422.36639090267386,1118
-419.7787713291855,1099
-417.1918665836721,1109
-414.60567648290385,1113
-412.0202008435715,1149
-409.4354394822874,1105
-406.8513922155845,1087
-404.26805885991723,1061
-401.685439231661,1103
-399.103533147112,1128
-396.522340422488,1127
-393.9418608739278,1054
-391.3620943174908,1072
-388.7830405691583,1045
-386.2046994448317,967
-383.6270707603344,974
-381.05015433141045,915
-378.473949973725,854
-375.8984575028645,862
-373.32367673433623,790
-370.74960748356875,761
-368.1762495659117,705
-365.60360279663576,690
-363.03166699093265,690
-360.4604419639154,609
-357.8899275306178,599
-355.32012350599507,583
-352.7510297049233,594
-350.1826459421999,571
-347.61497203254316,596
-345.04800779059235,584
-342.4817530309082,509
-339.91620756797226,607
-337.35137121618743,640
-334.7872437898774,575
-332.22382510328725,609
-329.66111497058273,595
-327.09911320585127,624
-324.53781962310075,685
-321.9772340362607,595
-319.4173562591816,585
-316.8581861056348,550
-314.2997233893127,563
-311.7419679238294,624
-309.1849195227194,640
-306.62857799943856,667
-304.0729431673641,667
-301.51801483979375,731
-298.963792829947,679
-296.41027695096386,624
-293.85746701590574,665
-291.3053628377552,674
-288.7539642294155,615
-286.2032710037115,622
-283.65328297338897,691
-281.1039999511146,673
-278.5554217494762,606
-276.007548180983,646
-273.4603790580651,657
-270.9139141930734,707
-268.3681533982807,765
-265.8230964858798,788
-263.27874326798565,958
-260.7350935566336,884
-258.1921471637804,856
-255.6499039013039,899
-253.10836358100266,909
-250.56752601459698,829
-248.02739101372765,871
-245.48795838995704,968
-242.94922795476816,909
-240.41119951956557,981
-237.8738728956746,863
-235.33724789434166,827
-232.80132432673452,829
-230.2661020039418,808
-227.73158073697357,832
-225.19776033676033,944
-222.66464061415422,1150
-220.1322213799284,1142
-217.60050244477725,982
-215.06948361931552,1070
-212.53916471408013,1231
-210.00954553952818,1134
-207.48062590603843,964
-204.9524056239104,857
-202.4248845033651,940
-199.8980623545441,1100
-197.37193898751036,1326
-194.84651421224817,1408
-192.32178783866232,1367
-189.79775967657952,1223
-187.27442953574644,1181
-184.7517972258321,1245
-182.2298625564256,1038
-179.7086253370378,864
-177.18808537710026,965
-174.66824248596583,1302
-172.14909647290835,1479
-169.6306471471229,1511
-167.11289431772548,1275
-164.59583779375328,1190
-162.07947738416453,1420
-159.5638128978386,1405
-157.04884414357605,1553
-154.53457093009854,1640
-152.02099306604828,1304
-149.50811035998936,1398
-146.99592262040665,1504
-144.48442965570587,1461
-141.97363127421409,1709
-139.46352728417958,1915
-136.95411749377126,1903
-134.44540171107985,1588
-131.93737974411636,1216
-129.43005140081357,1239
-126.92341648902493,1592
-124.41747481652521,2088
-121.91222619101006,2608
-119.40767042009657,3217
-116.90380731132257,3078
-114.40063667214702,3110
-111.8981583099503,3662
-109.3963720320337,5090
-106.89527764561933,6520
-104.39487495785067,7401
-101.89516377579241,9946
-99.39614390642998,15340
-96.89781515667039,22197
-94.40017733334128,23591
-91.90323024319173,21038
-89.40697369289148,17653
-86.91140748903172,11614
-84.41653143812482,7187
-81.92234534660395,8474
-79.42884902082358,12013
-76.93604226705907,14916
-74.4439248915071,16306
-71.95249670028534,16498
-69.46175749943245,14594
-66.97170709490854,11488
-64.48234529259423,8263
-61.99367189829195,7977
-59.50568671772464,9313
-57.01838955653636,8844
-54.53178022029283,9864
-52.045858514480074,11660
-49.560624244506016,14034
-47.07607721569923,18773
-44.59221723330904,24652
-42.10904410250669,31519
-39.62655762838392,38876
-37.14475761595372,45513
-34.66364387015028,53618
-32.18321619582866,60908
-29.70347439776515,62700
-27.224418280657005,60466
-24.74604764912317,63186
-22.26836230770266,65037
-19.7913620608565,65037
-17.315046712966478,65037
-14.83941606833514,65037
-12.36446993118659,65037
-9.89020810566592,65037
-7.416630395839093,65037
-4.94373660569363,65037
-2.471526539137585,65037
-6.821210263296962E-13,65037
2.47084320796705,65037
4.941003281093458,65037
7.410480415786196,65037
9.879274808531363,65037
12.347386655893956,65037
14.814816154518212,65037
17.28156350112681,65037
19.74762889252179,65037
22.21301252558385,65037
24.67771459727237,23798
27.141735304626195,7663
29.605074844762612,7774
32.06773341487792,6420
34.52971121224755,5879
36.99100843422559,5268
39.45162527824516,4377
41.91156194181792,4648
44.370818622535126,5417
46.82939551806646,5338
49.287292826160524,7153
51.74451074464503,5333
54.201049471426245,3063
56.65690920448981,3111
59.112090141899785,3105
61.56659248179983,3491
64.02041642241159,3242
66.4735621620365,3401
68.92602989905402,3514
71.37781983192338,3817
73.82893215918205,3238
76.27936707944684,2592
78.72912479141326,2825
81.17820549385567,3213
83.62660938562783,2603
86.07433666566146,2231
88.5213875329681,1969
90.96776218663751,2192
93.41346082583925,2655
95.85848364982041,2991
98.30283085790859,2263
100.7465026495089,2062
103.18949922410604,2213
105.63182078126385,2044
108.07346752062438,1891
110.51443964190923,1826
112.95473734491827,1975
115.39436082953114,1749
117.83331029570547,1618
120.27158594347827,1772
122.7091879729652,1831
125.1461165843615,1753
127.58237197794062,1701
130.01795435405518,1875
132.4528639131364,1830
134.88710085569494,1726
137.32066538231982,1850
139.75355769367923,1868
142.1857779905207,1421
144.61732647366978,1210
147.04820334403132,1226
149.47840880258934,1337
151.90794305040674,1584
154.33680628862487,1816
156.76499871846443,1906
159.19252054122433,1949
161.61937195828352,2234
164.04555317109896,2422
166.47106438120693,2365
168.89590579022217,2377
171.320077599839,2245
173.7435800118302,2370
176.16641322804742,2503
178.58857745042144,2657
181.01007288096173,2606
183.43089972175687,2508
185.85105817497413,2572
188.27054844285988,2674
190.6893707277394,2632
193.10752523201643,2672
195.5250121581745,3042
197.9418317087751,3064
200.3579840864594,3057
202.7734694939469,2966
205.18828813403627,2956
207.6024402096051,2961
210.01592592360964,3019
212.42874547908548,2942
214.84089907914665,2939
217.2523869269868,2766
219.66320922587727,2913
222.0733661791695,2898
224.48285799029293,3026
226.8916848627572,2975
229.29984700014882,3007
231.7073446061355,2986
234.11417788446204,3156
236.520347038953,3151
238.92585227351185,3136
241.33069379212054,3302
243.73487179884035,3344
246.1383864978112,3249
248.541238093252,3305
250.9434267894609,3413
253.34495279081432,3294
255.74581630176783,3354
258.1460175268563,3223
260.54555667069314,3250
262.9444339379703,3213
265.3426495334594,3289
267.7402036620107,3071
270.1370965285529,3157
272.53332833809407,3097
274.9288992957214,3005
277.32380960660055,2793
279.718059475976,2887
282.1116491091717,2840
284.5045787115897,2756
286.89684848871195,2743
289.2884586460981,2710
291.67940938938807,2840
294.0697009242996,2821
296.4593334566299,2817
298.84830719225477,2750
301.23662233712923,2780
303.6242790972866,2773
306.01127767884,2788
308.39761828798066,2769
310.78330113097934,2802
313.16832641418534,2666
315.5526943440269,2581
317.9364051270112,2634
320.3194589697242,2625
322.70185607883093,2515
325.0835966610754,2509
327.4646809232805,2445
329.8451090723478,2499
332.2248813152577,2575
334.6039978590701,2593
336.9824589109231,2487
339.36026467803447,2470
341.7374153677,2441
344.113911187295,2459
346.48975234427337,2435
348.8649390461686,2495
351.2394715005918,2452
353.61334991523415,2426
355.9865744978655,2398
358.35914545633375,2361
360.73106299856715,2350
363.10232733257146,2392
365.47293866643247,2429
367.84289720831396,2370
370.2122031664593,2320
372.5808567491905,2349
374.9488581649083,2388
377.31620762209275,2412
379.6829053293021,2370
382.0489514951745,2319
384.4143463284262,2268
386.7790900378528,2277
389.14318283232853,2264
391.50662492080653,2266
393.86941651231916,2348
396.23155781597745,2347
398.5930490409713,2498
400.9538903965696,2404
403.3140820921202,2306
405.6736243370498,2256
408.03251734086336,2329
410.3907613131465,2331
412.74835646356166,2283
415.10530300185144,2274
417.4616011378372,2228
419.81725108141893,2163
422.1722530425758,2147
424.5266072313656,2260
426.880313857925,2170
429.2333731324701,2183
431.58578526529516,2258
433.9375504667738,2264
436.2886689473588,2246
438.63914091758113,2221
440.9889665880513,2125
443.33814616945835,2124
445.68667987257015,2192
448.03456790823395,2150
450.3818104873759,2098
452.72840782100013,2136
455.07436012019105,2195
457.41966759611057,2131
459.7643304600007,2038
462.10834892318155,2084
464.4517231970525,2037
466.79445349309174,2161
469.1365400228566,2183
471.4779829979826,2282
473.81878263018564,2204
476.15893913125876,2211
478.4984527130747,2341
480.8373235875855,2299
483.17555196682144,2278
485.5131380628919,2316
487.8500820879857,2415
490.1863842543697,2520
492.52204477439034,2595
494.8570638604725,2677
497.1914417251204,2932
499.52517858091653,3176
501.85827464052306,3437
504.19073011668036,3491
506.5225452222086,3633
508.85372017000566,3669
511.18425517304956,3842
513.514150444396,4298
515.8434061971808,5433
518.1720226446176,6263
520.4999999999999,6184
522.8273384766991,5979
525.1540382881666,5762
527.480099647932,5030
529.8055227696037,3996
532.1303078668694,2966
534.454455153496,2382
536.777964843328,2258
539.1008371502907,2181
541.4230722883866,2145
543.744670471698,2053
546.0656319143858,2151
548.3859568306899,2045
550.7056454349294,2062
553.0246979415016,1974
555.3431145648834,2017
557.6608955196306,2129
559.978041020377,2085
562.2945512818363,2043
564.6104265188006,2050
566.9256669461412,2090
569.2402727788082,2160
571.5542442318302,2123
573.8675815203156,2104
576.1802848594508,2007
578.4923544645015,2044
580.8037905508126,2073
583.114593333807,2080
585.4247630289875,2020
587.7342998519354,2019
590.0432040183106,2064
592.3514757438526,2000
594.6591152443794,2093
596.9661227357875,2052
599.2724984340531,2130
601.578242555231,2084
603.8833553154542,2030
606.1878369309362,2072
608.4916876179676,1997
610.7949075929192,2022
613.0974970722403,2023
615.3994562724587,1968
617.7007854101818,2034
620.0014847020951,2005
622.3015543649641,2028
624.6009946156324,2093
626.8998056710224,2100
629.1979877481361,2091
631.4955410640538,2056
633.7924658359349,2080
636.0887622810175,2034
638.3844306166192,2173
640.6794710601358,2016
642.9738838290426,2074
645.2676691408932,2062
647.5608272133207,2109
649.853358264037,2134
652.1452625108324,2101
654.4365401715764,2093
656.7271914642178,2097
659.0172166067838,2172
661.3066158173809,2196
663.5953893141935,2129
665.8835373154867,2200
668.1710600396028,2158
670.4579577049639,2174
672.7442305300709,2119
675.0298787335033,2139
677.3149025339197,2120
679.599302150058,2045
681.8830778007342,2112
684.1662297048437,2169
686.4487580813608,2066
688.7306631493387,2088
691.0119451279091,2155
693.2926042362834,2119
695.5726406937516,2130
697.8520547196814,2129
700.1308465335215,2069
702.4090163547982,2119
704.6865644031171,2090
706.9634908981619,2076
709.2397960596965,2131
711.5154801075631,2161
713.7905432616823,2200
716.0649857420548,2084
718.3388077687592,2042
720.612009561953,2046
722.8845913418733,2033
725.1565533288352,2111
727.427895743234,2122
729.6986188055427,2136
731.9687227363137,2078
734.238207756178,2130
736.5070740858458,2047
738.7753219461066,2076
741.0429515578281,2154
743.3099631419569,2117
745.5763569195191,2175
747.8421331116193,2066
750.1072919394409,2113
752.3718336242467,2072
754.6357583873777,2046
756.8990664502545,2086
759.1617580343765,2050
761.423833361321,2127
763.6852926527457,2126
765.9461361303862,2166
768.206364016058,2103
770.4659765316536,2126
772.7249738991469,2145
774.9833563405886,2221
777.2411240781092,2097
779.4982773339183,2139
781.7548163303044,2126
784.010741289634,2183
786.2660524343538,2184
788.5207499869881,2113
790.7748341701416,2078
793.0283052064964,2184
795.2811633188143,2165
797.5334087299362,2193
799.7850416627813,2160
802.0360623403484,2174
804.2864709857143,2172
806.5362678220353,2152
808.7854530725468,2154
811.0340269605625,2062
813.2819897094754,2055
815.5293415427581,2106
817.77608268396,2076
820.0222133567116,2091
822.2677337847211,2077
824.5126441917765,2163
826.7569448017433,2139
829.0006358385675,2172
831.2437175262731,2172
833.4861900889629,2063
835.7280537508192,2101
837.9693087361026,2151
840.2099552691533,2157
842.4499935743896,2122
844.689423876309,2139
846.9282463994886,2119
849.1664613685833,2151
851.4040690083276,2136
853.6410695435349,2130
855.877463199097,2168
858.1132501999847,2225
860.3484307712487,2162
862.5830051380175,2181
864.8169735254988,2194
867.0503361589791,2163
869.2830932638243,2187
871.5152450654786,2149
873.7467917894654,2243
875.9777336613873,2140
878.2080709069252,2146
880.4378037518389,2131
882.666932421968,2101
884.8954571432301,2151
887.1233781416219,2116
889.3506956432192,2159
891.5774098741766,2208
893.803521060728,2184
896.0290294291852,2096
898.2539352059397,2095
900.4782386174619,2106
902.7019398903011,2117
904.925039251085,2177
907.147536926521,2129
909.3694331433943,2080
911.59072812857,2065
913.8114221089921,2137
916.0315153116827,2096
918.2510079637437,2137
920.4699002923547,2131
922.6881925247761,2162
924.905884888345,2128
927.1229776104793,2090
929.3394709186747,2128
931.555365040506,2040
933.7706602036275,2110
935.9853566357709,2074
938.1994545647489,2129
940.4129542184515,2010
942.6258558248488,2224
944.8381596119883,2143
947.0498658079974,2133
949.2609746410825,2085
951.4714863395287,2124
953.6814011316998,2113
955.8907192460387,2057
958.0994409110671,2135
960.3075663553858,2049
962.5150958076741,2183
964.7220294966913,2152
966.928367651274,2058
969.1341105003388,2141
971.3392582728806,2015
973.5438111979742,2056
975.747769504772,2041
977.9511334225061,2015
980.153903180487,2065
982.3560790081052,2042
984.5576611348289,2052
986.7586497902058,2031
988.9590452038618,2001
991.158847605503,2015
993.3580572249133,1960
995.5566742919558,1888
997.7546990365728,1945
999.952131688785,1870
1002.1489724786926,1882
1004.3452216364743,1838
1006.5408793923874,1862
1008.7359459767691,1795
1010.9304216200343,1775
1013.1243065526781,1765
1015.3176010052733,1793
1017.510305208472,1756
1019.7024193930064,1773
1021.8939437896848,1787
1024.0848786293977,1789
1026.2752241431122,1725
1028.4649805618747,1740
1030.6541481168115,1813
1032.842727039127,1764
1035.0307175601051,1751
1037.2181199111074,1793
1039.4049343235752,1744
1041.591161029029,1803
1043.7768002590683,1702
1045.9618522453698,1786
1048.1463172196918,1665
1050.3301954138697,1718
1052.513487059818,1766
1054.69619238953,1726
1056.8783116350783,1745
1059.0598450286152,1729
1061.2407928023704,1749
1063.4211551886528,1753
1065.6009324198508,1704
1067.780124728432,1710
1069.9587323469414,1615
1072.1367555080046,1692
1074.314194444325,1662
1076.4910493886855,1668
1078.667320573947,1652
1080.843008233051,1776
1083.0181125990161,1686
1085.1926339049414,1628
1087.3665723840027,1692
1089.5399282694575,1662
1091.7127017946405,1617
1093.8848931929647,1664
1096.0565026979243,1682
1098.2275305430899,1658
1100.3979769621128,1621
1102.567842188722,1636
1104.737126456726,1612
1106.9058300000124,1547
1109.0739530525475,1630
1111.2414958483764,1616
1113.4084586216231,1578
1115.5748416064907,1593
1117.7406450372605,1603
1119.9058691482942,1602
1122.0705141740304,1612
1124.2345803489884,1642
1126.3980679077658,1613
1128.5609770850388,1632
1130.7233081155623,1589
1132.8850612341707,1656
1135.0462366757774,1612
1137.2068346753745,1545
1139.3668554680326,1603
1141.526299288901,1586
1143.68516637321,1582
1145.8434569562655,1584
1148.001171273455,1619
1150.158309560244,1619
1152.3148720521767,1548
1154.470858984876,1555
1156.626270594044,1540
1158.7811071154629,1595
1160.9353687849912,1601
1163.089055838569,1624
1165.242168512213,1628
1167.3947070420209,1627
1169.5466716641677,1614
1171.6980626149075,1601
1173.8488801305748,1660
1175.9991244475814,1577
1178.1487958024186,1593
1180.2978944316555,1664
1182.4464205719428,1565
1184.5943744600072,1580
1186.7417563326567,1580
1188.8885664267755,1534
1191.0348049793297,1537
1193.1804722273619,1590
1195.325568407995,1637
1197.4700937584303,1588
1199.614048515948,1563
1201.7574329179074,1580
1203.900247201746,1601
1206.042491604982,1629
1208.1841663652099,1656
1210.3252717201053,1602
1212.465807907422,1644
1214.6057751649923,1704
1216.7451737307279,1613
1218.8840038426192,1577
1221.0222657387353,1671
1223.1599596572241,1609
1225.2970858363137,1637
1227.4336445143094,1610
1229.5696359295966,1683
1231.705060320639,1641
1233.8399179259786,1607
1235.9742089842384,1678
1238.107933734118,1601
1240.2410924143974,1615
1242.373685263935,1628
1244.5057125216676,1652
1246.6371744266116,1678
1248.7680712178621,1663
1250.898403134593,1636
1253.028170416058,1639
1255.1573733015875,1650
1257.2860120305932,1640
1259.4140868425648,1637
1261.54159797707,1657
1263.6685456737569,1680
1265.7949301723515,1643
1267.9207517126597,1723
1270.046010534565,1706
1272.1707068780306,1652
1274.2948409830983,1700
1276.4184130898889,1729
1278.541423438603,1720
1280.6638722695184,1721
1282.785759822993,1730
1284.9070863394636,1694
1287.0278520594447,1696
1289.1480572235314,1739
1291.2677020723963,1739
1293.3867868467923,1848
1295.5053117875495,1842
1297.623277135579,1797
1299.740683131868,1795
1301.8575300174857,1780
1303.973818033578,1821
1306.0895474213703,1826
1308.2047184221678,1848
1310.3193312773528,1824
1312.4333862283888,1815
1314.5468835168163,1835
1316.659823384255,1860
1318.7722060724045,1885
1320.8840318230418,1867
1322.9953008780249,1847
1325.1060134792888,1950
1327.2161698688478,1860
1329.3257702887959,1851
1331.4348149813054,1887
1333.5433041886276,1897
1335.6512381530933,1896
1337.7586171171101,1904
1339.8654413231675,1837
1341.9717110138317,1864
1344.0774264317488,1877
1346.1825878196432,1804
1348.2871954203192,1807
1350.3912494766587,1841
1352.4947502316231,1826
1354.5976979282532,1845
1356.7000928096686,1818
1358.8019351190665,1817
1360.9032250997243,1787
1363.0039629949988,1786
1365.1041490483235,1870
1367.2037835032133,1786
1369.3028666032606,1720
1371.401398592137,1896
1373.4993797135926,1794
1375.5968102114575,1849
1377.6936903296396,1833
1379.7900203121262,1801
1381.8858004029835,1779
1383.9810308463561,1785
1386.075711886469,1770
1388.1698437676241,1825
1390.2634267342032,1824
1392.356461030667,1826
1394.4489469015557,1811
1396.5408845914872,1791
1398.6322743451592,1814
1400.7231164073469,1866
1402.813411022907,1767
1404.903158436773,1846
1406.9923588939578,1880
1409.0810126395531,1822
1411.1691199187303,1872
1413.2566809767386,1831
1415.343696058907,1875
1417.4301654106425,1893
1419.5160892774315,1809
1421.6014679048399,1897
1423.6863015385125,1917
1425.7705904241707,1938
1427.8543348076178,1875
1429.9375349347342,1949
1432.0201910514802,1889
1434.102303403894,1830
1436.1838722380944,1868
1438.2648978002767,1914
1440.3453803367174,1955
1442.4253200937692,2038
1444.5047173178677,2042
1446.5835722555234,2026
1448.6618851533285,2024
1450.739656257952,2056
1452.8168858161434,2117
1454.8935740747306,2084
1456.96972128062,2222
1459.045327680797,2139
1461.120393522327,2184
1463.1949190523528,2252
1465.2689045180973,2250
1467.3423501668608,2194
1469.415256246024,2309
1471.4876230030463,2214
1473.559450685465,2310
1475.6307395408976,2378
1477.7014898170391,2413
1479.771701761665,2394
1481.8413756226287,2508
1483.9105116478618,2371
1485.9791100853772,2402
1488.0471711832643,2393
1490.1146951896926,2481
1492.1816823529098,2533
1494.2481329212433,2483
1496.3140471430984,2520
1498.3794252669609,2548
1500.4442675413939,2543
1502.5085742150404,2549
1504.572345536622,2580
1506.6355817549388,2636
1508.6982831188702,2597
1510.7604498773744,2622
1512.8220822794883,2591
1514.8831805743293,2745
1516.9437450110909,2585
1519.003775839048,2780
1521.0632733075522,2684
1523.1222376660367,2611
1525.1806691640113,2772
1527.2385680510652,2694
1529.2959345768668,2808
1531.3527689911643,2794
1533.4090715437833,2800
1535.4648424846291,2852
1537.5200820636855,2814
1539.5747905310159,2819
1541.6289681367616,2887
1543.6826151311434,2934
1545.7357317644614,2939
1547.7883182870937,2982
1549.8403749494987,3025
1551.8919020022113,3085
1553.9428996958477,3221
1555.9933682811015,3185
1558.0433080087469,3239
1560.0927191296346,3261
1562.1416018946961,3333
1564.1899565549415,3346
1566.2377833614592,3217
1568.2850825654164,3342
1570.3318544180606,3157
1572.3780991707158,3250
1574.423817074788,3061
1576.4690083817595,2928
1578.5136733431923,2911
1580.5578122107272,2846
1582.601425236085,2812
1584.6445126710646,2659
1586.6870747675434,2571
1588.7291117774776,2556
1590.7706239529034,2404
1592.8116115459347,2391
1594.8520748087658,2353
1596.8920139936686,2325
1598.9314293529933,2297
1600.9703211391711,2182
1603.008689604711,2169
1605.0465350022005,2100
1607.0838575843068,2045
1609.1206576037753,2046
1611.1569353134305,2056
1613.1926909661765,2011
1615.2279248149953,1925
1617.2626371129481,1890
1619.2968281131757,1894
1621.3304980688963,1869
1623.3636472334088,1806
1625.39627586009,1853
1627.428384202396,1856
1629.459972513861,1889
1631.4910410480993,1773
1633.5215900588028,1822
1635.551619799744,1742
1637.5811305247717,1736
1639.6101224878166,1785
1641.6385959428862,1701
1643.6665511440683,1695
1645.693988345528,1648
1647.7209078015112,1737
1649.7473097663405,1729
1651.7731944944203,1630
1653.7985622402307,1696
1655.823413258333,1656
1657.847747803366,1696
1659.8715661300494,1695
1661.8948684931793,1657
1663.9176551476316,1669
1665.9399263483624,1607
1667.9616823504057,1608
1669.982923408873,1669
1672.0036497789574,1728
1674.0238617159293,1679
1676.043559475138,1557
1678.0627433120121,1620
1680.081413482059,1640
1682.0995702408654,1714
1684.117213844096,1632
1686.134344547495,1650
1688.1509626068864,1643
1690.1670682781705,1711
1692.182661817329,1706
1694.1977434804217,1720
1696.2123135235875,1632
1698.226372203043,1611
1700.2399197750851,1722
1702.2529564960905,1652
1704.2654826225112,1666
1706.277498410882,1596
1708.2890041178139,1639
1710.2999999999988,1618
1712.3104863142066,1612
1714.3204633172854,1631
1716.329931266163,1590
1718.3388904178469,1670
1720.3473410294214,1652
1722.3552833580516,1641
1724.3627176609807,1639
1726.3696441955308,1584
1728.3760632191033,1577
1730.3819749891782,1631
1732.3873797633146,1610
1734.3922777991502,1595
1736.3966693544012,1621
1738.4005546868639,1608
1740.4039340544127,1609
1742.406807715001,1621
1744.4091759266616,1604
1746.4110389475054,1645
1748.4123970357223,1546
1750.413250449582,1568
1752.4135994474318,1587
1754.4134442876993,1579
1756.4127852288902,1641
1758.4116225295893,1596
1760.4099564484595,1547
1762.407787244244,1590
1764.405115175764,1560
1766.4019405019203,1587
1768.3982634816916,1616
1770.3940843741357,1627
1772.3894034383907,1519
1774.3842209336717,1565
1776.378537119274,1572
1778.372352254571,1593
1780.3656665990156,1573
1782.3584804121397,1561
1784.3507939535534,1537
1786.3426074829463,1555
1788.3339212600863,1614
1790.3247355448211,1572
1792.3150505970766,1519
1794.3048666768573,1562
1796.2941840442477,1566
1798.2830029594106,1557
1800.2713236825884,1573
1802.2591464741004,1567
1804.2464715943465,1487
1806.2332993038058,1497
1808.2196298630352,1576
1810.2054635326708,1509
1812.190800573428,1523
1814.175641246101,1532
1816.1599858115628,1551
1818.1438345307652,1542
1820.127187664738,1574
1822.1100454745924,1503
1824.092408221516,1516
1826.0742761667766,1482
1828.055649571721,1480
1830.0365286977735,1492
1832.0169138064398,1484
1833.9968051593014,1527
1835.9762030180214,1506
1837.9551076443408,1549
1839.9335193000788,1546
1841.9114382471344,1495
1843.888864747485,1509
1845.8657990631878,1494
1847.842241456378,1485
1849.8181921892697,1517
1851.7936515241558,1475
1853.7686197234098,1509
1855.7430970494815,1533
1857.7170837649014,1486
1859.6905801322787,1524
1861.6635864143004,1537
1863.6361028737338,1485
1865.608129773424,1518
1867.5796673762961,1463
1869.5507159453537,1490
1871.521275743678,1492
1873.4913470344313,1515
1875.4609300808534,1551
1877.4300251462632,1547
1879.3986324940588,1525
1881.366752387717,1594
1883.3343850907936,1561
1885.3015308669228,1553
1887.268189979819,1556
1889.2343626932739,1587
1891.2000492711595,1546
1893.1652499774254,1524
1895.1299650761011,1490
1897.0941948312952,1509
1899.0579395071945,1578
1901.0211993680641,1518
1902.98397467825,1598
1904.9462657021745,1502
1906.9080727043415,1553
1908.869395949332,1581
1910.8302357018065,1558
1912.790592226504,1526
1914.7504657882428,1481
1916.7098566519212,1570
1918.6687650825133,1497
1920.6271913450764,1507
1922.5851357047422,1503
1924.5425984267245,1495
1926.499579776314,1573
1928.4560800188833,1551
1930.4120994198802,1571
1932.367638244833,1495
1934.32269675935,1603
1936.2772752291175,1565
1938.231373919899,1554
1940.1849930975404,1474
1942.1381330279637,1546
1944.0907939771696,1537
1946.0429762112412,1505
1947.9946799963363,1506
1949.9459055986945,1526
1951.896653284633,1510
1953.8469233205478,1505
1955.7967159729142,1461
1957.7460315082863,1485
1959.6948701932974,1464
1961.6432322946594,1550
1963.5911180791632,1513
1965.5385278136787,1474
1967.4854617651545,1440
1969.4319202006182,1469
1971.377903387176,1479
1973.3234115920136,1468
1975.268445082395,1493
1977.2130041256642,1487
1979.1570889892423,1465
1981.1006999406304,1520
1983.04383724741,1481
1984.986501177238,1465
1986.928691997853,1443
1988.8704099770712,1454
1990.811655382789,1446
1992.7524284829801,1386
1994.692729545698,1455
1996.6325588390755,1439
1998.5719166313224,1433
2000.5108031907307,1429
2002.4492187856677,1483
2004.387163684583,1479
2006.3246381560011,1518
2008.2616424685298,1469
2010.1981768908527,1471
2012.1342416917332,1458
2014.069837140014,1437
2016.0049635046162,1441
2017.9396210545406,1427
2019.8738100588666,1422
2021.8075307867502,1464
2023.740783507431,1478
2025.6735684902228,1435
2027.6058860045214,1463
2029.5377363198004,1451
2031.4691197056118,1413
2033.4000364315875,1450
2035.3304867674374,1419
2037.260470982952,1469
2039.189989347998,1435
2041.1190421325232,1400
2043.047629606554,1444
2044.9757520401945,1441
2046.9034097036288,1448
2048.8306028671195,1465
2050.7573318010086,1426
2052.683596775716,1492
2054.609398061742,1448
2056.5347359296647,1470
2058.4596106501403,1401
2060.384022493906,1462
2062.3079717317764,1403
2064.231458634646,1427
2066.1544834734873,1457
2068.077046519352,1448
2069.99914804337,1444
2071.9207883167524,1451
2073.8419676107865,1404
2075.7626861968406,1464
2077.6829443463607,1527
2079.6027423308715,1410
2081.522080421977,1466
2083.440958891362,1447
2085.359378010786,1365
2087.2773380520907,1451
2089.194839287196,1428
2091.111881988101,1537
2093.0284664268825,1454
2094.9445928756973,1470
2096.86026160678,1438
2098.775472892446,1414
2100.690227005088,1387
2102.604524217178,1420
2104.5183648012676,1463
2106.431749029985,1476
2108.34467717604,1438
2110.2571495122206,1423
2112.169166311393,1468
2114.080727846503,1453
2115.9918343905747,1428
2117.902486216711,1427
2119.8126835980956,1480
2121.722426807987,1429
2123.6317161197285,1478
2125.5405518067364,1454
2127.448934142509,1454
2129.356863400624,1427
2131.264339854737,1478
2133.1713637785815,1453
2135.077935445972,1481
2136.9840551308002,1463
2138.889723107037,1487
2140.7949396487334,1493
2142.699705030018,1462
2144.6040195250994,1449
2146.507883408264,1482
2148.4112969538774,1490
2150.3142604363848,1520
2152.2167741303097,1487
2154.1188383102535,1486
2156.0204532508997,1503
2157.9216192270064,1486
2159.822336513414,1493
2161.7226053850413,1505
2163.622426116884,1508
2165.5217989840185,1480
2167.4207242616,1483
2169.319202224862,1471
2171.2172331491165,1510
2173.1148173097563,1497
2175.0119549822507,1490
2176.90864644215,1454
2178.8048919650823,1444
2180.7006918267534,1472
2182.596046302952,1548
2184.4909556695407,1532
2186.3854202024645,1534
2188.279440177746,1475
2190.173015871487,1457
2192.066147559868,1527
2193.958835519149,1580
2195.851080025667,1425
2197.7428813558417,1519
2199.6342397861667,1497
2201.5251555932186,1514
2203.415629053651,1535
2205.3056604441986,1502
2207.19525004167,1527
2209.084398122958,1497
2210.9731049650327,1561
2212.861370844941,1503
2214.749196039812,1462
2216.636580826851,1545
2218.523525483344,1493
2220.410030286655,1526
2222.296095514226,1539
2224.1817214435805,1525
2226.066908352319,1500
2227.951656518121,1546
2229.835966218746,1502
2231.71983773203,1561
2233.6032713358913,1537
2235.486267308324,1506
2237.3688259274036,1525
2239.2509474712824,1544
2241.132632218193,1576
2243.013880446447,1517
2244.8946924344323,1526
2246.7750684606203,1465
2248.6550088035574,1558
2250.534513741871,1541
2252.413583554265,1566
2254.292218519526,1499
2256.170418916517,1541
2258.0481850241786,1474
2259.925517121534,1502
2261.8024154876825,1511
2263.678880401803,1517
2265.5549121431536,1515
2267.430510991071,1521
2269.305677224971,1534
2271.180411124348,1515
2273.0547129687766,1524
2274.9285830379076,1538
2276.8020216114737,1468
2278.6750289692845,1509
2280.5476053912294,1541
2282.4197511572766,1563
2284.2914665474727,1548
2286.162751841943,1559
2288.0336073208937,1581
2289.904033264608,1521
2291.774029953448,1563
2293.6435976678554,1538
2295.5127366883517,1553
2297.381447295534,1569
2299.2497297700825,1464
2301.1175843927526,1495
2302.9850114443825,1416
2304.852011205885,1377
2306.7185839582553,1420
2308.5847299825664,1317
2310.4504495599676,1373
2312.3157429716925,1358
2314.1806104990483,1398
2316.0450524234247,1374
2317.9090690262888,1356
2319.772660589186,1378
2321.635827393742,1390
2323.498569721661,1377
2325.3608878547248,1354
2327.2227820747967,1390
2329.0842526638157,1404
2330.945299903803,1387
2332.805924076857,1407
2334.6661254651535,1379
2336.525904350951,1360
2338.3852610165827,1358
2340.244195744464,1393
2342.102708817088,1398
2343.9608005170253,1390
2345.8184711269287,1379
2347.675720929526,1400
2349.532550207628,1371
2351.38895924412,1335
2353.24494832197,1409
2355.100517724223,1439
2356.955667734004,1352
2358.810398634514,1344
2360.664710709037,1355
2362.5186042409337,1457
2364.3720795136437,1386
2366.225136810686,1471
2368.0777764156583,1409
2369.929998612237,1398
2371.7818036841777,1400
2373.633191915315,1431
2375.484163589562,1418
2377.3347189909114,1405
2379.184858403434,1384
2381.03458211128,1457
2382.8838903986775,1386
2384.732783549936,1446
2386.5812618494406,1396
2388.4293255816588,1400
2390.2769750311327,1406
2392.1242104824883,1409
2393.971032220427,1396
2395.8174405297295,1407
2397.6634356952563,1407
2399.509018001947,1488
2401.3541877348193,1475
2403.1989451789705,1443
2405.043290619576,1419
2406.8872243418905,1491
2408.730746631247,1484
2410.5738577730594,1514
2412.4165580528183,1499
2414.258847756095,1515
2416.100727168537,1471
2417.9421965758734,1590
2419.783256263912,1593
2421.623906518538,1549
2423.4641476257157,1637
2425.303979871491,1668
2427.143403541984,1683
2428.9824189233977,1586
2430.821026302012,1633
2432.6592259641866,1637
2434.497018196361,1633
2436.33440328505,1658
2438.171381516851,1617
2440.00795317844,1706
2441.844118556569,1606
2443.6798779380724,1596
2445.5152316098606,1577
2447.3501798589255,1593
2449.1847229723357,1469
2451.0188612372403,1509
2452.8525949408663,1597
2454.6859243705203,1564
2456.518849813587,1512
2458.3513715575314,1536
2460.183489889895,1511
2462.015205098301,1453
2463.8465174704493,1459
2465.67742729412,1449
2467.5079348571717,1484
2469.338040447542,1449
2471.1677443532476,1497
2472.9970468623833,1510
2474.825948263123,1450
2476.6544488437207,1478
2478.482548892508,1492
2480.310248697896,1494
2482.137548548374,1475
2483.9644487325118,1413
2485.790949538956,1473
2487.617051256433,1522
2489.44275417375,1483
2491.26805857979,1485
2493.0929647635157,1499
2494.917473013971,1457
2496.741583620276,1509
2498.5652968716304,1442
2500.3886130573137,1477
2502.2115324666834,1538
2504.0340553891765,1518
2505.856182114308,1512
2507.6779129316733,1516
2509.499248130945,1491
2511.3201880018764,1489
2513.140732834298,1558
2514.9608829181198,1482
2516.780638543331,1523
2518.6,1485
2520.418967578273,1519
2522.237541568376,1542
2524.0557222606144,1461
2525.8735099453706,1443
2527.6909049131086,1497
2529.507907454368,1504
2531.32451785977,1519
2533.140736420014,1551
2534.9565634258774,1525
2536.771999168218,1571
2538.5870439379714,1586
2540.4016980261526,1561
2542.2159617238544,1538
2544.02983532225,1592
2545.8433191125914,1610
2547.656413386209,1625
2549.4691184345115,1548
2551.2814345489874,1618
2553.093362021204,1724
2554.904901142808,1587
2556.716052205523,1603
2558.526815501153,1571
2560.3371913215824,1606
2562.147179958771,1605
2563.956781704761,1611
2565.7659968516705,1688
2567.5748256916986,1589
2569.3832685171224,1676
2571.1913256202984,1681
2572.9989972936614,1645
2574.806283829725,1683
2576.613185521084,1644
2578.4197026604074,1633
2580.2258355404483,1705
2582.031584454035,1729
2583.836949694077,1645
2585.6419315535613,1695
2587.4465303255533,1681
2589.2507463032002,1676
2591.0545797797245,1739
2592.8580310484303,1703
2594.6611004026995,1703
2596.463788135992,1640
2598.266094541849,1645
2600.0680199138874,1686
2601.869564545807,1725
2603.670728731383,1731
2605.4715127644704,1646
2607.2719169390048,1773
2609.071941548998,1645
2610.8715868885433,1681
2612.670853251811,1664
2614.469740933052,1662
2616.268250226594,1695
2618.0663814268455,1665
2619.864134828292,1636
2621.6615107255006,1647
2623.458509413115,1611
2625.2551311858597,1659
2627.0513763385347,1632
2628.8472451660223,1608
2630.6427379632833,1584
2632.4378550253564,1628
2634.232596647359,1609
2636.026963124488,1656
2637.8209547520187,1571
2639.6145718253065,1630
2641.407814639785,1569
2643.200683490966,1600
2644.9931786744414,1515
2646.7853004858807,1592
2648.577049221034,1543
2650.3684251757277,1541
2652.1594286458712,1541
2653.9500599274484,1559
2655.740319316525,1566
2657.5302071092437,1566
2659.3197236018286,1522
2661.10886909058,1585
2662.8976438718782,1514
2664.686048242183,1479
2666.4740824980327,1495
2668.2617469360443,1505
2670.0490418529134,1496
2671.8359675454153,1486
2673.622524310403,1492
2675.408712444811,1526
2677.1945322456495,1479
2678.979984010009,1455
2680.76506803506,1443
2682.5497846180497,1432
2684.334134056306,1451
2686.1181166472343,1359
2687.9017326883213,1451
2689.6849824771293,1496
2691.4678663113013,1481
2693.2503844885596,1476
2695.032537306705,1474
2696.8143250636167,1485
2698.5957480572542,1400
2700.3768065856534,1437
2702.1575009469316,1413
2703.937831439283,1460
2705.717798360982,1451
2707.4974020103837,1368
2709.276642685917,1397
2711.055520686095,1347
2712.834036309506,1429
2714.612189854819,1378
2716.389981620782,1394
2718.1674119062204,1354
2719.944481010041,1427
2721.721189231226,1445
2723.4975368688415,1379
2725.273524222027,1436
2727.0491515900053,1314
2728.824419272075,1375
2730.5993275676146,1349
2732.3738767760838,1358
2734.148067197016,1340
2735.921899130031,1431
2737.6953728748194,1347
2739.468488731156,1460
2741.2412469988926,1391
2743.0136479779617,1360
2744.785691968372,1345
2746.5573792702116,1392
2748.3287101836504,1375
2750.099685008934,1335
2751.870304046388,1329
2753.640567596418,1394
2755.4104759595057,1324
2757.1800294362156,1301
2758.949228327187,1353
2760.7180729331412,1409
2762.486563554877,1362
2764.254700493272,1338
2766.022484049284,1341
2767.789914523947,1346
2769.5569922183786,1400
2771.3237174337705,1371
2773.090090471394,1360
2774.8561116326036,1336
2776.6217812188274,1376
2778.3870995315756,1293
2780.1520668724356,1268
2781.9166835430747,1340
2783.6809498452394,1325
2785.444866080754,1371
2787.2084325515225,1356
2788.971649559527,1314
2790.73451740683,1385
2792.4970363955713,1358
2794.2592068279705,1368
2796.0210290063264,1293
2797.7825032330147,1346
2799.543629810493,1285
2801.304409041296,1339
2803.0648412280366,1330
2804.8249266734088,1351
2806.5846656801846,1361
2808.344058551212,1413
2810.1031055894246,1298
2811.8618070978273,1304
2813.6201633795085,1374
2815.378174737636,1297
2817.1358414754536,1320
2818.893163896285,1356
2820.6501423035334,1325
2822.4067770006814,1358
2824.1630682912883,1317
2825.9190164789957,1310
2827.6746218675207,1278
2829.429884760661,1285
2831.184805462294,1352
2832.9393842763743,1327
2834.693621506936,1353
2836.4475174580916,1328
2838.201072434034,1374
2839.954286739034,1274
2841.707160677441,1324
2843.459694553685,1335
2845.2118886722724,1326
2846.96374333779,1365
2848.7152588549034,1406
2850.4664355283567,1393
2852.217273662973,1307
2853.9677735636546,1332
2855.7179355353833,1342
2857.4677598832186,1382
2859.217246912299,1376
2860.9663969278427,1395
2862.715210235146,1329
2864.4636871395846,1308
2866.211827946614,1362
2867.9596329617652,1324
2869.7071024906536,1346
2871.4542368389684,1337
2873.20103631248,1339
2874.947501217038,1347
2876.6936318585695,1302
2878.4394285430812,1325
2880.1848915766604,1327
2881.9300212654707,1272
2883.6748179157553,1355
2885.4192818338374,1321
2887.1634133261173,1329
2888.907212699077,1437
2890.6506802592744,1326
2892.393816313348,1297
2894.1366211680142,1378
2895.8790951300693,1327
2897.621238506388,1312
2899.363051603925,1361
2901.1045347297118,1361
2902.8456881908596,1351
2904.58651229456,1264
2906.327007348081,1352
2908.067173658772,1301
2909.8070115340597,1315
2911.5465212814497,1363
2913.285703208527,1280
2915.0245576229563,1327
2916.7630848324807,1323
2918.5012851449196,1313
2920.2391588681758,1373
2921.976706310227,1363
2923.7139277791334,1295
2925.4508235830313,1287
2927.187394030137,1338
2928.923639428745,1340
2930.6595600872306,1376
2932.395156314046,1370
2934.1304284177218,1359
2935.8653767068713,1328
2937.6000014901815,1370
2939.3343030764227,1343
2941.068281774442,1354
2942.8019378931644,1362
2944.5352717415976,1350
2946.2682836288236,1331
2948.0009738640065,1350
2949.7333427563885,1382
2951.465390615289,1386
2953.1971177501086,1368
2954.9285244703265,1333
2956.6596110855,1374
2958.3903779052657,1317
2960.1208252393385,1323
2961.8509533975125,1315
2963.5807626896617,1318
2965.3102534257378,1309
2967.0394259157715,1282
2968.768280469873,1326
2970.496817398232,1337
2972.2250370111146,1315
2973.952939618869,1361
2975.6805255319196,1377
2977.4077950607707,1354
2979.134748516006,1371
2980.861386208289,1320
2982.587708448359,1344
2984.313715547037,1315
2986.039407815222,1284
2987.764785563891,1257
2989.489849104102,1281
2991.2145987469908,1281
2992.9390348037705,1289
2994.6631575857346,1315
2996.3869674042576,1303
2998.1104645707887,1281
2999.83364939686,1299
3001.5565221940783,1289
3003.2790832741334,1295
3005.0013329487924,1324
3006.7232715298996,1249
3008.4448993293804,1382
3010.166216659239,1321
3011.887223831558,1287
3013.607921158498,1278
3015.3283089522993,1305
3017.0483875252826,1304
3018.7681571898443,1270
3020.4876182584626,1306
3022.2067710436927,1280
3023.9256158581707,1328
3025.644153014609,1269
3027.362382825801,1322
3029.0803056046193,1325
3030.797921664012,1285
3032.5152313170106,1358
3034.2322348767225,1300
3035.9489326563353,1271
3037.665324969115,1297
3039.3814121284063,1316
3041.097194447633,1308
3042.812672240299,1360
3044.5278458199855,1306
3046.2427155003525,1247
3047.9572815951406,1316
3049.671544418167,1291
3051.38550428333,1270
3053.0991615046073,1307
3054.812516396051,1283
3056.5255692717974,1310
3058.2383204460575,1318
3059.9507702331257,1290
3061.662918947372,1280
3063.3747669032446,1283
3065.0863144152736,1301
3066.7975617980674,1234
3068.508509366309,1265
3070.219157434767,1281
3071.9295063182844,1281
3073.639556331785,1297
3075.3493077902704,1297
3077.058761008821,1330
3078.7679163025964,1310
3080.476773986837,1265
3082.1853343768594,1358
3083.89359778806,1321
3085.6015645359153,1257
3087.3092349359786,1325
3089.016609303884,1328
3090.7236879553434,1295
3092.4304712061476,1298
3094.136959372166,1236
3095.843152769349,1271
3097.5490517137237,1296
3099.2546565213966,1267
3100.959967508554,1316
3102.66498499146,1304
3104.3697092864577,1278
3106.0741407099695,1249
3107.778279578498,1292
3109.482126208622,1232
3111.1856809170004,1274
3112.8889440203716,1305
3114.5919158355528,1261
3116.294596679439,1300
3117.996986869006,1261
3119.6990867213062,1289
3121.4008965534726,1304
3123.102416682717,1292
3124.803647426329,1330
3126.5045891016784,1286
3128.205242026213,1355
3129.90560651746,1329
3131.605682893025,1322
3133.3054714705922,1325
3135.0049725679282,1348
3136.7041865028714,1336
3138.4031135933465,1304
3140.101754157353,1267
3141.800108512971,1240
3143.498176978357,1257
3145.1959598717494,1329
3146.8934575114636,1308
3148.5906702158954,1257
3150.2875983035183,1268
3151.9842420928853,1296
3153.680601902627,1325
3155.376678051456,1320
3157.07247085816,1244
3158.767980641609,1326
3160.463207720748,1317
3162.158152414606,1272
3163.8528150422862,1278
3165.5471959229726,1296
3167.2412953759303,1292
3168.9351137204976,1307
3170.628651276098,1340
3172.3219083622307,1282
3174.014885298474,1249
3175.707582404485,1296
3177.4000000000005,1274
3179.092138404835,1289
3180.7839979388846,1286
3182.47557892212,1312
3184.166881674594,1287
3185.8579065164386,1294
3187.5486537678626,1280
3189.2391237491547,1263
3190.9293167806827,1226
3192.6192331828934,1293
3194.3088732763117,1299
3195.998237381542,1246
3197.687325819268,1276
3199.376138910251,1306
3201.064676975334,1330
3202.7529403354347,1268
3204.4409293115523,1260
3206.1286442247647,1281
3207.816085396229,1249
3209.5032531471825,1250
3211.190147798936,1275
3212.8767696728846,1218
3214.5631190905015,1269
3216.2491963733373,1242
3217.9350018430214,1234
3219.6205358212637,1238
3221.305798629851,1204
3222.990790590651,1284
3224.6755120256103,1259
3226.359963256751,1272
3228.0441446061795,1257
3229.7280563960758,1233
3231.411698948703,1261
3233.0950725863995,1178
3234.778177631587,1275
3236.461014406761,1242
3238.1435832345005,1294
3239.8258844374595,1285
3241.507918338374,1290
3243.1896852600576,1234
3244.8711855254023,1263
3246.552419457381,1278
3248.233387379042,1253
3249.914089613516,1251
3251.59452648401,1210
3253.274698313813,1272
3254.95460542629,1270
3256.6342481448855,1224
3258.313626793125,1216
3259.9927416946084,1237
3261.6715931730196,1253
3263.3501815521176,1197
3265.0285071557437,1230
3266.706570307815,1286
3268.3843713323286,1222
3270.0619105533615,1268
3271.739188295068,1248
3273.4162048816834,1298
3275.0929606375184,1257
3276.769455886966,1246
3278.445690954498,1271
3280.1216661646613,1311
3281.797381842087,1347
3283.4728383114807,1225
3285.1480358976296,1216
3286.8229749253996,1324
3288.4976557197333,1264
3290.172078605655,1252
3291.846243908266,1233
3293.5201519527463,1277
3295.193803064357,1340
3296.8671975684374,1274
3298.5403357904024,1226
3300.21321805575,1195
3301.8858446900567,1254
3303.558216018975,1316
3305.23033236824,1213
3306.9021940636603,1229
3308.57380143113,1272
3310.2451547966184,1335
3311.916254486174,1284
3313.5871008259246,1189
3315.2576941420766,1183
3316.9280347609147,1230
3318.5981230088046,1264
3320.2679592121895,1233
3321.9375436975924,1211
3323.606876791612,1240
3325.27595882093,1226
3326.944790112305,1296
3328.6133709925753,1233
3330.2817017886573,1329
3331.949782827547,1248
3333.617614436319,1250
3335.2851969421245,1249
3336.952530672199,1270
3338.619615953853,1206
3340.286453114475,1241
3341.9530424815357,1217
3343.619384382583,1271
3345.2854791452437,1209
3346.951327097224,1237
3348.6169285663073,1329
3350.2822838803577,1249
3351.947393367319,1227
3353.61225735521,1253
3355.2768761721345,1256
3356.9412501462693,1258
3358.605379605873,1236
3360.2692648792827,1275
3361.9329062949146,1275
3363.596304181263,1249
