CollectionTime,9/20/2024 10:55:11 AM
ExposureUsed,3
CalibratedSpectrum
-962.7078968117929,583
-959.9714848408522,638
-957.2358232597828,673
-954.5009119013725,700
-951.7667505983302,695
-949.0333391832855,704
-946.3006774887896,659
-943.5687653473143,692
-940.837602591253,702
-938.1071890529199,659
-935.3775245645503,670
-932.6486089583007,662
-929.9204420662485,667
-927.1930237203925,637
-924.4663537526524,684
-921.7404319948689,693
-919.0152582788041,705
-916.2908324361409,684
-913.5671542984834,673
-910.8442236973568,676
-908.1220404642074,644
-905.4006044304027,631
-902.679915427231,641
-899.959973285902,643
-897.2407778375464,673
-894.5223289132158,639
-891.8046263438832,658
-889.0876699604426,649
-886.3714595937089,658
-883.6559950744183,638
-880.9412762332282,628
-878.2273029007168,643
-875.5140749073835,642
-872.8015920836489,678
-870.0898542598545,643
-867.3788612662631,632
-864.6686129330585,643
-861.9591090903457,613
-859.2503495681506,674
-856.5423341964203,622
-853.8350628050229,653
-851.1285352237478,674
-848.4227512823054,684
-845.7177108103272,642
-843.0134136373656,610
-840.3098595928943,658
-837.6070485063082,648
-834.9049802069229,670
-832.2036545239757,682
-829.5030712866244,704
-826.8032303239481,701
-824.1041314649472,663
-821.4057745385428,686
-818.7081593735775,718
-816.0112857988148,764
-813.3151536429393,728
-810.6197627345566,695
-807.9251129021936,696
-805.2312039742981,659
-802.5380357792392,735
-799.8456081453069,690
-797.1539209007124,651
-794.462973873588,682
-791.772766891987,730
-789.083299783884,700
-786.3945723771743,687
-783.7065844996748,698
-781.0193359791231,664
-778.3328266431781,684
-775.6470563194197,683
-772.9620248353489,660
-770.2777320183878,662
-767.5941776958798,716
-764.9113616950891,705
-762.2292838432011,673
-759.5479439673222,669
-756.8673418944801,724
-754.1874774516235,668
-751.5083504656222,651
-748.8299607632671,673
-746.15230817127,668
-743.475392516264,713
-740.7992136248035,698
-738.1237713233636,727
-735.4490654383407,704
-732.7750957960521,686
-730.1018622227365,688
-727.4293645445534,697
-724.7576025875837,700
-722.0865761778291,724
-719.4162851412126,715
-716.7467293035781,689
-714.0779084906909,709
-711.409822528237,673
-708.7424712418238,672
-706.0758544569796,768
-703.4099719991541,796
-700.7448236937178,756
-698.0804093659622,733
-695.4167288411002,669
-692.7537819442656,707
-690.0915685005134,732
-687.4300883348199,763
-684.7693412720819,766
-682.1093271371178,798
-679.4500457546669,766
-676.7914969493897,788
-674.1336805458676,751
-671.4765963686034,774
-668.8202442420206,761
-666.1646239904642,725
-663.5097354382001,714
-660.8555784094151,722
-658.2021527282176,754
-655.5494582186366,793
-652.8974947046223,783
-650.2462620100463,772
-647.5957599587009,753
-644.9459883742998,779
-642.2969470804776,788
-639.6486359007902,820
-637.0010546587141,800
-634.3542031776476,833
-631.7080812809096,820
-629.0626887917401,778
-626.4180255333008,744
-623.7740913286734,745
-621.1308860008619,816
-618.4884093727904,782
-615.8466612673046,779
-613.2056415071715,745
-610.5653499150785,799
-607.9257863136347,829
-605.28695052537,868
-602.6488423727357,780
-600.0114616781036,777
-597.3748082637674,807
-594.7388819519412,780
-592.1036825647604,838
-589.4692099242818,844
-586.8354638524829,825
-584.2024441712624,829
-581.5701507024403,802
-578.9385832677575,840
-576.3077416888759,852
-573.6776257873787,855
-571.0482353847704,825
-568.4195703024757,842
-565.7916303618415,843
-563.164415384135,861
-560.5379251905453,874
-557.9121596021815,871
-555.2871184400748,874
-552.6628015251767,836
-550.0392086783606,873
-547.4163397204204,877
-544.794194472071,872
-542.1727727539491,888
-539.5520743866118,873
-536.9320991905377,877
-534.3128469861261,955
-531.6943175936979,954
-529.0765108334947,963
-526.4594265256793,1066
-523.8430644903358,1211
-521.2274245474689,1334
-518.612506517005,1450
-515.9983102187913,1410
-513.3848354725959,1442
-510.77208209810846,1534
-508.16004991493924,1488
-505.5487387426199,1652
-502.9381484006032,1706
-500.3282787082628,1594
-497.71912948489364,1569
-495.1107005497117,1454
-492.5029917218539,1332
-489.8960028203786,1304
-487.28973366426493,1095
-484.68418407241325,1022
-482.07935386364494,980
-479.47524285670266,978
-476.87185087025,1044
-474.2691777228715,1023
-471.66722323307334,1052
-469.0659872192821,1012
-466.4654694998459,1015
-463.86566989303384,1043
-461.26658821703614,1008
-458.66822428996414,1052
-456.07057792985,1097
-453.4736489546475,1119
-450.877437182231,1026
-448.28194243039627,1060
-445.68716451686,992
-443.09310325926003,964
-440.49975847515555,1020
-437.9071299820263,947
-435.31521759727354,999
-432.72402113821954,1056
-430.13354042210767,1004
-427.5437752661022,1056
-424.95472548728867,1061
-422.36639090267386,1083
-419.7787713291855,1090
-417.1918665836721,1112
-414.60567648290385,1112
-412.0202008435715,1155
-409.4354394822874,1077
-406.8513922155845,1056
-404.26805885991723,1045
-401.685439231661,1141
-399.103533147112,1101
-396.522340422488,1084
-393.9418608739278,1156
-391.3620943174908,1130
-388.7830405691583,1135
-386.2046994448317,964
-383.6270707603344,969
-381.05015433141045,859
-378.473949973725,905
-375.8984575028645,814
-373.32367673433623,824
-370.74960748356875,769
-368.1762495659117,735
-365.60360279663576,708
-363.03166699093265,668
-360.4604419639154,582
-357.8899275306178,588
-355.32012350599507,588
-352.7510297049233,601
-350.1826459421999,575
-347.61497203254316,611
-345.04800779059235,610
-342.4817530309082,600
-339.91620756797226,607
-337.35137121618743,622
-334.7872437898774,557
-332.22382510328725,548
-329.66111497058273,596
-327.09911320585127,608
-324.53781962310075,639
-321.9772340362607,632
-319.4173562591816,594
-316.8581861056348,583
-314.2997233893127,573
-311.7419679238294,558
-309.1849195227194,567
-306.62857799943856,619
-304.0729431673641,695
-301.51801483979375,701
-298.963792829947,693
-296.41027695096386,630
-293.85746701590574,658
-291.3053628377552,647
-288.7539642294155,624
-286.2032710037115,665
-283.65328297338897,735
-281.1039999511146,688
-278.5554217494762,607
-276.007548180983,631
-273.4603790580651,700
-270.9139141930734,701
-268.3681533982807,734
-265.8230964858798,730
-263.27874326798565,861
-260.7350935566336,789
-258.1921471637804,801
-255.6499039013039,890
-253.10836358100266,895
-250.56752601459698,857
-248.02739101372765,868
-245.48795838995704,923
-242.94922795476816,937
-240.41119951956557,1006
-237.8738728956746,856
-235.33724789434166,836
-232.80132432673452,837
-230.2661020039418,797
-227.73158073697357,808
-225.19776033676033,987
-222.66464061415422,1031
-220.1322213799284,1031
-217.60050244477725,951
-215.06948361931552,1049
-212.53916471408013,1160
-210.00954553952818,1146
-207.48062590603843,1008
-204.9524056239104,892
-202.4248845033651,985
-199.8980623545441,1130
-197.37193898751036,1232
-194.84651421224817,1286
-192.32178783866232,1304
-189.79775967657952,1232
-187.27442953574644,1176
-184.7517972258321,1265
-182.2298625564256,1006
-179.7086253370378,901
-177.18808537710026,920
-174.66824248596583,1122
-172.14909647290835,1331
-169.6306471471229,1397
-167.11289431772548,1186
-164.59583779375328,1177
-162.07947738416453,1341
-159.5638128978386,1339
-157.04884414357605,1518
-154.53457093009854,1533
-152.02099306604828,1316
-149.50811035998936,1253
-146.99592262040665,1450
-144.48442965570587,1483
-141.97363127421409,1656
-139.46352728417958,1851
-136.95411749377126,1816
-134.44540171107985,1513
-131.93737974411636,1205
-129.43005140081357,1330
-126.92341648902493,1720
-124.41747481652521,2227
-121.91222619101006,2805
-119.40767042009657,3238
-116.90380731132257,3021
-114.40063667214702,3045
-111.8981583099503,3514
-109.3963720320337,4854
-106.89527764561933,6287
-104.39487495785067,7274
-101.89516377579241,9664
-99.39614390642998,14883
-96.89781515667039,21335
-94.40017733334128,22627
-91.90323024319173,20400
-89.40697369289148,17354
-86.91140748903172,11405
-84.41653143812482,7151
-81.92234534660395,8465
-79.42884902082358,11604
-76.93604226705907,14237
-74.4439248915071,15695
-71.95249670028534,15504
-69.46175749943245,13270
-66.97170709490854,10846
-64.48234529259423,8039
-61.99367189829195,7983
-59.50568671772464,9503
-57.01838955653636,9454
-54.53178022029283,10260
-52.045858514480074,11355
-49.560624244506016,14576
-47.07607721569923,19928
-44.59221723330904,23372
-42.10904410250669,29853
-39.62655762838392,37874
-37.14475761595372,43707
-34.66364387015028,49365
-32.18321619582866,55649
-29.70347439776515,56067
-27.224418280657005,51791
-24.74604764912317,56587
-22.26836230770266,62996
-19.7913620608565,65036
-17.315046712966478,65036
-14.83941606833514,65036
-12.36446993118659,65036
-9.89020810566592,65036
-7.416630395839093,65036
-4.94373660569363,65036
-2.471526539137585,65036
-6.821210263296962E-13,65036
2.47084320796705,65036
4.941003281093458,65036
7.410480415786196,65036
9.879274808531363,65036
12.347386655893956,65036
14.814816154518212,65036
17.28156350112681,65036
19.74762889252179,65036
22.21301252558385,65036
24.67771459727237,24597
27.141735304626195,8677
29.605074844762612,9893
32.06773341487792,7637
34.52971121224755,6309
36.99100843422559,5085
39.45162527824516,4346
41.91156194181792,4353
44.370818622535126,5028
46.82939551806646,5144
49.287292826160524,6666
51.74451074464503,5153
54.201049471426245,2938
56.65690920448981,2620
59.112090141899785,2814
61.56659248179983,3651
64.02041642241159,3579
66.4735621620365,3422
68.92602989905402,3504
71.37781983192338,3966
73.82893215918205,3686
76.27936707944684,2677
78.72912479141326,2784
81.17820549385567,3097
83.62660938562783,2694
86.07433666566146,2330
88.5213875329681,2098
90.96776218663751,1997
93.41346082583925,2355
95.85848364982041,2909
98.30283085790859,2106
100.7465026495089,2002
103.18949922410604,2115
105.63182078126385,1977
108.07346752062438,1823
110.51443964190923,1834
112.95473734491827,2059
115.39436082953114,1920
117.83331029570547,1652
120.27158594347827,1597
122.7091879729652,1570
125.1461165843615,1403
127.58237197794062,1591
130.01795435405518,1953
132.4528639131364,1874
134.88710085569494,1904
137.32066538231982,2035
139.75355769367923,2098
142.1857779905207,1464
144.61732647366978,1240
147.04820334403132,1162
149.47840880258934,1410
151.90794305040674,1648
154.33680628862487,1858
156.76499871846443,1850
159.19252054122433,1847
161.61937195828352,2138
164.04555317109896,2274
166.47106438120693,2351
168.89590579022217,2402
171.320077599839,2322
173.7435800118302,2373
176.16641322804742,2586
178.58857745042144,2616
181.01007288096173,2559
183.43089972175687,2569
185.85105817497413,2632
188.27054844285988,2688
190.6893707277394,2539
193.10752523201643,2820
195.5250121581745,2901
197.9418317087751,3051
200.3579840864594,2949
202.7734694939469,2993
205.18828813403627,3023
207.6024402096051,2948
210.01592592360964,2931
212.42874547908548,3108
214.84089907914665,3033
217.2523869269868,2919
219.66320922587727,2814
222.0733661791695,2911
224.48285799029293,3000
226.8916848627572,2997
229.29984700014882,3029
231.7073446061355,3018
234.11417788446204,3149
236.520347038953,3008
238.92585227351185,3022
241.33069379212054,3300
243.73487179884035,3211
246.1383864978112,3215
248.541238093252,3186
250.9434267894609,3282
253.34495279081432,3266
255.74581630176783,3320
258.1460175268563,3258
260.54555667069314,3229
262.9444339379703,3259
265.3426495334594,3232
267.7402036620107,3131
270.1370965285529,3096
272.53332833809407,3103
274.9288992957214,3074
277.32380960660055,2850
279.718059475976,2826
282.1116491091717,2839
284.5045787115897,2787
286.89684848871195,2892
289.2884586460981,2785
291.67940938938807,2721
294.0697009242996,2801
296.4593334566299,2718
298.84830719225477,2808
301.23662233712923,2780
303.6242790972866,2759
306.01127767884,2738
308.39761828798066,2834
310.78330113097934,2715
313.16832641418534,2638
315.5526943440269,2511
317.9364051270112,2669
320.3194589697242,2638
322.70185607883093,2555
325.0835966610754,2573
327.4646809232805,2474
329.8451090723478,2548
332.2248813152577,2552
334.6039978590701,2570
336.9824589109231,2530
339.36026467803447,2438
341.7374153677,2450
344.113911187295,2354
346.48975234427337,2414
348.8649390461686,2471
351.2394715005918,2486
353.61334991523415,2519
355.9865744978655,2484
358.35914545633375,2436
360.73106299856715,2400
363.10232733257146,2487
365.47293866643247,2406
367.84289720831396,2407
370.2122031664593,2334
372.5808567491905,2345
374.9488581649083,2405
377.31620762209275,2321
379.6829053293021,2292
382.0489514951745,2433
384.4143463284262,2315
386.7790900378528,2339
389.14318283232853,2262
391.50662492080653,2243
393.86941651231916,2260
396.23155781597745,2325
398.5930490409713,2420
400.9538903965696,2455
403.3140820921202,2327
405.6736243370498,2306
408.03251734086336,2312
410.3907613131465,2223
412.74835646356166,2255
415.10530300185144,2259
417.4616011378372,2244
419.81725108141893,2182
422.1722530425758,2215
424.5266072313656,2218
426.880313857925,2270
429.2333731324701,2247
431.58578526529516,2188
433.9375504667738,2179
436.2886689473588,2202
438.63914091758113,2188
440.9889665880513,2207
443.33814616945835,2151
445.68667987257015,2205
448.03456790823395,2181
450.3818104873759,2121
452.72840782100013,2123
455.07436012019105,2146
457.41966759611057,2068
459.7643304600007,2063
462.10834892318155,2070
464.4517231970525,2140
466.79445349309174,2168
469.1365400228566,2141
471.4779829979826,2252
473.81878263018564,2204
476.15893913125876,2172
478.4984527130747,2371
480.8373235875855,2285
483.17555196682144,2282
485.5131380628919,2375
487.8500820879857,2417
490.1863842543697,2461
492.52204477439034,2566
494.8570638604725,2692
497.1914417251204,2823
499.52517858091653,3136
501.85827464052306,3389
504.19073011668036,3583
506.5225452222086,3668
508.85372017000566,3701
511.18425517304956,3802
513.514150444396,4353
515.8434061971808,5539
518.1720226446176,6109
520.4999999999999,6173
522.8273384766991,5899
525.1540382881666,5549
527.480099647932,5023
529.8055227696037,4014
532.1303078668694,2974
534.454455153496,2514
536.777964843328,2387
539.1008371502907,2243
541.4230722883866,2243
543.744670471698,2174
546.0656319143858,2233
548.3859568306899,2070
550.7056454349294,2068
553.0246979415016,2050
555.3431145648834,2025
557.6608955196306,2032
559.978041020377,2059
562.2945512818363,2081
564.6104265188006,2055
566.9256669461412,1993
569.2402727788082,2132
571.5542442318302,2110
573.8675815203156,2053
576.1802848594508,1994
578.4923544645015,2027
580.8037905508126,2051
583.114593333807,2111
585.4247630289875,1974
587.7342998519354,2037
590.0432040183106,2038
592.3514757438526,2062
594.6591152443794,2073
596.9661227357875,2179
599.2724984340531,2131
601.578242555231,2038
603.8833553154542,2039
606.1878369309362,2066
608.4916876179676,2036
610.7949075929192,2034
613.0974970722403,2000
615.3994562724587,1998
617.7007854101818,1992
620.0014847020951,2010
622.3015543649641,2002
624.6009946156324,2094
626.8998056710224,2032
629.1979877481361,1987
631.4955410640538,2053
633.7924658359349,2099
636.0887622810175,2138
638.3844306166192,2151
640.6794710601358,2092
642.9738838290426,2112
645.2676691408932,2091
647.5608272133207,2062
649.853358264037,2100
652.1452625108324,2145
654.4365401715764,2156
656.7271914642178,2158
659.0172166067838,2121
661.3066158173809,2090
663.5953893141935,2071
665.8835373154867,2137
668.1710600396028,2123
670.4579577049639,2132
672.7442305300709,2104
675.0298787335033,2058
677.3149025339197,2132
679.599302150058,2095
681.8830778007342,2109
684.1662297048437,2087
686.4487580813608,2198
688.7306631493387,2184
691.0119451279091,2130
693.2926042362834,2234
695.5726406937516,2223
697.8520547196814,2111
700.1308465335215,2124
702.4090163547982,2088
704.6865644031171,2168
706.9634908981619,2102
709.2397960596965,2127
711.5154801075631,2265
713.7905432616823,2077
716.0649857420548,2060
718.3388077687592,2120
720.612009561953,2100
722.8845913418733,2022
725.1565533288352,2053
727.427895743234,2045
729.6986188055427,2049
731.9687227363137,2101
734.238207756178,2065
736.5070740858458,2062
738.7753219461066,2069
741.0429515578281,2016
743.3099631419569,2067
745.5763569195191,2121
747.8421331116193,2157
750.1072919394409,2176
752.3718336242467,2146
754.6357583873777,2073
756.8990664502545,2152
759.1617580343765,2030
761.423833361321,2103
763.6852926527457,2176
765.9461361303862,2138
768.206364016058,2105
770.4659765316536,2077
772.7249738991469,2084
774.9833563405886,2190
777.2411240781092,2083
779.4982773339183,2118
781.7548163303044,2163
784.010741289634,2077
786.2660524343538,2185
788.5207499869881,2201
790.7748341701416,2192
793.0283052064964,2217
795.2811633188143,2266
797.5334087299362,2170
799.7850416627813,2196
802.0360623403484,2114
804.2864709857143,2093
806.5362678220353,2165
808.7854530725468,2149
811.0340269605625,2122
813.2819897094754,2073
815.5293415427581,2180
817.77608268396,2232
820.0222133567116,2112
822.2677337847211,2101
824.5126441917765,2065
826.7569448017433,2082
829.0006358385675,2045
831.2437175262731,2090
833.4861900889629,2155
835.7280537508192,2065
837.9693087361026,2152
840.2099552691533,2192
842.4499935743896,2189
844.689423876309,2037
846.9282463994886,2170
849.1664613685833,2119
851.4040690083276,2140
853.6410695435349,2184
855.877463199097,2126
858.1132501999847,2063
860.3484307712487,2213
862.5830051380175,2174
864.8169735254988,2197
867.0503361589791,2090
869.2830932638243,2202
871.5152450654786,2185
873.7467917894654,2202
875.9777336613873,2161
878.2080709069252,2143
880.4378037518389,2149
882.666932421968,2165
884.8954571432301,2168
887.1233781416219,2144
889.3506956432192,2221
891.5774098741766,2140
893.803521060728,2153
896.0290294291852,2135
898.2539352059397,2201
900.4782386174619,2181
902.7019398903011,2193
904.925039251085,2285
907.147536926521,2172
909.3694331433943,2196
911.59072812857,2214
913.8114221089921,2161
916.0315153116827,2135
918.2510079637437,2140
920.4699002923547,2137
922.6881925247761,2122
924.905884888345,2109
927.1229776104793,2110
929.3394709186747,2064
931.555365040506,2116
933.7706602036275,2155
935.9853566357709,2193
938.1994545647489,2152
940.4129542184515,2186
942.6258558248488,2165
944.8381596119883,2113
947.0498658079974,2197
949.2609746410825,2215
951.4714863395287,2075
953.6814011316998,2066
955.8907192460387,2078
958.0994409110671,2203
960.3075663553858,2212
962.5150958076741,2208
964.7220294966913,2176
966.928367651274,2148
969.1341105003388,2040
971.3392582728806,2062
973.5438111979742,2067
975.747769504772,2003
977.9511334225061,2069
980.153903180487,2039
982.3560790081052,2085
984.5576611348289,2080
986.7586497902058,1997
988.9590452038618,2018
991.158847605503,2060
993.3580572249133,2002
995.5566742919558,1970
997.7546990365728,1930
999.952131688785,1897
1002.1489724786926,1851
1004.3452216364743,1852
1006.5408793923874,1902
1008.7359459767691,1879
1010.9304216200343,1785
1013.1243065526781,1779
1015.3176010052733,1799
1017.510305208472,1803
1019.7024193930064,1834
1021.8939437896848,1799
1024.0848786293977,1741
1026.2752241431122,1767
1028.4649805618747,1779
1030.6541481168115,1847
1032.842727039127,1875
1035.0307175601051,1762
1037.2181199111074,1748
1039.4049343235752,1725
1041.591161029029,1761
1043.7768002590683,1765
1045.9618522453698,1738
1048.1463172196918,1696
1050.3301954138697,1736
1052.513487059818,1706
1054.69619238953,1723
1056.8783116350783,1643
1059.0598450286152,1700
1061.2407928023704,1655
1063.4211551886528,1749
1065.6009324198508,1718
1067.780124728432,1644
1069.9587323469414,1683
1072.1367555080046,1672
1074.314194444325,1684
1076.4910493886855,1726
1078.667320573947,1603
1080.843008233051,1641
1083.0181125990161,1658
1085.1926339049414,1681
1087.3665723840027,1710
1089.5399282694575,1652
1091.7127017946405,1660
1093.8848931929647,1675
1096.0565026979243,1606
1098.2275305430899,1691
1100.3979769621128,1636
1102.567842188722,1576
1104.737126456726,1636
1106.9058300000124,1598
1109.0739530525475,1640
1111.2414958483764,1602
1113.4084586216231,1591
1115.5748416064907,1641
1117.7406450372605,1655
1119.9058691482942,1698
1122.0705141740304,1661
1124.2345803489884,1615
1126.3980679077658,1686
1128.5609770850388,1673
1130.7233081155623,1654
1132.8850612341707,1696
1135.0462366757774,1622
1137.2068346753745,1569
1139.3668554680326,1592
1141.526299288901,1618
1143.68516637321,1596
1145.8434569562655,1605
1148.001171273455,1516
1150.158309560244,1637
1152.3148720521767,1556
1154.470858984876,1583
1156.626270594044,1637
1158.7811071154629,1664
1160.9353687849912,1589
1163.089055838569,1657
1165.242168512213,1598
1167.3947070420209,1619
1169.5466716641677,1598
1171.6980626149075,1598
1173.8488801305748,1606
1175.9991244475814,1621
1178.1487958024186,1627
1180.2978944316555,1550
1182.4464205719428,1592
1184.5943744600072,1589
1186.7417563326567,1582
1188.8885664267755,1581
1191.0348049793297,1546
1193.1804722273619,1563
1195.325568407995,1650
1197.4700937584303,1575
1199.614048515948,1619
1201.7574329179074,1608
1203.900247201746,1614
1206.042491604982,1590
1208.1841663652099,1577
1210.3252717201053,1596
1212.465807907422,1599
1214.6057751649923,1585
1216.7451737307279,1632
1218.8840038426192,1652
1221.0222657387353,1612
1223.1599596572241,1634
1225.2970858363137,1627
1227.4336445143094,1621
1229.5696359295966,1682
1231.705060320639,1625
1233.8399179259786,1641
1235.9742089842384,1626
1238.107933734118,1624
1240.2410924143974,1640
1242.373685263935,1648
1244.5057125216676,1580
1246.6371744266116,1632
1248.7680712178621,1638
1250.898403134593,1645
1253.028170416058,1652
1255.1573733015875,1657
1257.2860120305932,1676
1259.4140868425648,1639
1261.54159797707,1636
1263.6685456737569,1668
1265.7949301723515,1622
1267.9207517126597,1705
1270.046010534565,1673
1272.1707068780306,1686
1274.2948409830983,1778
1276.4184130898889,1772
1278.541423438603,1724
1280.6638722695184,1753
1282.785759822993,1759
1284.9070863394636,1796
1287.0278520594447,1735
1289.1480572235314,1707
1291.2677020723963,1760
1293.3867868467923,1815
1295.5053117875495,1862
1297.623277135579,1881
1299.740683131868,1855
1301.8575300174857,1788
1303.973818033578,1809
1306.0895474213703,1846
1308.2047184221678,1830
1310.3193312773528,1831
1312.4333862283888,1833
1314.5468835168163,1789
1316.659823384255,1823
1318.7722060724045,1911
1320.8840318230418,1898
1322.9953008780249,1915
1325.1060134792888,1942
1327.2161698688478,1850
1329.3257702887959,1852
1331.4348149813054,1835
1333.5433041886276,1856
1335.6512381530933,1946
1337.7586171171101,1908
1339.8654413231675,1810
1341.9717110138317,1865
1344.0774264317488,1834
1346.1825878196432,1840
1348.2871954203192,1856
1350.3912494766587,1855
1352.4947502316231,1789
1354.5976979282532,1864
1356.7000928096686,1844
1358.8019351190665,1796
1360.9032250997243,1800
1363.0039629949988,1834
1365.1041490483235,1778
1367.2037835032133,1821
1369.3028666032606,1838
1371.401398592137,1784
1373.4993797135926,1816
1375.5968102114575,1828
1377.6936903296396,1809
1379.7900203121262,1805
1381.8858004029835,1774
1383.9810308463561,1796
1386.075711886469,1851
1388.1698437676241,1821
1390.2634267342032,1804
1392.356461030667,1852
1394.4489469015557,1853
1396.5408845914872,1857
1398.6322743451592,1859
1400.7231164073469,1800
1402.813411022907,1841
1404.903158436773,1887
1406.9923588939578,1828
1409.0810126395531,1836
1411.1691199187303,1786
1413.2566809767386,1851
1415.343696058907,1895
1417.4301654106425,1877
1419.5160892774315,1823
1421.6014679048399,1869
1423.6863015385125,1877
1425.7705904241707,1860
1427.8543348076178,1908
1429.9375349347342,1880
1432.0201910514802,1934
1434.102303403894,1992
1436.1838722380944,1944
1438.2648978002767,1975
1440.3453803367174,1938
1442.4253200937692,1916
1444.5047173178677,2013
1446.5835722555234,1988
1448.6618851533285,2014
1450.739656257952,2011
1452.8168858161434,2127
1454.8935740747306,2174
1456.96972128062,2171
1459.045327680797,2221
1461.120393522327,2217
1463.1949190523528,2174
1465.2689045180973,2295
1467.3423501668608,2287
1469.415256246024,2183
1471.4876230030463,2169
1473.559450685465,2292
1475.6307395408976,2328
1477.7014898170391,2347
1479.771701761665,2453
1481.8413756226287,2388
1483.9105116478618,2388
1485.9791100853772,2407
1488.0471711832643,2479
1490.1146951896926,2463
1492.1816823529098,2486
1494.2481329212433,2563
1496.3140471430984,2452
1498.3794252669609,2456
1500.4442675413939,2536
1502.5085742150404,2610
1504.572345536622,2532
1506.6355817549388,2571
1508.6982831188702,2604
1510.7604498773744,2619
1512.8220822794883,2557
1514.8831805743293,2595
1516.9437450110909,2712
1519.003775839048,2659
1521.0632733075522,2622
1523.1222376660367,2720
1525.1806691640113,2716
1527.2385680510652,2689
1529.2959345768668,2694
1531.3527689911643,2740
1533.4090715437833,2768
1535.4648424846291,2813
1537.5200820636855,2800
1539.5747905310159,2800
1541.6289681367616,2854
1543.6826151311434,2807
1545.7357317644614,2940
1547.7883182870937,2961
1549.8403749494987,3005
1551.8919020022113,3069
1553.9428996958477,3028
1555.9933682811015,3153
1558.0433080087469,3153
1560.0927191296346,3306
1562.1416018946961,3186
1564.1899565549415,3276
1566.2377833614592,3247
1568.2850825654164,3289
1570.3318544180606,3180
1572.3780991707158,3122
1574.423817074788,3065
1576.4690083817595,2958
1578.5136733431923,2925
1580.5578122107272,2827
1582.601425236085,2756
1584.6445126710646,2683
1586.6870747675434,2569
1588.7291117774776,2496
1590.7706239529034,2363
1592.8116115459347,2380
1594.8520748087658,2356
1596.8920139936686,2319
1598.9314293529933,2254
1600.9703211391711,2275
1603.008689604711,2108
1605.0465350022005,2082
1607.0838575843068,2066
1609.1206576037753,2072
1611.1569353134305,2056
1613.1926909661765,1991
1615.2279248149953,1864
1617.2626371129481,1899
1619.2968281131757,1837
1621.3304980688963,1802
1623.3636472334088,1834
1625.39627586009,1790
1627.428384202396,1839
1629.459972513861,1817
1631.4910410480993,1783
1633.5215900588028,1742
1635.551619799744,1765
1637.5811305247717,1782
1639.6101224878166,1663
1641.6385959428862,1735
1643.6665511440683,1727
1645.693988345528,1717
1647.7209078015112,1685
1649.7473097663405,1672
1651.7731944944203,1725
1653.7985622402307,1695
1655.823413258333,1708
1657.847747803366,1623
1659.8715661300494,1743
1661.8948684931793,1642
1663.9176551476316,1672
1665.9399263483624,1640
1667.9616823504057,1655
1669.982923408873,1615
1672.0036497789574,1698
1674.0238617159293,1713
1676.043559475138,1694
1678.0627433120121,1631
1680.081413482059,1637
1682.0995702408654,1657
1684.117213844096,1716
1686.134344547495,1573
1688.1509626068864,1672
1690.1670682781705,1646
1692.182661817329,1650
1694.1977434804217,1624
1696.2123135235875,1615
1698.226372203043,1645
1700.2399197750851,1699
1702.2529564960905,1675
1704.2654826225112,1609
1706.277498410882,1636
1708.2890041178139,1656
1710.2999999999988,1680
1712.3104863142066,1614
1714.3204633172854,1615
1716.329931266163,1651
1718.3388904178469,1702
1720.3473410294214,1555
1722.3552833580516,1611
1724.3627176609807,1650
1726.3696441955308,1602
1728.3760632191033,1573
1730.3819749891782,1637
1732.3873797633146,1661
1734.3922777991502,1616
1736.3966693544012,1628
1738.4005546868639,1588
1740.4039340544127,1635
1742.406807715001,1600
1744.4091759266616,1573
1746.4110389475054,1600
1748.4123970357223,1624
1750.413250449582,1555
1752.4135994474318,1559
1754.4134442876993,1605
1756.4127852288902,1596
1758.4116225295893,1566
1760.4099564484595,1643
1762.407787244244,1645
1764.405115175764,1540
1766.4019405019203,1581
1768.3982634816916,1614
1770.3940843741357,1633
1772.3894034383907,1637
1774.3842209336717,1570
1776.378537119274,1567
1778.372352254571,1592
1780.3656665990156,1539
1782.3584804121397,1534
1784.3507939535534,1593
1786.3426074829463,1563
1788.3339212600863,1582
1790.3247355448211,1560
1792.3150505970766,1598
1794.3048666768573,1529
1796.2941840442477,1533
1798.2830029594106,1564
1800.2713236825884,1502
1802.2591464741004,1524
1804.2464715943465,1600
1806.2332993038058,1608
1808.2196298630352,1566
1810.2054635326708,1486
1812.190800573428,1541
1814.175641246101,1510
1816.1599858115628,1521
1818.1438345307652,1490
1820.127187664738,1548
1822.1100454745924,1504
1824.092408221516,1552
1826.0742761667766,1518
1828.055649571721,1512
1830.0365286977735,1502
1832.0169138064398,1536
1833.9968051593014,1521
1835.9762030180214,1505
1837.9551076443408,1553
1839.9335193000788,1428
1841.9114382471344,1548
1843.888864747485,1529
1845.8657990631878,1514
1847.842241456378,1505
1849.8181921892697,1513
1851.7936515241558,1541
1853.7686197234098,1486
1855.7430970494815,1572
1857.7170837649014,1518
1859.6905801322787,1446
1861.6635864143004,1490
1863.6361028737338,1504
1865.608129773424,1458
1867.5796673762961,1537
1869.5507159453537,1530
1871.521275743678,1496
1873.4913470344313,1493
1875.4609300808534,1479
1877.4300251462632,1528
1879.3986324940588,1562
1881.366752387717,1617
1883.3343850907936,1511
1885.3015308669228,1577
1887.268189979819,1545
1889.2343626932739,1539
1891.2000492711595,1624
1893.1652499774254,1455
1895.1299650761011,1529
1897.0941948312952,1584
1899.0579395071945,1508
1901.0211993680641,1536
1902.98397467825,1576
1904.9462657021745,1566
1906.9080727043415,1470
1908.869395949332,1506
1910.8302357018065,1578
1912.790592226504,1530
1914.7504657882428,1514
1916.7098566519212,1534
1918.6687650825133,1518
1920.6271913450764,1497
1922.5851357047422,1497
1924.5425984267245,1498
1926.499579776314,1605
1928.4560800188833,1580
1930.4120994198802,1522
1932.367638244833,1562
1934.32269675935,1545
1936.2772752291175,1588
1938.231373919899,1493
1940.1849930975404,1511
1942.1381330279637,1482
1944.0907939771696,1547
1946.0429762112412,1535
1947.9946799963363,1484
1949.9459055986945,1464
1951.896653284633,1592
1953.8469233205478,1541
1955.7967159729142,1488
1957.7460315082863,1560
1959.6948701932974,1471
1961.6432322946594,1445
1963.5911180791632,1452
1965.5385278136787,1488
1967.4854617651545,1467
1969.4319202006182,1484
1971.377903387176,1543
1973.3234115920136,1551
1975.268445082395,1574
1977.2130041256642,1439
1979.1570889892423,1511
1981.1006999406304,1513
1983.04383724741,1475
1984.986501177238,1485
1986.928691997853,1493
1988.8704099770712,1535
1990.811655382789,1497
1992.7524284829801,1409
1994.692729545698,1438
1996.6325588390755,1445
1998.5719166313224,1474
2000.5108031907307,1488
2002.4492187856677,1505
2004.387163684583,1412
2006.3246381560011,1483
2008.2616424685298,1434
2010.1981768908527,1440
2012.1342416917332,1476
2014.069837140014,1473
2016.0049635046162,1461
2017.9396210545406,1521
2019.8738100588666,1433
2021.8075307867502,1430
2023.740783507431,1442
2025.6735684902228,1440
2027.6058860045214,1442
2029.5377363198004,1444
2031.4691197056118,1442
2033.4000364315875,1402
2035.3304867674374,1474
2037.260470982952,1447
2039.189989347998,1423
2041.1190421325232,1483
2043.047629606554,1420
2044.9757520401945,1458
2046.9034097036288,1480
2048.8306028671195,1480
2050.7573318010086,1404
2052.683596775716,1429
2054.609398061742,1457
2056.5347359296647,1448
2058.4596106501403,1448
2060.384022493906,1359
2062.3079717317764,1427
2064.231458634646,1397
2066.1544834734873,1436
2068.077046519352,1431
2069.99914804337,1449
2071.9207883167524,1438
2073.8419676107865,1462
2075.7626861968406,1521
2077.6829443463607,1463
2079.6027423308715,1391
2081.522080421977,1463
2083.440958891362,1434
2085.359378010786,1475
2087.2773380520907,1420
2089.194839287196,1419
2091.111881988101,1454
2093.0284664268825,1476
2094.9445928756973,1440
2096.86026160678,1467
2098.775472892446,1422
2100.690227005088,1452
2102.604524217178,1470
2104.5183648012676,1461
2106.431749029985,1392
2108.34467717604,1459
2110.2571495122206,1476
2112.169166311393,1468
2114.080727846503,1492
2115.9918343905747,1510
2117.902486216711,1419
2119.8126835980956,1470
2121.722426807987,1422
2123.6317161197285,1441
2125.5405518067364,1426
2127.448934142509,1423
2129.356863400624,1454
2131.264339854737,1471
2133.1713637785815,1485
2135.077935445972,1524
2136.9840551308002,1509
2138.889723107037,1526
2140.7949396487334,1490
2142.699705030018,1433
2144.6040195250994,1474
2146.507883408264,1481
2148.4112969538774,1474
2150.3142604363848,1412
2152.2167741303097,1410
2154.1188383102535,1472
2156.0204532508997,1506
2157.9216192270064,1502
2159.822336513414,1430
2161.7226053850413,1499
2163.622426116884,1537
2165.5217989840185,1521
2167.4207242616,1527
2169.319202224862,1523
2171.2172331491165,1473
2173.1148173097563,1504
2175.0119549822507,1527
2176.90864644215,1422
2178.8048919650823,1529
2180.7006918267534,1493
2182.596046302952,1501
2184.4909556695407,1490
2186.3854202024645,1512
2188.279440177746,1497
2190.173015871487,1520
2192.066147559868,1546
2193.958835519149,1492
2195.851080025667,1531
2197.7428813558417,1521
2199.6342397861667,1515
2201.5251555932186,1515
2203.415629053651,1465
2205.3056604441986,1506
2207.19525004167,1512
2209.084398122958,1521
2210.9731049650327,1568
2212.861370844941,1499
2214.749196039812,1505
2216.636580826851,1604
2218.523525483344,1537
2220.410030286655,1518
2222.296095514226,1513
2224.1817214435805,1517
2226.066908352319,1522
2227.951656518121,1480
2229.835966218746,1582
2231.71983773203,1516
2233.6032713358913,1551
2235.486267308324,1537
2237.3688259274036,1536
2239.2509474712824,1535
2241.132632218193,1563
2243.013880446447,1540
2244.8946924344323,1558
2246.7750684606203,1542
2248.6550088035574,1561
2250.534513741871,1543
2252.413583554265,1524
2254.292218519526,1543
2256.170418916517,1507
2258.0481850241786,1562
2259.925517121534,1547
2261.8024154876825,1559
2263.678880401803,1553
2265.5549121431536,1567
2267.430510991071,1605
2269.305677224971,1614
2271.180411124348,1579
2273.0547129687766,1535
2274.9285830379076,1453
2276.8020216114737,1556
2278.6750289692845,1593
2280.5476053912294,1598
2282.4197511572766,1646
2284.2914665474727,1626
2286.162751841943,1628
2288.0336073208937,1600
2289.904033264608,1603
2291.774029953448,1643
2293.6435976678554,1528
2295.5127366883517,1542
2297.381447295534,1480
2299.2497297700825,1591
2301.1175843927526,1472
2302.9850114443825,1427
2304.852011205885,1353
2306.7185839582553,1422
2308.5847299825664,1421
2310.4504495599676,1466
2312.3157429716925,1396
2314.1806104990483,1320
2316.0450524234247,1340
2317.9090690262888,1363
2319.772660589186,1378
2321.635827393742,1371
2323.498569721661,1329
2325.3608878547248,1349
2327.2227820747967,1391
2329.0842526638157,1340
2330.945299903803,1368
2332.805924076857,1391
2334.6661254651535,1348
2336.525904350951,1353
2338.3852610165827,1355
2340.244195744464,1358
2342.102708817088,1436
2343.9608005170253,1358
2345.8184711269287,1389
2347.675720929526,1342
2349.532550207628,1382
2351.38895924412,1387
2353.24494832197,1350
2355.100517724223,1429
2356.955667734004,1361
2358.810398634514,1389
2360.664710709037,1384
2362.5186042409337,1450
2364.3720795136437,1360
2366.225136810686,1357
2368.0777764156583,1383
2369.929998612237,1373
2371.7818036841777,1411
2373.633191915315,1382
2375.484163589562,1434
2377.3347189909114,1412
2379.184858403434,1384
2381.03458211128,1370
2382.8838903986775,1413
2384.732783549936,1447
2386.5812618494406,1440
2388.4293255816588,1436
2390.2769750311327,1403
2392.1242104824883,1396
2393.971032220427,1496
2395.8174405297295,1429
2397.6634356952563,1399
2399.509018001947,1507
2401.3541877348193,1477
2403.1989451789705,1411
2405.043290619576,1483
2406.8872243418905,1498
2408.730746631247,1503
2410.5738577730594,1446
2412.4165580528183,1515
2414.258847756095,1581
2416.100727168537,1523
2417.9421965758734,1612
2419.783256263912,1591
2421.623906518538,1615
2423.4641476257157,1583
2425.303979871491,1619
2427.143403541984,1627
2428.9824189233977,1670
2430.821026302012,1631
2432.6592259641866,1577
2434.497018196361,1609
2436.33440328505,1621
2438.171381516851,1614
2440.00795317844,1633
2441.844118556569,1620
2443.6798779380724,1600
2445.5152316098606,1518
2447.3501798589255,1556
2449.1847229723357,1495
2451.0188612372403,1518
2452.8525949408663,1496
2454.6859243705203,1599
2456.518849813587,1545
2458.3513715575314,1516
2460.183489889895,1587
2462.015205098301,1552
2463.8465174704493,1528
2465.67742729412,1475
2467.5079348571717,1516
2469.338040447542,1483
2471.1677443532476,1511
2472.9970468623833,1517
2474.825948263123,1539
2476.6544488437207,1490
2478.482548892508,1475
2480.310248697896,1467
2482.137548548374,1449
2483.9644487325118,1509
2485.790949538956,1508
2487.617051256433,1509
2489.44275417375,1430
2491.26805857979,1498
2493.0929647635157,1385
2494.917473013971,1523
2496.741583620276,1498
2498.5652968716304,1482
2500.3886130573137,1495
2502.2115324666834,1512
2504.0340553891765,1537
2505.856182114308,1516
2507.6779129316733,1497
2509.499248130945,1512
2511.3201880018764,1559
2513.140732834298,1473
2514.9608829181198,1498
2516.780638543331,1490
2518.6,1494
2520.418967578273,1421
2522.237541568376,1442
2524.0557222606144,1538
2525.8735099453706,1531
2527.6909049131086,1533
2529.507907454368,1534
2531.32451785977,1531
2533.140736420014,1519
2534.9565634258774,1596
2536.771999168218,1509
2538.5870439379714,1551
2540.4016980261526,1576
2542.2159617238544,1516
2544.02983532225,1555
2545.8433191125914,1597
2547.656413386209,1525
2549.4691184345115,1552
2551.2814345489874,1546
2553.093362021204,1566
2554.904901142808,1631
2556.716052205523,1631
2558.526815501153,1635
2560.3371913215824,1671
2562.147179958771,1597
2563.956781704761,1576
2565.7659968516705,1657
2567.5748256916986,1661
2569.3832685171224,1689
2571.1913256202984,1661
2572.9989972936614,1663
2574.806283829725,1665
2576.613185521084,1645
2578.4197026604074,1683
2580.2258355404483,1659
2582.031584454035,1674
2583.836949694077,1705
2585.6419315535613,1670
2587.4465303255533,1704
2589.2507463032002,1634
2591.0545797797245,1641
2592.8580310484303,1721
2594.6611004026995,1657
2596.463788135992,1693
2598.266094541849,1713
2600.0680199138874,1647
2601.869564545807,1654
2603.670728731383,1722
2605.4715127644704,1728
2607.2719169390048,1679
2609.071941548998,1669
2610.8715868885433,1702
2612.670853251811,1717
2614.469740933052,1672
2616.268250226594,1649
2618.0663814268455,1642
2619.864134828292,1606
2621.6615107255006,1701
2623.458509413115,1616
2625.2551311858597,1595
2627.0513763385347,1604
2628.8472451660223,1674
2630.6427379632833,1614
2632.4378550253564,1569
2634.232596647359,1655
2636.026963124488,1660
2637.8209547520187,1631
2639.6145718253065,1602
2641.407814639785,1595
2643.200683490966,1582
2644.9931786744414,1643
2646.7853004858807,1599
2648.577049221034,1530
2650.3684251757277,1562
2652.1594286458712,1545
2653.9500599274484,1494
2655.740319316525,1544
2657.5302071092437,1497
2659.3197236018286,1523
2661.10886909058,1497
2662.8976438718782,1489
2664.686048242183,1524
2666.4740824980327,1503
2668.2617469360443,1491
2670.0490418529134,1516
2671.8359675454153,1496
2673.622524310403,1504
2675.408712444811,1481
2677.1945322456495,1467
2678.979984010009,1431
2680.76506803506,1516
2682.5497846180497,1498
2684.334134056306,1407
2686.1181166472343,1408
2687.9017326883213,1385
2689.6849824771293,1460
2691.4678663113013,1445
2693.2503844885596,1506
2695.032537306705,1428
2696.8143250636167,1405
2698.5957480572542,1428
2700.3768065856534,1439
2702.1575009469316,1400
2703.937831439283,1392
2705.717798360982,1384
2707.4974020103837,1439
2709.276642685917,1416
2711.055520686095,1397
2712.834036309506,1405
2714.612189854819,1396
2716.389981620782,1389
2718.1674119062204,1356
2719.944481010041,1434
2721.721189231226,1470
2723.4975368688415,1403
2725.273524222027,1394
2727.0491515900053,1402
2728.824419272075,1333
2730.5993275676146,1357
2732.3738767760838,1423
2734.148067197016,1396
2735.921899130031,1336
2737.6953728748194,1381
2739.468488731156,1382
2741.2412469988926,1327
2743.0136479779617,1398
2744.785691968372,1349
2746.5573792702116,1318
2748.3287101836504,1368
2750.099685008934,1396
2751.870304046388,1365
2753.640567596418,1391
2755.4104759595057,1365
2757.1800294362156,1325
2758.949228327187,1368
2760.7180729331412,1342
2762.486563554877,1355
2764.254700493272,1303
2766.022484049284,1326
2767.789914523947,1402
2769.5569922183786,1358
2771.3237174337705,1345
2773.090090471394,1380
2774.8561116326036,1397
2776.6217812188274,1365
2778.3870995315756,1350
2780.1520668724356,1334
2781.9166835430747,1344
2783.6809498452394,1316
2785.444866080754,1396
2787.2084325515225,1309
2788.971649559527,1377
2790.73451740683,1357
2792.4970363955713,1342
2794.2592068279705,1294
2796.0210290063264,1332
2797.7825032330147,1360
2799.543629810493,1378
2801.304409041296,1320
2803.0648412280366,1338
2804.8249266734088,1321
2806.5846656801846,1402
2808.344058551212,1353
2810.1031055894246,1338
2811.8618070978273,1294
2813.6201633795085,1343
2815.378174737636,1385
2817.1358414754536,1280
2818.893163896285,1327
2820.6501423035334,1362
2822.4067770006814,1311
2824.1630682912883,1309
2825.9190164789957,1304
2827.6746218675207,1260
2829.429884760661,1349
2831.184805462294,1294
2832.9393842763743,1374
2834.693621506936,1327
2836.4475174580916,1333
2838.201072434034,1356
2839.954286739034,1329
2841.707160677441,1336
2843.459694553685,1322
2845.2118886722724,1312
2846.96374333779,1385
2848.7152588549034,1289
2850.4664355283567,1293
2852.217273662973,1319
2853.9677735636546,1372
2855.7179355353833,1326
2857.4677598832186,1371
2859.217246912299,1336
2860.9663969278427,1320
2862.715210235146,1270
2864.4636871395846,1229
2866.211827946614,1353
2867.9596329617652,1337
2869.7071024906536,1336
2871.4542368389684,1316
2873.20103631248,1333
2874.947501217038,1296
2876.6936318585695,1329
2878.4394285430812,1286
2880.1848915766604,1364
2881.9300212654707,1329
2883.6748179157553,1305
2885.4192818338374,1315
2887.1634133261173,1353
2888.907212699077,1320
2890.6506802592744,1310
2892.393816313348,1387
2894.1366211680142,1333
2895.8790951300693,1351
2897.621238506388,1331
2899.363051603925,1319
2901.1045347297118,1301
2902.8456881908596,1340
2904.58651229456,1365
2906.327007348081,1346
2908.067173658772,1303
2909.8070115340597,1301
2911.5465212814497,1345
2913.285703208527,1354
2915.0245576229563,1396
2916.7630848324807,1326
2918.5012851449196,1357
2920.2391588681758,1313
2921.976706310227,1320
2923.7139277791334,1318
2925.4508235830313,1283
2927.187394030137,1303
2928.923639428745,1355
2930.6595600872306,1389
2932.395156314046,1313
2934.1304284177218,1307
2935.8653767068713,1381
2937.6000014901815,1346
2939.3343030764227,1358
2941.068281774442,1356
2942.8019378931644,1344
2944.5352717415976,1351
2946.2682836288236,1376
2948.0009738640065,1351
2949.7333427563885,1380
2951.465390615289,1388
2953.1971177501086,1356
2954.9285244703265,1364
2956.6596110855,1356
2958.3903779052657,1329
2960.1208252393385,1375
2961.8509533975125,1349
2963.5807626896617,1351
2965.3102534257378,1375
2967.0394259157715,1318
2968.768280469873,1315
2970.496817398232,1320
2972.2250370111146,1271
2973.952939618869,1348
2975.6805255319196,1296
2977.4077950607707,1336
2979.134748516006,1305
2980.861386208289,1293
2982.587708448359,1304
2984.313715547037,1322
2986.039407815222,1326
2987.764785563891,1328
2989.489849104102,1358
2991.2145987469908,1293
2992.9390348037705,1275
2994.6631575857346,1294
2996.3869674042576,1294
2998.1104645707887,1351
2999.83364939686,1340
3001.5565221940783,1363
3003.2790832741334,1335
3005.0013329487924,1310
3006.7232715298996,1295
3008.4448993293804,1274
3010.166216659239,1297
3011.887223831558,1309
3013.607921158498,1315
3015.3283089522993,1355
3017.0483875252826,1269
3018.7681571898443,1348
3020.4876182584626,1285
3022.2067710436927,1263
3023.9256158581707,1315
3025.644153014609,1263
3027.362382825801,1227
3029.0803056046193,1309
3030.797921664012,1293
3032.5152313170106,1283
3034.2322348767225,1296
3035.9489326563353,1300
3037.665324969115,1275
3039.3814121284063,1233
3041.097194447633,1287
3042.812672240299,1268
3044.5278458199855,1297
3046.2427155003525,1267
3047.9572815951406,1256
3049.671544418167,1230
3051.38550428333,1294
3053.0991615046073,1277
3054.812516396051,1256
3056.5255692717974,1282
3058.2383204460575,1319
3059.9507702331257,1360
3061.662918947372,1299
3063.3747669032446,1295
3065.0863144152736,1288
3066.7975617980674,1324
3068.508509366309,1257
3070.219157434767,1265
3071.9295063182844,1280
3073.639556331785,1247
3075.3493077902704,1264
3077.058761008821,1234
3078.7679163025964,1315
3080.476773986837,1252
3082.1853343768594,1257
3083.89359778806,1317
3085.6015645359153,1298
3087.3092349359786,1268
3089.016609303884,1289
3090.7236879553434,1308
3092.4304712061476,1301
3094.136959372166,1269
3095.843152769349,1356
3097.5490517137237,1302
3099.2546565213966,1321
3100.959967508554,1306
3102.66498499146,1311
3104.3697092864577,1359
3106.0741407099695,1266
3107.778279578498,1268
3109.482126208622,1290
3111.1856809170004,1254
3112.8889440203716,1271
3114.5919158355528,1303
3116.294596679439,1310
3117.996986869006,1334
3119.6990867213062,1324
3121.4008965534726,1320
3123.102416682717,1329
3124.803647426329,1324
3126.5045891016784,1319
3128.205242026213,1270
3129.90560651746,1315
3131.605682893025,1320
3133.3054714705922,1266
3135.0049725679282,1323
3136.7041865028714,1351
3138.4031135933465,1288
3140.101754157353,1347
3141.800108512971,1323
3143.498176978357,1293
3145.1959598717494,1308
3146.8934575114636,1311
3148.5906702158954,1302
3150.2875983035183,1291
3151.9842420928853,1334
3153.680601902627,1291
3155.376678051456,1294
3157.07247085816,1319
3158.767980641609,1257
3160.463207720748,1236
3162.158152414606,1284
3163.8528150422862,1297
3165.5471959229726,1312
3167.2412953759303,1271
3168.9351137204976,1227
3170.628651276098,1316
3172.3219083622307,1268
3174.014885298474,1323
3175.707582404485,1309
3177.4000000000005,1283
3179.092138404835,1304
3180.7839979388846,1316
3182.47557892212,1275
3184.166881674594,1276
3185.8579065164386,1247
3187.5486537678626,1302
3189.2391237491547,1317
3190.9293167806827,1243
3192.6192331828934,1282
3194.3088732763117,1259
3195.998237381542,1212
3197.687325819268,1293
3199.376138910251,1257
3201.064676975334,1257
3202.7529403354347,1301
3204.4409293115523,1227
3206.1286442247647,1284
3207.816085396229,1260
3209.5032531471825,1251
3211.190147798936,1271
3212.8767696728846,1232
3214.5631190905015,1280
3216.2491963733373,1309
3217.9350018430214,1269
3219.6205358212637,1285
3221.305798629851,1241
3222.990790590651,1215
3224.6755120256103,1274
3226.359963256751,1204
3228.0441446061795,1191
3229.7280563960758,1219
3231.411698948703,1255
3233.0950725863995,1231
3234.778177631587,1255
3236.461014406761,1285
3238.1435832345005,1296
3239.8258844374595,1316
3241.507918338374,1253
3243.1896852600576,1252
3244.8711855254023,1266
3246.552419457381,1258
3248.233387379042,1281
3249.914089613516,1233
3251.59452648401,1244
3253.274698313813,1277
3254.95460542629,1251
3256.6342481448855,1255
3258.313626793125,1214
3259.9927416946084,1214
3261.6715931730196,1280
3263.3501815521176,1239
3265.0285071557437,1250
3266.706570307815,1282
3268.3843713323286,1219
3270.0619105533615,1232
3271.739188295068,1259
3273.4162048816834,1290
3275.0929606375184,1324
3276.769455886966,1244
3278.445690954498,1233
3280.1216661646613,1300
3281.797381842087,1275
3283.4728383114807,1301
3285.1480358976296,1259
3286.8229749253996,1228
3288.4976557197333,1258
3290.172078605655,1189
3291.846243908266,1238
3293.5201519527463,1257
3295.193803064357,1224
3296.8671975684374,1247
3298.5403357904024,1256
3300.21321805575,1242
3301.8858446900567,1195
3303.558216018975,1220
3305.23033236824,1263
3306.9021940636603,1286
3308.57380143113,1258
3310.2451547966184,1298
3311.916254486174,1303
3313.5871008259246,1274
3315.2576941420766,1252
3316.9280347609147,1268
3318.5981230088046,1287
3320.2679592121895,1229
3321.9375436975924,1250
3323.606876791612,1244
3325.27595882093,1279
3326.944790112305,1250
3328.6133709925753,1266
3330.2817017886573,1274
3331.949782827547,1278
3333.617614436319,1281
3335.2851969421245,1300
3336.952530672199,1231
3338.619615953853,1294
3340.286453114475,1218
3341.9530424815357,1280
3343.619384382583,1291
3345.2854791452437,1237
3346.951327097224,1251
3348.6169285663073,1248
3350.2822838803577,1340
3351.947393367319,1248
3353.61225735521,1273
3355.2768761721345,1271
3356.9412501462693,1223
3358.605379605873,1273
3360.2692648792827,1219
3361.9329062949146,1246
3363.596304181263,1257
