CollectionTime,9/20/2024 10:54:58 AM
ExposureUsed,3
CalibratedSpectrum
-962.7078968117929,611
-959.9714848408522,629
-957.2358232597828,677
-954.5009119013725,693
-951.7667505983302,688
-949.0333391832855,694
-946.3006774887896,675
-943.5687653473143,653
-940.837602591253,687
-938.1071890529199,676
-935.3775245645503,654
-932.6486089583007,688
-929.9204420662485,723
-927.1930237203925,658
-924.4663537526524,686
-921.7404319948689,691
-919.0152582788041,744
-916.2908324361409,740
-913.5671542984834,716
-910.8442236973568,703
-908.1220404642074,683
-905.4006044304027,706
-902.679915427231,667
-899.959973285902,681
-897.2407778375464,688
-894.5223289132158,655
-891.8046263438832,660
-889.0876699604426,678
-886.3714595937089,671
-883.6559950744183,664
-880.9412762332282,676
-878.2273029007168,681
-875.5140749073835,665
-872.8015920836489,658
-870.0898542598545,621
-867.3788612662631,668
-864.6686129330585,663
-861.9591090903457,663
-859.2503495681506,663
-856.5423341964203,643
-853.8350628050229,657
-851.1285352237478,663
-848.4227512823054,648
-845.7177108103272,691
-843.0134136373656,659
-840.3098595928943,634
-837.6070485063082,640
-834.9049802069229,686
-832.2036545239757,668
-829.5030712866244,742
-826.8032303239481,710
-824.1041314649472,672
-821.4057745385428,659
-818.7081593735775,724
-816.0112857988148,732
-813.3151536429393,659
-810.6197627345566,719
-807.9251129021936,739
-805.2312039742981,715
-802.5380357792392,727
-799.8456081453069,693
-797.1539209007124,687
-794.462973873588,651
-791.772766891987,722
-789.083299783884,688
-786.3945723771743,705
-783.7065844996748,683
-781.0193359791231,682
-778.3328266431781,719
-775.6470563194197,705
-772.9620248353489,706
-770.2777320183878,686
-767.5941776958798,688
-764.9113616950891,700
-762.2292838432011,712
-759.5479439673222,660
-756.8673418944801,720
-754.1874774516235,684
-751.5083504656222,711
-748.8299607632671,724
-746.15230817127,757
-743.475392516264,744
-740.7992136248035,718
-738.1237713233636,710
-735.4490654383407,705
-732.7750957960521,664
-730.1018622227365,679
-727.4293645445534,728
-724.7576025875837,711
-722.0865761778291,714
-719.4162851412126,747
-716.7467293035781,723
-714.0779084906909,741
-711.409822528237,719
-708.7424712418238,748
-706.0758544569796,771
-703.4099719991541,739
-700.7448236937178,768
-698.0804093659622,740
-695.4167288411002,724
-692.7537819442656,735
-690.0915685005134,745
-687.4300883348199,775
-684.7693412720819,764
-682.1093271371178,760
-679.4500457546669,794
-676.7914969493897,752
-674.1336805458676,760
-671.4765963686034,739
-668.8202442420206,755
-666.1646239904642,736
-663.5097354382001,746
-660.8555784094151,750
-658.2021527282176,761
-655.5494582186366,774
-652.8974947046223,805
-650.2462620100463,797
-647.5957599587009,778
-644.9459883742998,797
-642.2969470804776,740
-639.6486359007902,754
-637.0010546587141,798
-634.3542031776476,817
-631.7080812809096,803
-629.0626887917401,782
-626.4180255333008,784
-623.7740913286734,788
-621.1308860008619,813
-618.4884093727904,799
-615.8466612673046,788
-613.2056415071715,788
-610.5653499150785,789
-607.9257863136347,845
-605.28695052537,829
-602.6488423727357,772
-600.0114616781036,785
-597.3748082637674,852
-594.7388819519412,860
-592.1036825647604,872
-589.4692099242818,829
-586.8354638524829,786
-584.2024441712624,819
-581.5701507024403,882
-578.9385832677575,877
-576.3077416888759,875
-573.6776257873787,884
-571.0482353847704,859
-568.4195703024757,824
-565.7916303618415,845
-563.164415384135,841
-560.5379251905453,804
-557.9121596021815,845
-555.2871184400748,821
-552.6628015251767,926
-550.0392086783606,833
-547.4163397204204,860
-544.794194472071,907
-542.1727727539491,943
-539.5520743866118,881
-536.9320991905377,908
-534.3128469861261,949
-531.6943175936979,950
-529.0765108334947,963
-526.4594265256793,1082
-523.8430644903358,1249
-521.2274245474689,1390
-518.612506517005,1382
-515.9983102187913,1390
-513.3848354725959,1480
-510.77208209810846,1560
-508.16004991493924,1603
-505.5487387426199,1737
-502.9381484006032,1801
-500.3282787082628,1667
-497.71912948489364,1558
-495.1107005497117,1445
-492.5029917218539,1344
-489.8960028203786,1249
-487.28973366426493,1146
-484.68418407241325,1080
-482.07935386364494,1017
-479.47524285670266,1039
-476.87185087025,996
-474.2691777228715,991
-471.66722323307334,1044
-469.0659872192821,1008
-466.4654694998459,1052
-463.86566989303384,1096
-461.26658821703614,1071
-458.66822428996414,1045
-456.07057792985,1066
-453.4736489546475,1029
-450.877437182231,1040
-448.28194243039627,1033
-445.68716451686,982
-443.09310325926003,1033
-440.49975847515555,1022
-437.9071299820263,1031
-435.31521759727354,1043
-432.72402113821954,1034
-430.13354042210767,1018
-427.5437752661022,1003
-424.95472548728867,1124
-422.36639090267386,1100
-419.7787713291855,1151
-417.1918665836721,1118
-414.60567648290385,1104
-412.0202008435715,1117
-409.4354394822874,1097
-406.8513922155845,1114
-404.26805885991723,1086
-401.685439231661,1142
-399.103533147112,1112
-396.522340422488,1099
-393.9418608739278,1126
-391.3620943174908,1092
-388.7830405691583,1160
-386.2046994448317,1034
-383.6270707603344,991
-381.05015433141045,973
-378.473949973725,887
-375.8984575028645,814
-373.32367673433623,814
-370.74960748356875,810
-368.1762495659117,717
-365.60360279663576,659
-363.03166699093265,634
-360.4604419639154,598
-357.8899275306178,615
-355.32012350599507,607
-352.7510297049233,613
-350.1826459421999,566
-347.61497203254316,585
-345.04800779059235,580
-342.4817530309082,566
-339.91620756797226,614
-337.35137121618743,579
-334.7872437898774,557
-332.22382510328725,557
-329.66111497058273,536
-327.09911320585127,515
-324.53781962310075,575
-321.9772340362607,560
-319.4173562591816,568
-316.8581861056348,550
-314.2997233893127,587
-311.7419679238294,577
-309.1849195227194,592
-306.62857799943856,642
-304.0729431673641,551
-301.51801483979375,664
-298.963792829947,664
-296.41027695096386,608
-293.85746701590574,634
-291.3053628377552,587
-288.7539642294155,568
-286.2032710037115,655
-283.65328297338897,686
-281.1039999511146,691
-278.5554217494762,695
-276.007548180983,691
-273.4603790580651,632
-270.9139141930734,692
-268.3681533982807,745
-265.8230964858798,720
-263.27874326798565,846
-260.7350935566336,795
-258.1921471637804,847
-255.6499039013039,887
-253.10836358100266,852
-250.56752601459698,775
-248.02739101372765,826
-245.48795838995704,841
-242.94922795476816,812
-240.41119951956557,906
-237.8738728956746,863
-235.33724789434166,889
-232.80132432673452,890
-230.2661020039418,842
-227.73158073697357,816
-225.19776033676033,861
-222.66464061415422,919
-220.1322213799284,973
-217.60050244477725,908
-215.06948361931552,901
-212.53916471408013,1119
-210.00954553952818,1243
-207.48062590603843,1059
-204.9524056239104,897
-202.4248845033651,959
-199.8980623545441,970
-197.37193898751036,1022
-194.84651421224817,1018
-192.32178783866232,1008
-189.79775967657952,989
-187.27442953574644,1113
-184.7517972258321,1307
-182.2298625564256,1015
-179.7086253370378,865
-177.18808537710026,883
-174.66824248596583,1083
-172.14909647290835,1214
-169.6306471471229,1262
-167.11289431772548,1107
-164.59583779375328,1221
-162.07947738416453,1503
-159.5638128978386,1556
-157.04884414357605,1683
-154.53457093009854,1745
-152.02099306604828,1360
-149.50811035998936,1285
-146.99592262040665,1485
-144.48442965570587,1386
-141.97363127421409,1573
-139.46352728417958,1840
-136.95411749377126,1970
-134.44540171107985,1683
-131.93737974411636,1300
-129.43005140081357,1463
-126.92341648902493,1954
-124.41747481652521,2155
-121.91222619101006,2489
-119.40767042009657,2789
-116.90380731132257,2886
-114.40063667214702,3247
-111.8981583099503,3644
-109.3963720320337,5145
-106.89527764561933,6817
-104.39487495785067,7760
-101.89516377579241,10101
-99.39614390642998,15480
-96.89781515667039,22142
-94.40017733334128,24180
-91.90323024319173,21541
-89.40697369289148,18386
-86.91140748903172,12514
-84.41653143812482,7945
-81.92234534660395,9185
-79.42884902082358,12224
-76.93604226705907,14853
-74.4439248915071,15316
-71.95249670028534,14675
-69.46175749943245,12248
-66.97170709490854,10021
-64.48234529259423,8054
-61.99367189829195,8705
-59.50568671772464,9670
-57.01838955653636,10711
-54.53178022029283,10920
-52.045858514480074,13991
-49.560624244506016,16244
-47.07607721569923,14595
-44.59221723330904,13348
-42.10904410250669,17162
-39.62655762838392,20851
-37.14475761595372,23985
-34.66364387015028,29406
-32.18321619582866,36817
-29.70347439776515,38467
-27.224418280657005,35668
-24.74604764912317,39147
-22.26836230770266,50522
-19.7913620608565,65035
-17.315046712966478,65035
-14.83941606833514,65035
-12.36446993118659,65035
-9.89020810566592,65035
-7.416630395839093,65035
-4.94373660569363,65035
-2.471526539137585,65035
-6.821210263296962E-13,65035
2.47084320796705,65035
4.941003281093458,65035
7.410480415786196,65035
9.879274808531363,65035
12.347386655893956,65035
14.814816154518212,65035
17.28156350112681,65035
19.74762889252179,65035
22.21301252558385,65035
24.67771459727237,24834
27.141735304626195,8827
29.605074844762612,8566
32.06773341487792,6609
34.52971121224755,6142
36.99100843422559,5559
39.45162527824516,4764
41.91156194181792,4500
44.370818622535126,4581
46.82939551806646,4542
49.287292826160524,5888
51.74451074464503,4900
54.201049471426245,3252
56.65690920448981,2494
59.112090141899785,2278
61.56659248179983,3057
64.02041642241159,3294
66.4735621620365,3547
68.92602989905402,3951
71.37781983192338,4053
73.82893215918205,3639
76.27936707944684,2650
78.72912479141326,2382
81.17820549385567,2139
83.62660938562783,1763
86.07433666566146,1989
88.5213875329681,2292
90.96776218663751,2154
93.41346082583925,2227
95.85848364982041,2708
98.30283085790859,1885
100.7465026495089,1744
103.18949922410604,1918
105.63182078126385,1842
108.07346752062438,1838
110.51443964190923,1715
112.95473734491827,1764
115.39436082953114,1641
117.83331029570547,1585
120.27158594347827,1826
122.7091879729652,1723
125.1461165843615,1588
127.58237197794062,1430
130.01795435405518,1475
132.4528639131364,1555
134.88710085569494,1547
137.32066538231982,1488
139.75355769367923,1638
142.1857779905207,1450
144.61732647366978,1275
147.04820334403132,1202
149.47840880258934,1310
151.90794305040674,1509
154.33680628862487,1603
156.76499871846443,1595
159.19252054122433,1727
161.61937195828352,1842
164.04555317109896,2036
166.47106438120693,2251
168.89590579022217,2296
171.320077599839,2403
173.7435800118302,2490
176.16641322804742,2595
178.58857745042144,2553
181.01007288096173,2362
183.43089972175687,2511
185.85105817497413,2495
188.27054844285988,2627
190.6893707277394,2562
193.10752523201643,2688
195.5250121581745,2959
197.9418317087751,2821
200.3579840864594,2777
202.7734694939469,2813
205.18828813403627,2838
207.6024402096051,2945
210.01592592360964,2975
212.42874547908548,3087
214.84089907914665,2989
217.2523869269868,3021
219.66320922587727,2957
222.0733661791695,2963
224.48285799029293,2966
226.8916848627572,2974
229.29984700014882,3053
231.7073446061355,3074
234.11417788446204,3138
236.520347038953,3152
238.92585227351185,3044
241.33069379212054,3337
243.73487179884035,3427
246.1383864978112,3190
248.541238093252,3099
250.9434267894609,3330
253.34495279081432,3311
255.74581630176783,3218
258.1460175268563,3306
260.54555667069314,3336
262.9444339379703,3412
265.3426495334594,3253
267.7402036620107,3130
270.1370965285529,3076
272.53332833809407,3009
274.9288992957214,2956
277.32380960660055,2778
279.718059475976,2738
282.1116491091717,2862
284.5045787115897,2814
286.89684848871195,2827
289.2884586460981,2870
291.67940938938807,2840
294.0697009242996,2838
296.4593334566299,2761
298.84830719225477,2858
301.23662233712923,2732
303.6242790972866,2834
306.01127767884,2797
308.39761828798066,2725
310.78330113097934,2778
313.16832641418534,2615
315.5526943440269,2663
317.9364051270112,2647
320.3194589697242,2536
322.70185607883093,2587
325.0835966610754,2552
327.4646809232805,2493
329.8451090723478,2569
332.2248813152577,2656
334.6039978590701,2559
336.9824589109231,2572
339.36026467803447,2413
341.7374153677,2473
344.113911187295,2543
346.48975234427337,2527
348.8649390461686,2454
351.2394715005918,2533
353.61334991523415,2504
355.9865744978655,2478
358.35914545633375,2473
360.73106299856715,2573
363.10232733257146,2484
365.47293866643247,2382
367.84289720831396,2397
370.2122031664593,2481
372.5808567491905,2364
374.9488581649083,2403
377.31620762209275,2363
379.6829053293021,2329
382.0489514951745,2389
384.4143463284262,2352
386.7790900378528,2369
389.14318283232853,2332
391.50662492080653,2321
393.86941651231916,2321
396.23155781597745,2337
398.5930490409713,2381
400.9538903965696,2423
403.3140820921202,2354
405.6736243370498,2338
408.03251734086336,2300
410.3907613131465,2315
412.74835646356166,2315
415.10530300185144,2230
417.4616011378372,2294
419.81725108141893,2283
422.1722530425758,2264
424.5266072313656,2200
426.880313857925,2247
429.2333731324701,2308
431.58578526529516,2203
433.9375504667738,2287
436.2886689473588,2239
438.63914091758113,2260
440.9889665880513,2181
443.33814616945835,2153
445.68667987257015,2195
448.03456790823395,2167
450.3818104873759,2143
452.72840782100013,2211
455.07436012019105,2233
457.41966759611057,2193
459.7643304600007,2131
462.10834892318155,2183
464.4517231970525,2114
466.79445349309174,2097
469.1365400228566,2169
471.4779829979826,2195
473.81878263018564,2186
476.15893913125876,2271
478.4984527130747,2381
480.8373235875855,2374
483.17555196682144,2356
485.5131380628919,2391
487.8500820879857,2406
490.1863842543697,2502
492.52204477439034,2648
494.8570638604725,2692
497.1914417251204,2951
499.52517858091653,3258
501.85827464052306,3578
504.19073011668036,3672
506.5225452222086,3802
508.85372017000566,3873
511.18425517304956,3877
513.514150444396,4460
515.8434061971808,5778
518.1720226446176,6494
520.4999999999999,6539
522.8273384766991,6022
525.1540382881666,5744
527.480099647932,5100
529.8055227696037,4105
532.1303078668694,3032
534.454455153496,2515
536.777964843328,2314
539.1008371502907,2338
541.4230722883866,2258
543.744670471698,2169
546.0656319143858,2184
548.3859568306899,2139
550.7056454349294,2095
553.0246979415016,2109
555.3431145648834,2066
557.6608955196306,2111
559.978041020377,2082
562.2945512818363,2175
564.6104265188006,2157
566.9256669461412,2190
569.2402727788082,2126
571.5542442318302,2176
573.8675815203156,2166
576.1802848594508,2129
578.4923544645015,2135
580.8037905508126,2117
583.114593333807,2093
585.4247630289875,2054
587.7342998519354,2077
590.0432040183106,2165
592.3514757438526,2126
594.6591152443794,2089
596.9661227357875,2168
599.2724984340531,2067
601.578242555231,2189
603.8833553154542,2100
606.1878369309362,2117
608.4916876179676,2180
610.7949075929192,2108
613.0974970722403,2059
615.3994562724587,2078
617.7007854101818,2105
620.0014847020951,2100
622.3015543649641,2089
624.6009946156324,2165
626.8998056710224,2091
629.1979877481361,2113
631.4955410640538,2107
633.7924658359349,2176
636.0887622810175,2119
638.3844306166192,2109
640.6794710601358,2158
642.9738838290426,2155
645.2676691408932,2143
647.5608272133207,2148
649.853358264037,2115
652.1452625108324,2148
654.4365401715764,2123
656.7271914642178,2171
659.0172166067838,2271
661.3066158173809,2150
663.5953893141935,2173
665.8835373154867,2141
668.1710600396028,2199
670.4579577049639,2240
672.7442305300709,2248
675.0298787335033,2180
677.3149025339197,2133
679.599302150058,2147
681.8830778007342,2179
684.1662297048437,2126
686.4487580813608,2217
688.7306631493387,2140
691.0119451279091,2271
693.2926042362834,2266
695.5726406937516,2179
697.8520547196814,2161
700.1308465335215,2065
702.4090163547982,2182
704.6865644031171,2203
706.9634908981619,2156
709.2397960596965,2077
711.5154801075631,2138
713.7905432616823,2187
716.0649857420548,2253
718.3388077687592,2160
720.612009561953,2104
722.8845913418733,2136
725.1565533288352,2156
727.427895743234,2163
729.6986188055427,2160
731.9687227363137,2122
734.238207756178,2123
736.5070740858458,2178
738.7753219461066,2146
741.0429515578281,2070
743.3099631419569,2103
745.5763569195191,2118
747.8421331116193,2105
750.1072919394409,2157
752.3718336242467,2187
754.6357583873777,2123
756.8990664502545,2127
759.1617580343765,2199
761.423833361321,2185
763.6852926527457,2115
765.9461361303862,2204
768.206364016058,2245
770.4659765316536,2119
772.7249738991469,2202
774.9833563405886,2229
777.2411240781092,2178
779.4982773339183,2183
781.7548163303044,2232
784.010741289634,2149
786.2660524343538,2300
788.5207499869881,2239
790.7748341701416,2231
793.0283052064964,2307
795.2811633188143,2254
797.5334087299362,2304
799.7850416627813,2283
802.0360623403484,2152
804.2864709857143,2237
806.5362678220353,2245
808.7854530725468,2239
811.0340269605625,2119
813.2819897094754,2182
815.5293415427581,2143
817.77608268396,2150
820.0222133567116,2197
822.2677337847211,2137
824.5126441917765,2202
826.7569448017433,2127
829.0006358385675,2219
831.2437175262731,2190
833.4861900889629,2175
835.7280537508192,2096
837.9693087361026,2200
840.2099552691533,2251
842.4499935743896,2168
844.689423876309,2156
846.9282463994886,2210
849.1664613685833,2235
851.4040690083276,2219
853.6410695435349,2270
855.877463199097,2157
858.1132501999847,2270
860.3484307712487,2269
862.5830051380175,2189
864.8169735254988,2229
867.0503361589791,2214
869.2830932638243,2185
871.5152450654786,2186
873.7467917894654,2202
875.9777336613873,2207
878.2080709069252,2262
880.4378037518389,2282
882.666932421968,2272
884.8954571432301,2308
887.1233781416219,2273
889.3506956432192,2184
891.5774098741766,2157
893.803521060728,2216
896.0290294291852,2215
898.2539352059397,2234
900.4782386174619,2190
902.7019398903011,2141
904.925039251085,2211
907.147536926521,2189
909.3694331433943,2175
911.59072812857,2180
913.8114221089921,2233
916.0315153116827,2133
918.2510079637437,2102
920.4699002923547,2183
922.6881925247761,2237
924.905884888345,2148
927.1229776104793,2144
929.3394709186747,2186
931.555365040506,2179
933.7706602036275,2203
935.9853566357709,2230
938.1994545647489,2195
940.4129542184515,2148
942.6258558248488,2169
944.8381596119883,2240
947.0498658079974,2251
949.2609746410825,2232
951.4714863395287,2163
953.6814011316998,2118
955.8907192460387,2192
958.0994409110671,2214
960.3075663553858,2168
962.5150958076741,2219
964.7220294966913,2162
966.928367651274,2101
969.1341105003388,2071
971.3392582728806,2145
973.5438111979742,2091
975.747769504772,2046
977.9511334225061,2147
980.153903180487,2094
982.3560790081052,2147
984.5576611348289,2071
986.7586497902058,2081
988.9590452038618,2056
991.158847605503,2064
993.3580572249133,2006
995.5566742919558,2012
997.7546990365728,2007
999.952131688785,1907
1002.1489724786926,1929
1004.3452216364743,1904
1006.5408793923874,1905
1008.7359459767691,1900
1010.9304216200343,1811
1013.1243065526781,1895
1015.3176010052733,1807
1017.510305208472,1791
1019.7024193930064,1811
1021.8939437896848,1869
1024.0848786293977,1826
1026.2752241431122,1810
1028.4649805618747,1790
1030.6541481168115,1843
1032.842727039127,1813
1035.0307175601051,1788
1037.2181199111074,1721
1039.4049343235752,1797
1041.591161029029,1804
1043.7768002590683,1760
1045.9618522453698,1776
1048.1463172196918,1754
1050.3301954138697,1772
1052.513487059818,1732
1054.69619238953,1741
1056.8783116350783,1745
1059.0598450286152,1694
1061.2407928023704,1746
1063.4211551886528,1802
1065.6009324198508,1736
1067.780124728432,1737
1069.9587323469414,1701
1072.1367555080046,1736
1074.314194444325,1731
1076.4910493886855,1654
1078.667320573947,1686
1080.843008233051,1626
1083.0181125990161,1691
1085.1926339049414,1752
1087.3665723840027,1683
1089.5399282694575,1735
1091.7127017946405,1696
1093.8848931929647,1685
1096.0565026979243,1690
1098.2275305430899,1715
1100.3979769621128,1665
1102.567842188722,1613
1104.737126456726,1660
1106.9058300000124,1709
1109.0739530525475,1665
1111.2414958483764,1658
1113.4084586216231,1674
1115.5748416064907,1625
1117.7406450372605,1713
1119.9058691482942,1634
1122.0705141740304,1671
1124.2345803489884,1643
1126.3980679077658,1620
1128.5609770850388,1709
1130.7233081155623,1663
1132.8850612341707,1665
1135.0462366757774,1563
1137.2068346753745,1617
1139.3668554680326,1654
1141.526299288901,1602
1143.68516637321,1623
1145.8434569562655,1654
1148.001171273455,1614
1150.158309560244,1595
1152.3148720521767,1619
1154.470858984876,1640
1156.626270594044,1617
1158.7811071154629,1678
1160.9353687849912,1647
1163.089055838569,1617
1165.242168512213,1689
1167.3947070420209,1633
1169.5466716641677,1608
1171.6980626149075,1643
1173.8488801305748,1636
1175.9991244475814,1618
1178.1487958024186,1646
1180.2978944316555,1603
1182.4464205719428,1636
1184.5943744600072,1619
1186.7417563326567,1659
1188.8885664267755,1604
1191.0348049793297,1568
1193.1804722273619,1619
1195.325568407995,1622
1197.4700937584303,1603
1199.614048515948,1644
1201.7574329179074,1639
1203.900247201746,1635
1206.042491604982,1541
1208.1841663652099,1618
1210.3252717201053,1637
1212.465807907422,1686
1214.6057751649923,1642
1216.7451737307279,1654
1218.8840038426192,1624
1221.0222657387353,1644
1223.1599596572241,1667
1225.2970858363137,1631
1227.4336445143094,1708
1229.5696359295966,1645
1231.705060320639,1606
1233.8399179259786,1708
1235.9742089842384,1716
1238.107933734118,1683
1240.2410924143974,1665
1242.373685263935,1675
1244.5057125216676,1708
1246.6371744266116,1656
1248.7680712178621,1696
1250.898403134593,1697
1253.028170416058,1675
1255.1573733015875,1656
1257.2860120305932,1689
1259.4140868425648,1691
1261.54159797707,1712
1263.6685456737569,1649
1265.7949301723515,1684
1267.9207517126597,1700
1270.046010534565,1802
1272.1707068780306,1735
1274.2948409830983,1766
1276.4184130898889,1846
1278.541423438603,1832
1280.6638722695184,1787
1282.785759822993,1762
1284.9070863394636,1722
1287.0278520594447,1782
1289.1480572235314,1816
1291.2677020723963,1767
1293.3867868467923,1755
1295.5053117875495,1798
1297.623277135579,1818
1299.740683131868,1866
1301.8575300174857,1783
1303.973818033578,1818
1306.0895474213703,1901
1308.2047184221678,1840
1310.3193312773528,1890
1312.4333862283888,1895
1314.5468835168163,1843
1316.659823384255,1942
1318.7722060724045,1939
1320.8840318230418,1900
1322.9953008780249,1934
1325.1060134792888,1939
1327.2161698688478,1988
1329.3257702887959,1866
1331.4348149813054,1922
1333.5433041886276,1903
1335.6512381530933,1921
1337.7586171171101,1855
1339.8654413231675,1895
1341.9717110138317,1828
1344.0774264317488,1890
1346.1825878196432,1887
1348.2871954203192,1869
1350.3912494766587,1806
1352.4947502316231,1847
1354.5976979282532,1853
1356.7000928096686,1880
1358.8019351190665,1843
1360.9032250997243,1783
1363.0039629949988,1871
1365.1041490483235,1910
1367.2037835032133,1859
1369.3028666032606,1833
1371.401398592137,1921
1373.4993797135926,1851
1375.5968102114575,1796
1377.6936903296396,1849
1379.7900203121262,1898
1381.8858004029835,1892
1383.9810308463561,1893
1386.075711886469,1852
1388.1698437676241,1864
1390.2634267342032,1852
1392.356461030667,1807
1394.4489469015557,1884
1396.5408845914872,1880
1398.6322743451592,1844
1400.7231164073469,1873
1402.813411022907,1872
1404.903158436773,1763
1406.9923588939578,1852
1409.0810126395531,1923
1411.1691199187303,1870
1413.2566809767386,1859
1415.343696058907,1897
1417.4301654106425,1881
1419.5160892774315,1955
1421.6014679048399,1926
1423.6863015385125,1960
1425.7705904241707,1929
1427.8543348076178,1908
1429.9375349347342,1979
1432.0201910514802,1917
1434.102303403894,1974
1436.1838722380944,1950
1438.2648978002767,2013
1440.3453803367174,1990
1442.4253200937692,2034
1444.5047173178677,2002
1446.5835722555234,2070
1448.6618851533285,2084
1450.739656257952,2058
1452.8168858161434,2127
1454.8935740747306,2180
1456.96972128062,2161
1459.045327680797,2187
1461.120393522327,2194
1463.1949190523528,2189
1465.2689045180973,2303
1467.3423501668608,2239
1469.415256246024,2351
1471.4876230030463,2274
1473.559450685465,2323
1475.6307395408976,2446
1477.7014898170391,2400
1479.771701761665,2396
1481.8413756226287,2431
1483.9105116478618,2478
1485.9791100853772,2448
1488.0471711832643,2474
1490.1146951896926,2480
1492.1816823529098,2572
1494.2481329212433,2589
1496.3140471430984,2544
1498.3794252669609,2626
1500.4442675413939,2577
1502.5085742150404,2634
1504.572345536622,2635
1506.6355817549388,2586
1508.6982831188702,2635
1510.7604498773744,2687
1512.8220822794883,2565
1514.8831805743293,2618
1516.9437450110909,2688
1519.003775839048,2730
1521.0632733075522,2667
1523.1222376660367,2775
1525.1806691640113,2851
1527.2385680510652,2816
1529.2959345768668,2811
1531.3527689911643,2778
1533.4090715437833,2759
1535.4648424846291,2826
1537.5200820636855,2911
1539.5747905310159,2882
1541.6289681367616,2918
1543.6826151311434,2891
1545.7357317644614,2959
1547.7883182870937,2998
1549.8403749494987,3061
1551.8919020022113,3086
1553.9428996958477,3108
1555.9933682811015,3171
1558.0433080087469,3113
1560.0927191296346,3271
1562.1416018946961,3295
1564.1899565549415,3293
1566.2377833614592,3290
1568.2850825654164,3199
1570.3318544180606,3168
1572.3780991707158,3133
1574.423817074788,3121
1576.4690083817595,3011
1578.5136733431923,2904
1580.5578122107272,2896
1582.601425236085,2761
1584.6445126710646,2682
1586.6870747675434,2617
1588.7291117774776,2413
1590.7706239529034,2470
1592.8116115459347,2441
1594.8520748087658,2355
1596.8920139936686,2377
1598.9314293529933,2151
1600.9703211391711,2194
1603.008689604711,2116
1605.0465350022005,2100
1607.0838575843068,2024
1609.1206576037753,2068
1611.1569353134305,2037
1613.1926909661765,1994
1615.2279248149953,2001
1617.2626371129481,1911
1619.2968281131757,1922
1621.3304980688963,1910
1623.3636472334088,1852
1625.39627586009,1871
1627.428384202396,1880
1629.459972513861,1843
1631.4910410480993,1861
1633.5215900588028,1819
1635.551619799744,1804
1637.5811305247717,1739
1639.6101224878166,1791
1641.6385959428862,1766
1643.6665511440683,1771
1645.693988345528,1812
1647.7209078015112,1705
1649.7473097663405,1750
1651.7731944944203,1715
1653.7985622402307,1726
1655.823413258333,1655
1657.847747803366,1668
1659.8715661300494,1677
1661.8948684931793,1687
1663.9176551476316,1693
1665.9399263483624,1661
1667.9616823504057,1666
1669.982923408873,1667
1672.0036497789574,1715
1674.0238617159293,1731
1676.043559475138,1675
1678.0627433120121,1640
1680.081413482059,1729
1682.0995702408654,1700
1684.117213844096,1730
1686.134344547495,1711
1688.1509626068864,1741
1690.1670682781705,1708
1692.182661817329,1647
1694.1977434804217,1709
1696.2123135235875,1636
1698.226372203043,1687
1700.2399197750851,1714
1702.2529564960905,1675
1704.2654826225112,1749
1706.277498410882,1718
1708.2890041178139,1632
1710.2999999999988,1735
1712.3104863142066,1695
1714.3204633172854,1655
1716.329931266163,1647
1718.3388904178469,1697
1720.3473410294214,1669
1722.3552833580516,1608
1724.3627176609807,1679
1726.3696441955308,1702
1728.3760632191033,1646
1730.3819749891782,1703
1732.3873797633146,1675
1734.3922777991502,1634
1736.3966693544012,1651
1738.4005546868639,1678
1740.4039340544127,1707
1742.406807715001,1589
1744.4091759266616,1588
1746.4110389475054,1639
1748.4123970357223,1579
1750.413250449582,1668
1752.4135994474318,1646
1754.4134442876993,1645
1756.4127852288902,1635
1758.4116225295893,1680
1760.4099564484595,1624
1762.407787244244,1634
1764.405115175764,1688
1766.4019405019203,1598
1768.3982634816916,1579
1770.3940843741357,1651
1772.3894034383907,1633
1774.3842209336717,1636
1776.378537119274,1667
1778.372352254571,1618
1780.3656665990156,1598
1782.3584804121397,1615
1784.3507939535534,1588
1786.3426074829463,1672
1788.3339212600863,1547
1790.3247355448211,1569
1792.3150505970766,1590
1794.3048666768573,1595
1796.2941840442477,1550
1798.2830029594106,1547
1800.2713236825884,1519
1802.2591464741004,1541
1804.2464715943465,1607
1806.2332993038058,1550
1808.2196298630352,1562
1810.2054635326708,1632
1812.190800573428,1584
1814.175641246101,1592
1816.1599858115628,1538
1818.1438345307652,1592
1820.127187664738,1574
1822.1100454745924,1564
1824.092408221516,1554
1826.0742761667766,1539
1828.055649571721,1583
1830.0365286977735,1573
1832.0169138064398,1611
1833.9968051593014,1569
1835.9762030180214,1602
1837.9551076443408,1576
1839.9335193000788,1518
1841.9114382471344,1544
1843.888864747485,1549
1845.8657990631878,1633
1847.842241456378,1513
1849.8181921892697,1581
1851.7936515241558,1569
1853.7686197234098,1543
1855.7430970494815,1556
1857.7170837649014,1521
1859.6905801322787,1519
1861.6635864143004,1575
1863.6361028737338,1580
1865.608129773424,1484
1867.5796673762961,1561
1869.5507159453537,1612
1871.521275743678,1606
1873.4913470344313,1527
1875.4609300808534,1536
1877.4300251462632,1531
1879.3986324940588,1594
1881.366752387717,1537
1883.3343850907936,1604
1885.3015308669228,1605
1887.268189979819,1612
1889.2343626932739,1528
1891.2000492711595,1656
1893.1652499774254,1567
1895.1299650761011,1548
1897.0941948312952,1628
1899.0579395071945,1540
1901.0211993680641,1646
1902.98397467825,1569
1904.9462657021745,1574
1906.9080727043415,1578
1908.869395949332,1561
1910.8302357018065,1521
1912.790592226504,1564
1914.7504657882428,1519
1916.7098566519212,1548
1918.6687650825133,1560
1920.6271913450764,1498
1922.5851357047422,1591
1924.5425984267245,1598
1926.499579776314,1564
1928.4560800188833,1563
1930.4120994198802,1607
1932.367638244833,1561
1934.32269675935,1542
1936.2772752291175,1551
1938.231373919899,1542
1940.1849930975404,1541
1942.1381330279637,1544
1944.0907939771696,1525
1946.0429762112412,1560
1947.9946799963363,1542
1949.9459055986945,1529
1951.896653284633,1530
1953.8469233205478,1498
1955.7967159729142,1501
1957.7460315082863,1537
1959.6948701932974,1516
1961.6432322946594,1574
1963.5911180791632,1557
1965.5385278136787,1530
1967.4854617651545,1532
1969.4319202006182,1527
1971.377903387176,1553
1973.3234115920136,1528
1975.268445082395,1464
1977.2130041256642,1510
1979.1570889892423,1494
1981.1006999406304,1484
1983.04383724741,1498
1984.986501177238,1499
1986.928691997853,1531
1988.8704099770712,1537
1990.811655382789,1527
1992.7524284829801,1494
1994.692729545698,1481
1996.6325588390755,1472
1998.5719166313224,1454
2000.5108031907307,1513
2002.4492187856677,1497
2004.387163684583,1500
2006.3246381560011,1524
2008.2616424685298,1488
2010.1981768908527,1486
2012.1342416917332,1523
2014.069837140014,1520
2016.0049635046162,1500
2017.9396210545406,1476
2019.8738100588666,1498
2021.8075307867502,1545
2023.740783507431,1517
2025.6735684902228,1491
2027.6058860045214,1463
2029.5377363198004,1488
2031.4691197056118,1543
2033.4000364315875,1428
2035.3304867674374,1495
2037.260470982952,1462
2039.189989347998,1551
2041.1190421325232,1429
2043.047629606554,1424
2044.9757520401945,1473
2046.9034097036288,1480
2048.8306028671195,1536
2050.7573318010086,1454
2052.683596775716,1484
2054.609398061742,1508
2056.5347359296647,1460
2058.4596106501403,1476
2060.384022493906,1494
2062.3079717317764,1521
2064.231458634646,1458
2066.1544834734873,1472
2068.077046519352,1518
2069.99914804337,1474
2071.9207883167524,1463
2073.8419676107865,1464
2075.7626861968406,1452
2077.6829443463607,1485
2079.6027423308715,1448
2081.522080421977,1504
2083.440958891362,1500
2085.359378010786,1407
2087.2773380520907,1488
2089.194839287196,1506
2091.111881988101,1502
2093.0284664268825,1515
2094.9445928756973,1528
2096.86026160678,1487
2098.775472892446,1528
2100.690227005088,1551
2102.604524217178,1505
2104.5183648012676,1463
2106.431749029985,1516
2108.34467717604,1469
2110.2571495122206,1533
2112.169166311393,1563
2114.080727846503,1491
2115.9918343905747,1511
2117.902486216711,1456
2119.8126835980956,1432
2121.722426807987,1494
2123.6317161197285,1530
2125.5405518067364,1569
2127.448934142509,1528
2129.356863400624,1526
2131.264339854737,1526
2133.1713637785815,1522
2135.077935445972,1556
2136.9840551308002,1551
2138.889723107037,1571
2140.7949396487334,1496
2142.699705030018,1544
2144.6040195250994,1516
2146.507883408264,1481
2148.4112969538774,1554
2150.3142604363848,1518
2152.2167741303097,1518
2154.1188383102535,1546
2156.0204532508997,1516
2157.9216192270064,1566
2159.822336513414,1517
2161.7226053850413,1511
2163.622426116884,1484
2165.5217989840185,1519
2167.4207242616,1525
2169.319202224862,1491
2171.2172331491165,1554
2173.1148173097563,1546
2175.0119549822507,1512
2176.90864644215,1585
2178.8048919650823,1521
2180.7006918267534,1502
2182.596046302952,1555
2184.4909556695407,1612
2186.3854202024645,1556
2188.279440177746,1599
2190.173015871487,1520
2192.066147559868,1553
2193.958835519149,1543
2195.851080025667,1598
2197.7428813558417,1506
2199.6342397861667,1510
2201.5251555932186,1588
2203.415629053651,1525
2205.3056604441986,1526
2207.19525004167,1510
2209.084398122958,1557
2210.9731049650327,1588
2212.861370844941,1583
2214.749196039812,1573
2216.636580826851,1609
2218.523525483344,1581
2220.410030286655,1542
2222.296095514226,1606
2224.1817214435805,1545
2226.066908352319,1498
2227.951656518121,1621
2229.835966218746,1586
2231.71983773203,1536
2233.6032713358913,1565
2235.486267308324,1541
2237.3688259274036,1602
2239.2509474712824,1583
2241.132632218193,1587
2243.013880446447,1626
2244.8946924344323,1550
2246.7750684606203,1557
2248.6550088035574,1579
2250.534513741871,1572
2252.413583554265,1691
2254.292218519526,1615
2256.170418916517,1521
2258.0481850241786,1619
2259.925517121534,1590
2261.8024154876825,1594
2263.678880401803,1605
2265.5549121431536,1619
2267.430510991071,1614
2269.305677224971,1580
2271.180411124348,1612
2273.0547129687766,1605
2274.9285830379076,1557
2276.8020216114737,1633
2278.6750289692845,1595
2280.5476053912294,1550
2282.4197511572766,1663
2284.2914665474727,1580
2286.162751841943,1668
2288.0336073208937,1588
2289.904033264608,1609
2291.774029953448,1572
2293.6435976678554,1596
2295.5127366883517,1554
2297.381447295534,1590
2299.2497297700825,1439
2301.1175843927526,1453
2302.9850114443825,1483
2304.852011205885,1441
2306.7185839582553,1456
2308.5847299825664,1407
2310.4504495599676,1458
2312.3157429716925,1401
2314.1806104990483,1396
2316.0450524234247,1394
2317.9090690262888,1396
2319.772660589186,1405
2321.635827393742,1447
2323.498569721661,1407
2325.3608878547248,1395
2327.2227820747967,1415
2329.0842526638157,1356
2330.945299903803,1359
2332.805924076857,1410
2334.6661254651535,1419
2336.525904350951,1356
2338.3852610165827,1425
2340.244195744464,1393
2342.102708817088,1411
2343.9608005170253,1385
2345.8184711269287,1456
2347.675720929526,1374
2349.532550207628,1374
2351.38895924412,1381
2353.24494832197,1355
2355.100517724223,1396
2356.955667734004,1423
2358.810398634514,1381
2360.664710709037,1419
2362.5186042409337,1422
2364.3720795136437,1414
2366.225136810686,1445
2368.0777764156583,1445
2369.929998612237,1406
2371.7818036841777,1425
2373.633191915315,1395
2375.484163589562,1459
2377.3347189909114,1394
2379.184858403434,1422
2381.03458211128,1454
2382.8838903986775,1432
2384.732783549936,1443
2386.5812618494406,1393
2388.4293255816588,1427
2390.2769750311327,1431
2392.1242104824883,1393
2393.971032220427,1426
2395.8174405297295,1495
2397.6634356952563,1450
2399.509018001947,1496
2401.3541877348193,1485
2403.1989451789705,1474
2405.043290619576,1494
2406.8872243418905,1494
2408.730746631247,1480
2410.5738577730594,1565
2412.4165580528183,1540
2414.258847756095,1572
2416.100727168537,1540
2417.9421965758734,1539
2419.783256263912,1674
2421.623906518538,1651
2423.4641476257157,1615
2425.303979871491,1664
2427.143403541984,1672
2428.9824189233977,1657
2430.821026302012,1727
2432.6592259641866,1703
2434.497018196361,1750
2436.33440328505,1661
2438.171381516851,1661
2440.00795317844,1648
2441.844118556569,1614
2443.6798779380724,1673
2445.5152316098606,1611
2447.3501798589255,1623
2449.1847229723357,1579
2451.0188612372403,1559
2452.8525949408663,1635
2454.6859243705203,1550
2456.518849813587,1520
2458.3513715575314,1578
2460.183489889895,1503
2462.015205098301,1464
2463.8465174704493,1536
2465.67742729412,1501
2467.5079348571717,1577
2469.338040447542,1512
2471.1677443532476,1479
2472.9970468623833,1556
2474.825948263123,1570
2476.6544488437207,1538
2478.482548892508,1496
2480.310248697896,1526
2482.137548548374,1491
2483.9644487325118,1542
2485.790949538956,1539
2487.617051256433,1577
2489.44275417375,1435
2491.26805857979,1520
2493.0929647635157,1520
2494.917473013971,1460
2496.741583620276,1493
2498.5652968716304,1513
2500.3886130573137,1492
2502.2115324666834,1486
2504.0340553891765,1532
2505.856182114308,1563
2507.6779129316733,1534
2509.499248130945,1548
2511.3201880018764,1543
2513.140732834298,1503
2514.9608829181198,1531
2516.780638543331,1547
2518.6,1483
2520.418967578273,1519
2522.237541568376,1584
2524.0557222606144,1476
2525.8735099453706,1567
2527.6909049131086,1567
2529.507907454368,1602
2531.32451785977,1595
2533.140736420014,1549
2534.9565634258774,1549
2536.771999168218,1609
2538.5870439379714,1603
2540.4016980261526,1534
2542.2159617238544,1559
2544.02983532225,1587
2545.8433191125914,1599
2547.656413386209,1587
2549.4691184345115,1600
2551.2814345489874,1608
2553.093362021204,1561
2554.904901142808,1599
2556.716052205523,1639
2558.526815501153,1702
2560.3371913215824,1634
2562.147179958771,1655
2563.956781704761,1642
2565.7659968516705,1667
2567.5748256916986,1681
2569.3832685171224,1720
2571.1913256202984,1701
2572.9989972936614,1709
2574.806283829725,1683
2576.613185521084,1635
2578.4197026604074,1683
2580.2258355404483,1729
2582.031584454035,1776
2583.836949694077,1703
2585.6419315535613,1768
2587.4465303255533,1770
2589.2507463032002,1702
2591.0545797797245,1733
2592.8580310484303,1694
2594.6611004026995,1699
2596.463788135992,1800
2598.266094541849,1738
2600.0680199138874,1671
2601.869564545807,1668
2603.670728731383,1732
2605.4715127644704,1776
2607.2719169390048,1692
2609.071941548998,1692
2610.8715868885433,1679
2612.670853251811,1740
2614.469740933052,1698
2616.268250226594,1745
2618.0663814268455,1688
2619.864134828292,1639
2621.6615107255006,1701
2623.458509413115,1673
2625.2551311858597,1656
2627.0513763385347,1671
2628.8472451660223,1677
2630.6427379632833,1666
2632.4378550253564,1641
2634.232596647359,1636
2636.026963124488,1592
2637.8209547520187,1609
2639.6145718253065,1664
2641.407814639785,1627
2643.200683490966,1670
2644.9931786744414,1579
2646.7853004858807,1642
2648.577049221034,1654
2650.3684251757277,1567
2652.1594286458712,1591
2653.9500599274484,1533
2655.740319316525,1612
2657.5302071092437,1522
2659.3197236018286,1573
2661.10886909058,1586
2662.8976438718782,1536
2664.686048242183,1522
2666.4740824980327,1571
2668.2617469360443,1493
2670.0490418529134,1534
2671.8359675454153,1529
2673.622524310403,1552
2675.408712444811,1551
2677.1945322456495,1543
2678.979984010009,1577
2680.76506803506,1477
2682.5497846180497,1522
2684.334134056306,1490
2686.1181166472343,1457
2687.9017326883213,1491
2689.6849824771293,1504
2691.4678663113013,1488
2693.2503844885596,1467
2695.032537306705,1392
2696.8143250636167,1466
2698.5957480572542,1392
2700.3768065856534,1438
2702.1575009469316,1373
2703.937831439283,1444
2705.717798360982,1511
2707.4974020103837,1403
2709.276642685917,1410
2711.055520686095,1426
2712.834036309506,1404
2714.612189854819,1452
2716.389981620782,1434
2718.1674119062204,1434
2719.944481010041,1400
2721.721189231226,1412
2723.4975368688415,1382
2725.273524222027,1390
2727.0491515900053,1407
2728.824419272075,1391
2730.5993275676146,1344
2732.3738767760838,1383
2734.148067197016,1424
2735.921899130031,1400
2737.6953728748194,1369
2739.468488731156,1353
2741.2412469988926,1395
2743.0136479779617,1425
2744.785691968372,1412
2746.5573792702116,1364
2748.3287101836504,1368
2750.099685008934,1407
2751.870304046388,1334
2753.640567596418,1387
2755.4104759595057,1348
2757.1800294362156,1333
2758.949228327187,1417
2760.7180729331412,1362
2762.486563554877,1420
2764.254700493272,1375
2766.022484049284,1343
2767.789914523947,1387
2769.5569922183786,1443
2771.3237174337705,1387
2773.090090471394,1397
2774.8561116326036,1386
2776.6217812188274,1327
2778.3870995315756,1347
2780.1520668724356,1419
2781.9166835430747,1315
2783.6809498452394,1341
2785.444866080754,1390
2787.2084325515225,1369
2788.971649559527,1327
2790.73451740683,1344
2792.4970363955713,1344
2794.2592068279705,1407
2796.0210290063264,1396
2797.7825032330147,1382
2799.543629810493,1402
2801.304409041296,1358
2803.0648412280366,1366
2804.8249266734088,1363
2806.5846656801846,1356
2808.344058551212,1397
2810.1031055894246,1431
2811.8618070978273,1374
2813.6201633795085,1389
2815.378174737636,1422
2817.1358414754536,1372
2818.893163896285,1344
2820.6501423035334,1413
2822.4067770006814,1368
2824.1630682912883,1318
2825.9190164789957,1395
2827.6746218675207,1436
2829.429884760661,1369
2831.184805462294,1369
2832.9393842763743,1335
2834.693621506936,1383
2836.4475174580916,1378
2838.201072434034,1407
2839.954286739034,1391
2841.707160677441,1323
2843.459694553685,1360
2845.2118886722724,1345
2846.96374333779,1419
2848.7152588549034,1411
2850.4664355283567,1376
2852.217273662973,1334
2853.9677735636546,1404
2855.7179355353833,1413
2857.4677598832186,1397
2859.217246912299,1342
2860.9663969278427,1378
2862.715210235146,1360
2864.4636871395846,1342
2866.211827946614,1408
2867.9596329617652,1394
2869.7071024906536,1323
2871.4542368389684,1343
2873.20103631248,1339
2874.947501217038,1366
2876.6936318585695,1372
2878.4394285430812,1406
2880.1848915766604,1396
2881.9300212654707,1318
2883.6748179157553,1399
2885.4192818338374,1386
2887.1634133261173,1371
2888.907212699077,1326
2890.6506802592744,1336
2892.393816313348,1342
2894.1366211680142,1423
2895.8790951300693,1346
2897.621238506388,1322
2899.363051603925,1323
2901.1045347297118,1299
2902.8456881908596,1351
2904.58651229456,1377
2906.327007348081,1417
2908.067173658772,1416
2909.8070115340597,1375
2911.5465212814497,1406
2913.285703208527,1383
2915.0245576229563,1384
2916.7630848324807,1348
2918.5012851449196,1355
2920.2391588681758,1366
2921.976706310227,1386
2923.7139277791334,1371
2925.4508235830313,1313
2927.187394030137,1374
2928.923639428745,1403
2930.6595600872306,1360
2932.395156314046,1381
2934.1304284177218,1380
2935.8653767068713,1387
2937.6000014901815,1371
2939.3343030764227,1377
2941.068281774442,1428
2942.8019378931644,1357
2944.5352717415976,1385
2946.2682836288236,1398
2948.0009738640065,1408
2949.7333427563885,1357
2951.465390615289,1391
2953.1971177501086,1403
2954.9285244703265,1359
2956.6596110855,1336
2958.3903779052657,1384
2960.1208252393385,1317
2961.8509533975125,1304
2963.5807626896617,1346
2965.3102534257378,1332
2967.0394259157715,1373
2968.768280469873,1317
2970.496817398232,1282
2972.2250370111146,1368
2973.952939618869,1404
2975.6805255319196,1380
2977.4077950607707,1373
2979.134748516006,1431
2980.861386208289,1392
2982.587708448359,1314
2984.313715547037,1302
2986.039407815222,1387
2987.764785563891,1336
2989.489849104102,1305
2991.2145987469908,1380
2992.9390348037705,1329
2994.6631575857346,1326
2996.3869674042576,1364
2998.1104645707887,1302
2999.83364939686,1296
3001.5565221940783,1328
3003.2790832741334,1342
3005.0013329487924,1332
3006.7232715298996,1329
3008.4448993293804,1322
3010.166216659239,1289
3011.887223831558,1321
3013.607921158498,1373
3015.3283089522993,1308
3017.0483875252826,1338
3018.7681571898443,1305
3020.4876182584626,1321
3022.2067710436927,1345
3023.9256158581707,1302
3025.644153014609,1338
3027.362382825801,1381
3029.0803056046193,1315
3030.797921664012,1295
3032.5152313170106,1282
3034.2322348767225,1301
3035.9489326563353,1360
3037.665324969115,1285
3039.3814121284063,1301
3041.097194447633,1314
3042.812672240299,1259
3044.5278458199855,1309
3046.2427155003525,1367
3047.9572815951406,1318
3049.671544418167,1335
3051.38550428333,1356
3053.0991615046073,1383
3054.812516396051,1336
3056.5255692717974,1357
3058.2383204460575,1292
3059.9507702331257,1374
3061.662918947372,1310
3063.3747669032446,1330
3065.0863144152736,1291
3066.7975617980674,1309
3068.508509366309,1328
3070.219157434767,1266
3071.9295063182844,1295
3073.639556331785,1299
3075.3493077902704,1294
3077.058761008821,1341
3078.7679163025964,1304
3080.476773986837,1340
3082.1853343768594,1310
3083.89359778806,1346
3085.6015645359153,1306
3087.3092349359786,1350
3089.016609303884,1334
3090.7236879553434,1337
3092.4304712061476,1346
3094.136959372166,1310
3095.843152769349,1353
3097.5490517137237,1288
3099.2546565213966,1327
3100.959967508554,1347
3102.66498499146,1311
3104.3697092864577,1314
3106.0741407099695,1306
3107.778279578498,1350
3109.482126208622,1305
3111.1856809170004,1308
3112.8889440203716,1328
3114.5919158355528,1300
3116.294596679439,1315
3117.996986869006,1336
3119.6990867213062,1372
3121.4008965534726,1339
3123.102416682717,1267
3124.803647426329,1327
3126.5045891016784,1351
3128.205242026213,1347
3129.90560651746,1378
3131.605682893025,1292
3133.3054714705922,1328
3135.0049725679282,1306
3136.7041865028714,1301
3138.4031135933465,1348
3140.101754157353,1303
3141.800108512971,1296
3143.498176978357,1332
3145.1959598717494,1347
3146.8934575114636,1294
3148.5906702158954,1291
3150.2875983035183,1289
3151.9842420928853,1295
3153.680601902627,1331
3155.376678051456,1293
3157.07247085816,1331
3158.767980641609,1318
3160.463207720748,1325
3162.158152414606,1323
3163.8528150422862,1283
3165.5471959229726,1291
3167.2412953759303,1347
3168.9351137204976,1347
3170.628651276098,1359
3172.3219083622307,1261
3174.014885298474,1329
3175.707582404485,1335
3177.4000000000005,1326
3179.092138404835,1309
3180.7839979388846,1309
3182.47557892212,1320
3184.166881674594,1303
3185.8579065164386,1304
3187.5486537678626,1330
3189.2391237491547,1292
3190.9293167806827,1286
3192.6192331828934,1307
3194.3088732763117,1334
3195.998237381542,1283
3197.687325819268,1296
3199.376138910251,1295
3201.064676975334,1338
3202.7529403354347,1320
3204.4409293115523,1308
3206.1286442247647,1278
3207.816085396229,1250
3209.5032531471825,1249
3211.190147798936,1326
3212.8767696728846,1282
3214.5631190905015,1282
3216.2491963733373,1249
3217.9350018430214,1277
3219.6205358212637,1285
3221.305798629851,1286
3222.990790590651,1257
3224.6755120256103,1211
3226.359963256751,1242
3228.0441446061795,1270
3229.7280563960758,1236
3231.411698948703,1250
3233.0950725863995,1281
3234.778177631587,1303
3236.461014406761,1331
3238.1435832345005,1244
3239.8258844374595,1308
3241.507918338374,1352
3243.1896852600576,1317
3244.8711855254023,1318
3246.552419457381,1325
3248.233387379042,1294
3249.914089613516,1336
3251.59452648401,1283
3253.274698313813,1265
3254.95460542629,1317
3256.6342481448855,1314
3258.313626793125,1266
3259.9927416946084,1247
3261.6715931730196,1226
3263.3501815521176,1257
3265.0285071557437,1319
3266.706570307815,1255
3268.3843713323286,1245
3270.0619105533615,1267
3271.739188295068,1256
3273.4162048816834,1267
3275.0929606375184,1286
3276.769455886966,1270
3278.445690954498,1323
3280.1216661646613,1363
3281.797381842087,1283
3283.4728383114807,1309
3285.1480358976296,1304
3286.8229749253996,1244
3288.4976557197333,1297
3290.172078605655,1343
3291.846243908266,1284
3293.5201519527463,1271
3295.193803064357,1310
3296.8671975684374,1227
3298.5403357904024,1250
3300.21321805575,1243
3301.8858446900567,1254
3303.558216018975,1263
3305.23033236824,1294
3306.9021940636603,1269
3308.57380143113,1241
3310.2451547966184,1269
3311.916254486174,1282
3313.5871008259246,1285
3315.2576941420766,1325
3316.9280347609147,1323
3318.5981230088046,1276
3320.2679592121895,1297
3321.9375436975924,1297
3323.606876791612,1270
3325.27595882093,1316
3326.944790112305,1307
3328.6133709925753,1255
3330.2817017886573,1295
3331.949782827547,1270
3333.617614436319,1297
3335.2851969421245,1274
3336.952530672199,1315
3338.619615953853,1313
3340.286453114475,1291
3341.9530424815357,1305
3343.619384382583,1238
3345.2854791452437,1272
3346.951327097224,1290
3348.6169285663073,1276
3350.2822838803577,1271
3351.947393367319,1301
3353.61225735521,1302
3355.2768761721345,1307
3356.9412501462693,1323
3358.605379605873,1271
3360.2692648792827,1240
3361.9329062949146,1307
3363.596304181263,1207
