CollectionTime,9/20/2024 11:39:16 AM
ExposureUsed,3
CalibratedSpectrum
-962.7078968117929,567
-959.9714848408522,596
-957.2358232597828,559
-954.5009119013725,548
-951.7667505983302,570
-949.0333391832855,561
-946.3006774887896,584
-943.5687653473143,588
-940.837602591253,546
-938.1071890529199,560
-935.3775245645503,571
-932.6486089583007,602
-929.9204420662485,608
-927.1930237203925,612
-924.4663537526524,585
-921.7404319948689,598
-919.0152582788041,625
-916.2908324361409,635
-913.5671542984834,569
-910.8442236973568,523
-908.1220404642074,545
-905.4006044304027,573
-902.679915427231,546
-899.959973285902,530
-897.2407778375464,559
-894.5223289132158,546
-891.8046263438832,525
-889.0876699604426,564
-886.3714595937089,595
-883.6559950744183,569
-880.9412762332282,613
-878.2273029007168,566
-875.5140749073835,566
-872.8015920836489,556
-870.0898542598545,556
-867.3788612662631,574
-864.6686129330585,591
-861.9591090903457,571
-859.2503495681506,561
-856.5423341964203,531
-853.8350628050229,557
-851.1285352237478,624
-848.4227512823054,654
-845.7177108103272,617
-843.0134136373656,601
-840.3098595928943,589
-837.6070485063082,581
-834.9049802069229,616
-832.2036545239757,596
-829.5030712866244,593
-826.8032303239481,620
-824.1041314649472,560
-821.4057745385428,565
-818.7081593735775,607
-816.0112857988148,558
-813.3151536429393,581
-810.6197627345566,571
-807.9251129021936,596
-805.2312039742981,691
-802.5380357792392,719
-799.8456081453069,644
-797.1539209007124,660
-794.462973873588,646
-791.772766891987,584
-789.083299783884,619
-786.3945723771743,606
-783.7065844996748,548
-781.0193359791231,546
-778.3328266431781,574
-775.6470563194197,604
-772.9620248353489,535
-770.2777320183878,579
-767.5941776958798,655
-764.9113616950891,629
-762.2292838432011,554
-759.5479439673222,549
-756.8673418944801,562
-754.1874774516235,642
-751.5083504656222,592
-748.8299607632671,589
-746.15230817127,573
-743.475392516264,566
-740.7992136248035,602
-738.1237713233636,609
-735.4490654383407,581
-732.7750957960521,602
-730.1018622227365,595
-727.4293645445534,571
-724.7576025875837,554
-722.0865761778291,601
-719.4162851412126,616
-716.7467293035781,648
-714.0779084906909,704
-711.409822528237,687
-708.7424712418238,612
-706.0758544569796,617
-703.4099719991541,615
-700.7448236937178,654
-698.0804093659622,643
-695.4167288411002,640
-692.7537819442656,606
-690.0915685005134,602
-687.4300883348199,598
-684.7693412720819,626
-682.1093271371178,666
-679.4500457546669,618
-676.7914969493897,615
-674.1336805458676,627
-671.4765963686034,629
-668.8202442420206,657
-666.1646239904642,636
-663.5097354382001,624
-660.8555784094151,615
-658.2021527282176,656
-655.5494582186366,698
-652.8974947046223,647
-650.2462620100463,669
-647.5957599587009,677
-644.9459883742998,708
-642.2969470804776,716
-639.6486359007902,639
-637.0010546587141,664
-634.3542031776476,681
-631.7080812809096,655
-629.0626887917401,641
-626.4180255333008,658
-623.7740913286734,705
-621.1308860008619,737
-618.4884093727904,698
-615.8466612673046,670
-613.2056415071715,672
-610.5653499150785,743
-607.9257863136347,719
-605.28695052537,716
-602.6488423727357,688
-600.0114616781036,718
-597.3748082637674,749
-594.7388819519412,757
-592.1036825647604,760
-589.4692099242818,783
-586.8354638524829,844
-584.2024441712624,864
-581.5701507024403,982
-578.9385832677575,955
-576.3077416888759,874
-573.6776257873787,808
-571.0482353847704,803
-568.4195703024757,744
-565.7916303618415,749
-563.164415384135,760
-560.5379251905453,728
-557.9121596021815,798
-555.2871184400748,749
-552.6628015251767,768
-550.0392086783606,754
-547.4163397204204,816
-544.794194472071,823
-542.1727727539491,860
-539.5520743866118,848
-536.9320991905377,846
-534.3128469861261,864
-531.6943175936979,900
-529.0765108334947,930
-526.4594265256793,935
-523.8430644903358,1122
-521.2274245474689,1330
-518.612506517005,1489
-515.9983102187913,1569
-513.3848354725959,1851
-510.77208209810846,2178
-508.16004991493924,2398
-505.5487387426199,2450
-502.9381484006032,2347
-500.3282787082628,2154
-497.71912948489364,1890
-495.1107005497117,1550
-492.5029917218539,1301
-489.8960028203786,1230
-487.28973366426493,1048
-484.68418407241325,950
-482.07935386364494,894
-479.47524285670266,896
-476.87185087025,880
-474.2691777228715,865
-471.66722323307334,927
-469.0659872192821,882
-466.4654694998459,864
-463.86566989303384,856
-461.26658821703614,879
-458.66822428996414,939
-456.07057792985,958
-453.4736489546475,960
-450.877437182231,951
-448.28194243039627,947
-445.68716451686,861
-443.09310325926003,862
-440.49975847515555,906
-437.9071299820263,878
-435.31521759727354,972
-432.72402113821954,946
-430.13354042210767,869
-427.5437752661022,884
-424.95472548728867,884
-422.36639090267386,964
-419.7787713291855,1045
-417.1918665836721,1101
-414.60567648290385,1037
-412.0202008435715,1065
-409.4354394822874,1154
-406.8513922155845,1128
-404.26805885991723,1059
-401.685439231661,1055
-399.103533147112,1017
-396.522340422488,892
-393.9418608739278,946
-391.3620943174908,983
-388.7830405691583,966
-386.2046994448317,933
-383.6270707603344,853
-381.05015433141045,917
-378.473949973725,869
-375.8984575028645,775
-373.32367673433623,800
-370.74960748356875,854
-368.1762495659117,796
-365.60360279663576,783
-363.03166699093265,778
-360.4604419639154,744
-357.8899275306178,680
-355.32012350599507,628
-352.7510297049233,604
-350.1826459421999,580
-347.61497203254316,652
-345.04800779059235,681
-342.4817530309082,647
-339.91620756797226,716
-337.35137121618743,725
-334.7872437898774,731
-332.22382510328725,716
-329.66111497058273,706
-327.09911320585127,660
-324.53781962310075,632
-321.9772340362607,565
-319.4173562591816,649
-316.8581861056348,664
-314.2997233893127,755
-311.7419679238294,840
-309.1849195227194,823
-306.62857799943856,799
-304.0729431673641,773
-301.51801483979375,961
-298.963792829947,890
-296.41027695096386,729
-293.85746701590574,748
-291.3053628377552,721
-288.7539642294155,838
-286.2032710037115,833
-283.65328297338897,858
-281.1039999511146,806
-278.5554217494762,1002
-276.007548180983,1076
-273.4603790580651,1003
-270.9139141930734,961
-268.3681533982807,1107
-265.8230964858798,1228
-263.27874326798565,1241
-260.7350935566336,1090
-258.1921471637804,1113
-255.6499039013039,1176
-253.10836358100266,1096
-250.56752601459698,1073
-248.02739101372765,1105
-245.48795838995704,1113
-242.94922795476816,1172
-240.41119951956557,1145
-237.8738728956746,1065
-235.33724789434166,1132
-232.80132432673452,1204
-230.2661020039418,1157
-227.73158073697357,1085
-225.19776033676033,1150
-222.66464061415422,1305
-220.1322213799284,1415
-217.60050244477725,1203
-215.06948361931552,1120
-212.53916471408013,1242
-210.00954553952818,1226
-207.48062590603843,1169
-204.9524056239104,1238
-202.4248845033651,1468
-199.8980623545441,1584
-197.37193898751036,1739
-194.84651421224817,1584
-192.32178783866232,1405
-189.79775967657952,1265
-187.27442953574644,1145
-184.7517972258321,1195
-182.2298625564256,1190
-179.7086253370378,1325
-177.18808537710026,1410
-174.66824248596583,1519
-172.14909647290835,1746
-169.6306471471229,1725
-167.11289431772548,1503
-164.59583779375328,1681
-162.07947738416453,2208
-159.5638128978386,2608
-157.04884414357605,2390
-154.53457093009854,2265
-152.02099306604828,2055
-149.50811035998936,2168
-146.99592262040665,2594
-144.48442965570587,2364
-141.97363127421409,2265
-139.46352728417958,1971
-136.95411749377126,1819
-134.44540171107985,1687
-131.93737974411636,1797
-129.43005140081357,1795
-126.92341648902493,2279
-124.41747481652521,2737
-121.91222619101006,2927
-119.40767042009657,2808
-116.90380731132257,2960
-114.40063667214702,3658
-111.8981583099503,4656
-109.3963720320337,5886
-106.89527764561933,7571
-104.39487495785067,7713
-101.89516377579241,7800
-99.39614390642998,9193
-96.89781515667039,14346
-94.40017733334128,20434
-91.90323024319173,21556
-89.40697369289148,17280
-86.91140748903172,12430
-84.41653143812482,8677
-81.92234534660395,9578
-79.42884902082358,12033
-76.93604226705907,13732
-74.4439248915071,14798
-71.95249670028534,14278
-69.46175749943245,12465
-66.97170709490854,10342
-64.48234529259423,11180
-61.99367189829195,12586
-59.50568671772464,14299
-57.01838955653636,19527
-54.53178022029283,23368
-52.045858514480074,27863
-49.560624244506016,31884
-47.07607721569923,35046
-44.59221723330904,31599
-42.10904410250669,30230
-39.62655762838392,29363
-37.14475761595372,40110
-34.66364387015028,41573
-32.18321619582866,44413
-29.70347439776515,46775
-27.224418280657005,43573
-24.74604764912317,41857
-22.26836230770266,50008
-19.7913620608565,65036
-17.315046712966478,65036
-14.83941606833514,65036
-12.36446993118659,65036
-9.89020810566592,65036
-7.416630395839093,65036
-4.94373660569363,65036
-2.471526539137585,65036
-6.821210263296962E-13,65036
2.47084320796705,65036
4.941003281093458,65036
7.410480415786196,65036
9.879274808531363,65036
12.347386655893956,65036
14.814816154518212,65036
17.28156350112681,65036
19.74762889252179,65036
22.21301252558385,65036
24.67771459727237,26204
27.141735304626195,10309
29.605074844762612,10711
32.06773341487792,9933
34.52971121224755,7629
36.99100843422559,5694
39.45162527824516,6702
41.91156194181792,7552
44.370818622535126,6941
46.82939551806646,5679
49.287292826160524,6465
51.74451074464503,6457
54.201049471426245,6495
56.65690920448981,6110
59.112090141899785,5068
61.56659248179983,4841
64.02041642241159,4156
66.4735621620365,3531
68.92602989905402,3784
71.37781983192338,3976
73.82893215918205,4155
76.27936707944684,3290
78.72912479141326,3231
81.17820549385567,3171
83.62660938562783,2530
86.07433666566146,2568
88.5213875329681,2432
90.96776218663751,2407
93.41346082583925,3002
95.85848364982041,3874
98.30283085790859,3036
100.7465026495089,2762
103.18949922410604,2930
105.63182078126385,2401
108.07346752062438,2336
110.51443964190923,2558
112.95473734491827,2836
115.39436082953114,2594
117.83331029570547,2626
120.27158594347827,2860
122.7091879729652,2869
125.1461165843615,3313
127.58237197794062,3468
130.01795435405518,3392
132.4528639131364,3330
134.88710085569494,2882
137.32066538231982,2785
139.75355769367923,2294
142.1857779905207,1903
144.61732647366978,1725
147.04820334403132,1897
149.47840880258934,2219
151.90794305040674,2665
154.33680628862487,2503
156.76499871846443,2253
159.19252054122433,2223
161.61937195828352,2147
164.04555317109896,1995
166.47106438120693,2184
168.89590579022217,2441
171.320077599839,2477
173.7435800118302,2760
176.16641322804742,3200
178.58857745042144,3277
181.01007288096173,2775
183.43089972175687,2764
185.85105817497413,2591
188.27054844285988,2576
190.6893707277394,2570
193.10752523201643,2801
195.5250121581745,3234
197.9418317087751,2916
200.3579840864594,2794
202.7734694939469,3012
205.18828813403627,3076
207.6024402096051,2895
210.01592592360964,2788
212.42874547908548,2779
214.84089907914665,2833
217.2523869269868,2750
219.66320922587727,2803
222.0733661791695,2706
224.48285799029293,2644
226.8916848627572,2714
229.29984700014882,2888
231.7073446061355,2813
234.11417788446204,2814
236.520347038953,2840
238.92585227351185,2945
241.33069379212054,2973
243.73487179884035,3038
246.1383864978112,2871
248.541238093252,2877
250.9434267894609,2899
253.34495279081432,2875
255.74581630176783,2902
258.1460175268563,2804
260.54555667069314,2915
262.9444339379703,2981
265.3426495334594,3087
267.7402036620107,2963
270.1370965285529,2977
272.53332833809407,2862
274.9288992957214,2776
277.32380960660055,2800
279.718059475976,2702
282.1116491091717,2609
284.5045787115897,2723
286.89684848871195,2584
289.2884586460981,2787
291.67940938938807,2853
294.0697009242996,2734
296.4593334566299,2872
298.84830719225477,2866
301.23662233712923,2925
303.6242790972866,2786
306.01127767884,2689
308.39761828798066,2580
310.78330113097934,2516
313.16832641418534,2422
315.5526943440269,2519
317.9364051270112,2647
320.3194589697242,2449
322.70185607883093,2436
325.0835966610754,2269
327.4646809232805,2394
329.8451090723478,2393
332.2248813152577,2355
334.6039978590701,2365
336.9824589109231,2321
339.36026467803447,2291
341.7374153677,2213
344.113911187295,2223
346.48975234427337,2393
348.8649390461686,2494
351.2394715005918,2425
353.61334991523415,2265
355.9865744978655,2296
358.35914545633375,2317
360.73106299856715,2319
363.10232733257146,2340
365.47293866643247,2315
367.84289720831396,2195
370.2122031664593,2180
372.5808567491905,2234
374.9488581649083,2296
377.31620762209275,2192
379.6829053293021,2141
382.0489514951745,2197
384.4143463284262,2179
386.7790900378528,2054
389.14318283232853,2077
391.50662492080653,2125
393.86941651231916,2249
396.23155781597745,2272
398.5930490409713,2103
400.9538903965696,2035
403.3140820921202,2063
405.6736243370498,2201
408.03251734086336,2160
410.3907613131465,2059
412.74835646356166,2039
415.10530300185144,1997
417.4616011378372,2160
419.81725108141893,2102
422.1722530425758,2103
424.5266072313656,2012
426.880313857925,2038
429.2333731324701,1989
431.58578526529516,2028
433.9375504667738,2076
436.2886689473588,1941
438.63914091758113,1987
440.9889665880513,1955
443.33814616945835,2032
445.68667987257015,2027
448.03456790823395,1985
450.3818104873759,1930
452.72840782100013,1951
455.07436012019105,1908
457.41966759611057,1952
459.7643304600007,1914
462.10834892318155,1888
464.4517231970525,1880
466.79445349309174,1978
469.1365400228566,1971
471.4779829979826,1965
473.81878263018564,1990
476.15893913125876,2036
478.4984527130747,2231
480.8373235875855,2224
483.17555196682144,2073
485.5131380628919,2138
487.8500820879857,2197
490.1863842543697,2408
492.52204477439034,2398
494.8570638604725,2528
497.1914417251204,2926
499.52517858091653,3456
501.85827464052306,4115
504.19073011668036,4761
506.5225452222086,5435
508.85372017000566,5527
511.18425517304956,5702
513.514150444396,6033
515.8434061971808,6898
518.1720226446176,7431
520.4999999999999,7085
522.8273384766991,6568
525.1540382881666,6141
527.480099647932,5443
529.8055227696037,4468
532.1303078668694,3272
534.454455153496,2593
536.777964843328,2295
539.1008371502907,2178
541.4230722883866,2156
543.744670471698,2093
546.0656319143858,2064
548.3859568306899,2070
550.7056454349294,2070
553.0246979415016,1990
555.3431145648834,2037
557.6608955196306,2015
559.978041020377,2054
562.2945512818363,2093
564.6104265188006,2069
566.9256669461412,2007
569.2402727788082,1995
571.5542442318302,2033
573.8675815203156,1992
576.1802848594508,2059
578.4923544645015,2042
580.8037905508126,2035
583.114593333807,2009
585.4247630289875,2033
587.7342998519354,2059
590.0432040183106,2102
592.3514757438526,2048
594.6591152443794,1988
596.9661227357875,2025
599.2724984340531,2052
601.578242555231,1960
603.8833553154542,1982
606.1878369309362,1983
608.4916876179676,1952
610.7949075929192,2024
613.0974970722403,1972
615.3994562724587,1924
617.7007854101818,1927
620.0014847020951,1967
622.3015543649641,2049
624.6009946156324,1953
626.8998056710224,1954
629.1979877481361,2071
631.4955410640538,2060
633.7924658359349,1971
636.0887622810175,2041
638.3844306166192,1965
640.6794710601358,2006
642.9738838290426,1972
645.2676691408932,1957
647.5608272133207,2008
649.853358264037,2005
652.1452625108324,2002
654.4365401715764,1972
656.7271914642178,1986
659.0172166067838,1929
661.3066158173809,1967
663.5953893141935,2038
665.8835373154867,1976
668.1710600396028,2038
670.4579577049639,1931
672.7442305300709,2059
675.0298787335033,1975
677.3149025339197,1991
679.599302150058,1970
681.8830778007342,2011
684.1662297048437,2004
686.4487580813608,2042
688.7306631493387,1933
691.0119451279091,1965
693.2926042362834,2010
695.5726406937516,1946
697.8520547196814,1960
700.1308465335215,1929
702.4090163547982,1959
704.6865644031171,1982
706.9634908981619,1977
709.2397960596965,2025
711.5154801075631,2058
713.7905432616823,2061
716.0649857420548,2110
718.3388077687592,2053
720.612009561953,1965
722.8845913418733,2024
725.1565533288352,2014
727.427895743234,1961
729.6986188055427,2022
731.9687227363137,2009
734.238207756178,2061
736.5070740858458,2041
738.7753219461066,1993
741.0429515578281,2030
743.3099631419569,2059
745.5763569195191,2016
747.8421331116193,1943
750.1072919394409,1966
752.3718336242467,1997
754.6357583873777,2013
756.8990664502545,2020
759.1617580343765,2016
761.423833361321,2017
763.6852926527457,2008
765.9461361303862,2170
768.206364016058,2015
770.4659765316536,2146
772.7249738991469,2195
774.9833563405886,2119
777.2411240781092,2046
779.4982773339183,2152
781.7548163303044,2100
784.010741289634,2104
786.2660524343538,2149
788.5207499869881,2157
790.7748341701416,2068
793.0283052064964,2120
795.2811633188143,2158
797.5334087299362,2118
799.7850416627813,2066
802.0360623403484,2145
804.2864709857143,2147
806.5362678220353,2105
808.7854530725468,2053
811.0340269605625,2029
813.2819897094754,2082
815.5293415427581,2108
817.77608268396,2043
820.0222133567116,1978
822.2677337847211,1957
824.5126441917765,2067
826.7569448017433,1944
829.0006358385675,1954
831.2437175262731,2037
833.4861900889629,2006
835.7280537508192,2090
837.9693087361026,2070
840.2099552691533,1984
842.4499935743896,2015
844.689423876309,2014
846.9282463994886,2029
849.1664613685833,2030
851.4040690083276,2019
853.6410695435349,1981
855.877463199097,1992
858.1132501999847,2035
860.3484307712487,2068
862.5830051380175,2011
864.8169735254988,2034
867.0503361589791,2058
869.2830932638243,2052
871.5152450654786,2055
873.7467917894654,2002
875.9777336613873,1985
878.2080709069252,2062
880.4378037518389,2073
882.666932421968,2039
884.8954571432301,2088
887.1233781416219,2142
889.3506956432192,2073
891.5774098741766,2054
893.803521060728,2083
896.0290294291852,2076
898.2539352059397,2065
900.4782386174619,1997
902.7019398903011,2044
904.925039251085,2104
907.147536926521,2102
909.3694331433943,2081
911.59072812857,2050
913.8114221089921,2080
916.0315153116827,2159
918.2510079637437,2105
920.4699002923547,2099
922.6881925247761,2144
924.905884888345,2122
927.1229776104793,2045
929.3394709186747,2027
931.555365040506,2042
933.7706602036275,2080
935.9853566357709,2093
938.1994545647489,2078
940.4129542184515,2108
942.6258558248488,2146
944.8381596119883,2103
947.0498658079974,2091
949.2609746410825,2178
951.4714863395287,2081
953.6814011316998,2104
955.8907192460387,2150
958.0994409110671,2122
960.3075663553858,2056
962.5150958076741,2104
964.7220294966913,2004
966.928367651274,2005
969.1341105003388,1979
971.3392582728806,1951
973.5438111979742,1992
975.747769504772,1901
977.9511334225061,1993
980.153903180487,1871
982.3560790081052,1933
984.5576611348289,1922
986.7586497902058,1831
988.9590452038618,1861
991.158847605503,1850
993.3580572249133,1895
995.5566742919558,1770
997.7546990365728,1819
999.952131688785,1781
1002.1489724786926,1738
1004.3452216364743,1750
1006.5408793923874,1732
1008.7359459767691,1630
1010.9304216200343,1670
1013.1243065526781,1709
1015.3176010052733,1607
1017.510305208472,1567
1019.7024193930064,1639
1021.8939437896848,1588
1024.0848786293977,1635
1026.2752241431122,1556
1028.4649805618747,1571
1030.6541481168115,1661
1032.842727039127,1569
1035.0307175601051,1586
1037.2181199111074,1567
1039.4049343235752,1525
1041.591161029029,1549
1043.7768002590683,1533
1045.9618522453698,1519
1048.1463172196918,1503
1050.3301954138697,1567
1052.513487059818,1492
1054.69619238953,1568
1056.8783116350783,1573
1059.0598450286152,1503
1061.2407928023704,1514
1063.4211551886528,1504
1065.6009324198508,1529
1067.780124728432,1556
1069.9587323469414,1416
1072.1367555080046,1516
1074.314194444325,1480
1076.4910493886855,1514
1078.667320573947,1442
1080.843008233051,1429
1083.0181125990161,1503
1085.1926339049414,1469
1087.3665723840027,1501
1089.5399282694575,1448
1091.7127017946405,1450
1093.8848931929647,1452
1096.0565026979243,1435
1098.2275305430899,1459
1100.3979769621128,1471
1102.567842188722,1435
1104.737126456726,1389
1106.9058300000124,1392
1109.0739530525475,1380
1111.2414958483764,1420
1113.4084586216231,1493
1115.5748416064907,1430
1117.7406450372605,1403
1119.9058691482942,1423
1122.0705141740304,1461
1124.2345803489884,1432
1126.3980679077658,1421
1128.5609770850388,1404
1130.7233081155623,1471
1132.8850612341707,1464
1135.0462366757774,1435
1137.2068346753745,1446
1139.3668554680326,1383
1141.526299288901,1387
1143.68516637321,1372
1145.8434569562655,1498
1148.001171273455,1410
1150.158309560244,1389
1152.3148720521767,1471
1154.470858984876,1413
1156.626270594044,1364
1158.7811071154629,1455
1160.9353687849912,1375
1163.089055838569,1410
1165.242168512213,1392
1167.3947070420209,1399
1169.5466716641677,1417
1171.6980626149075,1397
1173.8488801305748,1360
1175.9991244475814,1394
1178.1487958024186,1411
1180.2978944316555,1408
1182.4464205719428,1416
1184.5943744600072,1451
1186.7417563326567,1371
1188.8885664267755,1336
1191.0348049793297,1347
1193.1804722273619,1369
1195.325568407995,1320
1197.4700937584303,1375
1199.614048515948,1370
1201.7574329179074,1394
1203.900247201746,1397
1206.042491604982,1438
1208.1841663652099,1389
1210.3252717201053,1374
1212.465807907422,1456
1214.6057751649923,1434
1216.7451737307279,1354
1218.8840038426192,1387
1221.0222657387353,1388
1223.1599596572241,1437
1225.2970858363137,1396
1227.4336445143094,1387
1229.5696359295966,1386
1231.705060320639,1403
1233.8399179259786,1349
1235.9742089842384,1396
1238.107933734118,1452
1240.2410924143974,1384
1242.373685263935,1413
1244.5057125216676,1416
1246.6371744266116,1387
1248.7680712178621,1401
1250.898403134593,1289
1253.028170416058,1367
1255.1573733015875,1436
1257.2860120305932,1426
1259.4140868425648,1348
1261.54159797707,1429
1263.6685456737569,1386
1265.7949301723515,1367
1267.9207517126597,1407
1270.046010534565,1375
1272.1707068780306,1398
1274.2948409830983,1423
1276.4184130898889,1394
1278.541423438603,1424
1280.6638722695184,1388
1282.785759822993,1350
1284.9070863394636,1360
1287.0278520594447,1384
1289.1480572235314,1394
1291.2677020723963,1379
1293.3867868467923,1395
1295.5053117875495,1410
1297.623277135579,1388
1299.740683131868,1441
1301.8575300174857,1425
1303.973818033578,1362
1306.0895474213703,1395
1308.2047184221678,1346
1310.3193312773528,1408
1312.4333862283888,1371
1314.5468835168163,1415
1316.659823384255,1452
1318.7722060724045,1419
1320.8840318230418,1411
1322.9953008780249,1384
1325.1060134792888,1348
1327.2161698688478,1450
1329.3257702887959,1419
1331.4348149813054,1430
1333.5433041886276,1433
1335.6512381530933,1440
1337.7586171171101,1438
1339.8654413231675,1423
1341.9717110138317,1427
1344.0774264317488,1390
1346.1825878196432,1393
1348.2871954203192,1417
1350.3912494766587,1426
1352.4947502316231,1489
1354.5976979282532,1427
1356.7000928096686,1438
1358.8019351190665,1395
1360.9032250997243,1392
1363.0039629949988,1430
1365.1041490483235,1385
1367.2037835032133,1419
1369.3028666032606,1372
1371.401398592137,1516
1373.4993797135926,1462
1375.5968102114575,1457
1377.6936903296396,1445
1379.7900203121262,1386
1381.8858004029835,1420
1383.9810308463561,1452
1386.075711886469,1460
1388.1698437676241,1424
1390.2634267342032,1456
1392.356461030667,1382
1394.4489469015557,1414
1396.5408845914872,1420
1398.6322743451592,1412
1400.7231164073469,1453
1402.813411022907,1419
1404.903158436773,1388
1406.9923588939578,1426
1409.0810126395531,1382
1411.1691199187303,1472
1413.2566809767386,1398
1415.343696058907,1440
1417.4301654106425,1471
1419.5160892774315,1477
1421.6014679048399,1453
1423.6863015385125,1459
1425.7705904241707,1443
1427.8543348076178,1462
1429.9375349347342,1440
1432.0201910514802,1434
1434.102303403894,1453
1436.1838722380944,1469
1438.2648978002767,1475
1440.3453803367174,1461
1442.4253200937692,1416
1444.5047173178677,1483
1446.5835722555234,1466
1448.6618851533285,1455
1450.739656257952,1482
1452.8168858161434,1444
1454.8935740747306,1511
1456.96972128062,1434
1459.045327680797,1499
1461.120393522327,1498
1463.1949190523528,1427
1465.2689045180973,1461
1467.3423501668608,1459
1469.415256246024,1470
1471.4876230030463,1478
1473.559450685465,1430
1475.6307395408976,1435
1477.7014898170391,1432
1479.771701761665,1451
1481.8413756226287,1434
1483.9105116478618,1462
1485.9791100853772,1499
1488.0471711832643,1482
1490.1146951896926,1436
1492.1816823529098,1475
1494.2481329212433,1435
1496.3140471430984,1430
1498.3794252669609,1487
1500.4442675413939,1451
1502.5085742150404,1476
1504.572345536622,1485
1506.6355817549388,1460
1508.6982831188702,1456
1510.7604498773744,1452
1512.8220822794883,1441
1514.8831805743293,1447
1516.9437450110909,1445
1519.003775839048,1511
1521.0632733075522,1496
1523.1222376660367,1476
1525.1806691640113,1498
1527.2385680510652,1464
1529.2959345768668,1398
1531.3527689911643,1490
1533.4090715437833,1434
1535.4648424846291,1475
1537.5200820636855,1510
1539.5747905310159,1462
1541.6289681367616,1452
1543.6826151311434,1431
1545.7357317644614,1511
1547.7883182870937,1501
1549.8403749494987,1456
1551.8919020022113,1480
1553.9428996958477,1457
1555.9933682811015,1454
1558.0433080087469,1415
1560.0927191296346,1448
1562.1416018946961,1444
1564.1899565549415,1471
1566.2377833614592,1490
1568.2850825654164,1480
1570.3318544180606,1420
1572.3780991707158,1479
1574.423817074788,1445
1576.4690083817595,1441
1578.5136733431923,1424
1580.5578122107272,1404
1582.601425236085,1400
1584.6445126710646,1458
1586.6870747675434,1472
1588.7291117774776,1434
1590.7706239529034,1434
1592.8116115459347,1483
1594.8520748087658,1411
1596.8920139936686,1448
1598.9314293529933,1464
1600.9703211391711,1464
1603.008689604711,1444
1605.0465350022005,1454
1607.0838575843068,1418
1609.1206576037753,1438
1611.1569353134305,1387
1613.1926909661765,1460
1615.2279248149953,1401
1617.2626371129481,1502
1619.2968281131757,1460
1621.3304980688963,1419
1623.3636472334088,1410
1625.39627586009,1415
1627.428384202396,1381
1629.459972513861,1438
1631.4910410480993,1452
1633.5215900588028,1410
1635.551619799744,1384
1637.5811305247717,1451
1639.6101224878166,1445
1641.6385959428862,1441
1643.6665511440683,1385
1645.693988345528,1417
1647.7209078015112,1308
1649.7473097663405,1367
1651.7731944944203,1377
1653.7985622402307,1439
1655.823413258333,1454
1657.847747803366,1408
1659.8715661300494,1402
1661.8948684931793,1376
1663.9176551476316,1394
1665.9399263483624,1395
1667.9616823504057,1397
1669.982923408873,1396
1672.0036497789574,1376
1674.0238617159293,1394
1676.043559475138,1409
1678.0627433120121,1370
1680.081413482059,1371
1682.0995702408654,1412
1684.117213844096,1439
1686.134344547495,1460
1688.1509626068864,1384
1690.1670682781705,1461
1692.182661817329,1350
1694.1977434804217,1359
1696.2123135235875,1379
1698.226372203043,1420
1700.2399197750851,1398
1702.2529564960905,1420
1704.2654826225112,1439
1706.277498410882,1441
1708.2890041178139,1449
1710.2999999999988,1357
1712.3104863142066,1366
1714.3204633172854,1394
1716.329931266163,1360
1718.3388904178469,1339
1720.3473410294214,1370
1722.3552833580516,1415
1724.3627176609807,1449
1726.3696441955308,1384
1728.3760632191033,1412
1730.3819749891782,1374
1732.3873797633146,1395
1734.3922777991502,1417
1736.3966693544012,1407
1738.4005546868639,1409
1740.4039340544127,1402
1742.406807715001,1416
1744.4091759266616,1437
1746.4110389475054,1431
1748.4123970357223,1420
1750.413250449582,1416
1752.4135994474318,1371
1754.4134442876993,1441
1756.4127852288902,1413
1758.4116225295893,1387
1760.4099564484595,1405
1762.407787244244,1406
1764.405115175764,1380
1766.4019405019203,1480
1768.3982634816916,1400
1770.3940843741357,1402
1772.3894034383907,1405
1774.3842209336717,1434
1776.378537119274,1392
1778.372352254571,1417
1780.3656665990156,1443
1782.3584804121397,1372
1784.3507939535534,1386
1786.3426074829463,1401
1788.3339212600863,1430
1790.3247355448211,1364
1792.3150505970766,1431
1794.3048666768573,1449
1796.2941840442477,1451
1798.2830029594106,1388
1800.2713236825884,1363
1802.2591464741004,1409
1804.2464715943465,1402
1806.2332993038058,1423
1808.2196298630352,1381
1810.2054635326708,1413
1812.190800573428,1464
1814.175641246101,1400
1816.1599858115628,1456
1818.1438345307652,1394
1820.127187664738,1399
1822.1100454745924,1407
1824.092408221516,1339
1826.0742761667766,1486
1828.055649571721,1391
1830.0365286977735,1378
1832.0169138064398,1381
1833.9968051593014,1462
1835.9762030180214,1469
1837.9551076443408,1463
1839.9335193000788,1396
1841.9114382471344,1437
1843.888864747485,1435
1845.8657990631878,1488
1847.842241456378,1347
1849.8181921892697,1454
1851.7936515241558,1416
1853.7686197234098,1387
1855.7430970494815,1470
1857.7170837649014,1420
1859.6905801322787,1426
1861.6635864143004,1428
1863.6361028737338,1407
1865.608129773424,1440
1867.5796673762961,1433
1869.5507159453537,1482
1871.521275743678,1447
1873.4913470344313,1458
1875.4609300808534,1459
1877.4300251462632,1446
1879.3986324940588,1434
1881.366752387717,1448
1883.3343850907936,1433
1885.3015308669228,1400
1887.268189979819,1428
1889.2343626932739,1416
1891.2000492711595,1475
1893.1652499774254,1402
1895.1299650761011,1454
1897.0941948312952,1455
1899.0579395071945,1401
1901.0211993680641,1511
1902.98397467825,1425
1904.9462657021745,1433
1906.9080727043415,1497
1908.869395949332,1416
1910.8302357018065,1459
1912.790592226504,1413
1914.7504657882428,1485
1916.7098566519212,1420
1918.6687650825133,1426
1920.6271913450764,1417
1922.5851357047422,1439
1924.5425984267245,1415
1926.499579776314,1490
1928.4560800188833,1459
1930.4120994198802,1424
1932.367638244833,1434
1934.32269675935,1430
1936.2772752291175,1485
1938.231373919899,1481
1940.1849930975404,1451
1942.1381330279637,1462
1944.0907939771696,1450
1946.0429762112412,1416
1947.9946799963363,1438
1949.9459055986945,1446
1951.896653284633,1415
1953.8469233205478,1384
1955.7967159729142,1443
1957.7460315082863,1436
1959.6948701932974,1406
1961.6432322946594,1426
1963.5911180791632,1499
1965.5385278136787,1436
1967.4854617651545,1436
1969.4319202006182,1447
1971.377903387176,1423
1973.3234115920136,1426
1975.268445082395,1455
1977.2130041256642,1413
1979.1570889892423,1416
1981.1006999406304,1401
1983.04383724741,1379
1984.986501177238,1420
1986.928691997853,1433
1988.8704099770712,1437
1990.811655382789,1364
1992.7524284829801,1457
1994.692729545698,1395
1996.6325588390755,1410
1998.5719166313224,1493
2000.5108031907307,1390
2002.4492187856677,1452
2004.387163684583,1447
2006.3246381560011,1403
2008.2616424685298,1450
2010.1981768908527,1447
2012.1342416917332,1445
2014.069837140014,1399
2016.0049635046162,1452
2017.9396210545406,1420
2019.8738100588666,1470
2021.8075307867502,1392
2023.740783507431,1379
2025.6735684902228,1426
2027.6058860045214,1435
2029.5377363198004,1416
2031.4691197056118,1475
2033.4000364315875,1422
2035.3304867674374,1459
2037.260470982952,1386
2039.189989347998,1450
2041.1190421325232,1391
2043.047629606554,1433
2044.9757520401945,1426
2046.9034097036288,1399
2048.8306028671195,1417
2050.7573318010086,1420
2052.683596775716,1361
2054.609398061742,1381
2056.5347359296647,1417
2058.4596106501403,1422
2060.384022493906,1367
2062.3079717317764,1436
2064.231458634646,1422
2066.1544834734873,1385
2068.077046519352,1435
2069.99914804337,1457
2071.9207883167524,1406
2073.8419676107865,1340
2075.7626861968406,1480
2077.6829443463607,1422
2079.6027423308715,1395
2081.522080421977,1382
2083.440958891362,1413
2085.359378010786,1346
2087.2773380520907,1353
2089.194839287196,1398
2091.111881988101,1387
2093.0284664268825,1368
2094.9445928756973,1424
2096.86026160678,1416
2098.775472892446,1443
2100.690227005088,1393
2102.604524217178,1408
2104.5183648012676,1438
2106.431749029985,1388
2108.34467717604,1401
2110.2571495122206,1461
2112.169166311393,1412
2114.080727846503,1421
2115.9918343905747,1472
2117.902486216711,1454
2119.8126835980956,1396
2121.722426807987,1469
2123.6317161197285,1387
2125.5405518067364,1346
2127.448934142509,1464
2129.356863400624,1465
2131.264339854737,1496
2133.1713637785815,1440
2135.077935445972,1476
2136.9840551308002,1472
2138.889723107037,1465
2140.7949396487334,1451
2142.699705030018,1463
2144.6040195250994,1469
2146.507883408264,1452
2148.4112969538774,1491
2150.3142604363848,1459
2152.2167741303097,1446
2154.1188383102535,1528
2156.0204532508997,1489
2157.9216192270064,1488
2159.822336513414,1503
2161.7226053850413,1398
2163.622426116884,1480
2165.5217989840185,1493
2167.4207242616,1546
2169.319202224862,1484
2171.2172331491165,1461
2173.1148173097563,1498
2175.0119549822507,1506
2176.90864644215,1555
2178.8048919650823,1520
2180.7006918267534,1508
2182.596046302952,1481
2184.4909556695407,1516
2186.3854202024645,1521
2188.279440177746,1506
2190.173015871487,1502
2192.066147559868,1512
2193.958835519149,1496
2195.851080025667,1446
2197.7428813558417,1522
2199.6342397861667,1490
2201.5251555932186,1505
2203.415629053651,1537
2205.3056604441986,1601
2207.19525004167,1545
2209.084398122958,1519
2210.9731049650327,1583
2212.861370844941,1525
2214.749196039812,1503
2216.636580826851,1528
2218.523525483344,1538
2220.410030286655,1499
2222.296095514226,1548
2224.1817214435805,1558
2226.066908352319,1560
2227.951656518121,1548
2229.835966218746,1542
2231.71983773203,1530
2233.6032713358913,1569
2235.486267308324,1479
2237.3688259274036,1553
2239.2509474712824,1530
2241.132632218193,1509
2243.013880446447,1531
2244.8946924344323,1528
2246.7750684606203,1573
2248.6550088035574,1515
2250.534513741871,1552
2252.413583554265,1552
2254.292218519526,1548
2256.170418916517,1537
2258.0481850241786,1529
2259.925517121534,1560
2261.8024154876825,1540
2263.678880401803,1528
2265.5549121431536,1537
2267.430510991071,1586
2269.305677224971,1560
2271.180411124348,1516
2273.0547129687766,1473
2274.9285830379076,1544
2276.8020216114737,1509
2278.6750289692845,1500
2280.5476053912294,1518
2282.4197511572766,1572
2284.2914665474727,1560
2286.162751841943,1647
2288.0336073208937,1609
2289.904033264608,1609
2291.774029953448,1592
2293.6435976678554,1580
2295.5127366883517,1565
2297.381447295534,1516
2299.2497297700825,1459
2301.1175843927526,1446
2302.9850114443825,1392
2304.852011205885,1466
2306.7185839582553,1344
2308.5847299825664,1305
2310.4504495599676,1313
2312.3157429716925,1362
2314.1806104990483,1346
2316.0450524234247,1310
2317.9090690262888,1335
2319.772660589186,1325
2321.635827393742,1286
2323.498569721661,1311
2325.3608878547248,1264
2327.2227820747967,1282
2329.0842526638157,1260
2330.945299903803,1300
2332.805924076857,1272
2334.6661254651535,1261
2336.525904350951,1260
2338.3852610165827,1287
2340.244195744464,1258
2342.102708817088,1289
2343.9608005170253,1237
2345.8184711269287,1225
2347.675720929526,1283
2349.532550207628,1249
2351.38895924412,1312
2353.24494832197,1271
2355.100517724223,1226
2356.955667734004,1274
2358.810398634514,1263
2360.664710709037,1286
2362.5186042409337,1265
2364.3720795136437,1288
2366.225136810686,1290
2368.0777764156583,1254
2369.929998612237,1265
2371.7818036841777,1319
2373.633191915315,1250
2375.484163589562,1273
2377.3347189909114,1210
2379.184858403434,1292
2381.03458211128,1222
2382.8838903986775,1295
2384.732783549936,1257
2386.5812618494406,1294
2388.4293255816588,1284
2390.2769750311327,1300
2392.1242104824883,1322
2393.971032220427,1301
2395.8174405297295,1240
2397.6634356952563,1284
2399.509018001947,1226
2401.3541877348193,1272
2403.1989451789705,1306
2405.043290619576,1294
2406.8872243418905,1270
2408.730746631247,1264
2410.5738577730594,1277
2412.4165580528183,1266
2414.258847756095,1317
2416.100727168537,1293
2417.9421965758734,1224
2419.783256263912,1262
2421.623906518538,1330
2423.4641476257157,1293
2425.303979871491,1273
2427.143403541984,1254
2428.9824189233977,1290
2430.821026302012,1274
2432.6592259641866,1255
2434.497018196361,1249
2436.33440328505,1297
2438.171381516851,1273
2440.00795317844,1257
2441.844118556569,1235
2443.6798779380724,1278
2445.5152316098606,1248
2447.3501798589255,1303
2449.1847229723357,1258
2451.0188612372403,1286
2452.8525949408663,1288
2454.6859243705203,1292
2456.518849813587,1223
2458.3513715575314,1255
2460.183489889895,1290
2462.015205098301,1294
2463.8465174704493,1301
2465.67742729412,1262
2467.5079348571717,1272
2469.338040447542,1306
2471.1677443532476,1265
2472.9970468623833,1268
2474.825948263123,1304
2476.6544488437207,1290
2478.482548892508,1225
2480.310248697896,1264
2482.137548548374,1277
2483.9644487325118,1242
2485.790949538956,1296
2487.617051256433,1305
2489.44275417375,1309
2491.26805857979,1206
2493.0929647635157,1210
2494.917473013971,1267
2496.741583620276,1284
2498.5652968716304,1259
2500.3886130573137,1320
2502.2115324666834,1312
2504.0340553891765,1271
2505.856182114308,1278
2507.6779129316733,1284
2509.499248130945,1303
2511.3201880018764,1240
2513.140732834298,1307
2514.9608829181198,1287
2516.780638543331,1236
2518.6,1305
2520.418967578273,1264
2522.237541568376,1288
2524.0557222606144,1221
2525.8735099453706,1231
2527.6909049131086,1267
2529.507907454368,1258
2531.32451785977,1205
2533.140736420014,1228
2534.9565634258774,1268
2536.771999168218,1274
2538.5870439379714,1251
2540.4016980261526,1274
2542.2159617238544,1309
2544.02983532225,1187
2545.8433191125914,1224
2547.656413386209,1235
2549.4691184345115,1245
2551.2814345489874,1232
2553.093362021204,1214
2554.904901142808,1200
2556.716052205523,1293
2558.526815501153,1286
2560.3371913215824,1248
2562.147179958771,1300
2563.956781704761,1266
2565.7659968516705,1246
2567.5748256916986,1240
2569.3832685171224,1245
2571.1913256202984,1290
2572.9989972936614,1292
2574.806283829725,1236
2576.613185521084,1220
2578.4197026604074,1263
2580.2258355404483,1236
2582.031584454035,1227
2583.836949694077,1259
2585.6419315535613,1232
2587.4465303255533,1288
2589.2507463032002,1285
2591.0545797797245,1261
2592.8580310484303,1275
2594.6611004026995,1225
2596.463788135992,1269
2598.266094541849,1209
2600.0680199138874,1200
2601.869564545807,1218
2603.670728731383,1261
2605.4715127644704,1297
2607.2719169390048,1191
2609.071941548998,1263
2610.8715868885433,1310
2612.670853251811,1291
2614.469740933052,1247
2616.268250226594,1271
2618.0663814268455,1225
2619.864134828292,1276
2621.6615107255006,1311
2623.458509413115,1255
2625.2551311858597,1262
2627.0513763385347,1278
2628.8472451660223,1292
2630.6427379632833,1272
2632.4378550253564,1285
2634.232596647359,1294
2636.026963124488,1257
2637.8209547520187,1195
2639.6145718253065,1235
2641.407814639785,1258
2643.200683490966,1261
2644.9931786744414,1238
2646.7853004858807,1238
2648.577049221034,1260
2650.3684251757277,1237
2652.1594286458712,1256
2653.9500599274484,1319
2655.740319316525,1218
2657.5302071092437,1236
2659.3197236018286,1220
2661.10886909058,1254
2662.8976438718782,1277
2664.686048242183,1220
2666.4740824980327,1287
2668.2617469360443,1315
2670.0490418529134,1272
2671.8359675454153,1243
2673.622524310403,1289
2675.408712444811,1238
2677.1945322456495,1305
2678.979984010009,1286
2680.76506803506,1245
2682.5497846180497,1275
2684.334134056306,1289
2686.1181166472343,1270
2687.9017326883213,1253
2689.6849824771293,1298
2691.4678663113013,1283
2693.2503844885596,1294
2695.032537306705,1210
2696.8143250636167,1249
2698.5957480572542,1243
2700.3768065856534,1307
2702.1575009469316,1258
2703.937831439283,1266
2705.717798360982,1204
2707.4974020103837,1261
2709.276642685917,1245
2711.055520686095,1253
2712.834036309506,1241
2714.612189854819,1272
2716.389981620782,1224
2718.1674119062204,1300
2719.944481010041,1243
2721.721189231226,1304
2723.4975368688415,1304
2725.273524222027,1265
2727.0491515900053,1285
2728.824419272075,1314
2730.5993275676146,1302
2732.3738767760838,1336
2734.148067197016,1246
2735.921899130031,1304
2737.6953728748194,1257
2739.468488731156,1241
2741.2412469988926,1301
2743.0136479779617,1301
2744.785691968372,1258
2746.5573792702116,1249
2748.3287101836504,1263
2750.099685008934,1267
2751.870304046388,1272
2753.640567596418,1240
2755.4104759595057,1224
2757.1800294362156,1304
2758.949228327187,1260
2760.7180729331412,1224
2762.486563554877,1314
2764.254700493272,1298
2766.022484049284,1299
2767.789914523947,1240
2769.5569922183786,1288
2771.3237174337705,1253
2773.090090471394,1280
2774.8561116326036,1232
2776.6217812188274,1284
2778.3870995315756,1275
2780.1520668724356,1271
2781.9166835430747,1212
2783.6809498452394,1278
2785.444866080754,1309
2787.2084325515225,1257
2788.971649559527,1295
2790.73451740683,1298
2792.4970363955713,1245
2794.2592068279705,1249
2796.0210290063264,1274
2797.7825032330147,1283
2799.543629810493,1285
2801.304409041296,1249
2803.0648412280366,1290
2804.8249266734088,1304
2806.5846656801846,1319
2808.344058551212,1292
2810.1031055894246,1357
2811.8618070978273,1276
2813.6201633795085,1316
2815.378174737636,1294
2817.1358414754536,1251
2818.893163896285,1288
2820.6501423035334,1291
2822.4067770006814,1322
2824.1630682912883,1251
2825.9190164789957,1284
2827.6746218675207,1281
2829.429884760661,1307
2831.184805462294,1292
2832.9393842763743,1274
2834.693621506936,1258
2836.4475174580916,1292
2838.201072434034,1248
2839.954286739034,1269
2841.707160677441,1328
2843.459694553685,1266
2845.2118886722724,1253
2846.96374333779,1314
2848.7152588549034,1265
2850.4664355283567,1295
2852.217273662973,1297
2853.9677735636546,1345
2855.7179355353833,1261
2857.4677598832186,1265
2859.217246912299,1254
2860.9663969278427,1256
2862.715210235146,1248
2864.4636871395846,1387
2866.211827946614,1316
2867.9596329617652,1273
2869.7071024906536,1274
2871.4542368389684,1290
2873.20103631248,1357
2874.947501217038,1291
2876.6936318585695,1291
2878.4394285430812,1293
2880.1848915766604,1264
2881.9300212654707,1275
2883.6748179157553,1266
2885.4192818338374,1285
2887.1634133261173,1241
2888.907212699077,1325
2890.6506802592744,1300
2892.393816313348,1299
2894.1366211680142,1333
2895.8790951300693,1333
2897.621238506388,1283
2899.363051603925,1274
2901.1045347297118,1277
2902.8456881908596,1297
2904.58651229456,1268
2906.327007348081,1304
2908.067173658772,1289
2909.8070115340597,1255
2911.5465212814497,1265
2913.285703208527,1224
2915.0245576229563,1240
2916.7630848324807,1257
2918.5012851449196,1259
2920.2391588681758,1263
2921.976706310227,1295
2923.7139277791334,1251
2925.4508235830313,1287
2927.187394030137,1286
2928.923639428745,1350
2930.6595600872306,1337
2932.395156314046,1301
2934.1304284177218,1345
2935.8653767068713,1325
2937.6000014901815,1304
2939.3343030764227,1309
2941.068281774442,1251
2942.8019378931644,1313
2944.5352717415976,1339
2946.2682836288236,1317
2948.0009738640065,1294
2949.7333427563885,1305
2951.465390615289,1271
2953.1971177501086,1235
2954.9285244703265,1291
2956.6596110855,1246
2958.3903779052657,1264
2960.1208252393385,1297
2961.8509533975125,1323
2963.5807626896617,1290
2965.3102534257378,1213
2967.0394259157715,1312
2968.768280469873,1244
2970.496817398232,1287
2972.2250370111146,1321
2973.952939618869,1311
2975.6805255319196,1294
2977.4077950607707,1253
2979.134748516006,1327
2980.861386208289,1279
2982.587708448359,1292
2984.313715547037,1239
2986.039407815222,1318
2987.764785563891,1220
2989.489849104102,1310
2991.2145987469908,1287
2992.9390348037705,1288
2994.6631575857346,1308
2996.3869674042576,1266
2998.1104645707887,1314
2999.83364939686,1258
3001.5565221940783,1264
3003.2790832741334,1268
3005.0013329487924,1226
3006.7232715298996,1243
3008.4448993293804,1228
3010.166216659239,1339
3011.887223831558,1277
3013.607921158498,1329
3015.3283089522993,1253
3017.0483875252826,1317
3018.7681571898443,1342
3020.4876182584626,1277
3022.2067710436927,1235
3023.9256158581707,1267
3025.644153014609,1245
3027.362382825801,1326
3029.0803056046193,1302
3030.797921664012,1237
3032.5152313170106,1295
3034.2322348767225,1196
3035.9489326563353,1224
3037.665324969115,1262
3039.3814121284063,1242
3041.097194447633,1224
3042.812672240299,1249
3044.5278458199855,1293
3046.2427155003525,1308
3047.9572815951406,1269
3049.671544418167,1251
3051.38550428333,1238
3053.0991615046073,1289
3054.812516396051,1249
3056.5255692717974,1264
3058.2383204460575,1264
3059.9507702331257,1327
3061.662918947372,1258
3063.3747669032446,1262
3065.0863144152736,1323
3066.7975617980674,1289
3068.508509366309,1309
3070.219157434767,1261
3071.9295063182844,1246
3073.639556331785,1298
3075.3493077902704,1250
3077.058761008821,1253
3078.7679163025964,1263
3080.476773986837,1252
3082.1853343768594,1287
3083.89359778806,1267
3085.6015645359153,1220
3087.3092349359786,1263
3089.016609303884,1289
3090.7236879553434,1277
3092.4304712061476,1236
3094.136959372166,1306
3095.843152769349,1241
3097.5490517137237,1208
3099.2546565213966,1247
3100.959967508554,1272
3102.66498499146,1271
3104.3697092864577,1270
3106.0741407099695,1267
3107.778279578498,1280
3109.482126208622,1268
3111.1856809170004,1265
3112.8889440203716,1309
3114.5919158355528,1260
3116.294596679439,1295
3117.996986869006,1270
3119.6990867213062,1314
3121.4008965534726,1298
3123.102416682717,1318
3124.803647426329,1277
3126.5045891016784,1303
3128.205242026213,1233
3129.90560651746,1286
3131.605682893025,1211
3133.3054714705922,1261
3135.0049725679282,1296
3136.7041865028714,1259
3138.4031135933465,1251
3140.101754157353,1245
3141.800108512971,1213
3143.498176978357,1214
3145.1959598717494,1310
3146.8934575114636,1250
3148.5906702158954,1292
3150.2875983035183,1267
3151.9842420928853,1223
3153.680601902627,1237
3155.376678051456,1227
3157.07247085816,1288
3158.767980641609,1209
3160.463207720748,1213
3162.158152414606,1272
3163.8528150422862,1252
3165.5471959229726,1254
3167.2412953759303,1276
3168.9351137204976,1283
3170.628651276098,1232
3172.3219083622307,1294
3174.014885298474,1263
3175.707582404485,1256
3177.4000000000005,1271
3179.092138404835,1267
3180.7839979388846,1245
3182.47557892212,1304
3184.166881674594,1221
3185.8579065164386,1199
3187.5486537678626,1254
3189.2391237491547,1297
3190.9293167806827,1235
3192.6192331828934,1278
3194.3088732763117,1283
3195.998237381542,1203
3197.687325819268,1255
3199.376138910251,1255
3201.064676975334,1226
3202.7529403354347,1274
3204.4409293115523,1197
3206.1286442247647,1222
3207.816085396229,1232
3209.5032531471825,1269
3211.190147798936,1304
3212.8767696728846,1193
3214.5631190905015,1229
3216.2491963733373,1296
3217.9350018430214,1265
3219.6205358212637,1278
3221.305798629851,1221
3222.990790590651,1283
3224.6755120256103,1268
3226.359963256751,1198
3228.0441446061795,1181
3229.7280563960758,1241
3231.411698948703,1251
3233.0950725863995,1243
3234.778177631587,1279
3236.461014406761,1264
3238.1435832345005,1322
3239.8258844374595,1267
3241.507918338374,1304
3243.1896852600576,1293
3244.8711855254023,1289
3246.552419457381,1290
3248.233387379042,1277
3249.914089613516,1262
3251.59452648401,1250
3253.274698313813,1186
3254.95460542629,1274
3256.6342481448855,1213
3258.313626793125,1199
3259.9927416946084,1240
3261.6715931730196,1247
3263.3501815521176,1204
3265.0285071557437,1218
3266.706570307815,1252
3268.3843713323286,1237
3270.0619105533615,1255
3271.739188295068,1317
3273.4162048816834,1239
3275.0929606375184,1273
3276.769455886966,1266
3278.445690954498,1293
3280.1216661646613,1287
3281.797381842087,1281
3283.4728383114807,1232
3285.1480358976296,1265
3286.8229749253996,1262
3288.4976557197333,1271
3290.172078605655,1286
3291.846243908266,1257
3293.5201519527463,1231
3295.193803064357,1247
3296.8671975684374,1199
3298.5403357904024,1219
3300.21321805575,1250
3301.8858446900567,1232
3303.558216018975,1219
3305.23033236824,1216
3306.9021940636603,1248
3308.57380143113,1246
3310.2451547966184,1268
3311.916254486174,1244
3313.5871008259246,1211
3315.2576941420766,1288
3316.9280347609147,1270
3318.5981230088046,1227
3320.2679592121895,1303
3321.9375436975924,1224
3323.606876791612,1291
3325.27595882093,1225
3326.944790112305,1250
3328.6133709925753,1278
3330.2817017886573,1271
3331.949782827547,1231
3333.617614436319,1301
3335.2851969421245,1264
3336.952530672199,1303
3338.619615953853,1270
3340.286453114475,1289
3341.9530424815357,1205
3343.619384382583,1282
3345.2854791452437,1292
3346.951327097224,1263
3348.6169285663073,1225
3350.2822838803577,1218
3351.947393367319,1218
3353.61225735521,1278
3355.2768761721345,1257
3356.9412501462693,1225
3358.605379605873,1235
3360.2692648792827,1229
3361.9329062949146,1221
3363.596304181263,1224
