CollectionTime,9/20/2024 11:40:28 AM
ExposureUsed,3
CalibratedSpectrum
-962.7078968117929,551
-959.9714848408522,588
-957.2358232597828,572
-954.5009119013725,548
-951.7667505983302,602
-949.0333391832855,596
-946.3006774887896,607
-943.5687653473143,570
-940.837602591253,548
-938.1071890529199,547
-935.3775245645503,569
-932.6486089583007,581
-929.9204420662485,548
-927.1930237203925,595
-924.4663537526524,605
-921.7404319948689,603
-919.0152582788041,650
-916.2908324361409,650
-913.5671542984834,588
-910.8442236973568,551
-908.1220404642074,575
-905.4006044304027,526
-902.679915427231,531
-899.959973285902,550
-897.2407778375464,533
-894.5223289132158,564
-891.8046263438832,536
-889.0876699604426,540
-886.3714595937089,605
-883.6559950744183,591
-880.9412762332282,612
-878.2273029007168,536
-875.5140749073835,570
-872.8015920836489,548
-870.0898542598545,519
-867.3788612662631,575
-864.6686129330585,605
-861.9591090903457,601
-859.2503495681506,531
-856.5423341964203,560
-853.8350628050229,558
-851.1285352237478,580
-848.4227512823054,643
-845.7177108103272,622
-843.0134136373656,592
-840.3098595928943,592
-837.6070485063082,570
-834.9049802069229,607
-832.2036545239757,595
-829.5030712866244,616
-826.8032303239481,597
-824.1041314649472,563
-821.4057745385428,538
-818.7081593735775,553
-816.0112857988148,587
-813.3151536429393,626
-810.6197627345566,590
-807.9251129021936,578
-805.2312039742981,653
-802.5380357792392,703
-799.8456081453069,653
-797.1539209007124,742
-794.462973873588,663
-791.772766891987,606
-789.083299783884,667
-786.3945723771743,620
-783.7065844996748,575
-781.0193359791231,546
-778.3328266431781,617
-775.6470563194197,600
-772.9620248353489,583
-770.2777320183878,580
-767.5941776958798,654
-764.9113616950891,619
-762.2292838432011,584
-759.5479439673222,540
-756.8673418944801,562
-754.1874774516235,629
-751.5083504656222,601
-748.8299607632671,608
-746.15230817127,588
-743.475392516264,579
-740.7992136248035,603
-738.1237713233636,587
-735.4490654383407,563
-732.7750957960521,546
-730.1018622227365,553
-727.4293645445534,577
-724.7576025875837,551
-722.0865761778291,591
-719.4162851412126,594
-716.7467293035781,645
-714.0779084906909,697
-711.409822528237,690
-708.7424712418238,604
-706.0758544569796,592
-703.4099719991541,608
-700.7448236937178,644
-698.0804093659622,606
-695.4167288411002,615
-692.7537819442656,609
-690.0915685005134,584
-687.4300883348199,606
-684.7693412720819,628
-682.1093271371178,651
-679.4500457546669,603
-676.7914969493897,623
-674.1336805458676,650
-671.4765963686034,650
-668.8202442420206,651
-666.1646239904642,653
-663.5097354382001,634
-660.8555784094151,627
-658.2021527282176,673
-655.5494582186366,663
-652.8974947046223,664
-650.2462620100463,635
-647.5957599587009,665
-644.9459883742998,705
-642.2969470804776,677
-639.6486359007902,658
-637.0010546587141,643
-634.3542031776476,659
-631.7080812809096,631
-629.0626887917401,647
-626.4180255333008,646
-623.7740913286734,731
-621.1308860008619,720
-618.4884093727904,698
-615.8466612673046,718
-613.2056415071715,675
-610.5653499150785,695
-607.9257863136347,684
-605.28695052537,675
-602.6488423727357,711
-600.0114616781036,675
-597.3748082637674,769
-594.7388819519412,773
-592.1036825647604,749
-589.4692099242818,770
-586.8354638524829,800
-584.2024441712624,813
-581.5701507024403,935
-578.9385832677575,1028
-576.3077416888759,910
-573.6776257873787,803
-571.0482353847704,735
-568.4195703024757,684
-565.7916303618415,712
-563.164415384135,769
-560.5379251905453,780
-557.9121596021815,787
-555.2871184400748,756
-552.6628015251767,794
-550.0392086783606,798
-547.4163397204204,759
-544.794194472071,793
-542.1727727539491,792
-539.5520743866118,826
-536.9320991905377,819
-534.3128469861261,862
-531.6943175936979,909
-529.0765108334947,837
-526.4594265256793,931
-523.8430644903358,1171
-521.2274245474689,1384
-518.612506517005,1479
-515.9983102187913,1574
-513.3848354725959,1871
-510.77208209810846,2166
-508.16004991493924,2439
-505.5487387426199,2455
-502.9381484006032,2279
-500.3282787082628,2149
-497.71912948489364,1883
-495.1107005497117,1590
-492.5029917218539,1316
-489.8960028203786,1195
-487.28973366426493,1030
-484.68418407241325,957
-482.07935386364494,899
-479.47524285670266,889
-476.87185087025,878
-474.2691777228715,951
-471.66722323307334,950
-469.0659872192821,871
-466.4654694998459,837
-463.86566989303384,862
-461.26658821703614,902
-458.66822428996414,932
-456.07057792985,961
-453.4736489546475,979
-450.877437182231,960
-448.28194243039627,941
-445.68716451686,907
-443.09310325926003,875
-440.49975847515555,876
-437.9071299820263,911
-435.31521759727354,882
-432.72402113821954,934
-430.13354042210767,918
-427.5437752661022,954
-424.95472548728867,972
-422.36639090267386,1030
-419.7787713291855,1085
-417.1918665836721,1038
-414.60567648290385,1036
-412.0202008435715,1071
-409.4354394822874,1152
-406.8513922155845,1127
-404.26805885991723,1047
-401.685439231661,1055
-399.103533147112,1039
-396.522340422488,929
-393.9418608739278,938
-391.3620943174908,986
-388.7830405691583,1017
-386.2046994448317,924
-383.6270707603344,876
-381.05015433141045,866
-378.473949973725,868
-375.8984575028645,794
-373.32367673433623,840
-370.74960748356875,857
-368.1762495659117,792
-365.60360279663576,820
-363.03166699093265,779
-360.4604419639154,742
-357.8899275306178,663
-355.32012350599507,618
-352.7510297049233,613
-350.1826459421999,614
-347.61497203254316,668
-345.04800779059235,687
-342.4817530309082,654
-339.91620756797226,722
-337.35137121618743,755
-334.7872437898774,690
-332.22382510328725,714
-329.66111497058273,739
-327.09911320585127,670
-324.53781962310075,635
-321.9772340362607,594
-319.4173562591816,651
-316.8581861056348,666
-314.2997233893127,758
-311.7419679238294,796
-309.1849195227194,776
-306.62857799943856,805
-304.0729431673641,803
-301.51801483979375,866
-298.963792829947,841
-296.41027695096386,718
-293.85746701590574,712
-291.3053628377552,718
-288.7539642294155,801
-286.2032710037115,803
-283.65328297338897,809
-281.1039999511146,782
-278.5554217494762,933
-276.007548180983,1010
-273.4603790580651,904
-270.9139141930734,865
-268.3681533982807,1025
-265.8230964858798,1098
-263.27874326798565,1113
-260.7350935566336,1050
-258.1921471637804,1140
-255.6499039013039,1351
-253.10836358100266,1163
-250.56752601459698,1076
-248.02739101372765,1080
-245.48795838995704,1070
-242.94922795476816,1148
-240.41119951956557,1111
-237.8738728956746,1027
-235.33724789434166,1037
-232.80132432673452,1089
-230.2661020039418,1144
-227.73158073697357,1146
-225.19776033676033,1060
-222.66464061415422,1141
-220.1322213799284,1304
-217.60050244477725,1110
-215.06948361931552,1113
-212.53916471408013,1303
-210.00954553952818,1186
-207.48062590603843,1169
-204.9524056239104,1302
-202.4248845033651,1480
-199.8980623545441,1650
-197.37193898751036,1643
-194.84651421224817,1454
-192.32178783866232,1299
-189.79775967657952,1255
-187.27442953574644,1259
-184.7517972258321,1160
-182.2298625564256,1233
-179.7086253370378,1344
-177.18808537710026,1395
-174.66824248596583,1495
-172.14909647290835,1723
-169.6306471471229,1619
-167.11289431772548,1375
-164.59583779375328,1548
-162.07947738416453,2135
-159.5638128978386,2505
-157.04884414357605,2328
-154.53457093009854,2295
-152.02099306604828,1957
-149.50811035998936,2116
-146.99592262040665,2275
-144.48442965570587,2134
-141.97363127421409,2021
-139.46352728417958,1804
-136.95411749377126,1709
-134.44540171107985,1698
-131.93737974411636,1658
-129.43005140081357,1738
-126.92341648902493,2217
-124.41747481652521,2658
-121.91222619101006,2863
-119.40767042009657,2707
-116.90380731132257,2887
-114.40063667214702,3414
-111.8981583099503,4387
-109.3963720320337,5487
-106.89527764561933,7167
-104.39487495785067,7475
-101.89516377579241,7683
-99.39614390642998,9036
-96.89781515667039,14072
-94.40017733334128,19883
-91.90323024319173,19992
-89.40697369289148,16079
-86.91140748903172,12110
-84.41653143812482,8794
-81.92234534660395,9679
-79.42884902082358,11577
-76.93604226705907,12453
-74.4439248915071,13214
-71.95249670028534,12685
-69.46175749943245,12401
-66.97170709490854,10374
-64.48234529259423,10897
-61.99367189829195,11081
-59.50568671772464,13620
-57.01838955653636,17314
-54.53178022029283,21022
-52.045858514480074,25670
-49.560624244506016,27538
-47.07607721569923,31392
-44.59221723330904,29028
-42.10904410250669,25880
-39.62655762838392,27084
-37.14475761595372,36495
-34.66364387015028,37365
-32.18321619582866,39629
-29.70347439776515,41751
-27.224418280657005,37705
-24.74604764912317,38144
-22.26836230770266,50246
-19.7913620608565,65035
-17.315046712966478,65035
-14.83941606833514,65035
-12.36446993118659,65035
-9.89020810566592,65035
-7.416630395839093,65035
-4.94373660569363,65035
-2.471526539137585,65035
-6.821210263296962E-13,65035
2.47084320796705,65035
4.941003281093458,65035
7.410480415786196,65035
9.879274808531363,65035
12.347386655893956,65035
14.814816154518212,65035
17.28156350112681,65035
19.74762889252179,65035
22.21301252558385,65035
24.67771459727237,26055
27.141735304626195,10403
29.605074844762612,11949
32.06773341487792,11014
34.52971121224755,8476
36.99100843422559,5552
39.45162527824516,6432
41.91156194181792,7055
44.370818622535126,6498
46.82939551806646,5928
49.287292826160524,6373
51.74451074464503,6499
54.201049471426245,6435
56.65690920448981,6200
59.112090141899785,5255
61.56659248179983,5382
64.02041642241159,4567
66.4735621620365,3433
68.92602989905402,3822
71.37781983192338,4018
73.82893215918205,4424
76.27936707944684,3325
78.72912479141326,3379
81.17820549385567,3394
83.62660938562783,2584
86.07433666566146,2745
88.5213875329681,2458
90.96776218663751,2306
93.41346082583925,2721
95.85848364982041,3467
98.30283085790859,2783
100.7465026495089,2544
103.18949922410604,2669
105.63182078126385,2217
108.07346752062438,2234
110.51443964190923,2546
112.95473734491827,2662
115.39436082953114,2483
117.83331029570547,2347
120.27158594347827,2472
122.7091879729652,2603
125.1461165843615,2967
127.58237197794062,3163
130.01795435405518,3289
132.4528639131364,3230
134.88710085569494,2834
137.32066538231982,2788
139.75355769367923,2348
142.1857779905207,1814
144.61732647366978,1680
147.04820334403132,1730
149.47840880258934,2141
151.90794305040674,2492
154.33680628862487,2456
156.76499871846443,2226
159.19252054122433,2239
161.61937195828352,2096
164.04555317109896,1971
166.47106438120693,2138
168.89590579022217,2468
171.320077599839,2507
173.7435800118302,2839
176.16641322804742,3309
178.58857745042144,3219
181.01007288096173,2931
183.43089972175687,2852
185.85105817497413,2595
188.27054844285988,2554
190.6893707277394,2577
193.10752523201643,2846
195.5250121581745,3193
197.9418317087751,2939
200.3579840864594,2813
202.7734694939469,2997
205.18828813403627,3073
207.6024402096051,2879
210.01592592360964,2689
212.42874547908548,2810
214.84089907914665,2758
217.2523869269868,2638
219.66320922587727,2664
222.0733661791695,2550
224.48285799029293,2604
226.8916848627572,2731
229.29984700014882,2687
231.7073446061355,2765
234.11417788446204,2766
236.520347038953,2756
238.92585227351185,2901
241.33069379212054,2883
243.73487179884035,2964
246.1383864978112,2962
248.541238093252,2839
250.9434267894609,2846
253.34495279081432,2830
255.74581630176783,2828
258.1460175268563,2724
260.54555667069314,2867
262.9444339379703,3013
265.3426495334594,2999
267.7402036620107,2898
270.1370965285529,2866
272.53332833809407,2820
274.9288992957214,2688
277.32380960660055,2683
279.718059475976,2679
282.1116491091717,2602
284.5045787115897,2658
286.89684848871195,2629
289.2884586460981,2814
291.67940938938807,2748
294.0697009242996,2636
296.4593334566299,2701
298.84830719225477,2886
301.23662233712923,2910
303.6242790972866,2799
306.01127767884,2591
308.39761828798066,2442
310.78330113097934,2465
313.16832641418534,2478
315.5526943440269,2526
317.9364051270112,2502
320.3194589697242,2563
322.70185607883093,2450
325.0835966610754,2324
327.4646809232805,2393
329.8451090723478,2434
332.2248813152577,2273
334.6039978590701,2352
336.9824589109231,2328
339.36026467803447,2322
341.7374153677,2247
344.113911187295,2290
346.48975234427337,2374
348.8649390461686,2423
351.2394715005918,2356
353.61334991523415,2217
355.9865744978655,2223
358.35914545633375,2321
360.73106299856715,2217
363.10232733257146,2306
365.47293866643247,2230
367.84289720831396,2146
370.2122031664593,2096
372.5808567491905,2206
374.9488581649083,2217
377.31620762209275,2136
379.6829053293021,2193
382.0489514951745,2273
384.4143463284262,2084
386.7790900378528,2039
389.14318283232853,1991
391.50662492080653,2069
393.86941651231916,2109
396.23155781597745,2190
398.5930490409713,2134
400.9538903965696,2139
403.3140820921202,2110
405.6736243370498,2166
408.03251734086336,2165
410.3907613131465,2079
412.74835646356166,2014
415.10530300185144,1976
417.4616011378372,2079
419.81725108141893,2088
422.1722530425758,2056
424.5266072313656,2058
426.880313857925,2047
429.2333731324701,1990
431.58578526529516,1988
433.9375504667738,2051
436.2886689473588,2043
438.63914091758113,2002
440.9889665880513,1951
443.33814616945835,1934
445.68667987257015,1982
448.03456790823395,2002
450.3818104873759,1969
452.72840782100013,1913
455.07436012019105,1921
457.41966759611057,1899
459.7643304600007,1837
462.10834892318155,1883
464.4517231970525,1957
466.79445349309174,1951
469.1365400228566,1964
471.4779829979826,1955
473.81878263018564,1994
476.15893913125876,2067
478.4984527130747,2250
480.8373235875855,2313
483.17555196682144,2083
485.5131380628919,2145
487.8500820879857,2235
490.1863842543697,2287
492.52204477439034,2319
494.8570638604725,2486
497.1914417251204,2866
499.52517858091653,3394
501.85827464052306,4090
504.19073011668036,4819
506.5225452222086,5416
508.85372017000566,5593
511.18425517304956,5517
513.514150444396,5999
515.8434061971808,6801
518.1720226446176,7293
520.4999999999999,7081
522.8273384766991,6596
525.1540382881666,6013
527.480099647932,5474
529.8055227696037,4268
532.1303078668694,3157
534.454455153496,2639
536.777964843328,2341
539.1008371502907,2227
541.4230722883866,2118
543.744670471698,2157
546.0656319143858,2125
548.3859568306899,2056
550.7056454349294,2009
553.0246979415016,2117
555.3431145648834,1974
557.6608955196306,1977
559.978041020377,1989
562.2945512818363,2054
564.6104265188006,2128
566.9256669461412,2018
569.2402727788082,2105
571.5542442318302,2005
573.8675815203156,1979
576.1802848594508,1992
578.4923544645015,1932
580.8037905508126,1934
583.114593333807,2067
585.4247630289875,1977
587.7342998519354,2049
590.0432040183106,2069
592.3514757438526,2031
594.6591152443794,2030
596.9661227357875,2046
599.2724984340531,1949
601.578242555231,1936
603.8833553154542,1946
606.1878369309362,1959
608.4916876179676,1970
610.7949075929192,2028
613.0974970722403,2003
615.3994562724587,1934
617.7007854101818,1952
620.0014847020951,1975
622.3015543649641,1925
624.6009946156324,1958
626.8998056710224,1970
629.1979877481361,2064
631.4955410640538,2014
633.7924658359349,1936
636.0887622810175,1956
638.3844306166192,1932
640.6794710601358,1983
642.9738838290426,1982
645.2676691408932,1986
647.5608272133207,1991
649.853358264037,1912
652.1452625108324,2053
654.4365401715764,1947
656.7271914642178,1994
659.0172166067838,1971
661.3066158173809,2032
663.5953893141935,2020
665.8835373154867,2036
668.1710600396028,2010
670.4579577049639,2014
672.7442305300709,1996
675.0298787335033,1917
677.3149025339197,1932
679.599302150058,1962
681.8830778007342,2015
684.1662297048437,2027
686.4487580813608,1991
688.7306631493387,1989
691.0119451279091,1911
693.2926042362834,2003
695.5726406937516,2001
697.8520547196814,1967
700.1308465335215,1916
702.4090163547982,1900
704.6865644031171,1906
706.9634908981619,1938
709.2397960596965,1959
711.5154801075631,1960
713.7905432616823,2017
716.0649857420548,2038
718.3388077687592,2014
720.612009561953,2006
722.8845913418733,2023
725.1565533288352,2001
727.427895743234,1987
729.6986188055427,2026
731.9687227363137,2085
734.238207756178,1958
736.5070740858458,1972
738.7753219461066,2039
741.0429515578281,1998
743.3099631419569,1978
745.5763569195191,2046
747.8421331116193,1988
750.1072919394409,1982
752.3718336242467,1981
754.6357583873777,1897
756.8990664502545,1998
759.1617580343765,1981
761.423833361321,1962
763.6852926527457,2028
765.9461361303862,2094
768.206364016058,1992
770.4659765316536,2124
772.7249738991469,2086
774.9833563405886,2113
777.2411240781092,2015
779.4982773339183,2034
781.7548163303044,2031
784.010741289634,2003
786.2660524343538,2169
788.5207499869881,2115
790.7748341701416,2031
793.0283052064964,2010
795.2811633188143,2138
797.5334087299362,2067
799.7850416627813,2056
802.0360623403484,2090
804.2864709857143,2072
806.5362678220353,2057
808.7854530725468,1985
811.0340269605625,2011
813.2819897094754,2052
815.5293415427581,2056
817.77608268396,1970
820.0222133567116,2013
822.2677337847211,1945
824.5126441917765,1892
826.7569448017433,1942
829.0006358385675,1938
831.2437175262731,2031
833.4861900889629,1949
835.7280537508192,1989
837.9693087361026,1966
840.2099552691533,1971
842.4499935743896,1985
844.689423876309,2024
846.9282463994886,1994
849.1664613685833,2045
851.4040690083276,2037
853.6410695435349,2000
855.877463199097,1968
858.1132501999847,1971
860.3484307712487,1959
862.5830051380175,2005
864.8169735254988,2010
867.0503361589791,2055
869.2830932638243,1957
871.5152450654786,1971
873.7467917894654,1996
875.9777336613873,2023
878.2080709069252,2075
880.4378037518389,2097
882.666932421968,2001
884.8954571432301,2051
887.1233781416219,2074
889.3506956432192,2030
891.5774098741766,2048
893.803521060728,2051
896.0290294291852,2097
898.2539352059397,2045
900.4782386174619,2043
902.7019398903011,2002
904.925039251085,2022
907.147536926521,2109
909.3694331433943,1992
911.59072812857,2047
913.8114221089921,2077
916.0315153116827,2146
918.2510079637437,2124
920.4699002923547,2077
922.6881925247761,2083
924.905884888345,2158
927.1229776104793,2012
929.3394709186747,2037
931.555365040506,2046
933.7706602036275,2033
935.9853566357709,2024
938.1994545647489,2082
940.4129542184515,2074
942.6258558248488,2061
944.8381596119883,2023
947.0498658079974,2135
949.2609746410825,2179
951.4714863395287,2165
953.6814011316998,2058
955.8907192460387,2122
958.0994409110671,2091
960.3075663553858,2057
962.5150958076741,2052
964.7220294966913,1999
966.928367651274,2010
969.1341105003388,2007
971.3392582728806,1956
973.5438111979742,1912
975.747769504772,1897
977.9511334225061,1918
980.153903180487,1926
982.3560790081052,1962
984.5576611348289,1890
986.7586497902058,1900
988.9590452038618,1899
991.158847605503,1856
993.3580572249133,1791
995.5566742919558,1743
997.7546990365728,1753
999.952131688785,1712
1002.1489724786926,1749
1004.3452216364743,1702
1006.5408793923874,1725
1008.7359459767691,1650
1010.9304216200343,1690
1013.1243065526781,1609
1015.3176010052733,1642
1017.510305208472,1628
1019.7024193930064,1561
1021.8939437896848,1661
1024.0848786293977,1607
1026.2752241431122,1522
1028.4649805618747,1569
1030.6541481168115,1579
1032.842727039127,1564
1035.0307175601051,1508
1037.2181199111074,1588
1039.4049343235752,1544
1041.591161029029,1560
1043.7768002590683,1570
1045.9618522453698,1461
1048.1463172196918,1608
1050.3301954138697,1554
1052.513487059818,1511
1054.69619238953,1548
1056.8783116350783,1522
1059.0598450286152,1563
1061.2407928023704,1510
1063.4211551886528,1531
1065.6009324198508,1558
1067.780124728432,1568
1069.9587323469414,1502
1072.1367555080046,1491
1074.314194444325,1508
1076.4910493886855,1478
1078.667320573947,1500
1080.843008233051,1494
1083.0181125990161,1424
1085.1926339049414,1434
1087.3665723840027,1486
1089.5399282694575,1421
1091.7127017946405,1444
1093.8848931929647,1542
1096.0565026979243,1485
1098.2275305430899,1460
1100.3979769621128,1462
1102.567842188722,1485
1104.737126456726,1434
1106.9058300000124,1436
1109.0739530525475,1409
1111.2414958483764,1451
1113.4084586216231,1443
1115.5748416064907,1440
1117.7406450372605,1420
1119.9058691482942,1468
1122.0705141740304,1465
1124.2345803489884,1435
1126.3980679077658,1483
1128.5609770850388,1481
1130.7233081155623,1488
1132.8850612341707,1435
1135.0462366757774,1408
1137.2068346753745,1465
1139.3668554680326,1394
1141.526299288901,1376
1143.68516637321,1416
1145.8434569562655,1529
1148.001171273455,1434
1150.158309560244,1421
1152.3148720521767,1426
1154.470858984876,1405
1156.626270594044,1477
1158.7811071154629,1435
1160.9353687849912,1418
1163.089055838569,1365
1165.242168512213,1400
1167.3947070420209,1448
1169.5466716641677,1424
1171.6980626149075,1443
1173.8488801305748,1336
1175.9991244475814,1440
1178.1487958024186,1382
1180.2978944316555,1326
1182.4464205719428,1403
1184.5943744600072,1356
1186.7417563326567,1413
1188.8885664267755,1351
1191.0348049793297,1407
1193.1804722273619,1359
1195.325568407995,1386
1197.4700937584303,1390
1199.614048515948,1387
1201.7574329179074,1422
1203.900247201746,1351
1206.042491604982,1352
1208.1841663652099,1391
1210.3252717201053,1404
1212.465807907422,1369
1214.6057751649923,1447
1216.7451737307279,1406
1218.8840038426192,1391
1221.0222657387353,1414
1223.1599596572241,1417
1225.2970858363137,1357
1227.4336445143094,1432
1229.5696359295966,1440
1231.705060320639,1455
1233.8399179259786,1428
1235.9742089842384,1413
1238.107933734118,1416
1240.2410924143974,1399
1242.373685263935,1385
1244.5057125216676,1363
1246.6371744266116,1366
1248.7680712178621,1381
1250.898403134593,1359
1253.028170416058,1402
1255.1573733015875,1368
1257.2860120305932,1350
1259.4140868425648,1371
1261.54159797707,1482
1263.6685456737569,1424
1265.7949301723515,1427
1267.9207517126597,1395
1270.046010534565,1427
1272.1707068780306,1459
1274.2948409830983,1410
1276.4184130898889,1446
1278.541423438603,1469
1280.6638722695184,1456
1282.785759822993,1376
1284.9070863394636,1456
1287.0278520594447,1390
1289.1480572235314,1352
1291.2677020723963,1389
1293.3867868467923,1413
1295.5053117875495,1429
1297.623277135579,1443
1299.740683131868,1442
1301.8575300174857,1412
1303.973818033578,1423
1306.0895474213703,1431
1308.2047184221678,1381
1310.3193312773528,1406
1312.4333862283888,1443
1314.5468835168163,1436
1316.659823384255,1491
1318.7722060724045,1472
1320.8840318230418,1470
1322.9953008780249,1378
1325.1060134792888,1447
1327.2161698688478,1445
1329.3257702887959,1453
1331.4348149813054,1503
1333.5433041886276,1547
1335.6512381530933,1526
1337.7586171171101,1418
1339.8654413231675,1447
1341.9717110138317,1436
1344.0774264317488,1476
1346.1825878196432,1456
1348.2871954203192,1439
1350.3912494766587,1487
1352.4947502316231,1514
1354.5976979282532,1447
1356.7000928096686,1482
1358.8019351190665,1407
1360.9032250997243,1448
1363.0039629949988,1448
1365.1041490483235,1483
1367.2037835032133,1453
1369.3028666032606,1506
1371.401398592137,1500
1373.4993797135926,1505
1375.5968102114575,1506
1377.6936903296396,1459
1379.7900203121262,1386
1381.8858004029835,1420
1383.9810308463561,1406
1386.075711886469,1424
1388.1698437676241,1411
1390.2634267342032,1412
1392.356461030667,1431
1394.4489469015557,1471
1396.5408845914872,1431
1398.6322743451592,1430
1400.7231164073469,1448
1402.813411022907,1517
1404.903158436773,1489
1406.9923588939578,1531
1409.0810126395531,1432
1411.1691199187303,1476
1413.2566809767386,1428
1415.343696058907,1481
1417.4301654106425,1449
1419.5160892774315,1371
1421.6014679048399,1430
1423.6863015385125,1450
1425.7705904241707,1473
1427.8543348076178,1443
1429.9375349347342,1430
1432.0201910514802,1404
1434.102303403894,1456
1436.1838722380944,1451
1438.2648978002767,1508
1440.3453803367174,1387
1442.4253200937692,1485
1444.5047173178677,1471
1446.5835722555234,1458
1448.6618851533285,1455
1450.739656257952,1455
1452.8168858161434,1445
1454.8935740747306,1486
1456.96972128062,1514
1459.045327680797,1412
1461.120393522327,1424
1463.1949190523528,1476
1465.2689045180973,1490
1467.3423501668608,1483
1469.415256246024,1445
1471.4876230030463,1423
1473.559450685465,1408
1475.6307395408976,1479
1477.7014898170391,1478
1479.771701761665,1477
1481.8413756226287,1449
1483.9105116478618,1514
1485.9791100853772,1406
1488.0471711832643,1447
1490.1146951896926,1387
1492.1816823529098,1407
1494.2481329212433,1408
1496.3140471430984,1457
1498.3794252669609,1419
1500.4442675413939,1451
1502.5085742150404,1430
1504.572345536622,1494
1506.6355817549388,1488
1508.6982831188702,1500
1510.7604498773744,1463
1512.8220822794883,1430
1514.8831805743293,1515
1516.9437450110909,1476
1519.003775839048,1484
1521.0632733075522,1508
1523.1222376660367,1458
1525.1806691640113,1450
1527.2385680510652,1480
1529.2959345768668,1456
1531.3527689911643,1444
1533.4090715437833,1459
1535.4648424846291,1470
1537.5200820636855,1460
1539.5747905310159,1494
1541.6289681367616,1412
1543.6826151311434,1439
1545.7357317644614,1398
1547.7883182870937,1452
1549.8403749494987,1494
1551.8919020022113,1489
1553.9428996958477,1503
1555.9933682811015,1465
1558.0433080087469,1493
1560.0927191296346,1524
1562.1416018946961,1512
1564.1899565549415,1491
1566.2377833614592,1496
1568.2850825654164,1482
1570.3318544180606,1506
1572.3780991707158,1446
1574.423817074788,1479
1576.4690083817595,1477
1578.5136733431923,1432
1580.5578122107272,1423
1582.601425236085,1455
1584.6445126710646,1400
1586.6870747675434,1431
1588.7291117774776,1443
1590.7706239529034,1450
1592.8116115459347,1419
1594.8520748087658,1415
1596.8920139936686,1451
1598.9314293529933,1422
1600.9703211391711,1441
1603.008689604711,1426
1605.0465350022005,1434
1607.0838575843068,1428
1609.1206576037753,1411
1611.1569353134305,1450
1613.1926909661765,1383
1615.2279248149953,1432
1617.2626371129481,1463
1619.2968281131757,1473
1621.3304980688963,1468
1623.3636472334088,1391
1625.39627586009,1418
1627.428384202396,1435
1629.459972513861,1454
1631.4910410480993,1473
1633.5215900588028,1412
1635.551619799744,1402
1637.5811305247717,1392
1639.6101224878166,1373
1641.6385959428862,1448
1643.6665511440683,1410
1645.693988345528,1405
1647.7209078015112,1496
1649.7473097663405,1399
1651.7731944944203,1444
1653.7985622402307,1441
1655.823413258333,1423
1657.847747803366,1407
1659.8715661300494,1438
1661.8948684931793,1401
1663.9176551476316,1415
1665.9399263483624,1451
1667.9616823504057,1443
1669.982923408873,1417
1672.0036497789574,1433
1674.0238617159293,1387
1676.043559475138,1431
1678.0627433120121,1381
1680.081413482059,1400
1682.0995702408654,1371
1684.117213844096,1421
1686.134344547495,1444
1688.1509626068864,1424
1690.1670682781705,1394
1692.182661817329,1446
1694.1977434804217,1378
1696.2123135235875,1434
1698.226372203043,1503
1700.2399197750851,1454
1702.2529564960905,1504
1704.2654826225112,1441
1706.277498410882,1443
1708.2890041178139,1469
1710.2999999999988,1453
1712.3104863142066,1422
1714.3204633172854,1485
1716.329931266163,1460
1718.3388904178469,1418
1720.3473410294214,1414
1722.3552833580516,1396
1724.3627176609807,1445
1726.3696441955308,1471
1728.3760632191033,1383
1730.3819749891782,1424
1732.3873797633146,1401
1734.3922777991502,1418
1736.3966693544012,1408
1738.4005546868639,1449
1740.4039340544127,1492
1742.406807715001,1439
1744.4091759266616,1430
1746.4110389475054,1425
1748.4123970357223,1392
1750.413250449582,1422
1752.4135994474318,1436
1754.4134442876993,1453
1756.4127852288902,1387
1758.4116225295893,1495
1760.4099564484595,1460
1762.407787244244,1376
1764.405115175764,1424
1766.4019405019203,1463
1768.3982634816916,1447
1770.3940843741357,1453
1772.3894034383907,1417
1774.3842209336717,1442
1776.378537119274,1387
1778.372352254571,1405
1780.3656665990156,1468
1782.3584804121397,1427
1784.3507939535534,1404
1786.3426074829463,1398
1788.3339212600863,1485
1790.3247355448211,1483
1792.3150505970766,1451
1794.3048666768573,1446
1796.2941840442477,1430
1798.2830029594106,1443
1800.2713236825884,1490
1802.2591464741004,1414
1804.2464715943465,1425
1806.2332993038058,1456
1808.2196298630352,1437
1810.2054635326708,1417
1812.190800573428,1470
1814.175641246101,1530
1816.1599858115628,1510
1818.1438345307652,1478
1820.127187664738,1469
1822.1100454745924,1354
1824.092408221516,1411
1826.0742761667766,1439
1828.055649571721,1424
1830.0365286977735,1430
1832.0169138064398,1483
1833.9968051593014,1441
1835.9762030180214,1489
1837.9551076443408,1429
1839.9335193000788,1458
1841.9114382471344,1430
1843.888864747485,1457
1845.8657990631878,1446
1847.842241456378,1387
1849.8181921892697,1453
1851.7936515241558,1421
1853.7686197234098,1437
1855.7430970494815,1443
1857.7170837649014,1461
1859.6905801322787,1399
1861.6635864143004,1434
1863.6361028737338,1423
1865.608129773424,1375
1867.5796673762961,1374
1869.5507159453537,1384
1871.521275743678,1416
1873.4913470344313,1475
1875.4609300808534,1456
1877.4300251462632,1452
1879.3986324940588,1462
1881.366752387717,1439
1883.3343850907936,1458
1885.3015308669228,1491
1887.268189979819,1437
1889.2343626932739,1423
1891.2000492711595,1378
1893.1652499774254,1433
1895.1299650761011,1463
1897.0941948312952,1462
1899.0579395071945,1434
1901.0211993680641,1431
1902.98397467825,1457
1904.9462657021745,1423
1906.9080727043415,1459
1908.869395949332,1471
1910.8302357018065,1379
1912.790592226504,1435
1914.7504657882428,1443
1916.7098566519212,1456
1918.6687650825133,1404
1920.6271913450764,1421
1922.5851357047422,1407
1924.5425984267245,1435
1926.499579776314,1470
1928.4560800188833,1463
1930.4120994198802,1477
1932.367638244833,1470
1934.32269675935,1457
1936.2772752291175,1439
1938.231373919899,1479
1940.1849930975404,1462
1942.1381330279637,1445
1944.0907939771696,1504
1946.0429762112412,1426
1947.9946799963363,1429
1949.9459055986945,1412
1951.896653284633,1454
1953.8469233205478,1414
1955.7967159729142,1363
1957.7460315082863,1411
1959.6948701932974,1423
1961.6432322946594,1450
1963.5911180791632,1418
1965.5385278136787,1415
1967.4854617651545,1395
1969.4319202006182,1389
1971.377903387176,1486
1973.3234115920136,1372
1975.268445082395,1389
1977.2130041256642,1468
1979.1570889892423,1422
1981.1006999406304,1425
1983.04383724741,1353
1984.986501177238,1380
1986.928691997853,1469
1988.8704099770712,1455
1990.811655382789,1413
1992.7524284829801,1394
1994.692729545698,1378
1996.6325588390755,1417
1998.5719166313224,1441
2000.5108031907307,1486
2002.4492187856677,1436
2004.387163684583,1479
2006.3246381560011,1410
2008.2616424685298,1434
2010.1981768908527,1440
2012.1342416917332,1385
2014.069837140014,1408
2016.0049635046162,1500
2017.9396210545406,1448
2019.8738100588666,1420
2021.8075307867502,1423
2023.740783507431,1489
2025.6735684902228,1432
2027.6058860045214,1417
2029.5377363198004,1410
2031.4691197056118,1377
2033.4000364315875,1406
2035.3304867674374,1450
2037.260470982952,1395
2039.189989347998,1365
2041.1190421325232,1442
2043.047629606554,1445
2044.9757520401945,1407
2046.9034097036288,1436
2048.8306028671195,1393
2050.7573318010086,1409
2052.683596775716,1415
2054.609398061742,1398
2056.5347359296647,1467
2058.4596106501403,1381
2060.384022493906,1438
2062.3079717317764,1378
2064.231458634646,1415
2066.1544834734873,1393
2068.077046519352,1442
2069.99914804337,1395
2071.9207883167524,1403
2073.8419676107865,1415
2075.7626861968406,1367
2077.6829443463607,1394
2079.6027423308715,1380
2081.522080421977,1415
2083.440958891362,1412
2085.359378010786,1385
2087.2773380520907,1364
2089.194839287196,1347
2091.111881988101,1351
2093.0284664268825,1391
2094.9445928756973,1351
2096.86026160678,1363
2098.775472892446,1425
2100.690227005088,1500
2102.604524217178,1429
2104.5183648012676,1450
2106.431749029985,1409
2108.34467717604,1429
2110.2571495122206,1429
2112.169166311393,1405
2114.080727846503,1406
2115.9918343905747,1365
2117.902486216711,1471
2119.8126835980956,1429
2121.722426807987,1405
2123.6317161197285,1468
2125.5405518067364,1448
2127.448934142509,1457
2129.356863400624,1415
2131.264339854737,1428
2133.1713637785815,1475
2135.077935445972,1486
2136.9840551308002,1435
2138.889723107037,1455
2140.7949396487334,1429
2142.699705030018,1438
2144.6040195250994,1410
2146.507883408264,1476
2148.4112969538774,1427
2150.3142604363848,1422
2152.2167741303097,1421
2154.1188383102535,1454
2156.0204532508997,1408
2157.9216192270064,1444
2159.822336513414,1457
2161.7226053850413,1439
2163.622426116884,1445
2165.5217989840185,1470
2167.4207242616,1501
2169.319202224862,1513
2171.2172331491165,1484
2173.1148173097563,1536
2175.0119549822507,1463
2176.90864644215,1500
2178.8048919650823,1510
2180.7006918267534,1450
2182.596046302952,1464
2184.4909556695407,1486
2186.3854202024645,1588
2188.279440177746,1550
2190.173015871487,1484
2192.066147559868,1460
2193.958835519149,1500
2195.851080025667,1504
2197.7428813558417,1456
2199.6342397861667,1535
2201.5251555932186,1528
2203.415629053651,1446
2205.3056604441986,1499
2207.19525004167,1525
2209.084398122958,1510
2210.9731049650327,1530
2212.861370844941,1482
2214.749196039812,1448
2216.636580826851,1531
2218.523525483344,1505
2220.410030286655,1535
2222.296095514226,1616
2224.1817214435805,1511
2226.066908352319,1580
2227.951656518121,1464
2229.835966218746,1491
2231.71983773203,1510
2233.6032713358913,1517
2235.486267308324,1532
2237.3688259274036,1537
2239.2509474712824,1510
2241.132632218193,1539
2243.013880446447,1533
2244.8946924344323,1509
2246.7750684606203,1546
2248.6550088035574,1516
2250.534513741871,1525
2252.413583554265,1529
2254.292218519526,1567
2256.170418916517,1444
2258.0481850241786,1460
2259.925517121534,1499
2261.8024154876825,1550
2263.678880401803,1561
2265.5549121431536,1568
2267.430510991071,1470
2269.305677224971,1469
2271.180411124348,1491
2273.0547129687766,1548
2274.9285830379076,1510
2276.8020216114737,1526
2278.6750289692845,1512
2280.5476053912294,1449
2282.4197511572766,1578
2284.2914665474727,1525
2286.162751841943,1592
2288.0336073208937,1577
2289.904033264608,1553
2291.774029953448,1566
2293.6435976678554,1550
2295.5127366883517,1495
2297.381447295534,1440
2299.2497297700825,1435
2301.1175843927526,1428
2302.9850114443825,1330
2304.852011205885,1339
2306.7185839582553,1323
2308.5847299825664,1308
2310.4504495599676,1341
2312.3157429716925,1329
2314.1806104990483,1272
2316.0450524234247,1240
2317.9090690262888,1235
2319.772660589186,1192
2321.635827393742,1251
2323.498569721661,1259
2325.3608878547248,1197
2327.2227820747967,1301
2329.0842526638157,1267
2330.945299903803,1291
2332.805924076857,1256
2334.6661254651535,1235
2336.525904350951,1261
2338.3852610165827,1195
2340.244195744464,1276
2342.102708817088,1238
2343.9608005170253,1230
2345.8184711269287,1204
2347.675720929526,1228
2349.532550207628,1265
2351.38895924412,1226
2353.24494832197,1218
2355.100517724223,1276
2356.955667734004,1278
2358.810398634514,1225
2360.664710709037,1236
2362.5186042409337,1245
2364.3720795136437,1245
2366.225136810686,1290
2368.0777764156583,1274
2369.929998612237,1284
2371.7818036841777,1195
2373.633191915315,1242
2375.484163589562,1208
2377.3347189909114,1265
2379.184858403434,1207
2381.03458211128,1270
2382.8838903986775,1241
2384.732783549936,1285
2386.5812618494406,1242
2388.4293255816588,1269
2390.2769750311327,1260
2392.1242104824883,1269
2393.971032220427,1224
2395.8174405297295,1212
2397.6634356952563,1250
2399.509018001947,1255
2401.3541877348193,1292
2403.1989451789705,1201
2405.043290619576,1260
2406.8872243418905,1223
2408.730746631247,1237
2410.5738577730594,1239
2412.4165580528183,1222
2414.258847756095,1235
2416.100727168537,1268
2417.9421965758734,1248
2419.783256263912,1225
2421.623906518538,1289
2423.4641476257157,1296
2425.303979871491,1313
2427.143403541984,1203
2428.9824189233977,1321
2430.821026302012,1285
2432.6592259641866,1228
2434.497018196361,1283
2436.33440328505,1294
2438.171381516851,1232
2440.00795317844,1287
2441.844118556569,1208
2443.6798779380724,1231
2445.5152316098606,1239
2447.3501798589255,1226
2449.1847229723357,1200
2451.0188612372403,1290
2452.8525949408663,1266
2454.6859243705203,1268
2456.518849813587,1255
2458.3513715575314,1193
2460.183489889895,1219
2462.015205098301,1261
2463.8465174704493,1241
2465.67742729412,1228
2467.5079348571717,1239
2469.338040447542,1256
2471.1677443532476,1216
2472.9970468623833,1266
2474.825948263123,1262
2476.6544488437207,1197
2478.482548892508,1208
2480.310248697896,1226
2482.137548548374,1216
2483.9644487325118,1189
2485.790949538956,1203
2487.617051256433,1219
2489.44275417375,1233
2491.26805857979,1267
2493.0929647635157,1237
2494.917473013971,1260
2496.741583620276,1269
2498.5652968716304,1230
2500.3886130573137,1238
2502.2115324666834,1228
2504.0340553891765,1226
2505.856182114308,1220
2507.6779129316733,1237
2509.499248130945,1199
2511.3201880018764,1272
2513.140732834298,1317
2514.9608829181198,1247
2516.780638543331,1290
2518.6,1259
2520.418967578273,1255
2522.237541568376,1238
2524.0557222606144,1240
2525.8735099453706,1236
2527.6909049131086,1281
2529.507907454368,1292
2531.32451785977,1268
2533.140736420014,1255
2534.9565634258774,1233
2536.771999168218,1219
2538.5870439379714,1267
2540.4016980261526,1178
2542.2159617238544,1222
2544.02983532225,1245
2545.8433191125914,1213
2547.656413386209,1275
2549.4691184345115,1206
2551.2814345489874,1255
2553.093362021204,1258
2554.904901142808,1240
2556.716052205523,1216
2558.526815501153,1208
2560.3371913215824,1247
2562.147179958771,1277
2563.956781704761,1267
2565.7659968516705,1215
2567.5748256916986,1231
2569.3832685171224,1245
2571.1913256202984,1196
2572.9989972936614,1206
2574.806283829725,1246
2576.613185521084,1238
2578.4197026604074,1250
2580.2258355404483,1220
2582.031584454035,1257
2583.836949694077,1223
2585.6419315535613,1257
2587.4465303255533,1263
2589.2507463032002,1272
2591.0545797797245,1246
2592.8580310484303,1230
2594.6611004026995,1251
2596.463788135992,1201
2598.266094541849,1282
2600.0680199138874,1249
2601.869564545807,1238
2603.670728731383,1233
2605.4715127644704,1238
2607.2719169390048,1280
2609.071941548998,1288
2610.8715868885433,1232
2612.670853251811,1269
2614.469740933052,1281
2616.268250226594,1249
2618.0663814268455,1262
2619.864134828292,1228
2621.6615107255006,1214
2623.458509413115,1289
2625.2551311858597,1276
2627.0513763385347,1236
2628.8472451660223,1168
2630.6427379632833,1233
2632.4378550253564,1271
2634.232596647359,1223
2636.026963124488,1220
2637.8209547520187,1209
2639.6145718253065,1299
2641.407814639785,1248
2643.200683490966,1291
2644.9931786744414,1249
2646.7853004858807,1228
2648.577049221034,1272
2650.3684251757277,1201
2652.1594286458712,1238
2653.9500599274484,1250
2655.740319316525,1225
2657.5302071092437,1245
2659.3197236018286,1243
2661.10886909058,1230
2662.8976438718782,1234
2664.686048242183,1246
2666.4740824980327,1258
2668.2617469360443,1217
2670.0490418529134,1232
2671.8359675454153,1211
2673.622524310403,1212
2675.408712444811,1271
2677.1945322456495,1254
2678.979984010009,1281
2680.76506803506,1198
2682.5497846180497,1216
2684.334134056306,1302
2686.1181166472343,1255
2687.9017326883213,1204
2689.6849824771293,1222
2691.4678663113013,1234
2693.2503844885596,1334
2695.032537306705,1247
2696.8143250636167,1227
2698.5957480572542,1194
2700.3768065856534,1233
2702.1575009469316,1236
2703.937831439283,1235
2705.717798360982,1252
2707.4974020103837,1209
2709.276642685917,1227
2711.055520686095,1235
2712.834036309506,1231
2714.612189854819,1245
2716.389981620782,1212
2718.1674119062204,1226
2719.944481010041,1242
2721.721189231226,1251
2723.4975368688415,1306
2725.273524222027,1268
2727.0491515900053,1212
2728.824419272075,1199
2730.5993275676146,1226
2732.3738767760838,1141
2734.148067197016,1196
2735.921899130031,1201
2737.6953728748194,1280
2739.468488731156,1236
2741.2412469988926,1294
2743.0136479779617,1234
2744.785691968372,1257
2746.5573792702116,1261
2748.3287101836504,1288
2750.099685008934,1298
2751.870304046388,1245
2753.640567596418,1221
2755.4104759595057,1275
2757.1800294362156,1205
2758.949228327187,1288
2760.7180729331412,1189
2762.486563554877,1237
2764.254700493272,1282
2766.022484049284,1215
2767.789914523947,1243
2769.5569922183786,1218
2771.3237174337705,1258
2773.090090471394,1222
2774.8561116326036,1249
2776.6217812188274,1271
2778.3870995315756,1245
2780.1520668724356,1193
2781.9166835430747,1255
2783.6809498452394,1244
2785.444866080754,1245
2787.2084325515225,1252
2788.971649559527,1244
2790.73451740683,1244
2792.4970363955713,1269
2794.2592068279705,1207
2796.0210290063264,1234
2797.7825032330147,1223
2799.543629810493,1226
2801.304409041296,1246
2803.0648412280366,1250
2804.8249266734088,1273
2806.5846656801846,1240
2808.344058551212,1306
2810.1031055894246,1252
2811.8618070978273,1255
2813.6201633795085,1226
2815.378174737636,1285
2817.1358414754536,1241
2818.893163896285,1262
2820.6501423035334,1234
2822.4067770006814,1228
2824.1630682912883,1270
2825.9190164789957,1236
2827.6746218675207,1264
2829.429884760661,1221
2831.184805462294,1280
2832.9393842763743,1276
2834.693621506936,1289
2836.4475174580916,1250
2838.201072434034,1280
2839.954286739034,1265
2841.707160677441,1268
2843.459694553685,1280
2845.2118886722724,1305
2846.96374333779,1262
2848.7152588549034,1220
2850.4664355283567,1259
2852.217273662973,1250
2853.9677735636546,1287
2855.7179355353833,1294
2857.4677598832186,1305
2859.217246912299,1218
2860.9663969278427,1229
2862.715210235146,1266
2864.4636871395846,1280
2866.211827946614,1265
2867.9596329617652,1232
2869.7071024906536,1254
2871.4542368389684,1207
2873.20103631248,1231
2874.947501217038,1247
2876.6936318585695,1274
2878.4394285430812,1190
2880.1848915766604,1242
2881.9300212654707,1307
2883.6748179157553,1238
2885.4192818338374,1259
2887.1634133261173,1293
2888.907212699077,1249
2890.6506802592744,1284
2892.393816313348,1250
2894.1366211680142,1273
2895.8790951300693,1235
2897.621238506388,1261
2899.363051603925,1276
2901.1045347297118,1219
2902.8456881908596,1259
2904.58651229456,1234
2906.327007348081,1251
2908.067173658772,1295
2909.8070115340597,1183
2911.5465212814497,1245
2913.285703208527,1286
2915.0245576229563,1300
2916.7630848324807,1310
2918.5012851449196,1266
2920.2391588681758,1271
2921.976706310227,1252
2923.7139277791334,1236
2925.4508235830313,1306
2927.187394030137,1252
2928.923639428745,1263
2930.6595600872306,1305
2932.395156314046,1287
2934.1304284177218,1247
2935.8653767068713,1308
2937.6000014901815,1272
2939.3343030764227,1216
2941.068281774442,1240
2942.8019378931644,1245
2944.5352717415976,1286
2946.2682836288236,1294
2948.0009738640065,1272
2949.7333427563885,1176
2951.465390615289,1294
2953.1971177501086,1248
2954.9285244703265,1307
2956.6596110855,1253
2958.3903779052657,1254
2960.1208252393385,1322
2961.8509533975125,1249
2963.5807626896617,1266
2965.3102534257378,1221
2967.0394259157715,1293
2968.768280469873,1266
2970.496817398232,1289
2972.2250370111146,1282
2973.952939618869,1267
2975.6805255319196,1293
2977.4077950607707,1292
2979.134748516006,1286
2980.861386208289,1331
2982.587708448359,1259
2984.313715547037,1317
2986.039407815222,1253
2987.764785563891,1264
2989.489849104102,1300
2991.2145987469908,1280
2992.9390348037705,1234
2994.6631575857346,1243
2996.3869674042576,1249
2998.1104645707887,1286
2999.83364939686,1189
3001.5565221940783,1244
3003.2790832741334,1225
3005.0013329487924,1232
3006.7232715298996,1201
3008.4448993293804,1242
3010.166216659239,1240
3011.887223831558,1244
3013.607921158498,1260
3015.3283089522993,1250
3017.0483875252826,1205
3018.7681571898443,1277
3020.4876182584626,1246
3022.2067710436927,1274
3023.9256158581707,1205
3025.644153014609,1215
3027.362382825801,1245
3029.0803056046193,1250
3030.797921664012,1195
3032.5152313170106,1262
3034.2322348767225,1188
3035.9489326563353,1250
3037.665324969115,1189
3039.3814121284063,1187
3041.097194447633,1240
3042.812672240299,1215
3044.5278458199855,1291
3046.2427155003525,1252
3047.9572815951406,1210
3049.671544418167,1245
3051.38550428333,1227
3053.0991615046073,1240
3054.812516396051,1284
3056.5255692717974,1256
3058.2383204460575,1218
3059.9507702331257,1227
3061.662918947372,1250
3063.3747669032446,1236
3065.0863144152736,1245
3066.7975617980674,1260
3068.508509366309,1267
3070.219157434767,1219
3071.9295063182844,1216
3073.639556331785,1227
3075.3493077902704,1236
3077.058761008821,1239
3078.7679163025964,1275
3080.476773986837,1262
3082.1853343768594,1250
3083.89359778806,1210
3085.6015645359153,1259
3087.3092349359786,1238
3089.016609303884,1263
3090.7236879553434,1233
3092.4304712061476,1213
3094.136959372166,1246
3095.843152769349,1200
3097.5490517137237,1238
3099.2546565213966,1204
3100.959967508554,1225
3102.66498499146,1234
3104.3697092864577,1262
3106.0741407099695,1245
3107.778279578498,1253
3109.482126208622,1244
3111.1856809170004,1271
3112.8889440203716,1217
3114.5919158355528,1215
3116.294596679439,1253
3117.996986869006,1253
3119.6990867213062,1248
3121.4008965534726,1239
3123.102416682717,1246
3124.803647426329,1258
3126.5045891016784,1200
3128.205242026213,1217
3129.90560651746,1238
3131.605682893025,1280
3133.3054714705922,1190
3135.0049725679282,1217
3136.7041865028714,1221
3138.4031135933465,1195
3140.101754157353,1240
3141.800108512971,1207
3143.498176978357,1226
3145.1959598717494,1194
3146.8934575114636,1258
3148.5906702158954,1255
3150.2875983035183,1186
3151.9842420928853,1194
3153.680601902627,1278
3155.376678051456,1240
3157.07247085816,1283
3158.767980641609,1230
3160.463207720748,1233
3162.158152414606,1258
3163.8528150422862,1212
3165.5471959229726,1217
3167.2412953759303,1261
3168.9351137204976,1255
3170.628651276098,1215
3172.3219083622307,1211
3174.014885298474,1227
3175.707582404485,1232
3177.4000000000005,1249
3179.092138404835,1219
3180.7839979388846,1235
3182.47557892212,1237
3184.166881674594,1259
3185.8579065164386,1246
3187.5486537678626,1212
3189.2391237491547,1250
3190.9293167806827,1233
3192.6192331828934,1166
3194.3088732763117,1190
3195.998237381542,1204
3197.687325819268,1242
3199.376138910251,1244
3201.064676975334,1240
3202.7529403354347,1191
3204.4409293115523,1196
3206.1286442247647,1230
3207.816085396229,1199
3209.5032531471825,1175
3211.190147798936,1195
3212.8767696728846,1212
3214.5631190905015,1191
3216.2491963733373,1174
3217.9350018430214,1201
3219.6205358212637,1152
3221.305798629851,1208
3222.990790590651,1213
3224.6755120256103,1167
3226.359963256751,1221
3228.0441446061795,1243
3229.7280563960758,1231
3231.411698948703,1254
3233.0950725863995,1234
3234.778177631587,1223
3236.461014406761,1260
3238.1435832345005,1277
3239.8258844374595,1240
3241.507918338374,1237
3243.1896852600576,1292
3244.8711855254023,1228
3246.552419457381,1259
3248.233387379042,1186
3249.914089613516,1227
3251.59452648401,1253
3253.274698313813,1228
3254.95460542629,1182
3256.6342481448855,1228
3258.313626793125,1213
3259.9927416946084,1214
3261.6715931730196,1141
3263.3501815521176,1186
3265.0285071557437,1179
3266.706570307815,1194
3268.3843713323286,1189
3270.0619105533615,1226
3271.739188295068,1213
3273.4162048816834,1189
3275.0929606375184,1262
3276.769455886966,1233
3278.445690954498,1202
3280.1216661646613,1236
3281.797381842087,1255
3283.4728383114807,1265
3285.1480358976296,1215
3286.8229749253996,1264
3288.4976557197333,1211
3290.172078605655,1225
3291.846243908266,1204
3293.5201519527463,1253
3295.193803064357,1206
3296.8671975684374,1183
3298.5403357904024,1224
3300.21321805575,1218
3301.8858446900567,1210
3303.558216018975,1172
3305.23033236824,1233
3306.9021940636603,1238
3308.57380143113,1227
3310.2451547966184,1191
3311.916254486174,1233
3313.5871008259246,1223
3315.2576941420766,1164
3316.9280347609147,1175
3318.5981230088046,1286
3320.2679592121895,1218
3321.9375436975924,1232
3323.606876791612,1220
3325.27595882093,1159
3326.944790112305,1202
3328.6133709925753,1261
3330.2817017886573,1212
3331.949782827547,1239
3333.617614436319,1230
3335.2851969421245,1251
3336.952530672199,1199
3338.619615953853,1232
3340.286453114475,1235
3341.9530424815357,1197
3343.619384382583,1229
3345.2854791452437,1200
3346.951327097224,1219
3348.6169285663073,1217
3350.2822838803577,1257
3351.947393367319,1161
3353.61225735521,1215
3355.2768761721345,1252
3356.9412501462693,1189
3358.605379605873,1251
3360.2692648792827,1245
3361.9329062949146,1187
3363.596304181263,1217
