CollectionTime,9/20/2024 11:42:17 AM
ExposureUsed,3
CalibratedSpectrum
-962.7078968117929,548
-959.9714848408522,577
-957.2358232597828,537
-954.5009119013725,522
-951.7667505983302,574
-949.0333391832855,575
-946.3006774887896,572
-943.5687653473143,596
-940.837602591253,554
-938.1071890529199,529
-935.3775245645503,552
-932.6486089583007,577
-929.9204420662485,607
-927.1930237203925,607
-924.4663537526524,578
-921.7404319948689,610
-919.0152582788041,611
-916.2908324361409,685
-913.5671542984834,600
-910.8442236973568,531
-908.1220404642074,541
-905.4006044304027,509
-902.679915427231,547
-899.959973285902,538
-897.2407778375464,548
-894.5223289132158,574
-891.8046263438832,531
-889.0876699604426,532
-886.3714595937089,569
-883.6559950744183,586
-880.9412762332282,555
-878.2273029007168,560
-875.5140749073835,533
-872.8015920836489,571
-870.0898542598545,528
-867.3788612662631,578
-864.6686129330585,639
-861.9591090903457,552
-859.2503495681506,536
-856.5423341964203,547
-853.8350628050229,574
-851.1285352237478,564
-848.4227512823054,618
-845.7177108103272,611
-843.0134136373656,542
-840.3098595928943,595
-837.6070485063082,597
-834.9049802069229,594
-832.2036545239757,577
-829.5030712866244,614
-826.8032303239481,592
-824.1041314649472,581
-821.4057745385428,519
-818.7081593735775,523
-816.0112857988148,574
-813.3151536429393,615
-810.6197627345566,579
-807.9251129021936,558
-805.2312039742981,663
-802.5380357792392,651
-799.8456081453069,658
-797.1539209007124,674
-794.462973873588,650
-791.772766891987,598
-789.083299783884,630
-786.3945723771743,583
-783.7065844996748,599
-781.0193359791231,545
-778.3328266431781,615
-775.6470563194197,587
-772.9620248353489,567
-770.2777320183878,568
-767.5941776958798,592
-764.9113616950891,591
-762.2292838432011,542
-759.5479439673222,515
-756.8673418944801,571
-754.1874774516235,637
-751.5083504656222,591
-748.8299607632671,560
-746.15230817127,594
-743.475392516264,595
-740.7992136248035,589
-738.1237713233636,569
-735.4490654383407,594
-732.7750957960521,570
-730.1018622227365,553
-727.4293645445534,555
-724.7576025875837,567
-722.0865761778291,557
-719.4162851412126,662
-716.7467293035781,657
-714.0779084906909,748
-711.409822528237,668
-708.7424712418238,622
-706.0758544569796,630
-703.4099719991541,645
-700.7448236937178,632
-698.0804093659622,631
-695.4167288411002,573
-692.7537819442656,593
-690.0915685005134,565
-687.4300883348199,588
-684.7693412720819,659
-682.1093271371178,660
-679.4500457546669,605
-676.7914969493897,599
-674.1336805458676,611
-671.4765963686034,670
-668.8202442420206,667
-666.1646239904642,655
-663.5097354382001,628
-660.8555784094151,607
-658.2021527282176,649
-655.5494582186366,634
-652.8974947046223,677
-650.2462620100463,644
-647.5957599587009,661
-644.9459883742998,683
-642.2969470804776,683
-639.6486359007902,614
-637.0010546587141,609
-634.3542031776476,650
-631.7080812809096,652
-629.0626887917401,631
-626.4180255333008,636
-623.7740913286734,724
-621.1308860008619,703
-618.4884093727904,666
-615.8466612673046,673
-613.2056415071715,650
-610.5653499150785,685
-607.9257863136347,640
-605.28695052537,706
-602.6488423727357,693
-600.0114616781036,700
-597.3748082637674,721
-594.7388819519412,748
-592.1036825647604,746
-589.4692099242818,724
-586.8354638524829,758
-584.2024441712624,829
-581.5701507024403,887
-578.9385832677575,993
-576.3077416888759,915
-573.6776257873787,824
-571.0482353847704,702
-568.4195703024757,677
-565.7916303618415,731
-563.164415384135,795
-560.5379251905453,754
-557.9121596021815,749
-555.2871184400748,720
-552.6628015251767,774
-550.0392086783606,716
-547.4163397204204,759
-544.794194472071,772
-542.1727727539491,752
-539.5520743866118,819
-536.9320991905377,800
-534.3128469861261,826
-531.6943175936979,845
-529.0765108334947,833
-526.4594265256793,938
-523.8430644903358,1085
-521.2274245474689,1269
-518.612506517005,1462
-515.9983102187913,1512
-513.3848354725959,1702
-510.77208209810846,1902
-508.16004991493924,2193
-505.5487387426199,2330
-502.9381484006032,2157
-500.3282787082628,2028
-497.71912948489364,1710
-495.1107005497117,1419
-492.5029917218539,1246
-489.8960028203786,1109
-487.28973366426493,1019
-484.68418407241325,915
-482.07935386364494,867
-479.47524285670266,853
-476.87185087025,892
-474.2691777228715,944
-471.66722323307334,919
-469.0659872192821,845
-466.4654694998459,840
-463.86566989303384,811
-461.26658821703614,846
-458.66822428996414,893
-456.07057792985,953
-453.4736489546475,955
-450.877437182231,952
-448.28194243039627,893
-445.68716451686,823
-443.09310325926003,818
-440.49975847515555,850
-437.9071299820263,912
-435.31521759727354,881
-432.72402113821954,874
-430.13354042210767,837
-427.5437752661022,943
-424.95472548728867,967
-422.36639090267386,977
-419.7787713291855,1063
-417.1918665836721,1097
-414.60567648290385,1033
-412.0202008435715,1017
-409.4354394822874,1048
-406.8513922155845,1091
-404.26805885991723,1057
-401.685439231661,1025
-399.103533147112,975
-396.522340422488,936
-393.9418608739278,926
-391.3620943174908,943
-388.7830405691583,933
-386.2046994448317,909
-383.6270707603344,872
-381.05015433141045,842
-378.473949973725,758
-375.8984575028645,799
-373.32367673433623,820
-370.74960748356875,826
-368.1762495659117,748
-365.60360279663576,779
-363.03166699093265,751
-360.4604419639154,707
-357.8899275306178,626
-355.32012350599507,605
-352.7510297049233,601
-350.1826459421999,576
-347.61497203254316,643
-345.04800779059235,641
-342.4817530309082,639
-339.91620756797226,710
-337.35137121618743,710
-334.7872437898774,702
-332.22382510328725,706
-329.66111497058273,720
-327.09911320585127,621
-324.53781962310075,625
-321.9772340362607,621
-319.4173562591816,678
-316.8581861056348,650
-314.2997233893127,740
-311.7419679238294,815
-309.1849195227194,783
-306.62857799943856,760
-304.0729431673641,758
-301.51801483979375,863
-298.963792829947,797
-296.41027695096386,746
-293.85746701590574,718
-291.3053628377552,721
-288.7539642294155,724
-286.2032710037115,808
-283.65328297338897,801
-281.1039999511146,768
-278.5554217494762,938
-276.007548180983,896
-273.4603790580651,844
-270.9139141930734,885
-268.3681533982807,1005
-265.8230964858798,1112
-263.27874326798565,1042
-260.7350935566336,995
-258.1921471637804,1060
-255.6499039013039,1228
-253.10836358100266,1130
-250.56752601459698,1050
-248.02739101372765,1108
-245.48795838995704,1044
-242.94922795476816,1136
-240.41119951956557,1120
-237.8738728956746,943
-235.33724789434166,1029
-232.80132432673452,1062
-230.2661020039418,1037
-227.73158073697357,1093
-225.19776033676033,1019
-222.66464061415422,1224
-220.1322213799284,1181
-217.60050244477725,1109
-215.06948361931552,1106
-212.53916471408013,1199
-210.00954553952818,1181
-207.48062590603843,1211
-204.9524056239104,1303
-202.4248845033651,1476
-199.8980623545441,1621
-197.37193898751036,1561
-194.84651421224817,1290
-192.32178783866232,1277
-189.79775967657952,1286
-187.27442953574644,1225
-184.7517972258321,1179
-182.2298625564256,1235
-179.7086253370378,1379
-177.18808537710026,1341
-174.66824248596583,1466
-172.14909647290835,1612
-169.6306471471229,1570
-167.11289431772548,1393
-164.59583779375328,1387
-162.07947738416453,1920
-159.5638128978386,2537
-157.04884414357605,2489
-154.53457093009854,2236
-152.02099306604828,1825
-149.50811035998936,1947
-146.99592262040665,2119
-144.48442965570587,1952
-141.97363127421409,2012
-139.46352728417958,1857
-136.95411749377126,1687
-134.44540171107985,1577
-131.93737974411636,1587
-129.43005140081357,1723
-126.92341648902493,2162
-124.41747481652521,2498
-121.91222619101006,2666
-119.40767042009657,2649
-116.90380731132257,2893
-114.40063667214702,3139
-111.8981583099503,3704
-109.3963720320337,4921
-106.89527764561933,6207
-104.39487495785067,6556
-101.89516377579241,6984
-99.39614390642998,8397
-96.89781515667039,14051
-94.40017733334128,19676
-91.90323024319173,20574
-89.40697369289148,18407
-86.91140748903172,15130
-84.41653143812482,10812
-81.92234534660395,9223
-79.42884902082358,9267
-76.93604226705907,9863
-74.4439248915071,12895
-71.95249670028534,15613
-69.46175749943245,17151
-66.97170709490854,14434
-64.48234529259423,12716
-61.99367189829195,11232
-59.50568671772464,12890
-57.01838955653636,14867
-54.53178022029283,17909
-52.045858514480074,23330
-49.560624244506016,26205
-47.07607721569923,30538
-44.59221723330904,28598
-42.10904410250669,26196
-39.62655762838392,28683
-37.14475761595372,37866
-34.66364387015028,37439
-32.18321619582866,40808
-29.70347439776515,43191
-27.224418280657005,37929
-24.74604764912317,39324
-22.26836230770266,49785
-19.7913620608565,65035
-17.315046712966478,65035
-14.83941606833514,65035
-12.36446993118659,65035
-9.89020810566592,65035
-7.416630395839093,65035
-4.94373660569363,65035
-2.471526539137585,65035
-6.821210263296962E-13,65035
2.47084320796705,65035
4.941003281093458,65035
7.410480415786196,65035
9.879274808531363,65035
12.347386655893956,65035
14.814816154518212,65035
17.28156350112681,65035
19.74762889252179,65035
22.21301252558385,65035
24.67771459727237,26373
27.141735304626195,9953
29.605074844762612,11974
32.06773341487792,11504
34.52971121224755,9290
36.99100843422559,5823
39.45162527824516,5878
41.91156194181792,6192
44.370818622535126,6150
46.82939551806646,5792
49.287292826160524,6308
51.74451074464503,6119
54.201049471426245,5903
56.65690920448981,6027
59.112090141899785,5624
61.56659248179983,5584
64.02041642241159,4557
66.4735621620365,3494
68.92602989905402,3691
71.37781983192338,3867
73.82893215918205,4346
76.27936707944684,3307
78.72912479141326,3201
81.17820549385567,3418
83.62660938562783,2649
86.07433666566146,2850
88.5213875329681,2593
90.96776218663751,2387
93.41346082583925,2497
95.85848364982041,3089
98.30283085790859,2454
100.7465026495089,2534
103.18949922410604,2589
105.63182078126385,2102
108.07346752062438,2131
110.51443964190923,2480
112.95473734491827,2609
115.39436082953114,2443
117.83331029570547,2352
120.27158594347827,2388
122.7091879729652,2381
125.1461165843615,2551
127.58237197794062,3042
130.01795435405518,3305
132.4528639131364,2972
134.88710085569494,2778
137.32066538231982,2730
139.75355769367923,2299
142.1857779905207,1712
144.61732647366978,1626
147.04820334403132,1693
149.47840880258934,2085
151.90794305040674,2414
154.33680628862487,2415
156.76499871846443,2207
159.19252054122433,2188
161.61937195828352,2149
164.04555317109896,1934
166.47106438120693,2120
168.89590579022217,2358
171.320077599839,2368
173.7435800118302,2704
176.16641322804742,3199
178.58857745042144,3111
181.01007288096173,2794
183.43089972175687,2818
185.85105817497413,2521
188.27054844285988,2549
190.6893707277394,2672
193.10752523201643,2898
195.5250121581745,3083
197.9418317087751,2886
200.3579840864594,2660
202.7734694939469,2921
205.18828813403627,2817
207.6024402096051,2822
210.01592592360964,2532
212.42874547908548,2693
214.84089907914665,2700
217.2523869269868,2671
219.66320922587727,2593
222.0733661791695,2604
224.48285799029293,2519
226.8916848627572,2644
229.29984700014882,2593
231.7073446061355,2619
234.11417788446204,2632
236.520347038953,2731
238.92585227351185,2809
241.33069379212054,2772
243.73487179884035,2860
246.1383864978112,2729
248.541238093252,2696
250.9434267894609,2742
253.34495279081432,2726
255.74581630176783,2775
258.1460175268563,2611
260.54555667069314,2685
262.9444339379703,2794
265.3426495334594,2908
267.7402036620107,2803
270.1370965285529,2722
272.53332833809407,2631
274.9288992957214,2498
277.32380960660055,2606
279.718059475976,2543
282.1116491091717,2480
284.5045787115897,2514
286.89684848871195,2558
289.2884586460981,2644
291.67940938938807,2550
294.0697009242996,2594
296.4593334566299,2563
298.84830719225477,2762
301.23662233712923,2854
303.6242790972866,2541
306.01127767884,2462
308.39761828798066,2478
310.78330113097934,2486
313.16832641418534,2350
315.5526943440269,2365
317.9364051270112,2474
320.3194589697242,2449
322.70185607883093,2290
325.0835966610754,2223
327.4646809232805,2403
329.8451090723478,2291
332.2248813152577,2164
334.6039978590701,2232
336.9824589109231,2306
339.36026467803447,2180
341.7374153677,2116
344.113911187295,2214
346.48975234427337,2294
348.8649390461686,2348
351.2394715005918,2223
353.61334991523415,2187
355.9865744978655,2107
358.35914545633375,2274
360.73106299856715,2231
363.10232733257146,2115
365.47293866643247,2151
367.84289720831396,2149
370.2122031664593,2058
372.5808567491905,2139
374.9488581649083,2129
377.31620762209275,2115
379.6829053293021,2094
382.0489514951745,2163
384.4143463284262,2049
386.7790900378528,1970
389.14318283232853,1925
391.50662492080653,2018
393.86941651231916,2034
396.23155781597745,2030
398.5930490409713,2086
400.9538903965696,1992
403.3140820921202,2044
405.6736243370498,2030
408.03251734086336,1996
410.3907613131465,2029
412.74835646356166,1984
415.10530300185144,1934
417.4616011378372,1918
419.81725108141893,2100
422.1722530425758,1984
424.5266072313656,1892
426.880313857925,2002
429.2333731324701,2005
431.58578526529516,1968
433.9375504667738,1933
436.2886689473588,1901
438.63914091758113,1922
440.9889665880513,1763
443.33814616945835,1895
445.68667987257015,1890
448.03456790823395,1949
450.3818104873759,1859
452.72840782100013,1869
455.07436012019105,1851
457.41966759611057,1749
459.7643304600007,1770
462.10834892318155,1800
464.4517231970525,1824
466.79445349309174,1868
469.1365400228566,1870
471.4779829979826,1881
473.81878263018564,1899
476.15893913125876,1947
478.4984527130747,2137
480.8373235875855,2128
483.17555196682144,2046
485.5131380628919,2054
487.8500820879857,2136
490.1863842543697,2164
492.52204477439034,2254
494.8570638604725,2459
497.1914417251204,2644
499.52517858091653,3140
501.85827464052306,3723
504.19073011668036,4296
506.5225452222086,4895
508.85372017000566,5058
511.18425517304956,5104
513.514150444396,5446
515.8434061971808,6449
518.1720226446176,6957
520.4999999999999,6697
522.8273384766991,6294
525.1540382881666,5766
527.480099647932,5085
529.8055227696037,4070
532.1303078668694,3080
534.454455153496,2539
536.777964843328,2264
539.1008371502907,2141
541.4230722883866,2049
543.744670471698,2068
546.0656319143858,2080
548.3859568306899,2041
550.7056454349294,2000
553.0246979415016,1927
555.3431145648834,1935
557.6608955196306,1909
559.978041020377,1918
562.2945512818363,2015
564.6104265188006,1942
566.9256669461412,1925
569.2402727788082,1978
571.5542442318302,1914
573.8675815203156,1957
576.1802848594508,1908
578.4923544645015,1993
580.8037905508126,1855
583.114593333807,1992
585.4247630289875,1900
587.7342998519354,1902
590.0432040183106,1975
592.3514757438526,1975
594.6591152443794,1945
596.9661227357875,1981
599.2724984340531,1911
601.578242555231,1880
603.8833553154542,1950
606.1878369309362,1904
608.4916876179676,1875
610.7949075929192,1968
613.0974970722403,1927
615.3994562724587,1929
617.7007854101818,1847
620.0014847020951,1893
622.3015543649641,1919
624.6009946156324,1869
626.8998056710224,1900
629.1979877481361,1961
631.4955410640538,1922
633.7924658359349,1891
636.0887622810175,1898
638.3844306166192,1916
640.6794710601358,1919
642.9738838290426,1930
645.2676691408932,1974
647.5608272133207,1956
649.853358264037,1926
652.1452625108324,1922
654.4365401715764,1982
656.7271914642178,1904
659.0172166067838,1948
661.3066158173809,1974
663.5953893141935,2010
665.8835373154867,1832
668.1710600396028,1897
670.4579577049639,1969
672.7442305300709,1966
675.0298787335033,1933
677.3149025339197,1866
679.599302150058,1840
681.8830778007342,1957
684.1662297048437,1931
686.4487580813608,1958
688.7306631493387,1918
691.0119451279091,1944
693.2926042362834,1865
695.5726406937516,1958
697.8520547196814,1866
700.1308465335215,1782
702.4090163547982,1747
704.6865644031171,1841
706.9634908981619,1897
709.2397960596965,1910
711.5154801075631,1977
713.7905432616823,1926
716.0649857420548,1921
718.3388077687592,1955
720.612009561953,1889
722.8845913418733,1873
725.1565533288352,1897
727.427895743234,2022
729.6986188055427,1956
731.9687227363137,1955
734.238207756178,1885
736.5070740858458,1883
738.7753219461066,1863
741.0429515578281,1935
743.3099631419569,1922
745.5763569195191,1948
747.8421331116193,1873
750.1072919394409,1872
752.3718336242467,1932
754.6357583873777,1935
756.8990664502545,1945
759.1617580343765,1931
761.423833361321,1977
763.6852926527457,1908
765.9461361303862,2011
768.206364016058,1898
770.4659765316536,2087
772.7249738991469,2118
774.9833563405886,2049
777.2411240781092,1955
779.4982773339183,1994
781.7548163303044,1996
784.010741289634,2027
786.2660524343538,2026
788.5207499869881,2037
790.7748341701416,2067
793.0283052064964,2096
795.2811633188143,2023
797.5334087299362,2017
799.7850416627813,1986
802.0360623403484,1930
804.2864709857143,2017
806.5362678220353,2108
808.7854530725468,2011
811.0340269605625,1997
813.2819897094754,1955
815.5293415427581,1999
817.77608268396,1946
820.0222133567116,1940
822.2677337847211,1916
824.5126441917765,1949
826.7569448017433,1880
829.0006358385675,1879
831.2437175262731,1889
833.4861900889629,1912
835.7280537508192,1873
837.9693087361026,1999
840.2099552691533,1889
842.4499935743896,1969
844.689423876309,2070
846.9282463994886,2005
849.1664613685833,1974
851.4040690083276,1977
853.6410695435349,1927
855.877463199097,2002
858.1132501999847,1954
860.3484307712487,1917
862.5830051380175,1923
864.8169735254988,1936
867.0503361589791,1935
869.2830932638243,1972
871.5152450654786,1942
873.7467917894654,2008
875.9777336613873,1987
878.2080709069252,2000
880.4378037518389,1967
882.666932421968,1948
884.8954571432301,1947
887.1233781416219,1951
889.3506956432192,2018
891.5774098741766,2015
893.803521060728,2028
896.0290294291852,1995
898.2539352059397,1979
900.4782386174619,1924
902.7019398903011,1952
904.925039251085,1978
907.147536926521,2031
909.3694331433943,1935
911.59072812857,2003
913.8114221089921,2030
916.0315153116827,2066
918.2510079637437,2061
920.4699002923547,2064
922.6881925247761,2007
924.905884888345,2047
927.1229776104793,2014
929.3394709186747,1941
931.555365040506,1978
933.7706602036275,1999
935.9853566357709,2010
938.1994545647489,2030
940.4129542184515,1948
942.6258558248488,2032
944.8381596119883,2044
947.0498658079974,2038
949.2609746410825,2072
951.4714863395287,2063
953.6814011316998,1992
955.8907192460387,2034
958.0994409110671,1996
960.3075663553858,2021
962.5150958076741,1982
964.7220294966913,1994
966.928367651274,1993
969.1341105003388,1932
971.3392582728806,1867
973.5438111979742,1878
975.747769504772,1882
977.9511334225061,1875
980.153903180487,1872
982.3560790081052,1874
984.5576611348289,1870
986.7586497902058,1840
988.9590452038618,1793
991.158847605503,1799
993.3580572249133,1817
995.5566742919558,1739
997.7546990365728,1749
999.952131688785,1742
1002.1489724786926,1727
1004.3452216364743,1668
1006.5408793923874,1616
1008.7359459767691,1628
1010.9304216200343,1651
1013.1243065526781,1625
1015.3176010052733,1652
1017.510305208472,1581
1019.7024193930064,1622
1021.8939437896848,1593
1024.0848786293977,1548
1026.2752241431122,1544
1028.4649805618747,1549
1030.6541481168115,1599
1032.842727039127,1577
1035.0307175601051,1538
1037.2181199111074,1510
1039.4049343235752,1560
1041.591161029029,1527
1043.7768002590683,1543
1045.9618522453698,1521
1048.1463172196918,1540
1050.3301954138697,1485
1052.513487059818,1487
1054.69619238953,1546
1056.8783116350783,1503
1059.0598450286152,1565
1061.2407928023704,1495
1063.4211551886528,1543
1065.6009324198508,1559
1067.780124728432,1482
1069.9587323469414,1410
1072.1367555080046,1491
1074.314194444325,1428
1076.4910493886855,1504
1078.667320573947,1447
1080.843008233051,1439
1083.0181125990161,1453
1085.1926339049414,1462
1087.3665723840027,1453
1089.5399282694575,1431
1091.7127017946405,1415
1093.8848931929647,1414
1096.0565026979243,1435
1098.2275305430899,1461
1100.3979769621128,1438
1102.567842188722,1380
1104.737126456726,1422
1106.9058300000124,1371
1109.0739530525475,1410
1111.2414958483764,1440
1113.4084586216231,1437
1115.5748416064907,1425
1117.7406450372605,1427
1119.9058691482942,1427
1122.0705141740304,1431
1124.2345803489884,1420
1126.3980679077658,1440
1128.5609770850388,1387
1130.7233081155623,1428
1132.8850612341707,1389
1135.0462366757774,1437
1137.2068346753745,1409
1139.3668554680326,1414
1141.526299288901,1385
1143.68516637321,1379
1145.8434569562655,1395
1148.001171273455,1444
1150.158309560244,1380
1152.3148720521767,1425
1154.470858984876,1429
1156.626270594044,1417
1158.7811071154629,1410
1160.9353687849912,1387
1163.089055838569,1344
1165.242168512213,1413
1167.3947070420209,1416
1169.5466716641677,1386
1171.6980626149075,1421
1173.8488801305748,1339
1175.9991244475814,1345
1178.1487958024186,1334
1180.2978944316555,1388
1182.4464205719428,1379
1184.5943744600072,1402
1186.7417563326567,1343
1188.8885664267755,1411
1191.0348049793297,1413
1193.1804722273619,1357
1195.325568407995,1379
1197.4700937584303,1370
1199.614048515948,1407
1201.7574329179074,1364
1203.900247201746,1297
1206.042491604982,1340
1208.1841663652099,1371
1210.3252717201053,1378
1212.465807907422,1359
1214.6057751649923,1420
1216.7451737307279,1447
1218.8840038426192,1405
1221.0222657387353,1414
1223.1599596572241,1433
1225.2970858363137,1429
1227.4336445143094,1395
1229.5696359295966,1492
1231.705060320639,1400
1233.8399179259786,1430
1235.9742089842384,1458
1238.107933734118,1425
1240.2410924143974,1386
1242.373685263935,1353
1244.5057125216676,1385
1246.6371744266116,1340
1248.7680712178621,1357
1250.898403134593,1378
1253.028170416058,1413
1255.1573733015875,1390
1257.2860120305932,1370
1259.4140868425648,1429
1261.54159797707,1390
1263.6685456737569,1458
1265.7949301723515,1456
1267.9207517126597,1476
1270.046010534565,1391
1272.1707068780306,1398
1274.2948409830983,1424
1276.4184130898889,1449
1278.541423438603,1486
1280.6638722695184,1400
1282.785759822993,1360
1284.9070863394636,1381
1287.0278520594447,1447
1289.1480572235314,1427
1291.2677020723963,1423
1293.3867868467923,1454
1295.5053117875495,1447
1297.623277135579,1336
1299.740683131868,1491
1301.8575300174857,1436
1303.973818033578,1471
1306.0895474213703,1407
1308.2047184221678,1431
1310.3193312773528,1445
1312.4333862283888,1458
1314.5468835168163,1433
1316.659823384255,1478
1318.7722060724045,1485
1320.8840318230418,1511
1322.9953008780249,1439
1325.1060134792888,1483
1327.2161698688478,1454
1329.3257702887959,1364
1331.4348149813054,1503
1333.5433041886276,1530
1335.6512381530933,1487
1337.7586171171101,1407
1339.8654413231675,1413
1341.9717110138317,1454
1344.0774264317488,1442
1346.1825878196432,1477
1348.2871954203192,1453
1350.3912494766587,1450
1352.4947502316231,1427
1354.5976979282532,1454
1356.7000928096686,1481
1358.8019351190665,1487
1360.9032250997243,1357
1363.0039629949988,1420
1365.1041490483235,1460
1367.2037835032133,1434
1369.3028666032606,1471
1371.401398592137,1543
1373.4993797135926,1528
1375.5968102114575,1419
1377.6936903296396,1428
1379.7900203121262,1436
1381.8858004029835,1413
1383.9810308463561,1388
1386.075711886469,1457
1388.1698437676241,1444
1390.2634267342032,1372
1392.356461030667,1482
1394.4489469015557,1444
1396.5408845914872,1435
1398.6322743451592,1458
1400.7231164073469,1449
1402.813411022907,1426
1404.903158436773,1447
1406.9923588939578,1481
1409.0810126395531,1422
1411.1691199187303,1425
1413.2566809767386,1481
1415.343696058907,1428
1417.4301654106425,1418
1419.5160892774315,1522
1421.6014679048399,1474
1423.6863015385125,1503
1425.7705904241707,1453
1427.8543348076178,1383
1429.9375349347342,1458
1432.0201910514802,1479
1434.102303403894,1413
1436.1838722380944,1442
1438.2648978002767,1453
1440.3453803367174,1422
1442.4253200937692,1507
1444.5047173178677,1444
1446.5835722555234,1421
1448.6618851533285,1525
1450.739656257952,1443
1452.8168858161434,1503
1454.8935740747306,1534
1456.96972128062,1443
1459.045327680797,1492
1461.120393522327,1467
1463.1949190523528,1454
1465.2689045180973,1451
1467.3423501668608,1475
1469.415256246024,1455
1471.4876230030463,1451
1473.559450685465,1418
1475.6307395408976,1453
1477.7014898170391,1459
1479.771701761665,1463
1481.8413756226287,1413
1483.9105116478618,1453
1485.9791100853772,1427
1488.0471711832643,1450
1490.1146951896926,1434
1492.1816823529098,1414
1494.2481329212433,1450
1496.3140471430984,1423
1498.3794252669609,1402
1500.4442675413939,1499
1502.5085742150404,1430
1504.572345536622,1476
1506.6355817549388,1510
1508.6982831188702,1521
1510.7604498773744,1410
1512.8220822794883,1456
1514.8831805743293,1456
1516.9437450110909,1446
1519.003775839048,1464
1521.0632733075522,1401
1523.1222376660367,1440
1525.1806691640113,1441
1527.2385680510652,1439
1529.2959345768668,1453
1531.3527689911643,1424
1533.4090715437833,1507
1535.4648424846291,1451
1537.5200820636855,1503
1539.5747905310159,1415
1541.6289681367616,1503
1543.6826151311434,1448
1545.7357317644614,1545
1547.7883182870937,1493
1549.8403749494987,1516
1551.8919020022113,1471
1553.9428996958477,1580
1555.9933682811015,1519
1558.0433080087469,1481
1560.0927191296346,1519
1562.1416018946961,1498
1564.1899565549415,1514
1566.2377833614592,1489
1568.2850825654164,1501
1570.3318544180606,1503
1572.3780991707158,1439
1574.423817074788,1469
1576.4690083817595,1562
1578.5136733431923,1458
1580.5578122107272,1501
1582.601425236085,1467
1584.6445126710646,1439
1586.6870747675434,1463
1588.7291117774776,1458
1590.7706239529034,1383
1592.8116115459347,1503
1594.8520748087658,1466
1596.8920139936686,1434
1598.9314293529933,1433
1600.9703211391711,1430
1603.008689604711,1506
1605.0465350022005,1414
1607.0838575843068,1463
1609.1206576037753,1384
1611.1569353134305,1389
1613.1926909661765,1471
1615.2279248149953,1401
1617.2626371129481,1397
1619.2968281131757,1384
1621.3304980688963,1408
1623.3636472334088,1370
1625.39627586009,1449
1627.428384202396,1410
1629.459972513861,1460
1631.4910410480993,1382
1633.5215900588028,1348
1635.551619799744,1410
1637.5811305247717,1459
1639.6101224878166,1367
1641.6385959428862,1407
1643.6665511440683,1394
1645.693988345528,1439
1647.7209078015112,1362
1649.7473097663405,1451
1651.7731944944203,1433
1653.7985622402307,1432
1655.823413258333,1441
1657.847747803366,1397
1659.8715661300494,1381
1661.8948684931793,1420
1663.9176551476316,1376
1665.9399263483624,1413
1667.9616823504057,1348
1669.982923408873,1371
1672.0036497789574,1322
1674.0238617159293,1313
1676.043559475138,1417
1678.0627433120121,1412
1680.081413482059,1384
1682.0995702408654,1370
1684.117213844096,1443
1686.134344547495,1371
1688.1509626068864,1329
1690.1670682781705,1408
1692.182661817329,1395
1694.1977434804217,1381
1696.2123135235875,1374
1698.226372203043,1391
1700.2399197750851,1401
1702.2529564960905,1428
1704.2654826225112,1380
1706.277498410882,1413
1708.2890041178139,1373
1710.2999999999988,1389
1712.3104863142066,1383
1714.3204633172854,1372
1716.329931266163,1427
1718.3388904178469,1396
1720.3473410294214,1381
1722.3552833580516,1437
1724.3627176609807,1369
1726.3696441955308,1435
1728.3760632191033,1424
1730.3819749891782,1375
1732.3873797633146,1391
1734.3922777991502,1410
1736.3966693544012,1392
1738.4005546868639,1408
1740.4039340544127,1415
1742.406807715001,1386
1744.4091759266616,1441
1746.4110389475054,1411
1748.4123970357223,1386
1750.413250449582,1411
1752.4135994474318,1452
1754.4134442876993,1434
1756.4127852288902,1371
1758.4116225295893,1362
1760.4099564484595,1443
1762.407787244244,1441
1764.405115175764,1428
1766.4019405019203,1437
1768.3982634816916,1410
1770.3940843741357,1427
1772.3894034383907,1399
1774.3842209336717,1401
1776.378537119274,1381
1778.372352254571,1366
1780.3656665990156,1373
1782.3584804121397,1363
1784.3507939535534,1409
1786.3426074829463,1428
1788.3339212600863,1415
1790.3247355448211,1465
1792.3150505970766,1436
1794.3048666768573,1377
1796.2941840442477,1400
1798.2830029594106,1431
1800.2713236825884,1435
1802.2591464741004,1411
1804.2464715943465,1416
1806.2332993038058,1361
1808.2196298630352,1442
1810.2054635326708,1455
1812.190800573428,1422
1814.175641246101,1367
1816.1599858115628,1425
1818.1438345307652,1457
1820.127187664738,1457
1822.1100454745924,1373
1824.092408221516,1342
1826.0742761667766,1391
1828.055649571721,1431
1830.0365286977735,1415
1832.0169138064398,1405
1833.9968051593014,1457
1835.9762030180214,1481
1837.9551076443408,1463
1839.9335193000788,1390
1841.9114382471344,1362
1843.888864747485,1379
1845.8657990631878,1404
1847.842241456378,1386
1849.8181921892697,1387
1851.7936515241558,1397
1853.7686197234098,1416
1855.7430970494815,1394
1857.7170837649014,1370
1859.6905801322787,1380
1861.6635864143004,1406
1863.6361028737338,1420
1865.608129773424,1403
1867.5796673762961,1404
1869.5507159453537,1414
1871.521275743678,1408
1873.4913470344313,1364
1875.4609300808534,1440
1877.4300251462632,1383
1879.3986324940588,1460
1881.366752387717,1450
1883.3343850907936,1395
1885.3015308669228,1413
1887.268189979819,1447
1889.2343626932739,1412
1891.2000492711595,1470
1893.1652499774254,1455
1895.1299650761011,1456
1897.0941948312952,1385
1899.0579395071945,1364
1901.0211993680641,1453
1902.98397467825,1421
1904.9462657021745,1395
1906.9080727043415,1399
1908.869395949332,1424
1910.8302357018065,1464
1912.790592226504,1393
1914.7504657882428,1424
1916.7098566519212,1399
1918.6687650825133,1405
1920.6271913450764,1383
1922.5851357047422,1411
1924.5425984267245,1355
1926.499579776314,1401
1928.4560800188833,1441
1930.4120994198802,1461
1932.367638244833,1396
1934.32269675935,1461
1936.2772752291175,1378
1938.231373919899,1408
1940.1849930975404,1374
1942.1381330279637,1357
1944.0907939771696,1415
1946.0429762112412,1424
1947.9946799963363,1337
1949.9459055986945,1307
1951.896653284633,1388
1953.8469233205478,1371
1955.7967159729142,1349
1957.7460315082863,1377
1959.6948701932974,1372
1961.6432322946594,1431
1963.5911180791632,1357
1965.5385278136787,1427
1967.4854617651545,1371
1969.4319202006182,1400
1971.377903387176,1441
1973.3234115920136,1411
1975.268445082395,1391
1977.2130041256642,1433
1979.1570889892423,1385
1981.1006999406304,1408
1983.04383724741,1392
1984.986501177238,1396
1986.928691997853,1446
1988.8704099770712,1394
1990.811655382789,1370
1992.7524284829801,1371
1994.692729545698,1396
1996.6325588390755,1478
1998.5719166313224,1423
2000.5108031907307,1389
2002.4492187856677,1412
2004.387163684583,1394
2006.3246381560011,1366
2008.2616424685298,1398
2010.1981768908527,1408
2012.1342416917332,1397
2014.069837140014,1400
2016.0049635046162,1381
2017.9396210545406,1407
2019.8738100588666,1357
2021.8075307867502,1394
2023.740783507431,1359
2025.6735684902228,1435
2027.6058860045214,1375
2029.5377363198004,1409
2031.4691197056118,1415
2033.4000364315875,1430
2035.3304867674374,1391
2037.260470982952,1376
2039.189989347998,1407
2041.1190421325232,1415
2043.047629606554,1422
2044.9757520401945,1398
2046.9034097036288,1418
2048.8306028671195,1371
2050.7573318010086,1416
2052.683596775716,1399
2054.609398061742,1424
2056.5347359296647,1369
2058.4596106501403,1374
2060.384022493906,1433
2062.3079717317764,1392
2064.231458634646,1374
2066.1544834734873,1444
2068.077046519352,1349
2069.99914804337,1414
2071.9207883167524,1389
2073.8419676107865,1439
2075.7626861968406,1358
2077.6829443463607,1356
2079.6027423308715,1374
2081.522080421977,1397
2083.440958891362,1379
2085.359378010786,1307
2087.2773380520907,1372
2089.194839287196,1394
2091.111881988101,1397
2093.0284664268825,1390
2094.9445928756973,1378
2096.86026160678,1433
2098.775472892446,1427
2100.690227005088,1351
2102.604524217178,1411
2104.5183648012676,1388
2106.431749029985,1401
2108.34467717604,1443
2110.2571495122206,1357
2112.169166311393,1394
2114.080727846503,1373
2115.9918343905747,1399
2117.902486216711,1375
2119.8126835980956,1373
2121.722426807987,1364
2123.6317161197285,1440
2125.5405518067364,1403
2127.448934142509,1417
2129.356863400624,1467
2131.264339854737,1430
2133.1713637785815,1420
2135.077935445972,1415
2136.9840551308002,1450
2138.889723107037,1445
2140.7949396487334,1489
2142.699705030018,1407
2144.6040195250994,1367
2146.507883408264,1361
2148.4112969538774,1400
2150.3142604363848,1445
2152.2167741303097,1438
2154.1188383102535,1451
2156.0204532508997,1438
2157.9216192270064,1500
2159.822336513414,1419
2161.7226053850413,1471
2163.622426116884,1461
2165.5217989840185,1485
2167.4207242616,1438
2169.319202224862,1490
2171.2172331491165,1476
2173.1148173097563,1425
2175.0119549822507,1429
2176.90864644215,1436
2178.8048919650823,1448
2180.7006918267534,1450
2182.596046302952,1434
2184.4909556695407,1506
2186.3854202024645,1452
2188.279440177746,1496
2190.173015871487,1475
2192.066147559868,1483
2193.958835519149,1458
2195.851080025667,1449
2197.7428813558417,1448
2199.6342397861667,1467
2201.5251555932186,1496
2203.415629053651,1419
2205.3056604441986,1433
2207.19525004167,1488
2209.084398122958,1509
2210.9731049650327,1551
2212.861370844941,1504
2214.749196039812,1491
2216.636580826851,1468
2218.523525483344,1488
2220.410030286655,1511
2222.296095514226,1478
2224.1817214435805,1515
2226.066908352319,1543
2227.951656518121,1426
2229.835966218746,1466
2231.71983773203,1495
2233.6032713358913,1459
2235.486267308324,1473
2237.3688259274036,1483
2239.2509474712824,1408
2241.132632218193,1484
2243.013880446447,1404
2244.8946924344323,1490
2246.7750684606203,1448
2248.6550088035574,1501
2250.534513741871,1542
2252.413583554265,1464
2254.292218519526,1449
2256.170418916517,1477
2258.0481850241786,1518
2259.925517121534,1464
2261.8024154876825,1478
2263.678880401803,1428
2265.5549121431536,1437
2267.430510991071,1478
2269.305677224971,1479
2271.180411124348,1406
2273.0547129687766,1469
2274.9285830379076,1435
2276.8020216114737,1395
2278.6750289692845,1416
2280.5476053912294,1476
2282.4197511572766,1535
2284.2914665474727,1492
2286.162751841943,1523
2288.0336073208937,1550
2289.904033264608,1527
2291.774029953448,1552
2293.6435976678554,1493
2295.5127366883517,1442
2297.381447295534,1358
2299.2497297700825,1409
2301.1175843927526,1382
2302.9850114443825,1373
2304.852011205885,1240
2306.7185839582553,1284
2308.5847299825664,1277
2310.4504495599676,1260
2312.3157429716925,1288
2314.1806104990483,1333
2316.0450524234247,1229
2317.9090690262888,1216
2319.772660589186,1237
2321.635827393742,1223
2323.498569721661,1274
2325.3608878547248,1202
2327.2227820747967,1247
2329.0842526638157,1222
2330.945299903803,1234
2332.805924076857,1237
2334.6661254651535,1241
2336.525904350951,1190
2338.3852610165827,1231
2340.244195744464,1222
2342.102708817088,1176
2343.9608005170253,1203
2345.8184711269287,1199
2347.675720929526,1202
2349.532550207628,1198
2351.38895924412,1220
2353.24494832197,1212
2355.100517724223,1174
2356.955667734004,1180
2358.810398634514,1194
2360.664710709037,1208
2362.5186042409337,1277
2364.3720795136437,1207
2366.225136810686,1233
2368.0777764156583,1217
2369.929998612237,1198
2371.7818036841777,1227
2373.633191915315,1231
2375.484163589562,1198
2377.3347189909114,1243
2379.184858403434,1240
2381.03458211128,1209
2382.8838903986775,1191
2384.732783549936,1248
2386.5812618494406,1202
2388.4293255816588,1212
2390.2769750311327,1189
2392.1242104824883,1207
2393.971032220427,1229
2395.8174405297295,1270
2397.6634356952563,1217
2399.509018001947,1203
2401.3541877348193,1213
2403.1989451789705,1265
2405.043290619576,1252
2406.8872243418905,1255
2408.730746631247,1163
2410.5738577730594,1227
2412.4165580528183,1227
2414.258847756095,1203
2416.100727168537,1236
2417.9421965758734,1200
2419.783256263912,1252
2421.623906518538,1179
2423.4641476257157,1212
2425.303979871491,1189
2427.143403541984,1216
2428.9824189233977,1234
2430.821026302012,1238
2432.6592259641866,1210
2434.497018196361,1255
2436.33440328505,1230
2438.171381516851,1232
2440.00795317844,1217
2441.844118556569,1207
2443.6798779380724,1196
2445.5152316098606,1267
2447.3501798589255,1233
2449.1847229723357,1268
2451.0188612372403,1223
2452.8525949408663,1222
2454.6859243705203,1232
2456.518849813587,1245
2458.3513715575314,1251
2460.183489889895,1238
2462.015205098301,1252
2463.8465174704493,1233
2465.67742729412,1193
2467.5079348571717,1217
2469.338040447542,1219
2471.1677443532476,1200
2472.9970468623833,1222
2474.825948263123,1201
2476.6544488437207,1182
2478.482548892508,1246
2480.310248697896,1213
2482.137548548374,1253
2483.9644487325118,1176
2485.790949538956,1187
2487.617051256433,1211
2489.44275417375,1249
2491.26805857979,1248
2493.0929647635157,1173
2494.917473013971,1217
2496.741583620276,1204
2498.5652968716304,1163
2500.3886130573137,1253
2502.2115324666834,1220
2504.0340553891765,1269
2505.856182114308,1248
2507.6779129316733,1176
2509.499248130945,1218
2511.3201880018764,1259
2513.140732834298,1236
2514.9608829181198,1244
2516.780638543331,1201
2518.6,1201
2520.418967578273,1205
2522.237541568376,1236
2524.0557222606144,1167
2525.8735099453706,1212
2527.6909049131086,1259
2529.507907454368,1216
2531.32451785977,1176
2533.140736420014,1184
2534.9565634258774,1188
2536.771999168218,1202
2538.5870439379714,1221
2540.4016980261526,1216
2542.2159617238544,1161
2544.02983532225,1216
2545.8433191125914,1208
2547.656413386209,1245
2549.4691184345115,1302
2551.2814345489874,1196
2553.093362021204,1200
2554.904901142808,1215
2556.716052205523,1234
2558.526815501153,1231
2560.3371913215824,1204
2562.147179958771,1250
2563.956781704761,1202
2565.7659968516705,1173
2567.5748256916986,1229
2569.3832685171224,1165
2571.1913256202984,1183
2572.9989972936614,1178
2574.806283829725,1178
2576.613185521084,1208
2578.4197026604074,1157
2580.2258355404483,1228
2582.031584454035,1200
2583.836949694077,1212
2585.6419315535613,1239
2587.4465303255533,1211
2589.2507463032002,1231
2591.0545797797245,1233
2592.8580310484303,1216
2594.6611004026995,1219
2596.463788135992,1174
2598.266094541849,1191
2600.0680199138874,1211
2601.869564545807,1183
2603.670728731383,1201
2605.4715127644704,1187
2607.2719169390048,1176
2609.071941548998,1176
2610.8715868885433,1253
2612.670853251811,1198
2614.469740933052,1212
2616.268250226594,1299
2618.0663814268455,1258
2619.864134828292,1232
2621.6615107255006,1276
2623.458509413115,1199
2625.2551311858597,1214
2627.0513763385347,1216
2628.8472451660223,1198
2630.6427379632833,1230
2632.4378550253564,1216
2634.232596647359,1204
2636.026963124488,1207
2637.8209547520187,1223
2639.6145718253065,1247
2641.407814639785,1242
2643.200683490966,1296
2644.9931786744414,1272
2646.7853004858807,1175
2648.577049221034,1259
2650.3684251757277,1222
2652.1594286458712,1215
2653.9500599274484,1182
2655.740319316525,1183
2657.5302071092437,1228
2659.3197236018286,1209
2661.10886909058,1245
2662.8976438718782,1231
2664.686048242183,1259
2666.4740824980327,1193
2668.2617469360443,1229
2670.0490418529134,1229
2671.8359675454153,1244
2673.622524310403,1249
2675.408712444811,1244
2677.1945322456495,1183
2678.979984010009,1214
2680.76506803506,1242
2682.5497846180497,1155
2684.334134056306,1231
2686.1181166472343,1192
2687.9017326883213,1198
2689.6849824771293,1218
2691.4678663113013,1244
2693.2503844885596,1221
2695.032537306705,1220
2696.8143250636167,1253
2698.5957480572542,1244
2700.3768065856534,1205
2702.1575009469316,1279
2703.937831439283,1249
2705.717798360982,1191
2707.4974020103837,1131
2709.276642685917,1157
2711.055520686095,1224
2712.834036309506,1219
2714.612189854819,1269
2716.389981620782,1269
2718.1674119062204,1253
2719.944481010041,1160
2721.721189231226,1191
2723.4975368688415,1289
2725.273524222027,1277
2727.0491515900053,1242
2728.824419272075,1248
2730.5993275676146,1278
2732.3738767760838,1261
2734.148067197016,1244
2735.921899130031,1181
2737.6953728748194,1240
2739.468488731156,1185
2741.2412469988926,1231
2743.0136479779617,1194
2744.785691968372,1240
2746.5573792702116,1165
2748.3287101836504,1219
2750.099685008934,1224
2751.870304046388,1180
2753.640567596418,1262
2755.4104759595057,1190
2757.1800294362156,1208
2758.949228327187,1221
2760.7180729331412,1202
2762.486563554877,1256
2764.254700493272,1250
2766.022484049284,1207
2767.789914523947,1211
2769.5569922183786,1236
2771.3237174337705,1235
2773.090090471394,1249
2774.8561116326036,1205
2776.6217812188274,1225
2778.3870995315756,1270
2780.1520668724356,1210
2781.9166835430747,1228
2783.6809498452394,1201
2785.444866080754,1206
2787.2084325515225,1171
2788.971649559527,1167
2790.73451740683,1201
2792.4970363955713,1183
2794.2592068279705,1233
2796.0210290063264,1196
2797.7825032330147,1212
2799.543629810493,1186
2801.304409041296,1194
2803.0648412280366,1256
2804.8249266734088,1191
2806.5846656801846,1202
2808.344058551212,1216
2810.1031055894246,1237
2811.8618070978273,1231
2813.6201633795085,1228
2815.378174737636,1261
2817.1358414754536,1213
2818.893163896285,1184
2820.6501423035334,1186
2822.4067770006814,1250
2824.1630682912883,1266
2825.9190164789957,1269
2827.6746218675207,1216
2829.429884760661,1227
2831.184805462294,1258
2832.9393842763743,1242
2834.693621506936,1173
2836.4475174580916,1240
2838.201072434034,1257
2839.954286739034,1278
2841.707160677441,1177
2843.459694553685,1251
2845.2118886722724,1218
2846.96374333779,1238
2848.7152588549034,1239
2850.4664355283567,1246
2852.217273662973,1244
2853.9677735636546,1207
2855.7179355353833,1240
2857.4677598832186,1270
2859.217246912299,1242
2860.9663969278427,1236
2862.715210235146,1234
2864.4636871395846,1225
2866.211827946614,1208
2867.9596329617652,1200
2869.7071024906536,1213
2871.4542368389684,1209
2873.20103631248,1221
2874.947501217038,1186
2876.6936318585695,1222
2878.4394285430812,1257
2880.1848915766604,1286
2881.9300212654707,1227
2883.6748179157553,1216
2885.4192818338374,1229
2887.1634133261173,1179
2888.907212699077,1236
2890.6506802592744,1210
2892.393816313348,1238
2894.1366211680142,1237
2895.8790951300693,1257
2897.621238506388,1231
2899.363051603925,1239
2901.1045347297118,1258
2902.8456881908596,1199
2904.58651229456,1221
2906.327007348081,1234
2908.067173658772,1258
2909.8070115340597,1213
2911.5465212814497,1264
2913.285703208527,1210
2915.0245576229563,1265
2916.7630848324807,1255
2918.5012851449196,1254
2920.2391588681758,1260
2921.976706310227,1197
2923.7139277791334,1180
2925.4508235830313,1210
2927.187394030137,1258
2928.923639428745,1203
2930.6595600872306,1261
2932.395156314046,1272
2934.1304284177218,1185
2935.8653767068713,1223
2937.6000014901815,1268
2939.3343030764227,1215
2941.068281774442,1230
2942.8019378931644,1231
2944.5352717415976,1259
2946.2682836288236,1184
2948.0009738640065,1224
2949.7333427563885,1236
2951.465390615289,1203
2953.1971177501086,1239
2954.9285244703265,1261
2956.6596110855,1224
2958.3903779052657,1205
2960.1208252393385,1231
2961.8509533975125,1203
2963.5807626896617,1295
2965.3102534257378,1218
2967.0394259157715,1261
2968.768280469873,1239
2970.496817398232,1252
2972.2250370111146,1244
2973.952939618869,1243
2975.6805255319196,1205
2977.4077950607707,1281
2979.134748516006,1274
2980.861386208289,1223
2982.587708448359,1287
2984.313715547037,1265
2986.039407815222,1250
2987.764785563891,1255
2989.489849104102,1236
2991.2145987469908,1201
2992.9390348037705,1184
2994.6631575857346,1190
2996.3869674042576,1188
2998.1104645707887,1204
2999.83364939686,1194
3001.5565221940783,1242
3003.2790832741334,1201
3005.0013329487924,1244
3006.7232715298996,1224
3008.4448993293804,1210
3010.166216659239,1186
3011.887223831558,1199
3013.607921158498,1221
3015.3283089522993,1228
3017.0483875252826,1252
3018.7681571898443,1259
3020.4876182584626,1194
3022.2067710436927,1202
3023.9256158581707,1176
3025.644153014609,1199
3027.362382825801,1188
3029.0803056046193,1219
3030.797921664012,1189
3032.5152313170106,1206
3034.2322348767225,1247
3035.9489326563353,1154
3037.665324969115,1271
3039.3814121284063,1188
3041.097194447633,1236
3042.812672240299,1240
3044.5278458199855,1247
3046.2427155003525,1201
3047.9572815951406,1236
3049.671544418167,1168
3051.38550428333,1236
3053.0991615046073,1245
3054.812516396051,1199
3056.5255692717974,1193
3058.2383204460575,1175
3059.9507702331257,1232
3061.662918947372,1252
3063.3747669032446,1227
3065.0863144152736,1240
3066.7975617980674,1250
3068.508509366309,1238
3070.219157434767,1216
3071.9295063182844,1227
3073.639556331785,1181
3075.3493077902704,1198
3077.058761008821,1181
3078.7679163025964,1214
3080.476773986837,1239
3082.1853343768594,1221
3083.89359778806,1210
3085.6015645359153,1199
3087.3092349359786,1214
3089.016609303884,1197
3090.7236879553434,1246
3092.4304712061476,1291
3094.136959372166,1246
3095.843152769349,1211
3097.5490517137237,1208
3099.2546565213966,1213
3100.959967508554,1185
3102.66498499146,1242
3104.3697092864577,1235
3106.0741407099695,1215
3107.778279578498,1167
3109.482126208622,1188
3111.1856809170004,1254
3112.8889440203716,1179
3114.5919158355528,1190
3116.294596679439,1231
3117.996986869006,1209
3119.6990867213062,1226
3121.4008965534726,1236
3123.102416682717,1181
3124.803647426329,1258
3126.5045891016784,1190
3128.205242026213,1187
3129.90560651746,1211
3131.605682893025,1168
3133.3054714705922,1175
3135.0049725679282,1235
3136.7041865028714,1220
3138.4031135933465,1182
3140.101754157353,1243
3141.800108512971,1137
3143.498176978357,1192
3145.1959598717494,1212
3146.8934575114636,1167
3148.5906702158954,1147
3150.2875983035183,1169
3151.9842420928853,1194
3153.680601902627,1210
3155.376678051456,1178
3157.07247085816,1202
3158.767980641609,1235
3160.463207720748,1151
3162.158152414606,1178
3163.8528150422862,1170
3165.5471959229726,1215
3167.2412953759303,1203
3168.9351137204976,1228
3170.628651276098,1223
3172.3219083622307,1199
3174.014885298474,1197
3175.707582404485,1216
3177.4000000000005,1218
3179.092138404835,1179
3180.7839979388846,1209
3182.47557892212,1222
3184.166881674594,1203
3185.8579065164386,1183
3187.5486537678626,1139
3189.2391237491547,1163
3190.9293167806827,1185
3192.6192331828934,1194
3194.3088732763117,1183
3195.998237381542,1217
3197.687325819268,1175
3199.376138910251,1188
3201.064676975334,1207
3202.7529403354347,1238
3204.4409293115523,1152
3206.1286442247647,1211
3207.816085396229,1204
3209.5032531471825,1212
3211.190147798936,1164
3212.8767696728846,1123
3214.5631190905015,1154
3216.2491963733373,1189
3217.9350018430214,1168
3219.6205358212637,1120
3221.305798629851,1143
3222.990790590651,1191
3224.6755120256103,1160
3226.359963256751,1155
3228.0441446061795,1145
3229.7280563960758,1181
3231.411698948703,1188
3233.0950725863995,1191
3234.778177631587,1212
3236.461014406761,1250
3238.1435832345005,1237
3239.8258844374595,1237
3241.507918338374,1234
3243.1896852600576,1231
3244.8711855254023,1222
3246.552419457381,1212
3248.233387379042,1191
3249.914089613516,1212
3251.59452648401,1175
3253.274698313813,1167
3254.95460542629,1207
3256.6342481448855,1200
3258.313626793125,1200
3259.9927416946084,1183
3261.6715931730196,1183
3263.3501815521176,1200
3265.0285071557437,1184
3266.706570307815,1186
3268.3843713323286,1205
3270.0619105533615,1175
3271.739188295068,1155
3273.4162048816834,1260
3275.0929606375184,1184
3276.769455886966,1185
3278.445690954498,1220
3280.1216661646613,1208
3281.797381842087,1181
3283.4728383114807,1178
3285.1480358976296,1214
3286.8229749253996,1172
3288.4976557197333,1148
3290.172078605655,1210
3291.846243908266,1231
3293.5201519527463,1140
3295.193803064357,1184
3296.8671975684374,1190
3298.5403357904024,1156
3300.21321805575,1178
3301.8858446900567,1127
3303.558216018975,1170
3305.23033236824,1185
3306.9021940636603,1215
3308.57380143113,1186
3310.2451547966184,1234
3311.916254486174,1188
3313.5871008259246,1211
3315.2576941420766,1165
3316.9280347609147,1225
3318.5981230088046,1236
3320.2679592121895,1206
3321.9375436975924,1171
3323.606876791612,1163
3325.27595882093,1226
3326.944790112305,1187
3328.6133709925753,1172
3330.2817017886573,1163
3331.949782827547,1225
3333.617614436319,1167
3335.2851969421245,1196
3336.952530672199,1209
3338.619615953853,1185
3340.286453114475,1171
3341.9530424815357,1188
3343.619384382583,1197
3345.2854791452437,1198
3346.951327097224,1164
3348.6169285663073,1163
3350.2822838803577,1182
3351.947393367319,1180
3353.61225735521,1155
3355.2768761721345,1212
3356.9412501462693,1134
3358.605379605873,1194
3360.2692648792827,1180
3361.9329062949146,1148
3363.596304181263,1159
