CollectionTime,9/20/2024 11:42:37 AM
ExposureUsed,3
CalibratedSpectrum
-962.7078968117929,551
-959.9714848408522,565
-957.2358232597828,526
-954.5009119013725,584
-951.7667505983302,545
-949.0333391832855,596
-946.3006774887896,577
-943.5687653473143,586
-940.837602591253,553
-938.1071890529199,551
-935.3775245645503,558
-932.6486089583007,586
-929.9204420662485,573
-927.1930237203925,622
-924.4663537526524,567
-921.7404319948689,578
-919.0152582788041,622
-916.2908324361409,629
-913.5671542984834,582
-910.8442236973568,538
-908.1220404642074,542
-905.4006044304027,541
-902.679915427231,526
-899.959973285902,521
-897.2407778375464,558
-894.5223289132158,608
-891.8046263438832,562
-889.0876699604426,578
-886.3714595937089,608
-883.6559950744183,594
-880.9412762332282,576
-878.2273029007168,557
-875.5140749073835,549
-872.8015920836489,585
-870.0898542598545,532
-867.3788612662631,561
-864.6686129330585,574
-861.9591090903457,540
-859.2503495681506,539
-856.5423341964203,533
-853.8350628050229,548
-851.1285352237478,594
-848.4227512823054,666
-845.7177108103272,603
-843.0134136373656,559
-840.3098595928943,568
-837.6070485063082,543
-834.9049802069229,593
-832.2036545239757,553
-829.5030712866244,627
-826.8032303239481,622
-824.1041314649472,559
-821.4057745385428,559
-818.7081593735775,551
-816.0112857988148,608
-813.3151536429393,662
-810.6197627345566,628
-807.9251129021936,592
-805.2312039742981,623
-802.5380357792392,626
-799.8456081453069,626
-797.1539209007124,674
-794.462973873588,602
-791.772766891987,560
-789.083299783884,586
-786.3945723771743,596
-783.7065844996748,567
-781.0193359791231,563
-778.3328266431781,603
-775.6470563194197,633
-772.9620248353489,557
-770.2777320183878,571
-767.5941776958798,606
-764.9113616950891,606
-762.2292838432011,576
-759.5479439673222,565
-756.8673418944801,603
-754.1874774516235,685
-751.5083504656222,624
-748.8299607632671,580
-746.15230817127,592
-743.475392516264,564
-740.7992136248035,615
-738.1237713233636,602
-735.4490654383407,613
-732.7750957960521,562
-730.1018622227365,562
-727.4293645445534,596
-724.7576025875837,620
-722.0865761778291,598
-719.4162851412126,610
-716.7467293035781,657
-714.0779084906909,723
-711.409822528237,667
-708.7424712418238,627
-706.0758544569796,673
-703.4099719991541,641
-700.7448236937178,584
-698.0804093659622,562
-695.4167288411002,574
-692.7537819442656,572
-690.0915685005134,576
-687.4300883348199,580
-684.7693412720819,589
-682.1093271371178,630
-679.4500457546669,622
-676.7914969493897,617
-674.1336805458676,609
-671.4765963686034,648
-668.8202442420206,648
-666.1646239904642,662
-663.5097354382001,640
-660.8555784094151,590
-658.2021527282176,650
-655.5494582186366,601
-652.8974947046223,652
-650.2462620100463,633
-647.5957599587009,614
-644.9459883742998,638
-642.2969470804776,661
-639.6486359007902,634
-637.0010546587141,665
-634.3542031776476,678
-631.7080812809096,675
-629.0626887917401,678
-626.4180255333008,629
-623.7740913286734,654
-621.1308860008619,739
-618.4884093727904,690
-615.8466612673046,662
-613.2056415071715,628
-610.5653499150785,687
-607.9257863136347,686
-605.28695052537,707
-602.6488423727357,685
-600.0114616781036,664
-597.3748082637674,707
-594.7388819519412,764
-592.1036825647604,733
-589.4692099242818,711
-586.8354638524829,712
-584.2024441712624,783
-581.5701507024403,898
-578.9385832677575,940
-576.3077416888759,879
-573.6776257873787,735
-571.0482353847704,686
-568.4195703024757,718
-565.7916303618415,734
-563.164415384135,780
-560.5379251905453,793
-557.9121596021815,797
-555.2871184400748,758
-552.6628015251767,826
-550.0392086783606,736
-547.4163397204204,785
-544.794194472071,814
-542.1727727539491,787
-539.5520743866118,796
-536.9320991905377,819
-534.3128469861261,827
-531.6943175936979,891
-529.0765108334947,874
-526.4594265256793,968
-523.8430644903358,1121
-521.2274245474689,1319
-518.612506517005,1381
-515.9983102187913,1495
-513.3848354725959,1705
-510.77208209810846,1963
-508.16004991493924,2133
-505.5487387426199,2354
-502.9381484006032,2231
-500.3282787082628,1929
-497.71912948489364,1681
-495.1107005497117,1373
-492.5029917218539,1244
-489.8960028203786,1185
-487.28973366426493,1076
-484.68418407241325,943
-482.07935386364494,900
-479.47524285670266,819
-476.87185087025,888
-474.2691777228715,901
-471.66722323307334,929
-469.0659872192821,898
-466.4654694998459,873
-463.86566989303384,842
-461.26658821703614,892
-458.66822428996414,942
-456.07057792985,945
-453.4736489546475,1001
-450.877437182231,965
-448.28194243039627,879
-445.68716451686,886
-443.09310325926003,876
-440.49975847515555,854
-437.9071299820263,947
-435.31521759727354,897
-432.72402113821954,913
-430.13354042210767,930
-427.5437752661022,937
-424.95472548728867,961
-422.36639090267386,1014
-419.7787713291855,1022
-417.1918665836721,1068
-414.60567648290385,1002
-412.0202008435715,1084
-409.4354394822874,1138
-406.8513922155845,1078
-404.26805885991723,1089
-401.685439231661,1009
-399.103533147112,957
-396.522340422488,904
-393.9418608739278,946
-391.3620943174908,963
-388.7830405691583,956
-386.2046994448317,869
-383.6270707603344,862
-381.05015433141045,759
-378.473949973725,779
-375.8984575028645,816
-373.32367673433623,870
-370.74960748356875,853
-368.1762495659117,713
-365.60360279663576,737
-363.03166699093265,729
-360.4604419639154,719
-357.8899275306178,626
-355.32012350599507,627
-352.7510297049233,610
-350.1826459421999,587
-347.61497203254316,665
-345.04800779059235,708
-342.4817530309082,611
-339.91620756797226,629
-337.35137121618743,704
-334.7872437898774,681
-332.22382510328725,704
-329.66111497058273,712
-327.09911320585127,646
-324.53781962310075,741
-321.9772340362607,675
-319.4173562591816,694
-316.8581861056348,667
-314.2997233893127,687
-311.7419679238294,820
-309.1849195227194,695
-306.62857799943856,706
-304.0729431673641,691
-301.51801483979375,788
-298.963792829947,750
-296.41027695096386,630
-293.85746701590574,639
-291.3053628377552,715
-288.7539642294155,679
-286.2032710037115,718
-283.65328297338897,729
-281.1039999511146,651
-278.5554217494762,776
-276.007548180983,815
-273.4603790580651,779
-270.9139141930734,722
-268.3681533982807,822
-265.8230964858798,761
-263.27874326798565,738
-260.7350935566336,787
-258.1921471637804,935
-255.6499039013039,1081
-253.10836358100266,1028
-250.56752601459698,922
-248.02739101372765,946
-245.48795838995704,975
-242.94922795476816,969
-240.41119951956557,967
-237.8738728956746,840
-235.33724789434166,852
-232.80132432673452,973
-230.2661020039418,1094
-227.73158073697357,1084
-225.19776033676033,1084
-222.66464061415422,1191
-220.1322213799284,1069
-217.60050244477725,968
-215.06948361931552,948
-212.53916471408013,1185
-210.00954553952818,1315
-207.48062590603843,1241
-204.9524056239104,1281
-202.4248845033651,1430
-199.8980623545441,1396
-197.37193898751036,1321
-194.84651421224817,1176
-192.32178783866232,1112
-189.79775967657952,1188
-187.27442953574644,1161
-184.7517972258321,1168
-182.2298625564256,1297
-179.7086253370378,1217
-177.18808537710026,1193
-174.66824248596583,1253
-172.14909647290835,1435
-169.6306471471229,1414
-167.11289431772548,1309
-164.59583779375328,1322
-162.07947738416453,1860
-159.5638128978386,2247
-157.04884414357605,1871
-154.53457093009854,1706
-152.02099306604828,1496
-149.50811035998936,1521
-146.99592262040665,1533
-144.48442965570587,1442
-141.97363127421409,1455
-139.46352728417958,1479
-136.95411749377126,1646
-134.44540171107985,1588
-131.93737974411636,1453
-129.43005140081357,1766
-126.92341648902493,2319
-124.41747481652521,2409
-121.91222619101006,2568
-119.40767042009657,2818
-116.90380731132257,2941
-114.40063667214702,3089
-111.8981583099503,3320
-109.3963720320337,4485
-106.89527764561933,5733
-104.39487495785067,5913
-101.89516377579241,6394
-99.39614390642998,8491
-96.89781515667039,14389
-94.40017733334128,20042
-91.90323024319173,21728
-89.40697369289148,20814
-86.91140748903172,17501
-84.41653143812482,12169
-81.92234534660395,9660
-79.42884902082358,8978
-76.93604226705907,9939
-74.4439248915071,14074
-71.95249670028534,18802
-69.46175749943245,20790
-66.97170709490854,17707
-64.48234529259423,15686
-61.99367189829195,14708
-59.50568671772464,17538
-57.01838955653636,21111
-54.53178022029283,24502
-52.045858514480074,34128
-49.560624244506016,39522
-47.07607721569923,44372
-44.59221723330904,46533
-42.10904410250669,42944
-39.62655762838392,41921
-37.14475761595372,40514
-34.66364387015028,34272
-32.18321619582866,36448
-29.70347439776515,35306
-27.224418280657005,31506
-24.74604764912317,31611
-22.26836230770266,42498
-19.7913620608565,65034
-17.315046712966478,65034
-14.83941606833514,65034
-12.36446993118659,65034
-9.89020810566592,65034
-7.416630395839093,65034
-4.94373660569363,65034
-2.471526539137585,65034
-6.821210263296962E-13,65034
2.47084320796705,65034
4.941003281093458,65034
7.410480415786196,65034
9.879274808531363,65034
12.347386655893956,65034
14.814816154518212,65034
17.28156350112681,65034
19.74762889252179,65034
22.21301252558385,65034
24.67771459727237,27724
27.141735304626195,10453
29.605074844762612,12372
32.06773341487792,12299
34.52971121224755,10416
36.99100843422559,6112
39.45162527824516,6523
41.91156194181792,6542
44.370818622535126,6016
46.82939551806646,5730
49.287292826160524,5378
51.74451074464503,5009
54.201049471426245,5418
56.65690920448981,5797
59.112090141899785,4693
61.56659248179983,4333
64.02041642241159,3564
66.4735621620365,3434
68.92602989905402,3761
71.37781983192338,4020
73.82893215918205,4193
76.27936707944684,3124
78.72912479141326,2849
81.17820549385567,2821
83.62660938562783,2265
86.07433666566146,3032
88.5213875329681,2693
90.96776218663751,2178
93.41346082583925,2420
95.85848364982041,2775
98.30283085790859,2012
100.7465026495089,2317
103.18949922410604,2211
105.63182078126385,2021
108.07346752062438,2022
110.51443964190923,1846
112.95473734491827,1910
115.39436082953114,2061
117.83331029570547,2124
120.27158594347827,2466
122.7091879729652,2313
125.1461165843615,2287
127.58237197794062,2415
130.01795435405518,2662
132.4528639131364,2303
134.88710085569494,2191
137.32066538231982,2152
139.75355769367923,1826
142.1857779905207,1391
144.61732647366978,1316
147.04820334403132,1389
149.47840880258934,1842
151.90794305040674,2104
154.33680628862487,2035
156.76499871846443,1845
159.19252054122433,1705
161.61937195828352,1750
164.04555317109896,1814
166.47106438120693,1978
168.89590579022217,2168
171.320077599839,2305
173.7435800118302,2548
176.16641322804742,2843
178.58857745042144,2883
181.01007288096173,2661
183.43089972175687,2692
185.85105817497413,2553
188.27054844285988,2497
190.6893707277394,2562
193.10752523201643,2966
195.5250121581745,3127
197.9418317087751,2624
200.3579840864594,2531
202.7734694939469,2695
205.18828813403627,2773
207.6024402096051,2777
210.01592592360964,2593
212.42874547908548,2738
214.84089907914665,2677
217.2523869269868,2611
219.66320922587727,2513
222.0733661791695,2522
224.48285799029293,2431
226.8916848627572,2526
229.29984700014882,2538
231.7073446061355,2611
234.11417788446204,2597
236.520347038953,2620
238.92585227351185,2635
241.33069379212054,2645
243.73487179884035,2750
246.1383864978112,2714
248.541238093252,2597
250.9434267894609,2653
253.34495279081432,2625
255.74581630176783,2526
258.1460175268563,2534
260.54555667069314,2600
262.9444339379703,2672
265.3426495334594,2741
267.7402036620107,2655
270.1370965285529,2761
272.53332833809407,2685
274.9288992957214,2630
277.32380960660055,2471
279.718059475976,2378
282.1116491091717,2461
284.5045787115897,2425
286.89684848871195,2553
289.2884586460981,2533
291.67940938938807,2480
294.0697009242996,2647
296.4593334566299,2629
298.84830719225477,2774
301.23662233712923,2859
303.6242790972866,2592
306.01127767884,2541
308.39761828798066,2407
310.78330113097934,2503
313.16832641418534,2484
315.5526943440269,2499
317.9364051270112,2574
320.3194589697242,2473
322.70185607883093,2349
325.0835966610754,2346
327.4646809232805,2378
329.8451090723478,2391
332.2248813152577,2205
334.6039978590701,2178
336.9824589109231,2136
339.36026467803447,2237
341.7374153677,2239
344.113911187295,2203
346.48975234427337,2271
348.8649390461686,2238
351.2394715005918,2220
353.61334991523415,2133
355.9865744978655,2160
358.35914545633375,2206
360.73106299856715,2271
363.10232733257146,2098
365.47293866643247,2122
367.84289720831396,2131
370.2122031664593,2117
372.5808567491905,2212
374.9488581649083,2174
377.31620762209275,2065
379.6829053293021,2191
382.0489514951745,2090
384.4143463284262,2033
386.7790900378528,2017
389.14318283232853,1953
391.50662492080653,2041
393.86941651231916,1966
396.23155781597745,2061
398.5930490409713,2158
400.9538903965696,2158
403.3140820921202,2131
405.6736243370498,1986
408.03251734086336,2047
410.3907613131465,2084
412.74835646356166,2005
415.10530300185144,1957
417.4616011378372,2019
419.81725108141893,1974
422.1722530425758,1978
424.5266072313656,1938
426.880313857925,1903
429.2333731324701,1963
431.58578526529516,1997
433.9375504667738,1922
436.2886689473588,1984
438.63914091758113,1847
440.9889665880513,1853
443.33814616945835,1848
445.68667987257015,1886
448.03456790823395,1896
450.3818104873759,1845
452.72840782100013,1914
455.07436012019105,1986
457.41966759611057,1917
459.7643304600007,1852
462.10834892318155,1912
464.4517231970525,1865
466.79445349309174,1924
469.1365400228566,1891
471.4779829979826,1833
473.81878263018564,1870
476.15893913125876,1885
478.4984527130747,2137
480.8373235875855,2195
483.17555196682144,2005
485.5131380628919,2089
487.8500820879857,2152
490.1863842543697,2190
492.52204477439034,2264
494.8570638604725,2425
497.1914417251204,2715
499.52517858091653,3195
501.85827464052306,3724
504.19073011668036,4345
506.5225452222086,4742
508.85372017000566,4917
511.18425517304956,4941
513.514150444396,5281
515.8434061971808,6418
518.1720226446176,6988
520.4999999999999,6699
522.8273384766991,6052
525.1540382881666,5752
527.480099647932,5104
529.8055227696037,4019
532.1303078668694,3056
534.454455153496,2498
536.777964843328,2189
539.1008371502907,2089
541.4230722883866,2110
543.744670471698,2035
546.0656319143858,2057
548.3859568306899,1955
550.7056454349294,2032
553.0246979415016,1974
555.3431145648834,1895
557.6608955196306,1952
559.978041020377,1961
562.2945512818363,2021
564.6104265188006,2011
566.9256669461412,1985
569.2402727788082,1990
571.5542442318302,1979
573.8675815203156,1996
576.1802848594508,2029
578.4923544645015,2035
580.8037905508126,1974
583.114593333807,1983
585.4247630289875,1973
587.7342998519354,2000
590.0432040183106,1943
592.3514757438526,1991
594.6591152443794,1987
596.9661227357875,2030
599.2724984340531,2010
601.578242555231,1882
603.8833553154542,1928
606.1878369309362,1878
608.4916876179676,1899
610.7949075929192,1909
613.0974970722403,1877
615.3994562724587,1766
617.7007854101818,1874
620.0014847020951,1973
622.3015543649641,1874
624.6009946156324,1906
626.8998056710224,1961
629.1979877481361,1900
631.4955410640538,1983
633.7924658359349,1971
636.0887622810175,1907
638.3844306166192,1893
640.6794710601358,1894
642.9738838290426,1884
645.2676691408932,1963
647.5608272133207,1972
649.853358264037,1965
652.1452625108324,2012
654.4365401715764,1978
656.7271914642178,1951
659.0172166067838,2006
661.3066158173809,1966
663.5953893141935,1935
665.8835373154867,1926
668.1710600396028,1943
670.4579577049639,1961
672.7442305300709,1953
675.0298787335033,1928
677.3149025339197,1891
679.599302150058,1952
681.8830778007342,1921
684.1662297048437,1926
686.4487580813608,2006
688.7306631493387,1994
691.0119451279091,1975
693.2926042362834,1918
695.5726406937516,1899
697.8520547196814,1860
700.1308465335215,1885
702.4090163547982,1785
704.6865644031171,1913
706.9634908981619,1895
709.2397960596965,1957
711.5154801075631,1941
713.7905432616823,1968
716.0649857420548,1999
718.3388077687592,1962
720.612009561953,2004
722.8845913418733,1832
725.1565533288352,1928
727.427895743234,1917
729.6986188055427,1915
731.9687227363137,1890
734.238207756178,1904
736.5070740858458,1930
738.7753219461066,2022
741.0429515578281,1942
743.3099631419569,1927
745.5763569195191,1992
747.8421331116193,1980
750.1072919394409,1913
752.3718336242467,1913
754.6357583873777,1891
756.8990664502545,1866
759.1617580343765,1903
761.423833361321,2019
763.6852926527457,1963
765.9461361303862,1963
768.206364016058,1967
770.4659765316536,1943
772.7249738991469,2030
774.9833563405886,2056
777.2411240781092,2013
779.4982773339183,2086
781.7548163303044,1930
784.010741289634,2019
786.2660524343538,2069
788.5207499869881,2050
790.7748341701416,2026
793.0283052064964,2057
795.2811633188143,2044
797.5334087299362,2045
799.7850416627813,2016
802.0360623403484,2010
804.2864709857143,1980
806.5362678220353,2047
808.7854530725468,1972
811.0340269605625,1924
813.2819897094754,1972
815.5293415427581,2014
817.77608268396,2000
820.0222133567116,1981
822.2677337847211,2008
824.5126441917765,1939
826.7569448017433,1974
829.0006358385675,1898
831.2437175262731,1908
833.4861900889629,1958
835.7280537508192,1982
837.9693087361026,1995
840.2099552691533,2020
842.4499935743896,1966
844.689423876309,2056
846.9282463994886,1982
849.1664613685833,1904
851.4040690083276,1948
853.6410695435349,1891
855.877463199097,1933
858.1132501999847,1992
860.3484307712487,2073
862.5830051380175,1992
864.8169735254988,1921
867.0503361589791,1933
869.2830932638243,1975
871.5152450654786,2040
873.7467917894654,2001
875.9777336613873,1980
878.2080709069252,1917
880.4378037518389,1976
882.666932421968,1915
884.8954571432301,1974
887.1233781416219,2069
889.3506956432192,2013
891.5774098741766,2011
893.803521060728,2034
896.0290294291852,1939
898.2539352059397,1974
900.4782386174619,1970
902.7019398903011,2029
904.925039251085,2062
907.147536926521,2082
909.3694331433943,2004
911.59072812857,2046
913.8114221089921,2099
916.0315153116827,2098
918.2510079637437,2135
920.4699002923547,2094
922.6881925247761,2132
924.905884888345,2068
927.1229776104793,2042
929.3394709186747,2011
931.555365040506,2014
933.7706602036275,2058
935.9853566357709,2013
938.1994545647489,1968
940.4129542184515,2001
942.6258558248488,2016
944.8381596119883,2024
947.0498658079974,2033
949.2609746410825,1988
951.4714863395287,1974
953.6814011316998,2044
955.8907192460387,1905
958.0994409110671,2014
960.3075663553858,2028
962.5150958076741,2079
964.7220294966913,1988
966.928367651274,1921
969.1341105003388,1983
971.3392582728806,1884
973.5438111979742,1900
975.747769504772,1839
977.9511334225061,1866
980.153903180487,1889
982.3560790081052,1912
984.5576611348289,1833
986.7586497902058,1802
988.9590452038618,1776
991.158847605503,1737
993.3580572249133,1849
995.5566742919558,1755
997.7546990365728,1721
999.952131688785,1705
1002.1489724786926,1722
1004.3452216364743,1628
1006.5408793923874,1582
1008.7359459767691,1683
1010.9304216200343,1554
1013.1243065526781,1598
1015.3176010052733,1599
1017.510305208472,1605
1019.7024193930064,1568
1021.8939437896848,1604
1024.0848786293977,1550
1026.2752241431122,1510
1028.4649805618747,1609
1030.6541481168115,1649
1032.842727039127,1538
1035.0307175601051,1590
1037.2181199111074,1523
1039.4049343235752,1506
1041.591161029029,1499
1043.7768002590683,1472
1045.9618522453698,1509
1048.1463172196918,1479
1050.3301954138697,1513
1052.513487059818,1458
1054.69619238953,1505
1056.8783116350783,1532
1059.0598450286152,1569
1061.2407928023704,1486
1063.4211551886528,1510
1065.6009324198508,1497
1067.780124728432,1460
1069.9587323469414,1447
1072.1367555080046,1510
1074.314194444325,1516
1076.4910493886855,1482
1078.667320573947,1442
1080.843008233051,1472
1083.0181125990161,1363
1085.1926339049414,1406
1087.3665723840027,1516
1089.5399282694575,1456
1091.7127017946405,1464
1093.8848931929647,1505
1096.0565026979243,1461
1098.2275305430899,1400
1100.3979769621128,1376
1102.567842188722,1391
1104.737126456726,1460
1106.9058300000124,1408
1109.0739530525475,1390
1111.2414958483764,1388
1113.4084586216231,1377
1115.5748416064907,1432
1117.7406450372605,1417
1119.9058691482942,1412
1122.0705141740304,1449
1124.2345803489884,1433
1126.3980679077658,1397
1128.5609770850388,1387
1130.7233081155623,1439
1132.8850612341707,1431
1135.0462366757774,1451
1137.2068346753745,1415
1139.3668554680326,1375
1141.526299288901,1370
1143.68516637321,1400
1145.8434569562655,1441
1148.001171273455,1416
1150.158309560244,1410
1152.3148720521767,1424
1154.470858984876,1399
1156.626270594044,1372
1158.7811071154629,1413
1160.9353687849912,1434
1163.089055838569,1370
1165.242168512213,1461
1167.3947070420209,1457
1169.5466716641677,1445
1171.6980626149075,1430
1173.8488801305748,1389
1175.9991244475814,1360
1178.1487958024186,1378
1180.2978944316555,1381
1182.4464205719428,1415
1184.5943744600072,1387
1186.7417563326567,1337
1188.8885664267755,1399
1191.0348049793297,1353
1193.1804722273619,1381
1195.325568407995,1394
1197.4700937584303,1369
1199.614048515948,1421
1201.7574329179074,1451
1203.900247201746,1351
1206.042491604982,1373
1208.1841663652099,1319
1210.3252717201053,1379
1212.465807907422,1363
1214.6057751649923,1461
1216.7451737307279,1464
1218.8840038426192,1426
1221.0222657387353,1441
1223.1599596572241,1395
1225.2970858363137,1395
1227.4336445143094,1426
1229.5696359295966,1443
1231.705060320639,1437
1233.8399179259786,1424
1235.9742089842384,1432
1238.107933734118,1399
1240.2410924143974,1441
1242.373685263935,1447
1244.5057125216676,1404
1246.6371744266116,1421
1248.7680712178621,1347
1250.898403134593,1392
1253.028170416058,1393
1255.1573733015875,1415
1257.2860120305932,1434
1259.4140868425648,1413
1261.54159797707,1439
1263.6685456737569,1412
1265.7949301723515,1450
1267.9207517126597,1434
1270.046010534565,1426
1272.1707068780306,1409
1274.2948409830983,1459
1276.4184130898889,1403
1278.541423438603,1430
1280.6638722695184,1408
1282.785759822993,1456
1284.9070863394636,1513
1287.0278520594447,1448
1289.1480572235314,1436
1291.2677020723963,1428
1293.3867868467923,1475
1295.5053117875495,1492
1297.623277135579,1451
1299.740683131868,1402
1301.8575300174857,1424
1303.973818033578,1463
1306.0895474213703,1477
1308.2047184221678,1459
1310.3193312773528,1443
1312.4333862283888,1389
1314.5468835168163,1428
1316.659823384255,1506
1318.7722060724045,1465
1320.8840318230418,1445
1322.9953008780249,1466
1325.1060134792888,1509
1327.2161698688478,1464
1329.3257702887959,1488
1331.4348149813054,1492
1333.5433041886276,1463
1335.6512381530933,1440
1337.7586171171101,1559
1339.8654413231675,1495
1341.9717110138317,1476
1344.0774264317488,1394
1346.1825878196432,1458
1348.2871954203192,1464
1350.3912494766587,1459
1352.4947502316231,1532
1354.5976979282532,1422
1356.7000928096686,1418
1358.8019351190665,1429
1360.9032250997243,1444
1363.0039629949988,1458
1365.1041490483235,1487
1367.2037835032133,1508
1369.3028666032606,1501
1371.401398592137,1508
1373.4993797135926,1453
1375.5968102114575,1456
1377.6936903296396,1387
1379.7900203121262,1487
1381.8858004029835,1464
1383.9810308463561,1422
1386.075711886469,1503
1388.1698437676241,1476
1390.2634267342032,1421
1392.356461030667,1445
1394.4489469015557,1486
1396.5408845914872,1433
1398.6322743451592,1448
1400.7231164073469,1458
1402.813411022907,1475
1404.903158436773,1503
1406.9923588939578,1430
1409.0810126395531,1442
1411.1691199187303,1438
1413.2566809767386,1480
1415.343696058907,1454
1417.4301654106425,1453
1419.5160892774315,1420
1421.6014679048399,1427
1423.6863015385125,1435
1425.7705904241707,1479
1427.8543348076178,1438
1429.9375349347342,1443
1432.0201910514802,1462
1434.102303403894,1468
1436.1838722380944,1432
1438.2648978002767,1392
1440.3453803367174,1483
1442.4253200937692,1473
1444.5047173178677,1441
1446.5835722555234,1464
1448.6618851533285,1490
1450.739656257952,1495
1452.8168858161434,1536
1454.8935740747306,1511
1456.96972128062,1468
1459.045327680797,1470
1461.120393522327,1495
1463.1949190523528,1424
1465.2689045180973,1482
1467.3423501668608,1442
1469.415256246024,1486
1471.4876230030463,1515
1473.559450685465,1505
1475.6307395408976,1475
1477.7014898170391,1459
1479.771701761665,1507
1481.8413756226287,1477
1483.9105116478618,1483
1485.9791100853772,1477
1488.0471711832643,1448
1490.1146951896926,1416
1492.1816823529098,1465
1494.2481329212433,1465
1496.3140471430984,1451
1498.3794252669609,1479
1500.4442675413939,1490
1502.5085742150404,1477
1504.572345536622,1506
1506.6355817549388,1482
1508.6982831188702,1453
1510.7604498773744,1454
1512.8220822794883,1462
1514.8831805743293,1456
1516.9437450110909,1478
1519.003775839048,1507
1521.0632733075522,1491
1523.1222376660367,1498
1525.1806691640113,1425
1527.2385680510652,1458
1529.2959345768668,1426
1531.3527689911643,1525
1533.4090715437833,1442
1535.4648424846291,1443
1537.5200820636855,1502
1539.5747905310159,1514
1541.6289681367616,1557
1543.6826151311434,1555
1545.7357317644614,1484
1547.7883182870937,1491
1549.8403749494987,1514
1551.8919020022113,1592
1553.9428996958477,1553
1555.9933682811015,1532
1558.0433080087469,1621
1560.0927191296346,1537
1562.1416018946961,1466
1564.1899565549415,1589
1566.2377833614592,1524
1568.2850825654164,1580
1570.3318544180606,1577
1572.3780991707158,1603
1574.423817074788,1592
1576.4690083817595,1555
1578.5136733431923,1532
1580.5578122107272,1469
1582.601425236085,1499
1584.6445126710646,1502
1586.6870747675434,1524
1588.7291117774776,1509
1590.7706239529034,1487
1592.8116115459347,1482
1594.8520748087658,1458
1596.8920139936686,1587
1598.9314293529933,1462
1600.9703211391711,1407
1603.008689604711,1442
1605.0465350022005,1463
1607.0838575843068,1511
1609.1206576037753,1459
1611.1569353134305,1427
1613.1926909661765,1448
1615.2279248149953,1484
1617.2626371129481,1495
1619.2968281131757,1436
1621.3304980688963,1487
1623.3636472334088,1435
1625.39627586009,1464
1627.428384202396,1482
1629.459972513861,1368
1631.4910410480993,1415
1633.5215900588028,1348
1635.551619799744,1463
1637.5811305247717,1429
1639.6101224878166,1377
1641.6385959428862,1377
1643.6665511440683,1428
1645.693988345528,1391
1647.7209078015112,1398
1649.7473097663405,1423
1651.7731944944203,1434
1653.7985622402307,1391
1655.823413258333,1428
1657.847747803366,1366
1659.8715661300494,1431
1661.8948684931793,1386
1663.9176551476316,1374
1665.9399263483624,1355
1667.9616823504057,1389
1669.982923408873,1418
1672.0036497789574,1416
1674.0238617159293,1281
1676.043559475138,1414
1678.0627433120121,1403
1680.081413482059,1419
1682.0995702408654,1371
1684.117213844096,1445
1686.134344547495,1392
1688.1509626068864,1459
1690.1670682781705,1411
1692.182661817329,1431
1694.1977434804217,1450
1696.2123135235875,1412
1698.226372203043,1373
1700.2399197750851,1481
1702.2529564960905,1478
1704.2654826225112,1368
1706.277498410882,1443
1708.2890041178139,1466
1710.2999999999988,1451
1712.3104863142066,1403
1714.3204633172854,1337
1716.329931266163,1377
1718.3388904178469,1372
1720.3473410294214,1344
1722.3552833580516,1346
1724.3627176609807,1403
1726.3696441955308,1459
1728.3760632191033,1453
1730.3819749891782,1427
1732.3873797633146,1392
1734.3922777991502,1409
1736.3966693544012,1374
1738.4005546868639,1350
1740.4039340544127,1426
1742.406807715001,1424
1744.4091759266616,1365
1746.4110389475054,1436
1748.4123970357223,1396
1750.413250449582,1423
1752.4135994474318,1365
1754.4134442876993,1471
1756.4127852288902,1442
1758.4116225295893,1386
1760.4099564484595,1475
1762.407787244244,1478
1764.405115175764,1330
1766.4019405019203,1398
1768.3982634816916,1443
1770.3940843741357,1414
1772.3894034383907,1395
1774.3842209336717,1423
1776.378537119274,1426
1778.372352254571,1404
1780.3656665990156,1474
1782.3584804121397,1414
1784.3507939535534,1419
1786.3426074829463,1349
1788.3339212600863,1380
1790.3247355448211,1399
1792.3150505970766,1410
1794.3048666768573,1401
1796.2941840442477,1440
1798.2830029594106,1458
1800.2713236825884,1480
1802.2591464741004,1425
1804.2464715943465,1462
1806.2332993038058,1430
1808.2196298630352,1444
1810.2054635326708,1419
1812.190800573428,1447
1814.175641246101,1388
1816.1599858115628,1422
1818.1438345307652,1449
1820.127187664738,1445
1822.1100454745924,1461
1824.092408221516,1378
1826.0742761667766,1427
1828.055649571721,1436
1830.0365286977735,1482
1832.0169138064398,1440
1833.9968051593014,1440
1835.9762030180214,1488
1837.9551076443408,1460
1839.9335193000788,1414
1841.9114382471344,1430
1843.888864747485,1423
1845.8657990631878,1422
1847.842241456378,1381
1849.8181921892697,1460
1851.7936515241558,1444
1853.7686197234098,1462
1855.7430970494815,1471
1857.7170837649014,1471
1859.6905801322787,1402
1861.6635864143004,1436
1863.6361028737338,1395
1865.608129773424,1472
1867.5796673762961,1412
1869.5507159453537,1431
1871.521275743678,1452
1873.4913470344313,1480
1875.4609300808534,1420
1877.4300251462632,1415
1879.3986324940588,1374
1881.366752387717,1490
1883.3343850907936,1400
1885.3015308669228,1426
1887.268189979819,1427
1889.2343626932739,1430
1891.2000492711595,1483
1893.1652499774254,1495
1895.1299650761011,1406
1897.0941948312952,1475
1899.0579395071945,1441
1901.0211993680641,1432
1902.98397467825,1454
1904.9462657021745,1504
1906.9080727043415,1446
1908.869395949332,1420
1910.8302357018065,1420
1912.790592226504,1446
1914.7504657882428,1343
1916.7098566519212,1443
1918.6687650825133,1464
1920.6271913450764,1347
1922.5851357047422,1428
1924.5425984267245,1435
1926.499579776314,1428
1928.4560800188833,1476
1930.4120994198802,1424
1932.367638244833,1418
1934.32269675935,1394
1936.2772752291175,1389
1938.231373919899,1423
1940.1849930975404,1426
1942.1381330279637,1420
1944.0907939771696,1450
1946.0429762112412,1441
1947.9946799963363,1385
1949.9459055986945,1384
1951.896653284633,1417
1953.8469233205478,1388
1955.7967159729142,1388
1957.7460315082863,1391
1959.6948701932974,1438
1961.6432322946594,1422
1963.5911180791632,1379
1965.5385278136787,1375
1967.4854617651545,1433
1969.4319202006182,1444
1971.377903387176,1446
1973.3234115920136,1416
1975.268445082395,1432
1977.2130041256642,1418
1979.1570889892423,1394
1981.1006999406304,1421
1983.04383724741,1418
1984.986501177238,1430
1986.928691997853,1416
1988.8704099770712,1463
1990.811655382789,1406
1992.7524284829801,1418
1994.692729545698,1431
1996.6325588390755,1459
1998.5719166313224,1424
2000.5108031907307,1407
2002.4492187856677,1417
2004.387163684583,1413
2006.3246381560011,1365
2008.2616424685298,1450
2010.1981768908527,1427
2012.1342416917332,1412
2014.069837140014,1432
2016.0049635046162,1462
2017.9396210545406,1369
2019.8738100588666,1470
2021.8075307867502,1394
2023.740783507431,1432
2025.6735684902228,1463
2027.6058860045214,1414
2029.5377363198004,1400
2031.4691197056118,1438
2033.4000364315875,1431
2035.3304867674374,1446
2037.260470982952,1421
2039.189989347998,1385
2041.1190421325232,1394
2043.047629606554,1393
2044.9757520401945,1413
2046.9034097036288,1440
2048.8306028671195,1435
2050.7573318010086,1403
2052.683596775716,1368
2054.609398061742,1402
2056.5347359296647,1344
2058.4596106501403,1435
2060.384022493906,1436
2062.3079717317764,1429
2064.231458634646,1404
2066.1544834734873,1433
2068.077046519352,1378
2069.99914804337,1418
2071.9207883167524,1412
2073.8419676107865,1411
2075.7626861968406,1385
2077.6829443463607,1390
2079.6027423308715,1400
2081.522080421977,1393
2083.440958891362,1450
2085.359378010786,1384
2087.2773380520907,1360
2089.194839287196,1389
2091.111881988101,1371
2093.0284664268825,1376
2094.9445928756973,1423
2096.86026160678,1398
2098.775472892446,1424
2100.690227005088,1386
2102.604524217178,1401
2104.5183648012676,1469
2106.431749029985,1421
2108.34467717604,1475
2110.2571495122206,1405
2112.169166311393,1383
2114.080727846503,1388
2115.9918343905747,1427
2117.902486216711,1455
2119.8126835980956,1360
2121.722426807987,1389
2123.6317161197285,1491
2125.5405518067364,1398
2127.448934142509,1436
2129.356863400624,1442
2131.264339854737,1441
2133.1713637785815,1471
2135.077935445972,1490
2136.9840551308002,1408
2138.889723107037,1483
2140.7949396487334,1478
2142.699705030018,1454
2144.6040195250994,1445
2146.507883408264,1487
2148.4112969538774,1471
2150.3142604363848,1465
2152.2167741303097,1471
2154.1188383102535,1438
2156.0204532508997,1478
2157.9216192270064,1520
2159.822336513414,1420
2161.7226053850413,1448
2163.622426116884,1411
2165.5217989840185,1459
2167.4207242616,1451
2169.319202224862,1441
2171.2172331491165,1431
2173.1148173097563,1461
2175.0119549822507,1440
2176.90864644215,1425
2178.8048919650823,1455
2180.7006918267534,1474
2182.596046302952,1476
2184.4909556695407,1462
2186.3854202024645,1453
2188.279440177746,1483
2190.173015871487,1460
2192.066147559868,1497
2193.958835519149,1492
2195.851080025667,1518
2197.7428813558417,1502
2199.6342397861667,1473
2201.5251555932186,1515
2203.415629053651,1494
2205.3056604441986,1474
2207.19525004167,1533
2209.084398122958,1502
2210.9731049650327,1494
2212.861370844941,1498
2214.749196039812,1490
2216.636580826851,1536
2218.523525483344,1513
2220.410030286655,1544
2222.296095514226,1542
2224.1817214435805,1489
2226.066908352319,1554
2227.951656518121,1474
2229.835966218746,1569
2231.71983773203,1455
2233.6032713358913,1480
2235.486267308324,1511
2237.3688259274036,1518
2239.2509474712824,1463
2241.132632218193,1507
2243.013880446447,1502
2244.8946924344323,1436
2246.7750684606203,1518
2248.6550088035574,1489
2250.534513741871,1499
2252.413583554265,1510
2254.292218519526,1514
2256.170418916517,1477
2258.0481850241786,1457
2259.925517121534,1473
2261.8024154876825,1488
2263.678880401803,1470
2265.5549121431536,1550
2267.430510991071,1477
2269.305677224971,1489
2271.180411124348,1487
2273.0547129687766,1463
2274.9285830379076,1503
2276.8020216114737,1490
2278.6750289692845,1496
2280.5476053912294,1483
2282.4197511572766,1564
2284.2914665474727,1555
2286.162751841943,1465
2288.0336073208937,1551
2289.904033264608,1544
2291.774029953448,1478
2293.6435976678554,1486
2295.5127366883517,1500
2297.381447295534,1447
2299.2497297700825,1410
2301.1175843927526,1403
2302.9850114443825,1328
2304.852011205885,1324
2306.7185839582553,1298
2308.5847299825664,1280
2310.4504495599676,1270
2312.3157429716925,1241
2314.1806104990483,1323
2316.0450524234247,1311
2317.9090690262888,1276
2319.772660589186,1301
2321.635827393742,1293
2323.498569721661,1285
2325.3608878547248,1286
2327.2227820747967,1276
2329.0842526638157,1231
2330.945299903803,1231
2332.805924076857,1218
2334.6661254651535,1239
2336.525904350951,1230
2338.3852610165827,1222
2340.244195744464,1258
2342.102708817088,1146
2343.9608005170253,1229
2345.8184711269287,1229
2347.675720929526,1284
2349.532550207628,1231
2351.38895924412,1259
2353.24494832197,1230
2355.100517724223,1303
2356.955667734004,1159
2358.810398634514,1211
2360.664710709037,1230
2362.5186042409337,1236
2364.3720795136437,1207
2366.225136810686,1233
2368.0777764156583,1271
2369.929998612237,1260
2371.7818036841777,1225
2373.633191915315,1218
2375.484163589562,1233
2377.3347189909114,1225
2379.184858403434,1238
2381.03458211128,1218
2382.8838903986775,1214
2384.732783549936,1230
2386.5812618494406,1211
2388.4293255816588,1223
2390.2769750311327,1270
2392.1242104824883,1258
2393.971032220427,1286
2395.8174405297295,1241
2397.6634356952563,1264
2399.509018001947,1214
2401.3541877348193,1169
2403.1989451789705,1228
2405.043290619576,1264
2406.8872243418905,1201
2408.730746631247,1222
2410.5738577730594,1276
2412.4165580528183,1253
2414.258847756095,1237
2416.100727168537,1240
2417.9421965758734,1241
2419.783256263912,1208
2421.623906518538,1302
2423.4641476257157,1305
2425.303979871491,1278
2427.143403541984,1188
2428.9824189233977,1263
2430.821026302012,1211
2432.6592259641866,1283
2434.497018196361,1216
2436.33440328505,1270
2438.171381516851,1216
2440.00795317844,1235
2441.844118556569,1251
2443.6798779380724,1250
2445.5152316098606,1223
2447.3501798589255,1272
2449.1847229723357,1209
2451.0188612372403,1252
2452.8525949408663,1211
2454.6859243705203,1228
2456.518849813587,1230
2458.3513715575314,1279
2460.183489889895,1202
2462.015205098301,1241
2463.8465174704493,1241
2465.67742729412,1267
2467.5079348571717,1228
2469.338040447542,1230
2471.1677443532476,1283
2472.9970468623833,1191
2474.825948263123,1230
2476.6544488437207,1241
2478.482548892508,1245
2480.310248697896,1210
2482.137548548374,1235
2483.9644487325118,1223
2485.790949538956,1281
2487.617051256433,1188
2489.44275417375,1214
2491.26805857979,1225
2493.0929647635157,1255
2494.917473013971,1231
2496.741583620276,1169
2498.5652968716304,1244
2500.3886130573137,1251
2502.2115324666834,1227
2504.0340553891765,1249
2505.856182114308,1281
2507.6779129316733,1215
2509.499248130945,1253
2511.3201880018764,1217
2513.140732834298,1234
2514.9608829181198,1198
2516.780638543331,1202
2518.6,1267
2520.418967578273,1264
2522.237541568376,1169
2524.0557222606144,1213
2525.8735099453706,1208
2527.6909049131086,1191
2529.507907454368,1232
2531.32451785977,1249
2533.140736420014,1247
2534.9565634258774,1179
2536.771999168218,1241
2538.5870439379714,1230
2540.4016980261526,1233
2542.2159617238544,1241
2544.02983532225,1267
2545.8433191125914,1214
2547.656413386209,1200
2549.4691184345115,1228
2551.2814345489874,1224
2553.093362021204,1204
2554.904901142808,1191
2556.716052205523,1215
2558.526815501153,1209
2560.3371913215824,1196
2562.147179958771,1253
2563.956781704761,1198
2565.7659968516705,1233
2567.5748256916986,1234
2569.3832685171224,1227
2571.1913256202984,1228
2572.9989972936614,1233
2574.806283829725,1241
2576.613185521084,1216
2578.4197026604074,1185
2580.2258355404483,1195
2582.031584454035,1257
2583.836949694077,1262
2585.6419315535613,1244
2587.4465303255533,1240
2589.2507463032002,1235
2591.0545797797245,1239
2592.8580310484303,1316
2594.6611004026995,1243
2596.463788135992,1242
2598.266094541849,1200
2600.0680199138874,1238
2601.869564545807,1199
2603.670728731383,1281
2605.4715127644704,1245
2607.2719169390048,1225
2609.071941548998,1272
2610.8715868885433,1248
2612.670853251811,1201
2614.469740933052,1313
2616.268250226594,1233
2618.0663814268455,1284
2619.864134828292,1245
2621.6615107255006,1281
2623.458509413115,1261
2625.2551311858597,1213
2627.0513763385347,1204
2628.8472451660223,1156
2630.6427379632833,1239
2632.4378550253564,1262
2634.232596647359,1238
2636.026963124488,1222
2637.8209547520187,1299
2639.6145718253065,1264
2641.407814639785,1260
2643.200683490966,1289
2644.9931786744414,1203
2646.7853004858807,1253
2648.577049221034,1245
2650.3684251757277,1218
2652.1594286458712,1251
2653.9500599274484,1224
2655.740319316525,1241
2657.5302071092437,1194
2659.3197236018286,1285
2661.10886909058,1266
2662.8976438718782,1241
2664.686048242183,1261
2666.4740824980327,1217
2668.2617469360443,1250
2670.0490418529134,1196
2671.8359675454153,1248
2673.622524310403,1217
2675.408712444811,1253
2677.1945322456495,1214
2678.979984010009,1213
2680.76506803506,1178
2682.5497846180497,1205
2684.334134056306,1217
2686.1181166472343,1265
2687.9017326883213,1258
2689.6849824771293,1189
2691.4678663113013,1217
2693.2503844885596,1246
2695.032537306705,1216
2696.8143250636167,1230
2698.5957480572542,1247
2700.3768065856534,1217
2702.1575009469316,1240
2703.937831439283,1311
2705.717798360982,1238
2707.4974020103837,1234
2709.276642685917,1195
2711.055520686095,1185
2712.834036309506,1226
2714.612189854819,1198
2716.389981620782,1245
2718.1674119062204,1217
2719.944481010041,1272
2721.721189231226,1285
2723.4975368688415,1251
2725.273524222027,1275
2727.0491515900053,1250
2728.824419272075,1206
2730.5993275676146,1250
2732.3738767760838,1194
2734.148067197016,1250
2735.921899130031,1230
2737.6953728748194,1217
2739.468488731156,1221
2741.2412469988926,1196
2743.0136479779617,1207
2744.785691968372,1236
2746.5573792702116,1224
2748.3287101836504,1197
2750.099685008934,1205
2751.870304046388,1201
2753.640567596418,1200
2755.4104759595057,1234
2757.1800294362156,1243
2758.949228327187,1185
2760.7180729331412,1193
2762.486563554877,1218
2764.254700493272,1212
2766.022484049284,1231
2767.789914523947,1224
2769.5569922183786,1223
2771.3237174337705,1249
2773.090090471394,1229
2774.8561116326036,1246
2776.6217812188274,1241
2778.3870995315756,1213
2780.1520668724356,1229
2781.9166835430747,1265
2783.6809498452394,1280
2785.444866080754,1235
2787.2084325515225,1226
2788.971649559527,1234
2790.73451740683,1192
2792.4970363955713,1251
2794.2592068279705,1267
2796.0210290063264,1238
2797.7825032330147,1225
2799.543629810493,1208
2801.304409041296,1211
2803.0648412280366,1181
2804.8249266734088,1268
2806.5846656801846,1199
2808.344058551212,1230
2810.1031055894246,1260
2811.8618070978273,1278
2813.6201633795085,1282
2815.378174737636,1266
2817.1358414754536,1219
2818.893163896285,1143
2820.6501423035334,1210
2822.4067770006814,1198
2824.1630682912883,1246
2825.9190164789957,1207
2827.6746218675207,1224
2829.429884760661,1246
2831.184805462294,1264
2832.9393842763743,1231
2834.693621506936,1233
2836.4475174580916,1284
2838.201072434034,1278
2839.954286739034,1211
2841.707160677441,1208
2843.459694553685,1188
2845.2118886722724,1247
2846.96374333779,1255
2848.7152588549034,1312
2850.4664355283567,1283
2852.217273662973,1270
2853.9677735636546,1303
2855.7179355353833,1236
2857.4677598832186,1314
2859.217246912299,1215
2860.9663969278427,1253
2862.715210235146,1204
2864.4636871395846,1261
2866.211827946614,1227
2867.9596329617652,1297
2869.7071024906536,1190
2871.4542368389684,1240
2873.20103631248,1268
2874.947501217038,1224
2876.6936318585695,1237
2878.4394285430812,1223
2880.1848915766604,1251
2881.9300212654707,1270
2883.6748179157553,1254
2885.4192818338374,1255
2887.1634133261173,1221
2888.907212699077,1240
2890.6506802592744,1267
2892.393816313348,1245
2894.1366211680142,1276
2895.8790951300693,1219
2897.621238506388,1206
2899.363051603925,1245
2901.1045347297118,1245
2902.8456881908596,1261
2904.58651229456,1233
2906.327007348081,1237
2908.067173658772,1240
2909.8070115340597,1273
2911.5465212814497,1282
2913.285703208527,1266
2915.0245576229563,1220
2916.7630848324807,1236
2918.5012851449196,1231
2920.2391588681758,1221
2921.976706310227,1230
2923.7139277791334,1249
2925.4508235830313,1212
2927.187394030137,1232
2928.923639428745,1250
2930.6595600872306,1256
2932.395156314046,1217
2934.1304284177218,1236
2935.8653767068713,1239
2937.6000014901815,1234
2939.3343030764227,1243
2941.068281774442,1239
2942.8019378931644,1273
2944.5352717415976,1200
2946.2682836288236,1257
2948.0009738640065,1261
2949.7333427563885,1258
2951.465390615289,1273
2953.1971177501086,1320
2954.9285244703265,1279
2956.6596110855,1254
2958.3903779052657,1269
2960.1208252393385,1241
2961.8509533975125,1247
2963.5807626896617,1232
2965.3102534257378,1245
2967.0394259157715,1275
2968.768280469873,1254
2970.496817398232,1230
2972.2250370111146,1222
2973.952939618869,1269
2975.6805255319196,1332
2977.4077950607707,1244
2979.134748516006,1248
2980.861386208289,1238
2982.587708448359,1236
2984.313715547037,1248
2986.039407815222,1256
2987.764785563891,1218
2989.489849104102,1192
2991.2145987469908,1201
2992.9390348037705,1227
2994.6631575857346,1218
2996.3869674042576,1203
2998.1104645707887,1235
2999.83364939686,1250
3001.5565221940783,1193
3003.2790832741334,1232
3005.0013329487924,1209
3006.7232715298996,1213
3008.4448993293804,1200
3010.166216659239,1195
3011.887223831558,1203
3013.607921158498,1237
3015.3283089522993,1231
3017.0483875252826,1220
3018.7681571898443,1219
3020.4876182584626,1218
3022.2067710436927,1234
3023.9256158581707,1264
3025.644153014609,1227
3027.362382825801,1257
3029.0803056046193,1236
3030.797921664012,1269
3032.5152313170106,1175
3034.2322348767225,1210
3035.9489326563353,1196
3037.665324969115,1242
3039.3814121284063,1208
3041.097194447633,1183
3042.812672240299,1176
3044.5278458199855,1148
3046.2427155003525,1259
3047.9572815951406,1229
3049.671544418167,1234
3051.38550428333,1241
3053.0991615046073,1251
3054.812516396051,1193
3056.5255692717974,1182
3058.2383204460575,1196
3059.9507702331257,1213
3061.662918947372,1255
3063.3747669032446,1222
3065.0863144152736,1232
3066.7975617980674,1265
3068.508509366309,1224
3070.219157434767,1210
3071.9295063182844,1207
3073.639556331785,1226
3075.3493077902704,1217
3077.058761008821,1194
3078.7679163025964,1215
3080.476773986837,1230
3082.1853343768594,1252
3083.89359778806,1213
3085.6015645359153,1271
3087.3092349359786,1222
3089.016609303884,1163
3090.7236879553434,1282
3092.4304712061476,1207
3094.136959372166,1211
3095.843152769349,1206
3097.5490517137237,1248
3099.2546565213966,1223
3100.959967508554,1157
3102.66498499146,1216
3104.3697092864577,1183
3106.0741407099695,1173
3107.778279578498,1230
3109.482126208622,1206
3111.1856809170004,1198
3112.8889440203716,1240
3114.5919158355528,1218
3116.294596679439,1175
3117.996986869006,1198
3119.6990867213062,1235
3121.4008965534726,1223
3123.102416682717,1223
3124.803647426329,1220
3126.5045891016784,1266
3128.205242026213,1191
3129.90560651746,1256
3131.605682893025,1198
3133.3054714705922,1224
3135.0049725679282,1193
3136.7041865028714,1178
3138.4031135933465,1222
3140.101754157353,1230
3141.800108512971,1229
3143.498176978357,1192
3145.1959598717494,1204
3146.8934575114636,1233
3148.5906702158954,1198
3150.2875983035183,1224
3151.9842420928853,1175
3153.680601902627,1204
3155.376678051456,1189
3157.07247085816,1163
3158.767980641609,1168
3160.463207720748,1168
3162.158152414606,1206
3163.8528150422862,1185
3165.5471959229726,1199
3167.2412953759303,1191
3168.9351137204976,1287
3170.628651276098,1209
3172.3219083622307,1213
3174.014885298474,1232
3175.707582404485,1181
3177.4000000000005,1206
3179.092138404835,1210
3180.7839979388846,1209
3182.47557892212,1195
3184.166881674594,1227
3185.8579065164386,1217
3187.5486537678626,1247
3189.2391237491547,1201
3190.9293167806827,1202
3192.6192331828934,1214
3194.3088732763117,1217
3195.998237381542,1209
3197.687325819268,1212
3199.376138910251,1208
3201.064676975334,1223
3202.7529403354347,1211
3204.4409293115523,1154
3206.1286442247647,1202
3207.816085396229,1217
3209.5032531471825,1198
3211.190147798936,1168
3212.8767696728846,1197
3214.5631190905015,1198
3216.2491963733373,1198
3217.9350018430214,1202
3219.6205358212637,1198
3221.305798629851,1191
3222.990790590651,1205
3224.6755120256103,1167
3226.359963256751,1208
3228.0441446061795,1191
3229.7280563960758,1218
3231.411698948703,1211
3233.0950725863995,1223
3234.778177631587,1188
3236.461014406761,1234
3238.1435832345005,1254
3239.8258844374595,1171
3241.507918338374,1244
3243.1896852600576,1185
3244.8711855254023,1201
3246.552419457381,1220
3248.233387379042,1163
3249.914089613516,1241
3251.59452648401,1172
3253.274698313813,1210
3254.95460542629,1203
3256.6342481448855,1203
3258.313626793125,1184
3259.9927416946084,1217
3261.6715931730196,1206
3263.3501815521176,1196
3265.0285071557437,1222
3266.706570307815,1185
3268.3843713323286,1205
3270.0619105533615,1206
3271.739188295068,1143
3273.4162048816834,1214
3275.0929606375184,1182
3276.769455886966,1225
3278.445690954498,1165
3280.1216661646613,1218
3281.797381842087,1269
3283.4728383114807,1259
3285.1480358976296,1238
3286.8229749253996,1220
3288.4976557197333,1200
3290.172078605655,1275
3291.846243908266,1213
3293.5201519527463,1260
3295.193803064357,1192
3296.8671975684374,1166
3298.5403357904024,1166
3300.21321805575,1180
3301.8858446900567,1170
3303.558216018975,1167
3305.23033236824,1207
3306.9021940636603,1221
3308.57380143113,1232
3310.2451547966184,1199
3311.916254486174,1140
3313.5871008259246,1181
3315.2576941420766,1198
3316.9280347609147,1230
3318.5981230088046,1148
3320.2679592121895,1189
3321.9375436975924,1175
3323.606876791612,1188
3325.27595882093,1179
3326.944790112305,1179
3328.6133709925753,1198
3330.2817017886573,1207
3331.949782827547,1200
3333.617614436319,1199
3335.2851969421245,1191
3336.952530672199,1202
3338.619615953853,1217
3340.286453114475,1201
3341.9530424815357,1195
3343.619384382583,1203
3345.2854791452437,1238
3346.951327097224,1220
3348.6169285663073,1246
3350.2822838803577,1212
3351.947393367319,1238
3353.61225735521,1193
3355.2768761721345,1194
3356.9412501462693,1200
3358.605379605873,1224
3360.2692648792827,1209
3361.9329062949146,1140
3363.596304181263,1150
