CollectionTime,7/10/2024 3:33:20 PM
ExposureUsed,3
CalibratedSpectrum
-962.7078968117929,455
-959.9714848408522,480
-957.2358232597828,508
-954.5009119013725,486
-951.7667505983302,499
-949.0333391832855,518
-946.3006774887896,549
-943.5687653473143,560
-940.837602591253,543
-938.1071890529199,533
-935.3775245645503,513
-932.6486089583007,523
-929.9204420662485,532
-927.1930237203925,555
-924.4663537526524,521
-921.7404319948689,529
-919.0152582788041,541
-916.2908324361409,545
-913.5671542984834,552
-910.8442236973568,535
-908.1220404642074,541
-905.4006044304027,535
-902.679915427231,534
-899.959973285902,503
-897.2407778375464,483
-894.5223289132158,511
-891.8046263438832,502
-889.0876699604426,488
-886.3714595937089,509
-883.6559950744183,506
-880.9412762332282,504
-878.2273029007168,530
-875.5140749073835,523
-872.8015920836489,503
-870.0898542598545,534
-867.3788612662631,491
-864.6686129330585,497
-861.9591090903457,530
-859.2503495681506,508
-856.5423341964203,502
-853.8350628050229,522
-851.1285352237478,509
-848.4227512823054,543
-845.7177108103272,550
-843.0134136373656,555
-840.3098595928943,516
-837.6070485063082,553
-834.9049802069229,543
-832.2036545239757,519
-829.5030712866244,512
-826.8032303239481,545
-824.1041314649472,534
-821.4057745385428,515
-818.7081593735775,534
-816.0112857988148,539
-813.3151536429393,512
-810.6197627345566,507
-807.9251129021936,537
-805.2312039742981,501
-802.5380357792392,553
-799.8456081453069,529
-797.1539209007124,519
-794.462973873588,552
-791.772766891987,532
-789.083299783884,544
-786.3945723771743,531
-783.7065844996748,536
-781.0193359791231,552
-778.3328266431781,544
-775.6470563194197,577
-772.9620248353489,545
-770.2777320183878,538
-767.5941776958798,554
-764.9113616950891,507
-762.2292838432011,549
-759.5479439673222,540
-756.8673418944801,530
-754.1874774516235,551
-751.5083504656222,576
-748.8299607632671,575
-746.15230817127,555
-743.475392516264,564
-740.7992136248035,576
-738.1237713233636,570
-735.4490654383407,571
-732.7750957960521,577
-730.1018622227365,595
-727.4293645445534,564
-724.7576025875837,546
-722.0865761778291,563
-719.4162851412126,584
-716.7467293035781,556
-714.0779084906909,588
-711.409822528237,595
-708.7424712418238,547
-706.0758544569796,582
-703.4099719991541,586
-700.7448236937178,624
-698.0804093659622,618
-695.4167288411002,593
-692.7537819442656,572
-690.0915685005134,580
-687.4300883348199,600
-684.7693412720819,616
-682.1093271371178,610
-679.4500457546669,581
-676.7914969493897,602
-674.1336805458676,605
-671.4765963686034,580
-668.8202442420206,592
-666.1646239904642,582
-663.5097354382001,613
-660.8555784094151,609
-658.2021527282176,630
-655.5494582186366,642
-652.8974947046223,604
-650.2462620100463,587
-647.5957599587009,595
-644.9459883742998,629
-642.2969470804776,646
-639.6486359007902,628
-637.0010546587141,651
-634.3542031776476,641
-631.7080812809096,612
-629.0626887917401,602
-626.4180255333008,617
-623.7740913286734,647
-621.1308860008619,682
-618.4884093727904,644
-615.8466612673046,681
-613.2056415071715,670
-610.5653499150785,618
-607.9257863136347,681
-605.28695052537,628
-602.6488423727357,632
-600.0114616781036,660
-597.3748082637674,625
-594.7388819519412,641
-592.1036825647604,668
-589.4692099242818,684
-586.8354638524829,654
-584.2024441712624,678
-581.5701507024403,660
-578.9385832677575,661
-576.3077416888759,637
-573.6776257873787,683
-571.0482353847704,626
-568.4195703024757,630
-565.7916303618415,672
-563.164415384135,678
-560.5379251905453,654
-557.9121596021815,640
-555.2871184400748,656
-552.6628015251767,673
-550.0392086783606,643
-547.4163397204204,697
-544.794194472071,687
-542.1727727539491,668
-539.5520743866118,712
-536.9320991905377,704
-534.3128469861261,720
-531.6943175936979,735
-529.0765108334947,734
-526.4594265256793,773
-523.8430644903358,878
-521.2274245474689,924
-518.612506517005,1006
-515.9983102187913,1044
-513.3848354725959,1079
-510.77208209810846,1143
-508.16004991493924,1327
-505.5487387426199,1398
-502.9381484006032,1454
-500.3282787082628,1472
-497.71912948489364,1364
-495.1107005497117,1270
-492.5029917218539,1069
-489.8960028203786,1022
-487.28973366426493,933
-484.68418407241325,834
-482.07935386364494,839
-479.47524285670266,809
-476.87185087025,832
-474.2691777228715,827
-471.66722323307334,837
-469.0659872192821,853
-466.4654694998459,829
-463.86566989303384,783
-461.26658821703614,842
-458.66822428996414,814
-456.07057792985,867
-453.4736489546475,888
-450.877437182231,836
-448.28194243039627,792
-445.68716451686,834
-443.09310325926003,820
-440.49975847515555,833
-437.9071299820263,779
-435.31521759727354,837
-432.72402113821954,807
-430.13354042210767,872
-427.5437752661022,836
-424.95472548728867,806
-422.36639090267386,838
-419.7787713291855,836
-417.1918665836721,928
-414.60567648290385,896
-412.0202008435715,923
-409.4354394822874,914
-406.8513922155845,919
-404.26805885991723,962
-401.685439231661,864
-399.103533147112,897
-396.522340422488,841
-393.9418608739278,850
-391.3620943174908,899
-388.7830405691583,876
-386.2046994448317,791
-383.6270707603344,778
-381.05015433141045,748
-378.473949973725,725
-375.8984575028645,707
-373.32367673433623,632
-370.74960748356875,605
-368.1762495659117,571
-365.60360279663576,573
-363.03166699093265,501
-360.4604419639154,476
-357.8899275306178,503
-355.32012350599507,453
-352.7510297049233,461
-350.1826459421999,447
-347.61497203254316,438
-345.04800779059235,442
-342.4817530309082,452
-339.91620756797226,472
-337.35137121618743,445
-334.7872437898774,468
-332.22382510328725,453
-329.66111497058273,479
-327.09911320585127,501
-324.53781962310075,472
-321.9772340362607,470
-319.4173562591816,451
-316.8581861056348,448
-314.2997233893127,468
-311.7419679238294,486
-309.1849195227194,478
-306.62857799943856,463
-304.0729431673641,491
-301.51801483979375,516
-298.963792829947,532
-296.41027695096386,491
-293.85746701590574,507
-291.3053628377552,513
-288.7539642294155,481
-286.2032710037115,498
-283.65328297338897,534
-281.1039999511146,500
-278.5554217494762,542
-276.007548180983,608
-273.4603790580651,573
-270.9139141930734,572
-268.3681533982807,567
-265.8230964858798,573
-263.27874326798565,607
-260.7350935566336,568
-258.1921471637804,572
-255.6499039013039,548
-253.10836358100266,535
-250.56752601459698,531
-248.02739101372765,578
-245.48795838995704,584
-242.94922795476816,601
-240.41119951956557,556
-237.8738728956746,566
-235.33724789434166,589
-232.80132432673452,593
-230.2661020039418,605
-227.73158073697357,614
-225.19776033676033,602
-222.66464061415422,622
-220.1322213799284,615
-217.60050244477725,576
-215.06948361931552,601
-212.53916471408013,608
-210.00954553952818,692
-207.48062590603843,704
-204.9524056239104,640
-202.4248845033651,632
-199.8980623545441,647
-197.37193898751036,689
-194.84651421224817,717
-192.32178783866232,775
-189.79775967657952,717
-187.27442953574644,723
-184.7517972258321,723
-182.2298625564256,636
-179.7086253370378,720
-177.18808537710026,720
-174.66824248596583,718
-172.14909647290835,768
-169.6306471471229,787
-167.11289431772548,777
-164.59583779375328,795
-162.07947738416453,823
-159.5638128978386,948
-157.04884414357605,1030
-154.53457093009854,1049
-152.02099306604828,878
-149.50811035998936,826
-146.99592262040665,825
-144.48442965570587,838
-141.97363127421409,953
-139.46352728417958,978
-136.95411749377126,906
-134.44540171107985,786
-131.93737974411636,837
-129.43005140081357,917
-126.92341648902493,1118
-124.41747481652521,1428
-121.91222619101006,1645
-119.40767042009657,1791
-116.90380731132257,2057
-114.40063667214702,2312
-111.8981583099503,2078
-109.3963720320337,1730
-106.89527764561933,1503
-104.39487495785067,1410
-101.89516377579241,1954
-99.39614390642998,2685
-96.89781515667039,3299
-94.40017733334128,3301
-91.90323024319173,3123
-89.40697369289148,2917
-86.91140748903172,3294
-84.41653143812482,4062
-81.92234534660395,3916
-79.42884902082358,3183
-76.93604226705907,4579
-74.4439248915071,7645
-71.95249670028534,12171
-69.46175749943245,15725
-66.97170709490854,17386
-64.48234529259423,15480
-61.99367189829195,13530
-59.50568671772464,12035
-57.01838955653636,10997
-54.53178022029283,9763
-52.045858514480074,8731
-49.560624244506016,9860
-47.07607721569923,10507
-44.59221723330904,10330
-42.10904410250669,9913
-39.62655762838392,8866
-37.14475761595372,8565
-34.66364387015028,8810
-32.18321619582866,8580
-29.70347439776515,8702
-27.224418280657005,7834
-24.74604764912317,8975
-22.26836230770266,12639
-19.7913620608565,20880
-17.315046712966478,34382
-14.83941606833514,47414
-12.36446993118659,65041
-9.89020810566592,65041
-7.416630395839093,65041
-4.94373660569363,65041
-2.471526539137585,65041
-6.821210263296962E-13,65041
2.47084320796705,65041
4.941003281093458,65041
7.410480415786196,65041
9.879274808531363,65041
12.347386655893956,65041
14.814816154518212,65041
17.28156350112681,65041
19.74762889252179,65041
22.21301252558385,21610
24.67771459727237,4381
27.141735304626195,3341
29.605074844762612,3421
32.06773341487792,3291
34.52971121224755,2871
36.99100843422559,2237
39.45162527824516,1969
41.91156194181792,1658
44.370818622535126,1584
46.82939551806646,1409
49.287292826160524,1535
51.74451074464503,1688
54.201049471426245,1870
56.65690920448981,1700
59.112090141899785,1432
61.56659248179983,1512
64.02041642241159,1441
66.4735621620365,1130
68.92602989905402,1010
71.37781983192338,1301
73.82893215918205,1621
76.27936707944684,1728
78.72912479141326,1304
81.17820549385567,1131
83.62660938562783,1089
86.07433666566146,1100
88.5213875329681,1078
90.96776218663751,985
93.41346082583925,1129
95.85848364982041,1071
98.30283085790859,982
100.7465026495089,1019
103.18949922410604,1121
105.63182078126385,1029
108.07346752062438,918
110.51443964190923,1005
112.95473734491827,1046
115.39436082953114,930
117.83331029570547,982
120.27158594347827,1035
122.7091879729652,1020
125.1461165843615,961
127.58237197794062,1043
130.01795435405518,1106
132.4528639131364,1054
134.88710085569494,921
137.32066538231982,1052
139.75355769367923,1046
142.1857779905207,837
144.61732647366978,792
147.04820334403132,801
149.47840880258934,837
151.90794305040674,888
154.33680628862487,960
156.76499871846443,1100
159.19252054122433,1151
161.61937195828352,1228
164.04555317109896,1264
166.47106438120693,1488
168.89590579022217,1625
171.320077599839,1737
173.7435800118302,1895
176.16641322804742,2039
178.58857745042144,2098
181.01007288096173,2170
183.43089972175687,2149
185.85105817497413,2049
188.27054844285988,2009
190.6893707277394,2016
193.10752523201643,2107
195.5250121581745,2250
197.9418317087751,2262
200.3579840864594,2233
202.7734694939469,2274
205.18828813403627,2232
207.6024402096051,2418
210.01592592360964,2456
212.42874547908548,2456
214.84089907914665,2321
217.2523869269868,2330
219.66320922587727,2416
222.0733661791695,2321
224.48285799029293,2266
226.8916848627572,2415
229.29984700014882,2446
231.7073446061355,2451
234.11417788446204,2413
236.520347038953,2393
238.92585227351185,2432
241.33069379212054,2456
243.73487179884035,2536
246.1383864978112,2527
248.541238093252,2532
250.9434267894609,2561
253.34495279081432,2587
255.74581630176783,2616
258.1460175268563,2561
260.54555667069314,2563
262.9444339379703,2583
265.3426495334594,2581
267.7402036620107,2532
270.1370965285529,2525
272.53332833809407,2464
274.9288992957214,2361
277.32380960660055,2346
279.718059475976,2264
282.1116491091717,2320
284.5045787115897,2212
286.89684848871195,2267
289.2884586460981,2250
291.67940938938807,2241
294.0697009242996,2251
296.4593334566299,2232
298.84830719225477,2277
301.23662233712923,2245
303.6242790972866,2313
306.01127767884,2280
308.39761828798066,2181
310.78330113097934,2110
313.16832641418534,2126
315.5526943440269,2121
317.9364051270112,2118
320.3194589697242,2074
322.70185607883093,2056
325.0835966610754,2051
327.4646809232805,2125
329.8451090723478,2062
332.2248813152577,2018
334.6039978590701,1992
336.9824589109231,2052
339.36026467803447,2026
341.7374153677,1978
344.113911187295,1900
346.48975234427337,1996
348.8649390461686,2016
351.2394715005918,2058
353.61334991523415,1989
355.9865744978655,1930
358.35914545633375,1981
360.73106299856715,1907
363.10232733257146,1996
365.47293866643247,1979
367.84289720831396,1914
370.2122031664593,1931
372.5808567491905,1994
374.9488581649083,1903
377.31620762209275,1876
379.6829053293021,1873
382.0489514951745,1870
384.4143463284262,1851
386.7790900378528,1842
389.14318283232853,1887
391.50662492080653,1823
393.86941651231916,1868
396.23155781597745,1863
398.5930490409713,1871
400.9538903965696,1893
403.3140820921202,1885
405.6736243370498,1895
408.03251734086336,1827
410.3907613131465,1851
412.74835646356166,1780
415.10530300185144,1801
417.4616011378372,1812
419.81725108141893,1834
422.1722530425758,1822
424.5266072313656,1798
426.880313857925,1811
429.2333731324701,1877
431.58578526529516,1837
433.9375504667738,1788
436.2886689473588,1813
438.63914091758113,1816
440.9889665880513,1781
443.33814616945835,1792
445.68667987257015,1723
448.03456790823395,1750
450.3818104873759,1765
452.72840782100013,1804
455.07436012019105,1793
457.41966759611057,1810
459.7643304600007,1772
462.10834892318155,1839
464.4517231970525,1789
466.79445349309174,1780
469.1365400228566,1778
471.4779829979826,1848
473.81878263018564,1734
476.15893913125876,1836
478.4984527130747,1901
480.8373235875855,1844
483.17555196682144,1871
485.5131380628919,1863
487.8500820879857,1883
490.1863842543697,1979
492.52204477439034,2136
494.8570638604725,2210
497.1914417251204,2436
499.52517858091653,2740
501.85827464052306,2963
504.19073011668036,3232
506.5225452222086,3356
508.85372017000566,3231
511.18425517304956,3206
513.514150444396,3240
515.8434061971808,3571
518.1720226446176,3967
520.4999999999999,4124
522.8273384766991,3936
525.1540382881666,3621
527.480099647932,3435
529.8055227696037,2919
532.1303078668694,2384
534.454455153496,2110
536.777964843328,1945
539.1008371502907,1896
541.4230722883866,1977
543.744670471698,1816
546.0656319143858,1781
548.3859568306899,1836
550.7056454349294,1836
553.0246979415016,1785
555.3431145648834,1768
557.6608955196306,1819
559.978041020377,1856
562.2945512818363,1810
564.6104265188006,1799
566.9256669461412,1833
569.2402727788082,1851
571.5542442318302,1845
573.8675815203156,1886
576.1802848594508,1899
578.4923544645015,1948
580.8037905508126,1942
583.114593333807,1900
585.4247630289875,1887
587.7342998519354,1851
590.0432040183106,1874
592.3514757438526,1901
594.6591152443794,1840
596.9661227357875,1849
599.2724984340531,1827
601.578242555231,1877
603.8833553154542,1811
606.1878369309362,1835
608.4916876179676,1895
610.7949075929192,1929
613.0974970722403,1888
615.3994562724587,1880
617.7007854101818,1908
620.0014847020951,1911
622.3015543649641,1883
624.6009946156324,1887
626.8998056710224,1848
629.1979877481361,1854
631.4955410640538,1854
633.7924658359349,1851
636.0887622810175,1932
638.3844306166192,1804
640.6794710601358,1866
642.9738838290426,1946
645.2676691408932,1915
647.5608272133207,1818
649.853358264037,1881
652.1452625108324,1866
654.4365401715764,1889
656.7271914642178,1929
659.0172166067838,1971
661.3066158173809,1906
663.5953893141935,1933
665.8835373154867,1874
668.1710600396028,1833
670.4579577049639,1904
672.7442305300709,1975
675.0298787335033,1909
677.3149025339197,1883
679.599302150058,1898
681.8830778007342,1902
684.1662297048437,1936
686.4487580813608,1918
688.7306631493387,1890
691.0119451279091,1862
693.2926042362834,1939
695.5726406937516,1894
697.8520547196814,1803
700.1308465335215,1841
702.4090163547982,1820
704.6865644031171,1871
706.9634908981619,1838
709.2397960596965,1922
711.5154801075631,1896
713.7905432616823,1884
716.0649857420548,1865
718.3388077687592,1854
720.612009561953,1894
722.8845913418733,1917
725.1565533288352,1930
727.427895743234,1919
729.6986188055427,1861
731.9687227363137,1910
734.238207756178,1928
736.5070740858458,1826
738.7753219461066,1828
741.0429515578281,1888
743.3099631419569,1914
745.5763569195191,1902
747.8421331116193,1940
750.1072919394409,1894
752.3718336242467,1943
754.6357583873777,1958
756.8990664502545,1932
759.1617580343765,1971
761.423833361321,1976
763.6852926527457,1931
765.9461361303862,1926
768.206364016058,1911
770.4659765316536,1912
772.7249738991469,1866
774.9833563405886,1919
777.2411240781092,1917
779.4982773339183,1885
781.7548163303044,1842
784.010741289634,1917
786.2660524343538,2027
788.5207499869881,1871
790.7748341701416,1934
793.0283052064964,1943
795.2811633188143,1953
797.5334087299362,1949
799.7850416627813,1943
802.0360623403484,1932
804.2864709857143,1910
806.5362678220353,1916
808.7854530725468,1939
811.0340269605625,1979
813.2819897094754,1973
815.5293415427581,1923
817.77608268396,1925
820.0222133567116,1895
822.2677337847211,1908
824.5126441917765,1908
826.7569448017433,1961
829.0006358385675,1968
831.2437175262731,1920
833.4861900889629,1913
835.7280537508192,1914
837.9693087361026,1948
840.2099552691533,1906
842.4499935743896,1889
844.689423876309,1895
846.9282463994886,1906
849.1664613685833,1884
851.4040690083276,1924
853.6410695435349,1984
855.877463199097,1953
858.1132501999847,1964
860.3484307712487,1977
862.5830051380175,1960
864.8169735254988,1915
867.0503361589791,1899
869.2830932638243,1966
871.5152450654786,1967
873.7467917894654,1921
875.9777336613873,1920
878.2080709069252,1884
880.4378037518389,2032
882.666932421968,1966
884.8954571432301,1963
887.1233781416219,1929
889.3506956432192,1920
891.5774098741766,2040
893.803521060728,1976
896.0290294291852,1923
898.2539352059397,2003
900.4782386174619,1931
902.7019398903011,1967
904.925039251085,1986
907.147536926521,1961
909.3694331433943,1902
911.59072812857,1901
913.8114221089921,1959
916.0315153116827,1968
918.2510079637437,1927
920.4699002923547,1985
922.6881925247761,1977
924.905884888345,1937
927.1229776104793,1942
929.3394709186747,2016
931.555365040506,1947
933.7706602036275,2003
935.9853566357709,1982
938.1994545647489,1993
940.4129542184515,2018
942.6258558248488,1877
944.8381596119883,1933
947.0498658079974,2029
949.2609746410825,1941
951.4714863395287,1947
953.6814011316998,1911
955.8907192460387,1893
958.0994409110671,1852
960.3075663553858,1926
962.5150958076741,1920
964.7220294966913,1876
966.928367651274,1834
969.1341105003388,1856
971.3392582728806,1847
973.5438111979742,1846
975.747769504772,1870
977.9511334225061,1831
980.153903180487,1866
982.3560790081052,1851
984.5576611348289,1875
986.7586497902058,1852
988.9590452038618,1818
991.158847605503,1791
993.3580572249133,1818
995.5566742919558,1810
997.7546990365728,1730
999.952131688785,1781
1002.1489724786926,1749
1004.3452216364743,1701
1006.5408793923874,1710
1008.7359459767691,1674
1010.9304216200343,1774
1013.1243065526781,1739
1015.3176010052733,1674
1017.510305208472,1644
1019.7024193930064,1676
1021.8939437896848,1644
1024.0848786293977,1604
1026.2752241431122,1641
1028.4649805618747,1614
1030.6541481168115,1599
1032.842727039127,1626
1035.0307175601051,1629
1037.2181199111074,1676
1039.4049343235752,1638
1041.591161029029,1603
1043.7768002590683,1691
1045.9618522453698,1613
1048.1463172196918,1672
1050.3301954138697,1647
1052.513487059818,1637
1054.69619238953,1631
1056.8783116350783,1677
1059.0598450286152,1657
1061.2407928023704,1612
1063.4211551886528,1568
1065.6009324198508,1658
1067.780124728432,1610
1069.9587323469414,1584
1072.1367555080046,1595
1074.314194444325,1571
1076.4910493886855,1627
1078.667320573947,1603
1080.843008233051,1655
1083.0181125990161,1556
1085.1926339049414,1582
1087.3665723840027,1587
1089.5399282694575,1645
1091.7127017946405,1611
1093.8848931929647,1652
1096.0565026979243,1592
1098.2275305430899,1586
1100.3979769621128,1539
1102.567842188722,1573
1104.737126456726,1624
1106.9058300000124,1638
1109.0739530525475,1561
1111.2414958483764,1589
1113.4084586216231,1532
1115.5748416064907,1567
1117.7406450372605,1529
1119.9058691482942,1616
1122.0705141740304,1576
1124.2345803489884,1548
1126.3980679077658,1485
1128.5609770850388,1504
1130.7233081155623,1577
1132.8850612341707,1518
1135.0462366757774,1579
1137.2068346753745,1539
1139.3668554680326,1549
1141.526299288901,1515
1143.68516637321,1529
1145.8434569562655,1519
1148.001171273455,1525
1150.158309560244,1550
1152.3148720521767,1552
1154.470858984876,1538
1156.626270594044,1495
1158.7811071154629,1592
1160.9353687849912,1571
1163.089055838569,1540
1165.242168512213,1514
1167.3947070420209,1546
1169.5466716641677,1535
1171.6980626149075,1476
1173.8488801305748,1533
1175.9991244475814,1547
1178.1487958024186,1531
1180.2978944316555,1536
1182.4464205719428,1543
1184.5943744600072,1580
1186.7417563326567,1541
1188.8885664267755,1519
1191.0348049793297,1505
1193.1804722273619,1556
1195.325568407995,1539
1197.4700937584303,1519
1199.614048515948,1510
1201.7574329179074,1516
1203.900247201746,1574
1206.042491604982,1635
1208.1841663652099,1509
1210.3252717201053,1525
1212.465807907422,1528
1214.6057751649923,1547
1216.7451737307279,1567
1218.8840038426192,1596
1221.0222657387353,1529
1223.1599596572241,1578
1225.2970858363137,1624
1227.4336445143094,1569
1229.5696359295966,1606
1231.705060320639,1573
1233.8399179259786,1608
1235.9742089842384,1588
1238.107933734118,1597
1240.2410924143974,1567
1242.373685263935,1543
1244.5057125216676,1605
1246.6371744266116,1598
1248.7680712178621,1572
1250.898403134593,1562
1253.028170416058,1584
1255.1573733015875,1565
1257.2860120305932,1514
1259.4140868425648,1564
1261.54159797707,1605
1263.6685456737569,1591
1265.7949301723515,1588
1267.9207517126597,1582
1270.046010534565,1573
1272.1707068780306,1656
1274.2948409830983,1596
1276.4184130898889,1609
1278.541423438603,1649
1280.6638722695184,1669
1282.785759822993,1642
1284.9070863394636,1623
1287.0278520594447,1652
1289.1480572235314,1678
1291.2677020723963,1709
1293.3867868467923,1659
1295.5053117875495,1686
1297.623277135579,1641
1299.740683131868,1764
1301.8575300174857,1658
1303.973818033578,1692
1306.0895474213703,1688
1308.2047184221678,1738
1310.3193312773528,1762
1312.4333862283888,1685
1314.5468835168163,1702
1316.659823384255,1706
1318.7722060724045,1626
1320.8840318230418,1690
1322.9953008780249,1678
1325.1060134792888,1689
1327.2161698688478,1703
1329.3257702887959,1737
1331.4348149813054,1782
1333.5433041886276,1794
1335.6512381530933,1776
1337.7586171171101,1706
1339.8654413231675,1693
1341.9717110138317,1768
1344.0774264317488,1709
1346.1825878196432,1667
1348.2871954203192,1687
1350.3912494766587,1710
1352.4947502316231,1679
1354.5976979282532,1662
1356.7000928096686,1773
1358.8019351190665,1689
1360.9032250997243,1669
1363.0039629949988,1707
1365.1041490483235,1701
1367.2037835032133,1743
1369.3028666032606,1666
1371.401398592137,1677
1373.4993797135926,1693
1375.5968102114575,1679
1377.6936903296396,1689
1379.7900203121262,1702
1381.8858004029835,1715
1383.9810308463561,1698
1386.075711886469,1649
1388.1698437676241,1705
1390.2634267342032,1697
1392.356461030667,1661
1394.4489469015557,1696
1396.5408845914872,1699
1398.6322743451592,1653
1400.7231164073469,1769
1402.813411022907,1712
1404.903158436773,1740
1406.9923588939578,1758
1409.0810126395531,1794
1411.1691199187303,1808
1413.2566809767386,1741
1415.343696058907,1716
1417.4301654106425,1723
1419.5160892774315,1742
1421.6014679048399,1788
1423.6863015385125,1759
1425.7705904241707,1801
1427.8543348076178,1791
1429.9375349347342,1780
1432.0201910514802,1727
1434.102303403894,1817
1436.1838722380944,1813
1438.2648978002767,1764
1440.3453803367174,1819
1442.4253200937692,1832
1444.5047173178677,1883
1446.5835722555234,1834
1448.6618851533285,1891
1450.739656257952,1929
1452.8168858161434,1908
1454.8935740747306,1923
1456.96972128062,1877
1459.045327680797,1883
1461.120393522327,1903
1463.1949190523528,1976
1465.2689045180973,2007
1467.3423501668608,1939
1469.415256246024,1982
1471.4876230030463,2062
1473.559450685465,2081
1475.6307395408976,2007
1477.7014898170391,2058
1479.771701761665,2139
1481.8413756226287,2019
1483.9105116478618,2130
1485.9791100853772,2139
1488.0471711832643,2084
1490.1146951896926,2186
1492.1816823529098,2214
1494.2481329212433,2121
1496.3140471430984,2190
1498.3794252669609,2204
1500.4442675413939,2224
1502.5085742150404,2205
1504.572345536622,2293
1506.6355817549388,2246
1508.6982831188702,2304
1510.7604498773744,2259
1512.8220822794883,2203
1514.8831805743293,2251
1516.9437450110909,2278
1519.003775839048,2284
1521.0632733075522,2277
1523.1222376660367,2325
1525.1806691640113,2338
1527.2385680510652,2300
1529.2959345768668,2336
1531.3527689911643,2333
1533.4090715437833,2359
1535.4648424846291,2355
1537.5200820636855,2384
1539.5747905310159,2421
1541.6289681367616,2370
1543.6826151311434,2412
1545.7357317644614,2397
1547.7883182870937,2508
1549.8403749494987,2485
1551.8919020022113,2505
1553.9428996958477,2526
1555.9933682811015,2552
1558.0433080087469,2661
1560.0927191296346,2593
1562.1416018946961,2768
1564.1899565549415,2728
1566.2377833614592,2698
1568.2850825654164,2674
1570.3318544180606,2743
1572.3780991707158,2623
1574.423817074788,2621
1576.4690083817595,2637
1578.5136733431923,2470
1580.5578122107272,2399
1582.601425236085,2372
1584.6445126710646,2337
1586.6870747675434,2213
1588.7291117774776,2218
1590.7706239529034,2221
1592.8116115459347,2090
1594.8520748087658,2039
1596.8920139936686,2098
1598.9314293529933,2051
1600.9703211391711,2104
1603.008689604711,1970
1605.0465350022005,1937
1607.0838575843068,1909
1609.1206576037753,1912
1611.1569353134305,1852
1613.1926909661765,1849
1615.2279248149953,1869
1617.2626371129481,1822
1619.2968281131757,1809
1621.3304980688963,1787
1623.3636472334088,1803
1625.39627586009,1773
1627.428384202396,1737
1629.459972513861,1774
1631.4910410480993,1732
1633.5215900588028,1751
1635.551619799744,1764
1637.5811305247717,1731
1639.6101224878166,1698
1641.6385959428862,1672
1643.6665511440683,1695
1645.693988345528,1674
1647.7209078015112,1698
1649.7473097663405,1618
1651.7731944944203,1642
1653.7985622402307,1735
1655.823413258333,1672
1657.847747803366,1691
1659.8715661300494,1634
1661.8948684931793,1707
1663.9176551476316,1721
1665.9399263483624,1665
1667.9616823504057,1617
1669.982923408873,1643
1672.0036497789574,1717
1674.0238617159293,1649
1676.043559475138,1704
1678.0627433120121,1615
1680.081413482059,1647
1682.0995702408654,1573
1684.117213844096,1658
1686.134344547495,1626
1688.1509626068864,1650
1690.1670682781705,1593
1692.182661817329,1643
1694.1977434804217,1558
1696.2123135235875,1639
1698.226372203043,1716
1700.2399197750851,1686
1702.2529564960905,1687
1704.2654826225112,1642
1706.277498410882,1684
1708.2890041178139,1638
1710.2999999999988,1631
1712.3104863142066,1651
1714.3204633172854,1648
1716.329931266163,1645
1718.3388904178469,1653
1720.3473410294214,1634
1722.3552833580516,1623
1724.3627176609807,1714
1726.3696441955308,1629
1728.3760632191033,1611
1730.3819749891782,1748
1732.3873797633146,1619
1734.3922777991502,1595
1736.3966693544012,1632
1738.4005546868639,1614
1740.4039340544127,1620
1742.406807715001,1682
1744.4091759266616,1622
1746.4110389475054,1653
1748.4123970357223,1652
1750.413250449582,1597
1752.4135994474318,1612
1754.4134442876993,1593
1756.4127852288902,1614
1758.4116225295893,1607
1760.4099564484595,1606
1762.407787244244,1601
1764.405115175764,1606
1766.4019405019203,1635
1768.3982634816916,1599
1770.3940843741357,1646
1772.3894034383907,1606
1774.3842209336717,1625
1776.378537119274,1556
1778.372352254571,1630
1780.3656665990156,1666
1782.3584804121397,1592
1784.3507939535534,1619
1786.3426074829463,1567
1788.3339212600863,1608
1790.3247355448211,1635
1792.3150505970766,1579
1794.3048666768573,1678
1796.2941840442477,1616
1798.2830029594106,1605
1800.2713236825884,1633
1802.2591464741004,1583
1804.2464715943465,1560
1806.2332993038058,1616
1808.2196298630352,1547
1810.2054635326708,1571
1812.190800573428,1637
1814.175641246101,1534
1816.1599858115628,1610
1818.1438345307652,1635
1820.127187664738,1555
1822.1100454745924,1555
1824.092408221516,1622
1826.0742761667766,1647
1828.055649571721,1575
1830.0365286977735,1664
1832.0169138064398,1583
1833.9968051593014,1594
1835.9762030180214,1588
1837.9551076443408,1578
1839.9335193000788,1583
1841.9114382471344,1640
1843.888864747485,1642
1845.8657990631878,1590
1847.842241456378,1579
1849.8181921892697,1529
1851.7936515241558,1529
1853.7686197234098,1634
1855.7430970494815,1623
1857.7170837649014,1596
1859.6905801322787,1611
1861.6635864143004,1592
1863.6361028737338,1587
1865.608129773424,1623
1867.5796673762961,1628
1869.5507159453537,1657
1871.521275743678,1645
1873.4913470344313,1611
1875.4609300808534,1591
1877.4300251462632,1654
1879.3986324940588,1676
1881.366752387717,1608
1883.3343850907936,1579
1885.3015308669228,1646
1887.268189979819,1645
1889.2343626932739,1647
1891.2000492711595,1657
1893.1652499774254,1661
1895.1299650761011,1616
1897.0941948312952,1615
1899.0579395071945,1645
1901.0211993680641,1605
1902.98397467825,1571
1904.9462657021745,1569
1906.9080727043415,1592
1908.869395949332,1568
1910.8302357018065,1622
1912.790592226504,1601
1914.7504657882428,1574
1916.7098566519212,1628
1918.6687650825133,1610
1920.6271913450764,1674
1922.5851357047422,1599
1924.5425984267245,1617
1926.499579776314,1606
1928.4560800188833,1608
1930.4120994198802,1635
1932.367638244833,1637
1934.32269675935,1550
1936.2772752291175,1644
1938.231373919899,1597
1940.1849930975404,1625
1942.1381330279637,1586
1944.0907939771696,1609
1946.0429762112412,1636
1947.9946799963363,1632
1949.9459055986945,1569
1951.896653284633,1588
1953.8469233205478,1586
1955.7967159729142,1588
1957.7460315082863,1559
1959.6948701932974,1572
1961.6432322946594,1545
1963.5911180791632,1573
1965.5385278136787,1704
1967.4854617651545,1555
1969.4319202006182,1573
1971.377903387176,1567
1973.3234115920136,1539
1975.268445082395,1577
1977.2130041256642,1609
1979.1570889892423,1549
1981.1006999406304,1553
1983.04383724741,1572
1984.986501177238,1606
1986.928691997853,1585
1988.8704099770712,1578
1990.811655382789,1584
1992.7524284829801,1581
1994.692729545698,1519
1996.6325588390755,1576
1998.5719166313224,1500
2000.5108031907307,1544
2002.4492187856677,1547
2004.387163684583,1518
2006.3246381560011,1575
2008.2616424685298,1524
2010.1981768908527,1547
2012.1342416917332,1565
2014.069837140014,1555
2016.0049635046162,1626
2017.9396210545406,1514
2019.8738100588666,1564
2021.8075307867502,1552
2023.740783507431,1533
2025.6735684902228,1472
2027.6058860045214,1519
2029.5377363198004,1586
2031.4691197056118,1549
2033.4000364315875,1507
2035.3304867674374,1535
2037.260470982952,1501
2039.189989347998,1521
2041.1190421325232,1530
2043.047629606554,1507
2044.9757520401945,1546
2046.9034097036288,1529
2048.8306028671195,1576
2050.7573318010086,1542
2052.683596775716,1519
2054.609398061742,1521
2056.5347359296647,1524
2058.4596106501403,1517
2060.384022493906,1569
2062.3079717317764,1515
2064.231458634646,1452
2066.1544834734873,1517
2068.077046519352,1505
2069.99914804337,1513
2071.9207883167524,1557
2073.8419676107865,1519
2075.7626861968406,1572
2077.6829443463607,1554
2079.6027423308715,1532
2081.522080421977,1565
2083.440958891362,1526
2085.359378010786,1505
2087.2773380520907,1515
2089.194839287196,1478
2091.111881988101,1504
2093.0284664268825,1498
2094.9445928756973,1562
2096.86026160678,1540
2098.775472892446,1584
2100.690227005088,1534
2102.604524217178,1509
2104.5183648012676,1531
2106.431749029985,1478
2108.34467717604,1507
2110.2571495122206,1534
2112.169166311393,1505
2114.080727846503,1525
2115.9918343905747,1564
2117.902486216711,1477
2119.8126835980956,1545
2121.722426807987,1551
2123.6317161197285,1568
2125.5405518067364,1511
2127.448934142509,1555
2129.356863400624,1577
2131.264339854737,1525
2133.1713637785815,1550
2135.077935445972,1541
2136.9840551308002,1551
2138.889723107037,1529
2140.7949396487334,1529
2142.699705030018,1594
2144.6040195250994,1577
2146.507883408264,1486
2148.4112969538774,1569
2150.3142604363848,1503
2152.2167741303097,1555
2154.1188383102535,1563
2156.0204532508997,1588
2157.9216192270064,1557
2159.822336513414,1522
2161.7226053850413,1545
2163.622426116884,1577
2165.5217989840185,1554
2167.4207242616,1573
2169.319202224862,1591
2171.2172331491165,1558
2173.1148173097563,1567
2175.0119549822507,1560
2176.90864644215,1529
2178.8048919650823,1591
2180.7006918267534,1599
2182.596046302952,1570
2184.4909556695407,1551
2186.3854202024645,1627
2188.279440177746,1590
2190.173015871487,1606
2192.066147559868,1532
2193.958835519149,1525
2195.851080025667,1575
2197.7428813558417,1571
2199.6342397861667,1573
2201.5251555932186,1584
2203.415629053651,1607
2205.3056604441986,1637
2207.19525004167,1590
2209.084398122958,1625
2210.9731049650327,1601
2212.861370844941,1609
2214.749196039812,1657
2216.636580826851,1617
2218.523525483344,1591
2220.410030286655,1643
2222.296095514226,1615
2224.1817214435805,1584
2226.066908352319,1591
2227.951656518121,1588
2229.835966218746,1593
2231.71983773203,1594
2233.6032713358913,1650
2235.486267308324,1571
2237.3688259274036,1576
2239.2509474712824,1572
2241.132632218193,1593
2243.013880446447,1568
2244.8946924344323,1623
2246.7750684606203,1560
2248.6550088035574,1590
2250.534513741871,1591
2252.413583554265,1617
2254.292218519526,1541
2256.170418916517,1587
2258.0481850241786,1606
2259.925517121534,1609
2261.8024154876825,1602
2263.678880401803,1587
2265.5549121431536,1577
2267.430510991071,1569
2269.305677224971,1588
2271.180411124348,1501
2273.0547129687766,1569
2274.9285830379076,1534
2276.8020216114737,1523
2278.6750289692845,1559
2280.5476053912294,1544
2282.4197511572766,1561
2284.2914665474727,1575
2286.162751841943,1573
2288.0336073208937,1560
2289.904033264608,1610
2291.774029953448,1633
2293.6435976678554,1577
2295.5127366883517,1584
2297.381447295534,1560
2299.2497297700825,1575
2301.1175843927526,1540
2302.9850114443825,1494
2304.852011205885,1503
2306.7185839582553,1483
2308.5847299825664,1486
2310.4504495599676,1477
2312.3157429716925,1397
2314.1806104990483,1443
2316.0450524234247,1480
2317.9090690262888,1493
2319.772660589186,1437
2321.635827393742,1472
2323.498569721661,1441
2325.3608878547248,1401
2327.2227820747967,1438
2329.0842526638157,1463
2330.945299903803,1421
2332.805924076857,1420
2334.6661254651535,1426
2336.525904350951,1404
2338.3852610165827,1450
2340.244195744464,1408
2342.102708817088,1444
2343.9608005170253,1459
2345.8184711269287,1447
2347.675720929526,1415
2349.532550207628,1374
2351.38895924412,1446
2353.24494832197,1424
2355.100517724223,1449
2356.955667734004,1411
2358.810398634514,1424
2360.664710709037,1430
2362.5186042409337,1419
2364.3720795136437,1411
2366.225136810686,1419
2368.0777764156583,1449
2369.929998612237,1408
2371.7818036841777,1439
2373.633191915315,1505
2375.484163589562,1437
2377.3347189909114,1434
2379.184858403434,1468
2381.03458211128,1477
2382.8838903986775,1473
2384.732783549936,1416
2386.5812618494406,1438
2388.4293255816588,1497
2390.2769750311327,1417
2392.1242104824883,1459
2393.971032220427,1471
2395.8174405297295,1421
2397.6634356952563,1458
2399.509018001947,1442
2401.3541877348193,1409
2403.1989451789705,1435
2405.043290619576,1436
2406.8872243418905,1451
2408.730746631247,1445
2410.5738577730594,1391
2412.4165580528183,1407
2414.258847756095,1475
2416.100727168537,1453
2417.9421965758734,1392
2419.783256263912,1432
2421.623906518538,1486
2423.4641476257157,1381
2425.303979871491,1401
2427.143403541984,1510
2428.9824189233977,1473
2430.821026302012,1441
2432.6592259641866,1473
2434.497018196361,1415
2436.33440328505,1409
2438.171381516851,1426
2440.00795317844,1418
2441.844118556569,1415
2443.6798779380724,1468
2445.5152316098606,1496
2447.3501798589255,1458
2449.1847229723357,1493
2451.0188612372403,1406
2452.8525949408663,1451
2454.6859243705203,1422
2456.518849813587,1375
2458.3513715575314,1425
2460.183489889895,1437
2462.015205098301,1507
2463.8465174704493,1435
2465.67742729412,1377
2467.5079348571717,1426
2469.338040447542,1424
2471.1677443532476,1466
2472.9970468623833,1443
2474.825948263123,1387
2476.6544488437207,1352
2478.482548892508,1477
2480.310248697896,1390
2482.137548548374,1451
2483.9644487325118,1400
2485.790949538956,1441
2487.617051256433,1444
2489.44275417375,1409
2491.26805857979,1442
2493.0929647635157,1403
2494.917473013971,1424
2496.741583620276,1441
2498.5652968716304,1461
2500.3886130573137,1435
2502.2115324666834,1470
2504.0340553891765,1480
2505.856182114308,1451
2507.6779129316733,1425
2509.499248130945,1498
2511.3201880018764,1410
2513.140732834298,1443
2514.9608829181198,1459
2516.780638543331,1443
2518.6,1458
2520.418967578273,1422
2522.237541568376,1454
2524.0557222606144,1482
2525.8735099453706,1432
2527.6909049131086,1502
2529.507907454368,1492
2531.32451785977,1507
2533.140736420014,1474
2534.9565634258774,1525
2536.771999168218,1499
2538.5870439379714,1506
2540.4016980261526,1488
2542.2159617238544,1566
2544.02983532225,1499
2545.8433191125914,1524
2547.656413386209,1614
2549.4691184345115,1583
2551.2814345489874,1479
2553.093362021204,1576
2554.904901142808,1553
2556.716052205523,1504
2558.526815501153,1545
2560.3371913215824,1486
2562.147179958771,1534
2563.956781704761,1517
2565.7659968516705,1589
2567.5748256916986,1554
2569.3832685171224,1583
2571.1913256202984,1580
2572.9989972936614,1553
2574.806283829725,1549
2576.613185521084,1557
2578.4197026604074,1574
2580.2258355404483,1590
2582.031584454035,1624
2583.836949694077,1614
2585.6419315535613,1586
2587.4465303255533,1622
2589.2507463032002,1614
2591.0545797797245,1580
2592.8580310484303,1588
2594.6611004026995,1572
2596.463788135992,1637
2598.266094541849,1615
2600.0680199138874,1631
2601.869564545807,1605
2603.670728731383,1641
2605.4715127644704,1626
2607.2719169390048,1598
2609.071941548998,1604
2610.8715868885433,1593
2612.670853251811,1606
2614.469740933052,1590
2616.268250226594,1596
2618.0663814268455,1611
2619.864134828292,1621
2621.6615107255006,1613
2623.458509413115,1563
2625.2551311858597,1612
2627.0513763385347,1578
2628.8472451660223,1583
2630.6427379632833,1576
2632.4378550253564,1591
2634.232596647359,1560
2636.026963124488,1542
2637.8209547520187,1560
2639.6145718253065,1548
2641.407814639785,1511
2643.200683490966,1554
2644.9931786744414,1562
2646.7853004858807,1492
2648.577049221034,1492
2650.3684251757277,1510
2652.1594286458712,1511
2653.9500599274484,1492
2655.740319316525,1519
2657.5302071092437,1493
2659.3197236018286,1429
2661.10886909058,1464
2662.8976438718782,1496
2664.686048242183,1477
2666.4740824980327,1561
2668.2617469360443,1467
2670.0490418529134,1505
2671.8359675454153,1536
2673.622524310403,1477
2675.408712444811,1488
2677.1945322456495,1430
2678.979984010009,1449
2680.76506803506,1421
2682.5497846180497,1387
2684.334134056306,1407
2686.1181166472343,1498
2687.9017326883213,1446
2689.6849824771293,1409
2691.4678663113013,1434
2693.2503844885596,1420
2695.032537306705,1442
2696.8143250636167,1413
2698.5957480572542,1441
2700.3768065856534,1448
2702.1575009469316,1463
2703.937831439283,1383
2705.717798360982,1443
2707.4974020103837,1399
2709.276642685917,1397
2711.055520686095,1388
2712.834036309506,1419
2714.612189854819,1392
2716.389981620782,1411
2718.1674119062204,1380
2719.944481010041,1361
2721.721189231226,1396
2723.4975368688415,1373
2725.273524222027,1376
2727.0491515900053,1386
2728.824419272075,1399
2730.5993275676146,1382
2732.3738767760838,1369
2734.148067197016,1389
2735.921899130031,1423
2737.6953728748194,1426
2739.468488731156,1395
2741.2412469988926,1388
2743.0136479779617,1336
2744.785691968372,1388
2746.5573792702116,1358
2748.3287101836504,1348
2750.099685008934,1407
2751.870304046388,1369
2753.640567596418,1342
2755.4104759595057,1375
2757.1800294362156,1311
2758.949228327187,1337
2760.7180729331412,1420
2762.486563554877,1337
2764.254700493272,1393
2766.022484049284,1379
2767.789914523947,1362
2769.5569922183786,1355
2771.3237174337705,1367
2773.090090471394,1359
2774.8561116326036,1344
2776.6217812188274,1362
2778.3870995315756,1373
2780.1520668724356,1377
2781.9166835430747,1366
2783.6809498452394,1371
2785.444866080754,1414
2787.2084325515225,1388
2788.971649559527,1362
2790.73451740683,1378
2792.4970363955713,1380
2794.2592068279705,1330
2796.0210290063264,1351
2797.7825032330147,1431
2799.543629810493,1366
2801.304409041296,1386
2803.0648412280366,1348
2804.8249266734088,1340
2806.5846656801846,1354
2808.344058551212,1358
2810.1031055894246,1384
2811.8618070978273,1407
2813.6201633795085,1396
2815.378174737636,1357
2817.1358414754536,1358
2818.893163896285,1337
2820.6501423035334,1323
2822.4067770006814,1430
2824.1630682912883,1353
2825.9190164789957,1315
2827.6746218675207,1404
2829.429884760661,1374
2831.184805462294,1370
2832.9393842763743,1316
2834.693621506936,1353
2836.4475174580916,1320
2838.201072434034,1362
2839.954286739034,1384
2841.707160677441,1381
2843.459694553685,1338
2845.2118886722724,1388
2846.96374333779,1377
2848.7152588549034,1386
2850.4664355283567,1377
2852.217273662973,1378
2853.9677735636546,1386
2855.7179355353833,1378
2857.4677598832186,1409
2859.217246912299,1393
2860.9663969278427,1349
2862.715210235146,1375
2864.4636871395846,1396
2866.211827946614,1376
2867.9596329617652,1349
2869.7071024906536,1376
2871.4542368389684,1379
2873.20103631248,1359
2874.947501217038,1350
2876.6936318585695,1317
2878.4394285430812,1356
2880.1848915766604,1377
2881.9300212654707,1350
2883.6748179157553,1350
2885.4192818338374,1389
2887.1634133261173,1369
2888.907212699077,1319
2890.6506802592744,1352
2892.393816313348,1303
2894.1366211680142,1372
2895.8790951300693,1380
2897.621238506388,1346
2899.363051603925,1345
2901.1045347297118,1382
2902.8456881908596,1360
2904.58651229456,1287
2906.327007348081,1318
2908.067173658772,1420
2909.8070115340597,1375
2911.5465212814497,1386
2913.285703208527,1386
2915.0245576229563,1352
2916.7630848324807,1342
2918.5012851449196,1335
2920.2391588681758,1390
2921.976706310227,1378
2923.7139277791334,1363
2925.4508235830313,1344
2927.187394030137,1316
2928.923639428745,1365
2930.6595600872306,1358
2932.395156314046,1307
2934.1304284177218,1352
2935.8653767068713,1333
2937.6000014901815,1313
2939.3343030764227,1358
2941.068281774442,1362
2942.8019378931644,1328
2944.5352717415976,1330
2946.2682836288236,1334
2948.0009738640065,1335
2949.7333427563885,1374
2951.465390615289,1355
2953.1971177501086,1298
2954.9285244703265,1353
2956.6596110855,1384
2958.3903779052657,1338
2960.1208252393385,1367
2961.8509533975125,1366
2963.5807626896617,1299
2965.3102534257378,1345
2967.0394259157715,1342
2968.768280469873,1268
2970.496817398232,1330
2972.2250370111146,1351
2973.952939618869,1366
2975.6805255319196,1400
2977.4077950607707,1325
2979.134748516006,1377
2980.861386208289,1386
2982.587708448359,1332
2984.313715547037,1297
2986.039407815222,1357
2987.764785563891,1332
2989.489849104102,1376
2991.2145987469908,1320
2992.9390348037705,1352
2994.6631575857346,1341
2996.3869674042576,1290
2998.1104645707887,1319
2999.83364939686,1304
3001.5565221940783,1353
3003.2790832741334,1332
3005.0013329487924,1337
3006.7232715298996,1299
3008.4448993293804,1400
3010.166216659239,1308
3011.887223831558,1341
3013.607921158498,1321
3015.3283089522993,1343
3017.0483875252826,1290
3018.7681571898443,1244
3020.4876182584626,1255
3022.2067710436927,1256
3023.9256158581707,1338
3025.644153014609,1323
3027.362382825801,1295
3029.0803056046193,1289
3030.797921664012,1317
3032.5152313170106,1294
3034.2322348767225,1269
3035.9489326563353,1321
3037.665324969115,1312
3039.3814121284063,1281
3041.097194447633,1263
3042.812672240299,1274
3044.5278458199855,1365
3046.2427155003525,1353
3047.9572815951406,1335
3049.671544418167,1272
3051.38550428333,1277
3053.0991615046073,1330
3054.812516396051,1346
3056.5255692717974,1319
3058.2383204460575,1355
3059.9507702331257,1308
3061.662918947372,1318
3063.3747669032446,1334
3065.0863144152736,1301
3066.7975617980674,1388
3068.508509366309,1305
3070.219157434767,1310
3071.9295063182844,1280
3073.639556331785,1287
3075.3493077902704,1309
3077.058761008821,1363
3078.7679163025964,1268
3080.476773986837,1292
3082.1853343768594,1323
3083.89359778806,1326
3085.6015645359153,1326
3087.3092349359786,1267
3089.016609303884,1297
3090.7236879553434,1319
3092.4304712061476,1251
3094.136959372166,1298
3095.843152769349,1307
3097.5490517137237,1313
3099.2546565213966,1330
3100.959967508554,1293
3102.66498499146,1299
3104.3697092864577,1333
3106.0741407099695,1336
3107.778279578498,1328
3109.482126208622,1326
3111.1856809170004,1262
3112.8889440203716,1286
3114.5919158355528,1274
3116.294596679439,1334
3117.996986869006,1356
3119.6990867213062,1266
3121.4008965534726,1368
3123.102416682717,1332
3124.803647426329,1318
3126.5045891016784,1308
3128.205242026213,1321
3129.90560651746,1290
3131.605682893025,1324
3133.3054714705922,1303
3135.0049725679282,1322
3136.7041865028714,1322
3138.4031135933465,1381
3140.101754157353,1325
3141.800108512971,1299
3143.498176978357,1256
3145.1959598717494,1321
3146.8934575114636,1304
3148.5906702158954,1249
3150.2875983035183,1247
3151.9842420928853,1278
3153.680601902627,1285
3155.376678051456,1266
3157.07247085816,1266
3158.767980641609,1285
3160.463207720748,1270
3162.158152414606,1313
3163.8528150422862,1283
3165.5471959229726,1306
3167.2412953759303,1278
3168.9351137204976,1294
3170.628651276098,1315
3172.3219083622307,1309
3174.014885298474,1293
3175.707582404485,1286
3177.4000000000005,1321
3179.092138404835,1279
3180.7839979388846,1293
3182.47557892212,1327
3184.166881674594,1294
3185.8579065164386,1254
3187.5486537678626,1291
3189.2391237491547,1302
3190.9293167806827,1303
3192.6192331828934,1315
3194.3088732763117,1288
3195.998237381542,1275
3197.687325819268,1259
3199.376138910251,1205
3201.064676975334,1257
3202.7529403354347,1281
3204.4409293115523,1263
3206.1286442247647,1225
3207.816085396229,1276
3209.5032531471825,1278
3211.190147798936,1283
3212.8767696728846,1269
3214.5631190905015,1332
3216.2491963733373,1237
3217.9350018430214,1263
3219.6205358212637,1305
3221.305798629851,1323
3222.990790590651,1271
3224.6755120256103,1256
3226.359963256751,1237
3228.0441446061795,1231
3229.7280563960758,1235
3231.411698948703,1213
3233.0950725863995,1258
3234.778177631587,1221
3236.461014406761,1254
3238.1435832345005,1288
3239.8258844374595,1260
3241.507918338374,1309
3243.1896852600576,1249
3244.8711855254023,1302
3246.552419457381,1305
3248.233387379042,1300
3249.914089613516,1240
3251.59452648401,1279
3253.274698313813,1265
3254.95460542629,1292
3256.6342481448855,1219
3258.313626793125,1258
3259.9927416946084,1249
3261.6715931730196,1205
3263.3501815521176,1208
3265.0285071557437,1240
3266.706570307815,1262
3268.3843713323286,1331
3270.0619105533615,1243
3271.739188295068,1204
3273.4162048816834,1194
3275.0929606375184,1266
3276.769455886966,1321
3278.445690954498,1272
3280.1216661646613,1210
3281.797381842087,1265
3283.4728383114807,1290
3285.1480358976296,1280
3286.8229749253996,1258
3288.4976557197333,1222
3290.172078605655,1246
3291.846243908266,1289
3293.5201519527463,1275
3295.193803064357,1268
3296.8671975684374,1249
3298.5403357904024,1240
3300.21321805575,1266
3301.8858446900567,1248
3303.558216018975,1279
3305.23033236824,1194
3306.9021940636603,1292
3308.57380143113,1225
3310.2451547966184,1269
3311.916254486174,1299
3313.5871008259246,1289
3315.2576941420766,1248
3316.9280347609147,1248
3318.5981230088046,1230
3320.2679592121895,1215
3321.9375436975924,1208
3323.606876791612,1178
3325.27595882093,1177
3326.944790112305,1189
3328.6133709925753,1195
3330.2817017886573,1202
3331.949782827547,1237
3333.617614436319,1239
3335.2851969421245,1252
3336.952530672199,1242
3338.619615953853,1285
3340.286453114475,1292
3341.9530424815357,1267
3343.619384382583,1294
3345.2854791452437,1277
3346.951327097224,1266
3348.6169285663073,1272
3350.2822838803577,1245
3351.947393367319,1282
3353.61225735521,1276
3355.2768761721345,1223
3356.9412501462693,1210
3358.605379605873,1237
3360.2692648792827,1278
3361.9329062949146,1258
3363.596304181263,1258
