CollectionTime,7/10/2024 3:36:21 PM
ExposureUsed,3
CalibratedSpectrum
-962.7078968117929,626
-959.9714848408522,639
-957.2358232597828,683
-954.5009119013725,699
-951.7667505983302,699
-949.0333391832855,697
-946.3006774887896,685
-943.5687653473143,695
-940.837602591253,665
-938.1071890529199,693
-935.3775245645503,692
-932.6486089583007,709
-929.9204420662485,710
-927.1930237203925,738
-924.4663537526524,691
-921.7404319948689,705
-919.0152582788041,701
-916.2908324361409,725
-913.5671542984834,729
-910.8442236973568,693
-908.1220404642074,696
-905.4006044304027,710
-902.679915427231,713
-899.959973285902,687
-897.2407778375464,673
-894.5223289132158,687
-891.8046263438832,690
-889.0876699604426,686
-886.3714595937089,649
-883.6559950744183,692
-880.9412762332282,704
-878.2273029007168,728
-875.5140749073835,674
-872.8015920836489,707
-870.0898542598545,716
-867.3788612662631,680
-864.6686129330585,681
-861.9591090903457,720
-859.2503495681506,706
-856.5423341964203,731
-853.8350628050229,687
-851.1285352237478,705
-848.4227512823054,777
-845.7177108103272,704
-843.0134136373656,745
-840.3098595928943,675
-837.6070485063082,704
-834.9049802069229,729
-832.2036545239757,705
-829.5030712866244,699
-826.8032303239481,696
-824.1041314649472,710
-821.4057745385428,717
-818.7081593735775,725
-816.0112857988148,692
-813.3151536429393,694
-810.6197627345566,713
-807.9251129021936,700
-805.2312039742981,707
-802.5380357792392,726
-799.8456081453069,719
-797.1539209007124,752
-794.462973873588,742
-791.772766891987,747
-789.083299783884,740
-786.3945723771743,710
-783.7065844996748,736
-781.0193359791231,748
-778.3328266431781,749
-775.6470563194197,754
-772.9620248353489,729
-770.2777320183878,725
-767.5941776958798,737
-764.9113616950891,713
-762.2292838432011,736
-759.5479439673222,718
-756.8673418944801,700
-754.1874774516235,683
-751.5083504656222,739
-748.8299607632671,765
-746.15230817127,739
-743.475392516264,721
-740.7992136248035,729
-738.1237713233636,731
-735.4490654383407,770
-732.7750957960521,742
-730.1018622227365,796
-727.4293645445534,752
-724.7576025875837,788
-722.0865761778291,754
-719.4162851412126,776
-716.7467293035781,784
-714.0779084906909,807
-711.409822528237,735
-708.7424712418238,777
-706.0758544569796,804
-703.4099719991541,770
-700.7448236937178,794
-698.0804093659622,770
-695.4167288411002,771
-692.7537819442656,801
-690.0915685005134,793
-687.4300883348199,783
-684.7693412720819,822
-682.1093271371178,801
-679.4500457546669,763
-676.7914969493897,835
-674.1336805458676,789
-671.4765963686034,822
-668.8202442420206,811
-666.1646239904642,851
-663.5097354382001,784
-660.8555784094151,798
-658.2021527282176,837
-655.5494582186366,813
-652.8974947046223,813
-650.2462620100463,805
-647.5957599587009,802
-644.9459883742998,831
-642.2969470804776,837
-639.6486359007902,873
-637.0010546587141,840
-634.3542031776476,825
-631.7080812809096,775
-629.0626887917401,813
-626.4180255333008,830
-623.7740913286734,850
-621.1308860008619,857
-618.4884093727904,861
-615.8466612673046,811
-613.2056415071715,822
-610.5653499150785,849
-607.9257863136347,825
-605.28695052537,820
-602.6488423727357,836
-600.0114616781036,849
-597.3748082637674,875
-594.7388819519412,824
-592.1036825647604,855
-589.4692099242818,894
-586.8354638524829,879
-584.2024441712624,854
-581.5701507024403,874
-578.9385832677575,891
-576.3077416888759,841
-573.6776257873787,868
-571.0482353847704,839
-568.4195703024757,914
-565.7916303618415,864
-563.164415384135,857
-560.5379251905453,829
-557.9121596021815,828
-555.2871184400748,892
-552.6628015251767,850
-550.0392086783606,854
-547.4163397204204,877
-544.794194472071,888
-542.1727727539491,896
-539.5520743866118,922
-536.9320991905377,895
-534.3128469861261,910
-531.6943175936979,917
-529.0765108334947,926
-526.4594265256793,980
-523.8430644903358,1015
-521.2274245474689,1065
-518.612506517005,1184
-515.9983102187913,1196
-513.3848354725959,1188
-510.77208209810846,1258
-508.16004991493924,1346
-505.5487387426199,1436
-502.9381484006032,1448
-500.3282787082628,1460
-497.71912948489364,1413
-495.1107005497117,1314
-492.5029917218539,1217
-489.8960028203786,1085
-487.28973366426493,1087
-484.68418407241325,1030
-482.07935386364494,1007
-479.47524285670266,1027
-476.87185087025,1021
-474.2691777228715,1013
-471.66722323307334,1025
-469.0659872192821,995
-466.4654694998459,968
-463.86566989303384,1004
-461.26658821703614,996
-458.66822428996414,998
-456.07057792985,1021
-453.4736489546475,1024
-450.877437182231,1011
-448.28194243039627,1011
-445.68716451686,1015
-443.09310325926003,985
-440.49975847515555,998
-437.9071299820263,1012
-435.31521759727354,1015
-432.72402113821954,995
-430.13354042210767,1014
-427.5437752661022,1014
-424.95472548728867,1095
-422.36639090267386,1025
-419.7787713291855,1104
-417.1918665836721,1086
-414.60567648290385,1058
-412.0202008435715,1074
-409.4354394822874,1076
-406.8513922155845,1109
-404.26805885991723,1114
-401.685439231661,1044
-399.103533147112,1060
-396.522340422488,1036
-393.9418608739278,1039
-391.3620943174908,1094
-388.7830405691583,1015
-386.2046994448317,986
-383.6270707603344,975
-381.05015433141045,889
-378.473949973725,821
-375.8984575028645,767
-373.32367673433623,735
-370.74960748356875,694
-368.1762495659117,642
-365.60360279663576,598
-363.03166699093265,534
-360.4604419639154,505
-357.8899275306178,519
-355.32012350599507,470
-352.7510297049233,416
-350.1826459421999,442
-347.61497203254316,423
-345.04800779059235,435
-342.4817530309082,459
-339.91620756797226,455
-337.35137121618743,440
-334.7872437898774,436
-332.22382510328725,445
-329.66111497058273,471
-327.09911320585127,476
-324.53781962310075,493
-321.9772340362607,441
-319.4173562591816,422
-316.8581861056348,447
-314.2997233893127,451
-311.7419679238294,456
-309.1849195227194,483
-306.62857799943856,465
-304.0729431673641,447
-301.51801483979375,485
-298.963792829947,509
-296.41027695096386,490
-293.85746701590574,455
-291.3053628377552,462
-288.7539642294155,487
-286.2032710037115,486
-283.65328297338897,489
-281.1039999511146,503
-278.5554217494762,495
-276.007548180983,544
-273.4603790580651,566
-270.9139141930734,574
-268.3681533982807,601
-265.8230964858798,590
-263.27874326798565,584
-260.7350935566336,551
-258.1921471637804,545
-255.6499039013039,549
-253.10836358100266,526
-250.56752601459698,527
-248.02739101372765,535
-245.48795838995704,543
-242.94922795476816,563
-240.41119951956557,543
-237.8738728956746,577
-235.33724789434166,589
-232.80132432673452,602
-230.2661020039418,559
-227.73158073697357,563
-225.19776033676033,552
-222.66464061415422,584
-220.1322213799284,556
-217.60050244477725,580
-215.06948361931552,547
-212.53916471408013,594
-210.00954553952818,620
-207.48062590603843,607
-204.9524056239104,614
-202.4248845033651,623
-199.8980623545441,602
-197.37193898751036,638
-194.84651421224817,666
-192.32178783866232,662
-189.79775967657952,636
-187.27442953574644,719
-184.7517972258321,721
-182.2298625564256,644
-179.7086253370378,646
-177.18808537710026,611
-174.66824248596583,642
-172.14909647290835,737
-169.6306471471229,796
-167.11289431772548,767
-164.59583779375328,759
-162.07947738416453,826
-159.5638128978386,1013
-157.04884414357605,1008
-154.53457093009854,1031
-152.02099306604828,872
-149.50811035998936,835
-146.99592262040665,823
-144.48442965570587,904
-141.97363127421409,903
-139.46352728417958,991
-136.95411749377126,909
-134.44540171107985,855
-131.93737974411636,835
-129.43005140081357,884
-126.92341648902493,1027
-124.41747481652521,1301
-121.91222619101006,1453
-119.40767042009657,1655
-116.90380731132257,1864
-114.40063667214702,1764
-111.8981583099503,1401
-109.3963720320337,1116
-106.89527764561933,1085
-104.39487495785067,1495
-101.89516377579241,1946
-99.39614390642998,2377
-96.89781515667039,2677
-94.40017733334128,2690
-91.90323024319173,2175
-89.40697369289148,1659
-86.91140748903172,1683
-84.41653143812482,2029
-81.92234534660395,2135
-79.42884902082358,1955
-76.93604226705907,2677
-74.4439248915071,4018
-71.95249670028534,5942
-69.46175749943245,7493
-66.97170709490854,8651
-64.48234529259423,8196
-61.99367189829195,8402
-59.50568671772464,8547
-57.01838955653636,8411
-54.53178022029283,7776
-52.045858514480074,7761
-49.560624244506016,9200
-47.07607721569923,9635
-44.59221723330904,10125
-42.10904410250669,9798
-39.62655762838392,9093
-37.14475761595372,8418
-34.66364387015028,8672
-32.18321619582866,7940
-29.70347439776515,7886
-27.224418280657005,7893
-24.74604764912317,8338
-22.26836230770266,11607
-19.7913620608565,20008
-17.315046712966478,34010
-14.83941606833514,48419
-12.36446993118659,65041
-9.89020810566592,65041
-7.416630395839093,65041
-4.94373660569363,65041
-2.471526539137585,65041
-6.821210263296962E-13,65041
2.47084320796705,65041
4.941003281093458,65041
7.410480415786196,65041
9.879274808531363,65041
12.347386655893956,65041
14.814816154518212,65041
17.28156350112681,65041
19.74762889252179,65041
22.21301252558385,20961
24.67771459727237,3914
27.141735304626195,2674
29.605074844762612,2925
32.06773341487792,2733
34.52971121224755,2461
36.99100843422559,1965
39.45162527824516,1617
41.91156194181792,1471
44.370818622535126,1272
46.82939551806646,1351
49.287292826160524,1500
51.74451074464503,1456
54.201049471426245,1368
56.65690920448981,1259
59.112090141899785,1230
61.56659248179983,1377
64.02041642241159,1332
66.4735621620365,925
68.92602989905402,937
71.37781983192338,1204
73.82893215918205,1480
76.27936707944684,1401
78.72912479141326,1149
81.17820549385567,964
83.62660938562783,972
86.07433666566146,908
88.5213875329681,917
90.96776218663751,954
93.41346082583925,1007
95.85848364982041,1013
98.30283085790859,917
100.7465026495089,937
103.18949922410604,951
105.63182078126385,898
108.07346752062438,901
110.51443964190923,1016
112.95473734491827,1011
115.39436082953114,959
117.83331029570547,906
120.27158594347827,980
122.7091879729652,898
125.1461165843615,899
127.58237197794062,928
130.01795435405518,1097
132.4528639131364,1002
134.88710085569494,883
137.32066538231982,923
139.75355769367923,988
142.1857779905207,820
144.61732647366978,744
147.04820334403132,796
149.47840880258934,875
151.90794305040674,845
154.33680628862487,916
156.76499871846443,1068
159.19252054122433,1183
161.61937195828352,1304
164.04555317109896,1449
166.47106438120693,1556
168.89590579022217,1706
171.320077599839,1861
173.7435800118302,1976
176.16641322804742,2111
178.58857745042144,2094
181.01007288096173,2212
183.43089972175687,2230
185.85105817497413,2165
188.27054844285988,2148
190.6893707277394,2254
193.10752523201643,2321
195.5250121581745,2516
197.9418317087751,2397
200.3579840864594,2309
202.7734694939469,2426
205.18828813403627,2479
207.6024402096051,2578
210.01592592360964,2620
212.42874547908548,2525
214.84089907914665,2579
217.2523869269868,2565
219.66320922587727,2453
222.0733661791695,2556
224.48285799029293,2700
226.8916848627572,2546
229.29984700014882,2572
231.7073446061355,2627
234.11417788446204,2581
236.520347038953,2661
238.92585227351185,2661
241.33069379212054,2805
243.73487179884035,2745
246.1383864978112,2721
248.541238093252,2801
250.9434267894609,2779
253.34495279081432,2797
255.74581630176783,2768
258.1460175268563,2768
260.54555667069314,2714
262.9444339379703,2747
265.3426495334594,2697
267.7402036620107,2715
270.1370965285529,2671
272.53332833809407,2654
274.9288992957214,2550
277.32380960660055,2406
279.718059475976,2511
282.1116491091717,2398
284.5045787115897,2455
286.89684848871195,2492
289.2884586460981,2581
291.67940938938807,2489
294.0697009242996,2563
296.4593334566299,2498
298.84830719225477,2472
301.23662233712923,2533
303.6242790972866,2448
306.01127767884,2377
308.39761828798066,2346
310.78330113097934,2376
313.16832641418534,2268
315.5526943440269,2295
317.9364051270112,2300
320.3194589697242,2365
322.70185607883093,2349
325.0835966610754,2304
327.4646809232805,2268
329.8451090723478,2354
332.2248813152577,2305
334.6039978590701,2271
336.9824589109231,2248
339.36026467803447,2156
341.7374153677,2221
344.113911187295,2237
346.48975234427337,2189
348.8649390461686,2221
351.2394715005918,2188
353.61334991523415,2217
355.9865744978655,2207
358.35914545633375,2290
360.73106299856715,2196
363.10232733257146,2200
365.47293866643247,2215
367.84289720831396,2236
370.2122031664593,2151
372.5808567491905,2210
374.9488581649083,2235
377.31620762209275,2108
379.6829053293021,2138
382.0489514951745,2171
384.4143463284262,2109
386.7790900378528,2150
389.14318283232853,2131
391.50662492080653,2172
393.86941651231916,2087
396.23155781597745,2087
398.5930490409713,2198
400.9538903965696,2169
403.3140820921202,2071
405.6736243370498,2082
408.03251734086336,2102
410.3907613131465,2084
412.74835646356166,2144
415.10530300185144,2153
417.4616011378372,2185
419.81725108141893,2091
422.1722530425758,2052
424.5266072313656,2032
426.880313857925,2095
429.2333731324701,2130
431.58578526529516,2037
433.9375504667738,2038
436.2886689473588,2113
438.63914091758113,2005
440.9889665880513,2163
443.33814616945835,2007
445.68667987257015,2053
448.03456790823395,2005
450.3818104873759,2116
452.72840782100013,2072
455.07436012019105,2067
457.41966759611057,2082
459.7643304600007,2027
462.10834892318155,2041
464.4517231970525,2053
466.79445349309174,2089
469.1365400228566,2090
471.4779829979826,2098
473.81878263018564,2045
476.15893913125876,2114
478.4984527130747,2078
480.8373235875855,2133
483.17555196682144,2219
485.5131380628919,2160
487.8500820879857,2196
490.1863842543697,2223
492.52204477439034,2325
494.8570638604725,2480
497.1914417251204,2601
499.52517858091653,2732
501.85827464052306,2973
504.19073011668036,3154
506.5225452222086,3190
508.85372017000566,3203
511.18425517304956,3158
513.514150444396,3256
515.8434061971808,3631
518.1720226446176,4206
520.4999999999999,4233
522.8273384766991,4132
525.1540382881666,3872
527.480099647932,3453
529.8055227696037,3075
532.1303078668694,2645
534.454455153496,2317
536.777964843328,2211
539.1008371502907,2181
541.4230722883866,2165
543.744670471698,2133
546.0656319143858,2190
548.3859568306899,2111
550.7056454349294,2123
553.0246979415016,2064
555.3431145648834,2137
557.6608955196306,2058
559.978041020377,2019
562.2945512818363,2052
564.6104265188006,2068
566.9256669461412,2071
569.2402727788082,2114
571.5542442318302,2109
573.8675815203156,2140
576.1802848594508,2134
578.4923544645015,2185
580.8037905508126,2163
583.114593333807,2102
585.4247630289875,2130
587.7342998519354,2181
590.0432040183106,2122
592.3514757438526,2085
594.6591152443794,2196
596.9661227357875,2086
599.2724984340531,2214
601.578242555231,2154
603.8833553154542,2197
606.1878369309362,2147
608.4916876179676,2116
610.7949075929192,2178
613.0974970722403,2190
615.3994562724587,2074
617.7007854101818,2173
620.0014847020951,2125
622.3015543649641,2068
624.6009946156324,2189
626.8998056710224,2160
629.1979877481361,2164
631.4955410640538,2153
633.7924658359349,2184
636.0887622810175,2203
638.3844306166192,2182
640.6794710601358,2145
642.9738838290426,2100
645.2676691408932,2190
647.5608272133207,2162
649.853358264037,2211
652.1452625108324,2248
654.4365401715764,2201
656.7271914642178,2232
659.0172166067838,2183
661.3066158173809,2268
663.5953893141935,2275
665.8835373154867,2181
668.1710600396028,2193
670.4579577049639,2267
672.7442305300709,2287
675.0298787335033,2238
677.3149025339197,2326
679.599302150058,2258
681.8830778007342,2279
684.1662297048437,2290
686.4487580813608,2234
688.7306631493387,2226
691.0119451279091,2171
693.2926042362834,2274
695.5726406937516,2224
697.8520547196814,2273
700.1308465335215,2207
702.4090163547982,2225
704.6865644031171,2221
706.9634908981619,2194
709.2397960596965,2229
711.5154801075631,2176
713.7905432616823,2140
716.0649857420548,2223
718.3388077687592,2284
720.612009561953,2173
722.8845913418733,2196
725.1565533288352,2218
727.427895743234,2210
729.6986188055427,2185
731.9687227363137,2224
734.238207756178,2171
736.5070740858458,2187
738.7753219461066,2247
741.0429515578281,2191
743.3099631419569,2242
745.5763569195191,2210
747.8421331116193,2207
750.1072919394409,2233
752.3718336242467,2163
754.6357583873777,2184
756.8990664502545,2189
759.1617580343765,2309
761.423833361321,2292
763.6852926527457,2208
765.9461361303862,2312
768.206364016058,2224
770.4659765316536,2199
772.7249738991469,2282
774.9833563405886,2161
777.2411240781092,2232
779.4982773339183,2292
781.7548163303044,2293
784.010741289634,2240
786.2660524343538,2270
788.5207499869881,2303
790.7748341701416,2280
793.0283052064964,2267
795.2811633188143,2267
797.5334087299362,2332
799.7850416627813,2363
802.0360623403484,2311
804.2864709857143,2233
806.5362678220353,2273
808.7854530725468,2226
811.0340269605625,2253
813.2819897094754,2347
815.5293415427581,2265
817.77608268396,2325
820.0222133567116,2276
822.2677337847211,2226
824.5126441917765,2244
826.7569448017433,2274
829.0006358385675,2202
831.2437175262731,2187
833.4861900889629,2283
835.7280537508192,2242
837.9693087361026,2255
840.2099552691533,2218
842.4499935743896,2211
844.689423876309,2237
846.9282463994886,2240
849.1664613685833,2272
851.4040690083276,2216
853.6410695435349,2236
855.877463199097,2241
858.1132501999847,2345
860.3484307712487,2295
862.5830051380175,2275
864.8169735254988,2312
867.0503361589791,2263
869.2830932638243,2243
871.5152450654786,2271
873.7467917894654,2287
875.9777336613873,2286
878.2080709069252,2341
880.4378037518389,2311
882.666932421968,2311
884.8954571432301,2314
887.1233781416219,2343
889.3506956432192,2251
891.5774098741766,2308
893.803521060728,2304
896.0290294291852,2287
898.2539352059397,2346
900.4782386174619,2322
902.7019398903011,2277
904.925039251085,2209
907.147536926521,2304
909.3694331433943,2378
911.59072812857,2329
913.8114221089921,2259
916.0315153116827,2276
918.2510079637437,2184
920.4699002923547,2318
922.6881925247761,2257
924.905884888345,2243
927.1229776104793,2241
929.3394709186747,2273
931.555365040506,2241
933.7706602036275,2223
935.9853566357709,2242
938.1994545647489,2255
940.4129542184515,2323
942.6258558248488,2226
944.8381596119883,2234
947.0498658079974,2206
949.2609746410825,2221
951.4714863395287,2181
953.6814011316998,2282
955.8907192460387,2275
958.0994409110671,2137
960.3075663553858,2177
962.5150958076741,2246
964.7220294966913,2217
966.928367651274,2179
969.1341105003388,2217
971.3392582728806,2226
973.5438111979742,2169
975.747769504772,2222
977.9511334225061,2197
980.153903180487,2205
982.3560790081052,2166
984.5576611348289,2143
986.7586497902058,2184
988.9590452038618,2119
991.158847605503,2138
993.3580572249133,2108
995.5566742919558,2145
997.7546990365728,2136
999.952131688785,2140
1002.1489724786926,2147
1004.3452216364743,2131
1006.5408793923874,2089
1008.7359459767691,2093
1010.9304216200343,2051
1013.1243065526781,2020
1015.3176010052733,2011
1017.510305208472,2072
1019.7024193930064,2005
1021.8939437896848,1979
1024.0848786293977,2021
1026.2752241431122,2030
1028.4649805618747,2029
1030.6541481168115,2010
1032.842727039127,1956
1035.0307175601051,1996
1037.2181199111074,1991
1039.4049343235752,2081
1041.591161029029,2043
1043.7768002590683,1987
1045.9618522453698,1985
1048.1463172196918,1992
1050.3301954138697,2022
1052.513487059818,2019
1054.69619238953,2067
1056.8783116350783,1978
1059.0598450286152,2001
1061.2407928023704,1988
1063.4211551886528,2069
1065.6009324198508,1946
1067.780124728432,1997
1069.9587323469414,2071
1072.1367555080046,2038
1074.314194444325,1965
1076.4910493886855,2130
1078.667320573947,2020
1080.843008233051,1951
1083.0181125990161,2048
1085.1926339049414,1943
1087.3665723840027,1992
1089.5399282694575,2032
1091.7127017946405,1940
1093.8848931929647,1930
1096.0565026979243,2050
1098.2275305430899,2028
1100.3979769621128,1956
1102.567842188722,1979
1104.737126456726,1996
1106.9058300000124,1993
1109.0739530525475,1964
1111.2414958483764,1997
1113.4084586216231,1962
1115.5748416064907,1952
1117.7406450372605,1946
1119.9058691482942,1897
1122.0705141740304,1917
1124.2345803489884,1914
1126.3980679077658,2043
1128.5609770850388,1966
1130.7233081155623,1976
1132.8850612341707,1972
1135.0462366757774,2010
1137.2068346753745,1991
1139.3668554680326,2031
1141.526299288901,1925
1143.68516637321,1912
1145.8434569562655,1964
1148.001171273455,1920
1150.158309560244,1959
1152.3148720521767,2018
1154.470858984876,1994
1156.626270594044,1998
1158.7811071154629,1984
1160.9353687849912,2004
1163.089055838569,1921
1165.242168512213,1962
1167.3947070420209,1934
1169.5466716641677,1986
1171.6980626149075,2005
1173.8488801305748,1968
1175.9991244475814,1992
1178.1487958024186,1971
1180.2978944316555,1902
1182.4464205719428,1920
1184.5943744600072,1921
1186.7417563326567,1871
1188.8885664267755,1952
1191.0348049793297,1837
1193.1804722273619,1910
1195.325568407995,1951
1197.4700937584303,1939
1199.614048515948,1925
1201.7574329179074,1917
1203.900247201746,1947
1206.042491604982,1870
1208.1841663652099,1913
1210.3252717201053,1923
1212.465807907422,1993
1214.6057751649923,1941
1216.7451737307279,1930
1218.8840038426192,1879
1221.0222657387353,1977
1223.1599596572241,2013
1225.2970858363137,2005
1227.4336445143094,1940
1229.5696359295966,1940
1231.705060320639,1993
1233.8399179259786,1946
1235.9742089842384,1974
1238.107933734118,1981
1240.2410924143974,1914
1242.373685263935,1963
1244.5057125216676,1987
1246.6371744266116,1962
1248.7680712178621,2072
1250.898403134593,2010
1253.028170416058,2022
1255.1573733015875,1982
1257.2860120305932,1938
1259.4140868425648,2066
1261.54159797707,1960
1263.6685456737569,1985
1265.7949301723515,1992
1267.9207517126597,2030
1270.046010534565,1971
1272.1707068780306,2049
1274.2948409830983,2037
1276.4184130898889,1976
1278.541423438603,2024
1280.6638722695184,1997
1282.785759822993,2046
1284.9070863394636,2098
1287.0278520594447,2038
1289.1480572235314,2045
1291.2677020723963,2077
1293.3867868467923,2115
1295.5053117875495,2071
1297.623277135579,2112
1299.740683131868,2158
1301.8575300174857,2119
1303.973818033578,2076
1306.0895474213703,2096
1308.2047184221678,2140
1310.3193312773528,2122
1312.4333862283888,2109
1314.5468835168163,2123
1316.659823384255,2132
1318.7722060724045,2201
1320.8840318230418,2184
1322.9953008780249,2098
1325.1060134792888,2123
1327.2161698688478,2121
1329.3257702887959,2156
1331.4348149813054,2136
1333.5433041886276,2165
1335.6512381530933,2136
1337.7586171171101,2160
1339.8654413231675,2191
1341.9717110138317,2152
1344.0774264317488,2101
1346.1825878196432,2138
1348.2871954203192,2119
1350.3912494766587,2144
1352.4947502316231,2062
1354.5976979282532,2032
1356.7000928096686,2102
1358.8019351190665,2135
1360.9032250997243,2130
1363.0039629949988,2049
1365.1041490483235,2081
1367.2037835032133,2126
1369.3028666032606,2172
1371.401398592137,2059
1373.4993797135926,2096
1375.5968102114575,2120
1377.6936903296396,2131
1379.7900203121262,2115
1381.8858004029835,2108
1383.9810308463561,2157
1386.075711886469,2061
1388.1698437676241,2033
1390.2634267342032,2061
1392.356461030667,2101
1394.4489469015557,2109
1396.5408845914872,2114
1398.6322743451592,2126
1400.7231164073469,2172
1402.813411022907,2082
1404.903158436773,2116
1406.9923588939578,2119
1409.0810126395531,2158
1411.1691199187303,2128
1413.2566809767386,2169
1415.343696058907,2127
1417.4301654106425,2117
1419.5160892774315,2149
1421.6014679048399,2137
1423.6863015385125,2213
1425.7705904241707,2141
1427.8543348076178,2184
1429.9375349347342,2173
1432.0201910514802,2180
1434.102303403894,2236
1436.1838722380944,2201
1438.2648978002767,2183
1440.3453803367174,2135
1442.4253200937692,2246
1444.5047173178677,2216
1446.5835722555234,2300
1448.6618851533285,2233
1450.739656257952,2294
1452.8168858161434,2273
1454.8935740747306,2214
1456.96972128062,2266
1459.045327680797,2336
1461.120393522327,2330
1463.1949190523528,2400
1465.2689045180973,2320
1467.3423501668608,2384
1469.415256246024,2332
1471.4876230030463,2341
1473.559450685465,2461
1475.6307395408976,2383
1477.7014898170391,2564
1479.771701761665,2502
1481.8413756226287,2456
1483.9105116478618,2446
1485.9791100853772,2500
1488.0471711832643,2580
1490.1146951896926,2486
1492.1816823529098,2484
1494.2481329212433,2525
1496.3140471430984,2539
1498.3794252669609,2515
1500.4442675413939,2594
1502.5085742150404,2600
1504.572345536622,2625
1506.6355817549388,2616
1508.6982831188702,2677
1510.7604498773744,2659
1512.8220822794883,2595
1514.8831805743293,2642
1516.9437450110909,2624
1519.003775839048,2703
1521.0632733075522,2622
1523.1222376660367,2680
1525.1806691640113,2768
1527.2385680510652,2749
1529.2959345768668,2742
1531.3527689911643,2720
1533.4090715437833,2811
1535.4648424846291,2864
1537.5200820636855,2844
1539.5747905310159,2878
1541.6289681367616,2840
1543.6826151311434,2965
1545.7357317644614,3061
1547.7883182870937,3006
1549.8403749494987,2941
1551.8919020022113,2991
1553.9428996958477,2977
1555.9933682811015,3121
1558.0433080087469,3063
1560.0927191296346,3048
1562.1416018946961,3085
1564.1899565549415,3155
1566.2377833614592,3088
1568.2850825654164,3243
1570.3318544180606,3115
1572.3780991707158,3049
1574.423817074788,3050
1576.4690083817595,2999
1578.5136733431923,2900
1580.5578122107272,2809
1582.601425236085,2859
1584.6445126710646,2775
1586.6870747675434,2642
1588.7291117774776,2583
1590.7706239529034,2549
1592.8116115459347,2542
1594.8520748087658,2588
1596.8920139936686,2399
1598.9314293529933,2407
1600.9703211391711,2431
1603.008689604711,2352
1605.0465350022005,2291
1607.0838575843068,2276
1609.1206576037753,2254
1611.1569353134305,2274
1613.1926909661765,2266
1615.2279248149953,2202
1617.2626371129481,2212
1619.2968281131757,2229
1621.3304980688963,2173
1623.3636472334088,2191
1625.39627586009,2118
1627.428384202396,2149
1629.459972513861,2068
1631.4910410480993,2123
1633.5215900588028,2003
1635.551619799744,2067
1637.5811305247717,2006
1639.6101224878166,2074
1641.6385959428862,2129
1643.6665511440683,2018
1645.693988345528,2095
1647.7209078015112,2060
1649.7473097663405,2050
1651.7731944944203,2003
1653.7985622402307,2046
1655.823413258333,2072
1657.847747803366,2023
1659.8715661300494,1991
1661.8948684931793,2017
1663.9176551476316,2014
1665.9399263483624,1957
1667.9616823504057,2015
1669.982923408873,2014
1672.0036497789574,2005
1674.0238617159293,1988
1676.043559475138,1958
1678.0627433120121,2008
1680.081413482059,1996
1682.0995702408654,2036
1684.117213844096,2042
1686.134344547495,2036
1688.1509626068864,2055
1690.1670682781705,1991
1692.182661817329,1958
1694.1977434804217,1942
1696.2123135235875,2048
1698.226372203043,1976
1700.2399197750851,2007
1702.2529564960905,1976
1704.2654826225112,2042
1706.277498410882,2061
1708.2890041178139,2039
1710.2999999999988,1993
1712.3104863142066,1940
1714.3204633172854,1967
1716.329931266163,1995
1718.3388904178469,1981
1720.3473410294214,1872
1722.3552833580516,1989
1724.3627176609807,1997
1726.3696441955308,1961
1728.3760632191033,1962
1730.3819749891782,1953
1732.3873797633146,1962
1734.3922777991502,1957
1736.3966693544012,1981
1738.4005546868639,1950
1740.4039340544127,1965
1742.406807715001,1879
1744.4091759266616,1857
1746.4110389475054,1946
1748.4123970357223,1978
1750.413250449582,1935
1752.4135994474318,1958
1754.4134442876993,1956
1756.4127852288902,1913
1758.4116225295893,1941
1760.4099564484595,1851
1762.407787244244,1954
1764.405115175764,1874
1766.4019405019203,1955
1768.3982634816916,1893
1770.3940843741357,1910
1772.3894034383907,1832
1774.3842209336717,1853
1776.378537119274,1890
1778.372352254571,1918
1780.3656665990156,1943
1782.3584804121397,1853
1784.3507939535534,1946
1786.3426074829463,1894
1788.3339212600863,1949
1790.3247355448211,1939
1792.3150505970766,1951
1794.3048666768573,2032
1796.2941840442477,1834
1798.2830029594106,1961
1800.2713236825884,1842
1802.2591464741004,1808
1804.2464715943465,1901
1806.2332993038058,1881
1808.2196298630352,1887
1810.2054635326708,1946
1812.190800573428,1879
1814.175641246101,1922
1816.1599858115628,1872
1818.1438345307652,1911
1820.127187664738,1926
1822.1100454745924,1917
1824.092408221516,1881
1826.0742761667766,1891
1828.055649571721,1923
1830.0365286977735,1914
1832.0169138064398,1898
1833.9968051593014,1889
1835.9762030180214,1902
1837.9551076443408,1901
1839.9335193000788,1945
1841.9114382471344,1952
1843.888864747485,1915
1845.8657990631878,1950
1847.842241456378,1898
1849.8181921892697,1913
1851.7936515241558,1876
1853.7686197234098,1914
1855.7430970494815,1973
1857.7170837649014,1926
1859.6905801322787,1845
1861.6635864143004,1910
1863.6361028737338,1894
1865.608129773424,1876
1867.5796673762961,1898
1869.5507159453537,1975
1871.521275743678,1965
1873.4913470344313,1893
1875.4609300808534,1916
1877.4300251462632,1925
1879.3986324940588,1902
1881.366752387717,1944
1883.3343850907936,1854
1885.3015308669228,1895
1887.268189979819,1901
1889.2343626932739,1914
1891.2000492711595,1881
1893.1652499774254,1881
1895.1299650761011,1943
1897.0941948312952,1934
1899.0579395071945,2017
1901.0211993680641,1938
1902.98397467825,1881
1904.9462657021745,1973
1906.9080727043415,1882
1908.869395949332,1892
1910.8302357018065,1890
1912.790592226504,2033
1914.7504657882428,1917
1916.7098566519212,1979
1918.6687650825133,1904
1920.6271913450764,1949
1922.5851357047422,1902
1924.5425984267245,1884
1926.499579776314,1936
1928.4560800188833,1965
1930.4120994198802,1906
1932.367638244833,1953
1934.32269675935,1912
1936.2772752291175,1926
1938.231373919899,1892
1940.1849930975404,1899
1942.1381330279637,1945
1944.0907939771696,1953
1946.0429762112412,1891
1947.9946799963363,1946
1949.9459055986945,1907
1951.896653284633,1914
1953.8469233205478,1860
1955.7967159729142,1908
1957.7460315082863,1966
1959.6948701932974,1877
1961.6432322946594,1886
1963.5911180791632,1920
1965.5385278136787,1821
1967.4854617651545,1870
1969.4319202006182,1817
1971.377903387176,1875
1973.3234115920136,1936
1975.268445082395,1844
1977.2130041256642,1866
1979.1570889892423,1878
1981.1006999406304,1790
1983.04383724741,1837
1984.986501177238,1841
1986.928691997853,1880
1988.8704099770712,1866
1990.811655382789,1846
1992.7524284829801,1938
1994.692729545698,1935
1996.6325588390755,1867
1998.5719166313224,1796
2000.5108031907307,1820
2002.4492187856677,1914
2004.387163684583,1908
2006.3246381560011,1875
2008.2616424685298,1847
2010.1981768908527,1879
2012.1342416917332,1836
2014.069837140014,1883
2016.0049635046162,1901
2017.9396210545406,1776
2019.8738100588666,1869
2021.8075307867502,1881
2023.740783507431,1897
2025.6735684902228,1814
2027.6058860045214,1831
2029.5377363198004,1917
2031.4691197056118,1854
2033.4000364315875,1884
2035.3304867674374,1915
2037.260470982952,1823
2039.189989347998,1777
2041.1190421325232,1836
2043.047629606554,1797
2044.9757520401945,1828
2046.9034097036288,1791
2048.8306028671195,1801
2050.7573318010086,1813
2052.683596775716,1809
2054.609398061742,1836
2056.5347359296647,1832
2058.4596106501403,1830
2060.384022493906,1864
2062.3079717317764,1877
2064.231458634646,1768
2066.1544834734873,1906
2068.077046519352,1843
2069.99914804337,1843
2071.9207883167524,1799
2073.8419676107865,1847
2075.7626861968406,1890
2077.6829443463607,1870
2079.6027423308715,1875
2081.522080421977,1912
2083.440958891362,1875
2085.359378010786,1841
2087.2773380520907,1818
2089.194839287196,1802
2091.111881988101,1829
2093.0284664268825,1820
2094.9445928756973,1737
2096.86026160678,1819
2098.775472892446,1819
2100.690227005088,1810
2102.604524217178,1832
2104.5183648012676,1776
2106.431749029985,1804
2108.34467717604,1828
2110.2571495122206,1854
2112.169166311393,1778
2114.080727846503,1822
2115.9918343905747,1876
2117.902486216711,1812
2119.8126835980956,1821
2121.722426807987,1830
2123.6317161197285,1784
2125.5405518067364,1800
2127.448934142509,1829
2129.356863400624,1801
2131.264339854737,1819
2133.1713637785815,1874
2135.077935445972,1760
2136.9840551308002,1834
2138.889723107037,1805
2140.7949396487334,1875
2142.699705030018,1782
2144.6040195250994,1848
2146.507883408264,1853
2148.4112969538774,1820
2150.3142604363848,1862
2152.2167741303097,1840
2154.1188383102535,1836
2156.0204532508997,1850
2157.9216192270064,1868
2159.822336513414,1879
2161.7226053850413,1890
2163.622426116884,1811
2165.5217989840185,1856
2167.4207242616,1820
2169.319202224862,1844
2171.2172331491165,1799
2173.1148173097563,1882
2175.0119549822507,1831
2176.90864644215,1772
2178.8048919650823,1870
2180.7006918267534,1874
2182.596046302952,1833
2184.4909556695407,1957
2186.3854202024645,1817
2188.279440177746,1849
2190.173015871487,1828
2192.066147559868,1887
2193.958835519149,1846
2195.851080025667,1803
2197.7428813558417,1824
2199.6342397861667,1874
2201.5251555932186,1825
2203.415629053651,1869
2205.3056604441986,1862
2207.19525004167,1797
2209.084398122958,1892
2210.9731049650327,1902
2212.861370844941,1850
2214.749196039812,1805
2216.636580826851,1876
2218.523525483344,1869
2220.410030286655,1896
2222.296095514226,1870
2224.1817214435805,1891
2226.066908352319,1847
2227.951656518121,1852
2229.835966218746,1914
2231.71983773203,1882
2233.6032713358913,1820
2235.486267308324,1885
2237.3688259274036,1887
2239.2509474712824,1777
2241.132632218193,1847
2243.013880446447,1832
2244.8946924344323,1793
2246.7750684606203,1812
2248.6550088035574,1816
2250.534513741871,1828
2252.413583554265,1843
2254.292218519526,1819
2256.170418916517,1769
2258.0481850241786,1861
2259.925517121534,1844
2261.8024154876825,1831
2263.678880401803,1907
2265.5549121431536,1880
2267.430510991071,1793
2269.305677224971,1835
2271.180411124348,1822
2273.0547129687766,1760
2274.9285830379076,1840
2276.8020216114737,1778
2278.6750289692845,1836
2280.5476053912294,1805
2282.4197511572766,1847
2284.2914665474727,1868
2286.162751841943,1867
2288.0336073208937,1855
2289.904033264608,1865
2291.774029953448,1811
2293.6435976678554,1819
2295.5127366883517,1812
2297.381447295534,1800
2299.2497297700825,1783
2301.1175843927526,1705
2302.9850114443825,1766
2304.852011205885,1768
2306.7185839582553,1728
2308.5847299825664,1771
2310.4504495599676,1774
2312.3157429716925,1670
2314.1806104990483,1698
2316.0450524234247,1690
2317.9090690262888,1732
2319.772660589186,1730
2321.635827393742,1689
2323.498569721661,1731
2325.3608878547248,1712
2327.2227820747967,1670
2329.0842526638157,1697
2330.945299903803,1767
2332.805924076857,1677
2334.6661254651535,1702
2336.525904350951,1707
2338.3852610165827,1734
2340.244195744464,1661
2342.102708817088,1709
2343.9608005170253,1733
2345.8184711269287,1726
2347.675720929526,1722
2349.532550207628,1693
2351.38895924412,1710
2353.24494832197,1712
2355.100517724223,1699
2356.955667734004,1737
2358.810398634514,1693
2360.664710709037,1691
2362.5186042409337,1683
2364.3720795136437,1634
2366.225136810686,1653
2368.0777764156583,1726
2369.929998612237,1753
2371.7818036841777,1685
2373.633191915315,1661
2375.484163589562,1710
2377.3347189909114,1694
2379.184858403434,1695
2381.03458211128,1702
2382.8838903986775,1715
2384.732783549936,1717
2386.5812618494406,1732
2388.4293255816588,1706
2390.2769750311327,1716
2392.1242104824883,1734
2393.971032220427,1661
2395.8174405297295,1705
2397.6634356952563,1653
2399.509018001947,1733
2401.3541877348193,1634
2403.1989451789705,1723
2405.043290619576,1685
2406.8872243418905,1720
2408.730746631247,1679
2410.5738577730594,1707
2412.4165580528183,1684
2414.258847756095,1726
2416.100727168537,1734
2417.9421965758734,1672
2419.783256263912,1656
2421.623906518538,1674
2423.4641476257157,1684
2425.303979871491,1668
2427.143403541984,1704
2428.9824189233977,1726
2430.821026302012,1757
2432.6592259641866,1724
2434.497018196361,1697
2436.33440328505,1718
2438.171381516851,1625
2440.00795317844,1701
2441.844118556569,1707
2443.6798779380724,1710
2445.5152316098606,1693
2447.3501798589255,1659
2449.1847229723357,1695
2451.0188612372403,1697
2452.8525949408663,1693
2454.6859243705203,1737
2456.518849813587,1728
2458.3513715575314,1705
2460.183489889895,1621
2462.015205098301,1643
2463.8465174704493,1674
2465.67742729412,1668
2467.5079348571717,1705
2469.338040447542,1710
2471.1677443532476,1722
2472.9970468623833,1686
2474.825948263123,1585
2476.6544488437207,1711
2478.482548892508,1714
2480.310248697896,1698
2482.137548548374,1686
2483.9644487325118,1757
2485.790949538956,1760
2487.617051256433,1730
2489.44275417375,1694
2491.26805857979,1711
2493.0929647635157,1739
2494.917473013971,1699
2496.741583620276,1684
2498.5652968716304,1729
2500.3886130573137,1752
2502.2115324666834,1669
2504.0340553891765,1601
2505.856182114308,1787
2507.6779129316733,1726
2509.499248130945,1701
2511.3201880018764,1657
2513.140732834298,1711
2514.9608829181198,1696
2516.780638543331,1743
2518.6,1731
2520.418967578273,1747
2522.237541568376,1790
2524.0557222606144,1759
2525.8735099453706,1727
2527.6909049131086,1691
2529.507907454368,1699
2531.32451785977,1738
2533.140736420014,1714
2534.9565634258774,1716
2536.771999168218,1772
2538.5870439379714,1813
2540.4016980261526,1734
2542.2159617238544,1772
2544.02983532225,1802
2545.8433191125914,1769
2547.656413386209,1773
2549.4691184345115,1752
2551.2814345489874,1770
2553.093362021204,1837
2554.904901142808,1793
2556.716052205523,1729
2558.526815501153,1830
2560.3371913215824,1843
2562.147179958771,1847
2563.956781704761,1851
2565.7659968516705,1798
2567.5748256916986,1898
2569.3832685171224,1894
2571.1913256202984,1823
2572.9989972936614,1874
2574.806283829725,1836
2576.613185521084,1866
2578.4197026604074,1916
2580.2258355404483,1864
2582.031584454035,1851
2583.836949694077,1945
2585.6419315535613,1827
2587.4465303255533,1892
2589.2507463032002,1863
2591.0545797797245,1833
2592.8580310484303,1893
2594.6611004026995,1904
2596.463788135992,1871
2598.266094541849,1889
2600.0680199138874,1798
2601.869564545807,1841
2603.670728731383,1917
2605.4715127644704,1904
2607.2719169390048,1913
2609.071941548998,1869
2610.8715868885433,1848
2612.670853251811,1937
2614.469740933052,1888
2616.268250226594,1821
2618.0663814268455,1887
2619.864134828292,1807
2621.6615107255006,1867
2623.458509413115,1902
2625.2551311858597,1921
2627.0513763385347,1836
2628.8472451660223,1888
2630.6427379632833,1815
2632.4378550253564,1832
2634.232596647359,1879
2636.026963124488,1852
2637.8209547520187,1827
2639.6145718253065,1886
2641.407814639785,1774
2643.200683490966,1804
2644.9931786744414,1891
2646.7853004858807,1798
2648.577049221034,1839
2650.3684251757277,1786
2652.1594286458712,1835
2653.9500599274484,1763
2655.740319316525,1763
2657.5302071092437,1771
2659.3197236018286,1835
2661.10886909058,1799
2662.8976438718782,1828
2664.686048242183,1756
2666.4740824980327,1748
2668.2617469360443,1734
2670.0490418529134,1796
2671.8359675454153,1799
2673.622524310403,1801
2675.408712444811,1770
2677.1945322456495,1730
2678.979984010009,1728
2680.76506803506,1756
2682.5497846180497,1731
2684.334134056306,1686
2686.1181166472343,1752
2687.9017326883213,1734
2689.6849824771293,1679
2691.4678663113013,1715
2693.2503844885596,1725
2695.032537306705,1703
2696.8143250636167,1727
2698.5957480572542,1743
2700.3768065856534,1714
2702.1575009469316,1755
2703.937831439283,1716
2705.717798360982,1705
2707.4974020103837,1643
2709.276642685917,1606
2711.055520686095,1704
2712.834036309506,1694
2714.612189854819,1700
2716.389981620782,1649
2718.1674119062204,1661
2719.944481010041,1709
2721.721189231226,1661
2723.4975368688415,1693
2725.273524222027,1612
2727.0491515900053,1704
2728.824419272075,1701
2730.5993275676146,1677
2732.3738767760838,1680
2734.148067197016,1676
2735.921899130031,1683
2737.6953728748194,1672
2739.468488731156,1623
2741.2412469988926,1639
2743.0136479779617,1636
2744.785691968372,1683
2746.5573792702116,1633
2748.3287101836504,1627
2750.099685008934,1570
2751.870304046388,1710
2753.640567596418,1627
2755.4104759595057,1651
2757.1800294362156,1630
2758.949228327187,1595
2760.7180729331412,1619
2762.486563554877,1592
2764.254700493272,1653
2766.022484049284,1678
2767.789914523947,1628
2769.5569922183786,1648
2771.3237174337705,1628
2773.090090471394,1640
2774.8561116326036,1653
2776.6217812188274,1637
2778.3870995315756,1604
2780.1520668724356,1714
2781.9166835430747,1688
2783.6809498452394,1643
2785.444866080754,1690
2787.2084325515225,1600
2788.971649559527,1572
2790.73451740683,1703
2792.4970363955713,1631
2794.2592068279705,1682
2796.0210290063264,1730
2797.7825032330147,1652
2799.543629810493,1590
2801.304409041296,1623
2803.0648412280366,1638
2804.8249266734088,1674
2806.5846656801846,1647
2808.344058551212,1704
2810.1031055894246,1688
2811.8618070978273,1688
2813.6201633795085,1672
2815.378174737636,1656
2817.1358414754536,1632
2818.893163896285,1548
2820.6501423035334,1633
2822.4067770006814,1626
2824.1630682912883,1589
2825.9190164789957,1601
2827.6746218675207,1632
2829.429884760661,1632
2831.184805462294,1598
2832.9393842763743,1669
2834.693621506936,1648
2836.4475174580916,1615
2838.201072434034,1658
2839.954286739034,1710
2841.707160677441,1653
2843.459694553685,1662
2845.2118886722724,1671
2846.96374333779,1655
2848.7152588549034,1663
2850.4664355283567,1624
2852.217273662973,1632
2853.9677735636546,1697
2855.7179355353833,1570
2857.4677598832186,1658
2859.217246912299,1598
2860.9663969278427,1616
2862.715210235146,1650
2864.4636871395846,1589
2866.211827946614,1616
2867.9596329617652,1559
2869.7071024906536,1665
2871.4542368389684,1615
2873.20103631248,1625
2874.947501217038,1606
2876.6936318585695,1625
2878.4394285430812,1607
2880.1848915766604,1630
2881.9300212654707,1673
2883.6748179157553,1671
2885.4192818338374,1688
2887.1634133261173,1608
2888.907212699077,1634
2890.6506802592744,1695
2892.393816313348,1666
2894.1366211680142,1640
2895.8790951300693,1685
2897.621238506388,1610
2899.363051603925,1640
2901.1045347297118,1641
2902.8456881908596,1688
2904.58651229456,1655
2906.327007348081,1665
2908.067173658772,1670
2909.8070115340597,1623
2911.5465212814497,1642
2913.285703208527,1668
2915.0245576229563,1672
2916.7630848324807,1666
2918.5012851449196,1575
2920.2391588681758,1659
2921.976706310227,1655
2923.7139277791334,1596
2925.4508235830313,1675
2927.187394030137,1591
2928.923639428745,1655
2930.6595600872306,1627
2932.395156314046,1625
2934.1304284177218,1621
2935.8653767068713,1625
2937.6000014901815,1648
2939.3343030764227,1625
2941.068281774442,1611
2942.8019378931644,1624
2944.5352717415976,1624
2946.2682836288236,1642
2948.0009738640065,1669
2949.7333427563885,1644
2951.465390615289,1630
2953.1971177501086,1630
2954.9285244703265,1638
2956.6596110855,1625
2958.3903779052657,1647
2960.1208252393385,1590
2961.8509533975125,1568
2963.5807626896617,1580
2965.3102534257378,1591
2967.0394259157715,1571
2968.768280469873,1610
2970.496817398232,1647
2972.2250370111146,1603
2973.952939618869,1601
2975.6805255319196,1622
2977.4077950607707,1613
2979.134748516006,1586
2980.861386208289,1655
2982.587708448359,1647
2984.313715547037,1595
2986.039407815222,1648
2987.764785563891,1613
2989.489849104102,1621
2991.2145987469908,1562
2992.9390348037705,1646
2994.6631575857346,1650
2996.3869674042576,1684
2998.1104645707887,1659
2999.83364939686,1679
3001.5565221940783,1683
3003.2790832741334,1611
3005.0013329487924,1641
3006.7232715298996,1611
3008.4448993293804,1611
3010.166216659239,1604
3011.887223831558,1607
3013.607921158498,1644
3015.3283089522993,1611
3017.0483875252826,1564
3018.7681571898443,1615
3020.4876182584626,1593
3022.2067710436927,1657
3023.9256158581707,1627
3025.644153014609,1613
3027.362382825801,1664
3029.0803056046193,1658
3030.797921664012,1677
3032.5152313170106,1683
3034.2322348767225,1669
3035.9489326563353,1639
3037.665324969115,1614
3039.3814121284063,1648
3041.097194447633,1601
3042.812672240299,1648
3044.5278458199855,1560
3046.2427155003525,1642
3047.9572815951406,1604
3049.671544418167,1610
3051.38550428333,1661
3053.0991615046073,1610
3054.812516396051,1605
3056.5255692717974,1593
3058.2383204460575,1651
3059.9507702331257,1591
3061.662918947372,1599
3063.3747669032446,1592
3065.0863144152736,1632
3066.7975617980674,1652
3068.508509366309,1575
3070.219157434767,1575
3071.9295063182844,1632
3073.639556331785,1614
3075.3493077902704,1641
3077.058761008821,1543
3078.7679163025964,1633
3080.476773986837,1638
3082.1853343768594,1628
3083.89359778806,1653
3085.6015645359153,1626
3087.3092349359786,1633
3089.016609303884,1640
3090.7236879553434,1634
3092.4304712061476,1605
3094.136959372166,1602
3095.843152769349,1627
3097.5490517137237,1618
3099.2546565213966,1621
3100.959967508554,1615
3102.66498499146,1623
3104.3697092864577,1657
3106.0741407099695,1579
3107.778279578498,1590
3109.482126208622,1670
3111.1856809170004,1634
3112.8889440203716,1604
3114.5919158355528,1686
3116.294596679439,1662
3117.996986869006,1636
3119.6990867213062,1623
3121.4008965534726,1584
3123.102416682717,1619
3124.803647426329,1584
3126.5045891016784,1652
3128.205242026213,1644
3129.90560651746,1625
3131.605682893025,1700
3133.3054714705922,1660
3135.0049725679282,1607
3136.7041865028714,1689
3138.4031135933465,1699
3140.101754157353,1650
3141.800108512971,1600
3143.498176978357,1625
3145.1959598717494,1606
3146.8934575114636,1594
3148.5906702158954,1620
3150.2875983035183,1655
3151.9842420928853,1594
3153.680601902627,1672
3155.376678051456,1632
3157.07247085816,1653
3158.767980641609,1701
3160.463207720748,1585
3162.158152414606,1616
3163.8528150422862,1651
3165.5471959229726,1661
3167.2412953759303,1596
3168.9351137204976,1579
3170.628651276098,1608
3172.3219083622307,1610
3174.014885298474,1574
3175.707582404485,1608
3177.4000000000005,1624
3179.092138404835,1657
3180.7839979388846,1635
3182.47557892212,1582
3184.166881674594,1635
3185.8579065164386,1661
3187.5486537678626,1689
3189.2391237491547,1678
3190.9293167806827,1652
3192.6192331828934,1653
3194.3088732763117,1636
3195.998237381542,1603
3197.687325819268,1656
3199.376138910251,1626
3201.064676975334,1640
3202.7529403354347,1559
3204.4409293115523,1651
3206.1286442247647,1646
3207.816085396229,1597
3209.5032531471825,1613
3211.190147798936,1620
3212.8767696728846,1618
3214.5631190905015,1584
3216.2491963733373,1596
3217.9350018430214,1601
3219.6205358212637,1635
3221.305798629851,1599
3222.990790590651,1579
3224.6755120256103,1584
3226.359963256751,1557
3228.0441446061795,1607
3229.7280563960758,1616
3231.411698948703,1608
3233.0950725863995,1666
3234.778177631587,1630
3236.461014406761,1596
3238.1435832345005,1593
3239.8258844374595,1698
3241.507918338374,1651
3243.1896852600576,1598
3244.8711855254023,1631
3246.552419457381,1630
3248.233387379042,1605
3249.914089613516,1659
3251.59452648401,1553
3253.274698313813,1627
3254.95460542629,1619
3256.6342481448855,1630
3258.313626793125,1599
3259.9927416946084,1576
3261.6715931730196,1568
3263.3501815521176,1566
3265.0285071557437,1567
3266.706570307815,1625
3268.3843713323286,1512
3270.0619105533615,1598
3271.739188295068,1578
3273.4162048816834,1635
3275.0929606375184,1577
3276.769455886966,1578
3278.445690954498,1593
3280.1216661646613,1614
3281.797381842087,1608
3283.4728383114807,1666
3285.1480358976296,1635
3286.8229749253996,1635
3288.4976557197333,1598
3290.172078605655,1600
3291.846243908266,1601
3293.5201519527463,1587
3295.193803064357,1672
3296.8671975684374,1558
3298.5403357904024,1610
3300.21321805575,1618
3301.8858446900567,1598
3303.558216018975,1573
3305.23033236824,1642
3306.9021940636603,1621
3308.57380143113,1624
3310.2451547966184,1579
3311.916254486174,1594
3313.5871008259246,1647
3315.2576941420766,1566
3316.9280347609147,1544
3318.5981230088046,1555
3320.2679592121895,1578
3321.9375436975924,1598
3323.606876791612,1559
3325.27595882093,1551
3326.944790112305,1566
3328.6133709925753,1594
3330.2817017886573,1573
3331.949782827547,1553
3333.617614436319,1606
3335.2851969421245,1573
3336.952530672199,1548
3338.619615953853,1632
3340.286453114475,1602
3341.9530424815357,1633
3343.619384382583,1582
3345.2854791452437,1611
3346.951327097224,1616
3348.6169285663073,1632
3350.2822838803577,1563
3351.947393367319,1597
3353.61225735521,1604
3355.2768761721345,1611
3356.9412501462693,1649
3358.605379605873,1576
3360.2692648792827,1596
3361.9329062949146,1641
3363.596304181263,1526
