CollectionTime,6/28/2024 3:03:40 PM
ExposureUsed,3
CalibratedSpectrum
-962.7078968117929,718
-959.9714848408522,750
-957.2358232597828,761
-954.5009119013725,753
-951.7667505983302,767
-949.0333391832855,724
-946.3006774887896,731
-943.5687653473143,754
-940.837602591253,713
-938.1071890529199,767
-935.3775245645503,766
-932.6486089583007,756
-929.9204420662485,733
-927.1930237203925,769
-924.4663537526524,754
-921.7404319948689,774
-919.0152582788041,754
-916.2908324361409,768
-913.5671542984834,770
-910.8442236973568,760
-908.1220404642074,770
-905.4006044304027,757
-902.679915427231,747
-899.959973285902,746
-897.2407778375464,733
-894.5223289132158,726
-891.8046263438832,703
-889.0876699604426,735
-886.3714595937089,737
-883.6559950744183,706
-880.9412762332282,718
-878.2273029007168,714
-875.5140749073835,696
-872.8015920836489,681
-870.0898542598545,653
-867.3788612662631,701
-864.6686129330585,695
-861.9591090903457,673
-859.2503495681506,682
-856.5423341964203,700
-853.8350628050229,692
-851.1285352237478,674
-848.4227512823054,712
-845.7177108103272,710
-843.0134136373656,686
-840.3098595928943,735
-837.6070485063082,722
-834.9049802069229,700
-832.2036545239757,694
-829.5030712866244,704
-826.8032303239481,711
-824.1041314649472,704
-821.4057745385428,702
-818.7081593735775,699
-816.0112857988148,699
-813.3151536429393,660
-810.6197627345566,681
-807.9251129021936,705
-805.2312039742981,722
-802.5380357792392,690
-799.8456081453069,699
-797.1539209007124,662
-794.462973873588,677
-791.772766891987,699
-789.083299783884,681
-786.3945723771743,682
-783.7065844996748,709
-781.0193359791231,706
-778.3328266431781,729
-775.6470563194197,722
-772.9620248353489,707
-770.2777320183878,679
-767.5941776958798,683
-764.9113616950891,704
-762.2292838432011,711
-759.5479439673222,677
-756.8673418944801,734
-754.1874774516235,716
-751.5083504656222,740
-748.8299607632671,723
-746.15230817127,722
-743.475392516264,734
-740.7992136248035,719
-738.1237713233636,681
-735.4490654383407,695
-732.7750957960521,717
-730.1018622227365,776
-727.4293645445534,743
-724.7576025875837,785
-722.0865761778291,735
-719.4162851412126,750
-716.7467293035781,738
-714.0779084906909,744
-711.409822528237,716
-708.7424712418238,747
-706.0758544569796,738
-703.4099719991541,750
-700.7448236937178,778
-698.0804093659622,745
-695.4167288411002,803
-692.7537819442656,797
-690.0915685005134,779
-687.4300883348199,791
-684.7693412720819,789
-682.1093271371178,773
-679.4500457546669,728
-676.7914969493897,785
-674.1336805458676,794
-671.4765963686034,814
-668.8202442420206,819
-666.1646239904642,762
-663.5097354382001,796
-660.8555784094151,832
-658.2021527282176,792
-655.5494582186366,860
-652.8974947046223,828
-650.2462620100463,839
-647.5957599587009,851
-644.9459883742998,796
-642.2969470804776,810
-639.6486359007902,855
-637.0010546587141,828
-634.3542031776476,890
-631.7080812809096,828
-629.0626887917401,830
-626.4180255333008,820
-623.7740913286734,860
-621.1308860008619,825
-618.4884093727904,789
-615.8466612673046,796
-613.2056415071715,828
-610.5653499150785,798
-607.9257863136347,775
-605.28695052537,824
-602.6488423727357,813
-600.0114616781036,775
-597.3748082637674,858
-594.7388819519412,836
-592.1036825647604,813
-589.4692099242818,799
-586.8354638524829,834
-584.2024441712624,788
-581.5701507024403,798
-578.9385832677575,817
-576.3077416888759,807
-573.6776257873787,804
-571.0482353847704,852
-568.4195703024757,900
-565.7916303618415,898
-563.164415384135,867
-560.5379251905453,829
-557.9121596021815,862
-555.2871184400748,817
-552.6628015251767,813
-550.0392086783606,811
-547.4163397204204,837
-544.794194472071,816
-542.1727727539491,882
-539.5520743866118,885
-536.9320991905377,900
-534.3128469861261,882
-531.6943175936979,908
-529.0765108334947,944
-526.4594265256793,1068
-523.8430644903358,1168
-521.2274245474689,1253
-518.612506517005,1327
-515.9983102187913,1399
-513.3848354725959,1625
-510.77208209810846,1702
-508.16004991493924,1788
-505.5487387426199,1907
-502.9381484006032,1966
-500.3282787082628,2099
-497.71912948489364,1987
-495.1107005497117,1976
-492.5029917218539,1825
-489.8960028203786,1541
-487.28973366426493,1357
-484.68418407241325,1249
-482.07935386364494,1165
-479.47524285670266,1135
-476.87185087025,1118
-474.2691777228715,1111
-471.66722323307334,1156
-469.0659872192821,1087
-466.4654694998459,1106
-463.86566989303384,1031
-461.26658821703614,1036
-458.66822428996414,1069
-456.07057792985,1002
-453.4736489546475,1034
-450.877437182231,1072
-448.28194243039627,1083
-445.68716451686,1004
-443.09310325926003,1045
-440.49975847515555,989
-437.9071299820263,1017
-435.31521759727354,995
-432.72402113821954,994
-430.13354042210767,1038
-427.5437752661022,1076
-424.95472548728867,1078
-422.36639090267386,1044
-419.7787713291855,1016
-417.1918665836721,1039
-414.60567648290385,1083
-412.0202008435715,1062
-409.4354394822874,1082
-406.8513922155845,1165
-404.26805885991723,1048
-401.685439231661,1114
-399.103533147112,1148
-396.522340422488,1167
-393.9418608739278,1077
-391.3620943174908,1024
-388.7830405691583,1067
-386.2046994448317,991
-383.6270707603344,964
-381.05015433141045,882
-378.473949973725,863
-375.8984575028645,828
-373.32367673433623,698
-370.74960748356875,722
-368.1762495659117,671
-365.60360279663576,636
-363.03166699093265,579
-360.4604419639154,580
-357.8899275306178,537
-355.32012350599507,528
-352.7510297049233,502
-350.1826459421999,518
-347.61497203254316,489
-345.04800779059235,520
-342.4817530309082,527
-339.91620756797226,476
-337.35137121618743,482
-334.7872437898774,509
-332.22382510328725,499
-329.66111497058273,549
-327.09911320585127,579
-324.53781962310075,536
-321.9772340362607,561
-319.4173562591816,585
-316.8581861056348,545
-314.2997233893127,530
-311.7419679238294,546
-309.1849195227194,529
-306.62857799943856,474
-304.0729431673641,486
-301.51801483979375,539
-298.963792829947,541
-296.41027695096386,528
-293.85746701590574,588
-291.3053628377552,589
-288.7539642294155,564
-286.2032710037115,555
-283.65328297338897,565
-281.1039999511146,562
-278.5554217494762,596
-276.007548180983,603
-273.4603790580651,630
-270.9139141930734,608
-268.3681533982807,591
-265.8230964858798,614
-263.27874326798565,664
-260.7350935566336,732
-258.1921471637804,675
-255.6499039013039,588
-253.10836358100266,589
-250.56752601459698,641
-248.02739101372765,751
-245.48795838995704,777
-242.94922795476816,761
-240.41119951956557,759
-237.8738728956746,741
-235.33724789434166,675
-232.80132432673452,750
-230.2661020039418,750
-227.73158073697357,725
-225.19776033676033,665
-222.66464061415422,684
-220.1322213799284,744
-217.60050244477725,719
-215.06948361931552,722
-212.53916471408013,690
-210.00954553952818,746
-207.48062590603843,824
-204.9524056239104,891
-202.4248845033651,872
-199.8980623545441,756
-197.37193898751036,736
-194.84651421224817,759
-192.32178783866232,786
-189.79775967657952,784
-187.27442953574644,761
-184.7517972258321,768
-182.2298625564256,803
-179.7086253370378,770
-177.18808537710026,814
-174.66824248596583,789
-172.14909647290835,843
-169.6306471471229,926
-167.11289431772548,924
-164.59583779375328,830
-162.07947738416453,895
-159.5638128978386,967
-157.04884414357605,1001
-154.53457093009854,961
-152.02099306604828,936
-149.50811035998936,933
-146.99592262040665,958
-144.48442965570587,953
-141.97363127421409,996
-139.46352728417958,991
-136.95411749377126,966
-134.44540171107985,1108
-131.93737974411636,1134
-129.43005140081357,1157
-126.92341648902493,1267
-124.41747481652521,1296
-121.91222619101006,1207
-119.40767042009657,1232
-116.90380731132257,1356
-114.40063667214702,1374
-111.8981583099503,1304
-109.3963720320337,1527
-106.89527764561933,1554
-104.39487495785067,1483
-101.89516377579241,1473
-99.39614390642998,1546
-96.89781515667039,1591
-94.40017733334128,1871
-91.90323024319173,1989
-89.40697369289148,1830
-86.91140748903172,1896
-84.41653143812482,1728
-81.92234534660395,1796
-79.42884902082358,1887
-76.93604226705907,1961
-74.4439248915071,1943
-71.95249670028534,1920
-69.46175749943245,2079
-66.97170709490854,2272
-64.48234529259423,2975
-61.99367189829195,2279
-59.50568671772464,2331
-57.01838955653636,2729
-54.53178022029283,3109
-52.045858514480074,3057
-49.560624244506016,2962
-47.07607721569923,3169
-44.59221723330904,3049
-42.10904410250669,2807
-39.62655762838392,3583
-37.14475761595372,5149
-34.66364387015028,5874
-32.18321619582866,5891
-29.70347439776515,6313
-27.224418280657005,8729
-24.74604764912317,13434
-22.26836230770266,21945
-19.7913620608565,34492
-17.315046712966478,46009
-14.83941606833514,48791
-12.36446993118659,65029
-9.89020810566592,65029
-7.416630395839093,65029
-4.94373660569363,65029
-2.471526539137585,65029
-6.821210263296962E-13,65029
2.47084320796705,65029
4.941003281093458,65029
7.410480415786196,65029
9.879274808531363,65029
12.347386655893956,65029
14.814816154518212,65029
17.28156350112681,65029
19.74762889252179,65029
22.21301252558385,65029
24.67771459727237,49078
27.141735304626195,20396
29.605074844762612,14414
32.06773341487792,9301
34.52971121224755,6577
36.99100843422559,7098
39.45162527824516,7949
41.91156194181792,6310
44.370818622535126,7028
46.82939551806646,9023
49.287292826160524,9788
51.74451074464503,9692
54.201049471426245,8327
56.65690920448981,6789
59.112090141899785,4808
61.56659248179983,3444
64.02041642241159,2549
66.4735621620365,2812
68.92602989905402,2381
71.37781983192338,2271
73.82893215918205,2513
76.27936707944684,2431
78.72912479141326,2612
81.17820549385567,2623
83.62660938562783,2217
86.07433666566146,1985
88.5213875329681,2053
90.96776218663751,2252
93.41346082583925,1980
95.85848364982041,1921
98.30283085790859,1881
100.7465026495089,1895
103.18949922410604,1878
105.63182078126385,2101
108.07346752062438,1725
110.51443964190923,1664
112.95473734491827,1533
115.39436082953114,1513
117.83331029570547,1577
120.27158594347827,1625
122.7091879729652,1376
125.1461165843615,1427
127.58237197794062,1446
130.01795435405518,1350
132.4528639131364,1333
134.88710085569494,1428
137.32066538231982,1275
139.75355769367923,1331
142.1857779905207,1427
144.61732647366978,1544
147.04820334403132,1449
149.47840880258934,1426
151.90794305040674,1588
154.33680628862487,1651
156.76499871846443,1593
159.19252054122433,1734
161.61937195828352,1870
164.04555317109896,1928
166.47106438120693,2203
168.89590579022217,2535
171.320077599839,2636
173.7435800118302,2637
176.16641322804742,2740
178.58857745042144,2809
181.01007288096173,2897
183.43089972175687,2907
185.85105817497413,2920
188.27054844285988,2936
190.6893707277394,2859
193.10752523201643,2852
195.5250121581745,2928
197.9418317087751,3067
200.3579840864594,3146
202.7734694939469,2955
205.18828813403627,2973
207.6024402096051,3038
210.01592592360964,3034
212.42874547908548,2996
214.84089907914665,2954
217.2523869269868,2975
219.66320922587727,2911
222.0733661791695,2856
224.48285799029293,2985
226.8916848627572,3040
229.29984700014882,3116
231.7073446061355,3208
234.11417788446204,3095
236.520347038953,3271
238.92585227351185,3172
241.33069379212054,3365
243.73487179884035,3443
246.1383864978112,3304
248.541238093252,3463
250.9434267894609,3559
253.34495279081432,3511
255.74581630176783,3565
258.1460175268563,3619
260.54555667069314,3639
262.9444339379703,3547
265.3426495334594,3517
267.7402036620107,3448
270.1370965285529,3166
272.53332833809407,3097
274.9288992957214,3016
277.32380960660055,2903
279.718059475976,2767
282.1116491091717,2762
284.5045787115897,2795
286.89684848871195,2734
289.2884586460981,2668
291.67940938938807,2780
294.0697009242996,2723
296.4593334566299,2727
298.84830719225477,2638
301.23662233712923,2654
303.6242790972866,2651
306.01127767884,2728
308.39761828798066,2707
310.78330113097934,2545
313.16832641418534,2552
315.5526943440269,2467
317.9364051270112,2402
320.3194589697242,2412
322.70185607883093,2374
325.0835966610754,2371
327.4646809232805,2358
329.8451090723478,2374
332.2248813152577,2363
334.6039978590701,2315
336.9824589109231,2302
339.36026467803447,2263
341.7374153677,2250
344.113911187295,2202
346.48975234427337,2184
348.8649390461686,2237
351.2394715005918,2231
353.61334991523415,2138
355.9865744978655,2249
358.35914545633375,2195
360.73106299856715,2174
363.10232733257146,2213
365.47293866643247,2215
367.84289720831396,2136
370.2122031664593,2126
372.5808567491905,2181
374.9488581649083,2062
377.31620762209275,2086
379.6829053293021,2114
382.0489514951745,2108
384.4143463284262,2087
386.7790900378528,2112
389.14318283232853,2103
391.50662492080653,1993
393.86941651231916,2033
396.23155781597745,2039
398.5930490409713,1971
400.9538903965696,2016
403.3140820921202,2049
405.6736243370498,1972
408.03251734086336,2034
410.3907613131465,2046
412.74835646356166,1985
415.10530300185144,2034
417.4616011378372,2009
419.81725108141893,1995
422.1722530425758,1973
424.5266072313656,2014
426.880313857925,1975
429.2333731324701,1990
431.58578526529516,1969
433.9375504667738,1968
436.2886689473588,1855
438.63914091758113,1912
440.9889665880513,1928
443.33814616945835,1927
445.68667987257015,1954
448.03456790823395,1951
450.3818104873759,1922
452.72840782100013,1901
455.07436012019105,1902
457.41966759611057,1890
459.7643304600007,1882
462.10834892318155,1914
464.4517231970525,1917
466.79445349309174,1931
469.1365400228566,1955
471.4779829979826,2019
473.81878263018564,2027
476.15893913125876,2041
478.4984527130747,2142
480.8373235875855,2075
483.17555196682144,2105
485.5131380628919,2070
487.8500820879857,2256
490.1863842543697,2232
492.52204477439034,2410
494.8570638604725,2617
497.1914417251204,2970
499.52517858091653,3199
501.85827464052306,3441
504.19073011668036,3696
506.5225452222086,3651
508.85372017000566,3600
511.18425517304956,3560
513.514150444396,3649
515.8434061971808,4221
518.1720226446176,4684
520.4999999999999,4993
522.8273384766991,5047
525.1540382881666,5145
527.480099647932,4857
529.8055227696037,3996
532.1303078668694,2745
534.454455153496,2305
536.777964843328,2091
539.1008371502907,1948
541.4230722883866,1971
543.744670471698,1946
546.0656319143858,1910
548.3859568306899,1873
550.7056454349294,1832
553.0246979415016,1851
555.3431145648834,1776
557.6608955196306,1694
559.978041020377,1803
562.2945512818363,1737
564.6104265188006,1723
566.9256669461412,1752
569.2402727788082,1738
571.5542442318302,1715
573.8675815203156,1724
576.1802848594508,1752
578.4923544645015,1704
580.8037905508126,1768
583.114593333807,1721
585.4247630289875,1723
587.7342998519354,1791
590.0432040183106,1761
592.3514757438526,1799
594.6591152443794,1759
596.9661227357875,1754
599.2724984340531,1819
601.578242555231,1741
603.8833553154542,1803
606.1878369309362,1796
608.4916876179676,1860
610.7949075929192,1822
613.0974970722403,1783
615.3994562724587,1815
617.7007854101818,1816
620.0014847020951,1855
622.3015543649641,1821
624.6009946156324,1795
626.8998056710224,1804
629.1979877481361,1800
631.4955410640538,1799
633.7924658359349,1858
636.0887622810175,1866
638.3844306166192,1798
640.6794710601358,1870
642.9738838290426,1860
645.2676691408932,1836
647.5608272133207,1814
649.853358264037,1878
652.1452625108324,1916
654.4365401715764,1864
656.7271914642178,1805
659.0172166067838,1840
661.3066158173809,1876
663.5953893141935,1868
665.8835373154867,1832
668.1710600396028,1857
670.4579577049639,1878
672.7442305300709,1877
675.0298787335033,1885
677.3149025339197,1876
679.599302150058,1824
681.8830778007342,1937
684.1662297048437,1898
686.4487580813608,1862
688.7306631493387,1869
691.0119451279091,1845
693.2926042362834,1938
695.5726406937516,1814
697.8520547196814,1866
700.1308465335215,1891
702.4090163547982,1848
704.6865644031171,1888
706.9634908981619,1879
709.2397960596965,1819
711.5154801075631,1798
713.7905432616823,1897
716.0649857420548,1866
718.3388077687592,1799
720.612009561953,1748
722.8845913418733,1863
725.1565533288352,1834
727.427895743234,1810
729.6986188055427,1830
731.9687227363137,1791
734.238207756178,1792
736.5070740858458,1806
738.7753219461066,1731
741.0429515578281,1837
743.3099631419569,1821
745.5763569195191,1844
747.8421331116193,1782
750.1072919394409,1891
752.3718336242467,1761
754.6357583873777,1847
756.8990664502545,1833
759.1617580343765,1837
761.423833361321,1856
763.6852926527457,1788
765.9461361303862,1824
768.206364016058,1835
770.4659765316536,1881
772.7249738991469,1857
774.9833563405886,1835
777.2411240781092,1857
779.4982773339183,1814
781.7548163303044,1898
784.010741289634,1875
786.2660524343538,1917
788.5207499869881,1899
790.7748341701416,1861
793.0283052064964,1852
795.2811633188143,1790
797.5334087299362,1866
799.7850416627813,1805
802.0360623403484,1857
804.2864709857143,1852
806.5362678220353,1893
808.7854530725468,1859
811.0340269605625,1846
813.2819897094754,1760
815.5293415427581,1844
817.77608268396,1846
820.0222133567116,1847
822.2677337847211,1839
824.5126441917765,1793
826.7569448017433,1809
829.0006358385675,1843
831.2437175262731,1878
833.4861900889629,1890
835.7280537508192,1819
837.9693087361026,1828
840.2099552691533,1823
842.4499935743896,1838
844.689423876309,1877
846.9282463994886,1791
849.1664613685833,1861
851.4040690083276,1806
853.6410695435349,1832
855.877463199097,1826
858.1132501999847,1859
860.3484307712487,1867
862.5830051380175,1837
864.8169735254988,1838
867.0503361589791,1892
869.2830932638243,1930
871.5152450654786,1844
873.7467917894654,1870
875.9777336613873,1880
878.2080709069252,1868
880.4378037518389,1891
882.666932421968,1880
884.8954571432301,1886
887.1233781416219,1923
889.3506956432192,1915
891.5774098741766,1879
893.803521060728,1937
896.0290294291852,1985
898.2539352059397,1909
900.4782386174619,1967
902.7019398903011,1884
904.925039251085,1922
907.147536926521,1907
909.3694331433943,1982
911.59072812857,1877
913.8114221089921,1921
916.0315153116827,1882
918.2510079637437,1958
920.4699002923547,1940
922.6881925247761,1854
924.905884888345,1901
927.1229776104793,1943
929.3394709186747,1860
931.555365040506,1932
933.7706602036275,1903
935.9853566357709,1954
938.1994545647489,1915
940.4129542184515,1919
942.6258558248488,1948
944.8381596119883,1921
947.0498658079974,1888
949.2609746410825,1872
951.4714863395287,1889
953.6814011316998,1896
955.8907192460387,1906
958.0994409110671,1858
960.3075663553858,1875
962.5150958076741,1888
964.7220294966913,1842
966.928367651274,1894
969.1341105003388,1834
971.3392582728806,1766
973.5438111979742,1854
975.747769504772,1733
977.9511334225061,1771
980.153903180487,1832
982.3560790081052,1786
984.5576611348289,1831
986.7586497902058,1804
988.9590452038618,1739
991.158847605503,1732
993.3580572249133,1677
995.5566742919558,1645
997.7546990365728,1667
999.952131688785,1584
1002.1489724786926,1587
1004.3452216364743,1603
1006.5408793923874,1612
1008.7359459767691,1624
1010.9304216200343,1657
1013.1243065526781,1575
1015.3176010052733,1569
1017.510305208472,1581
1019.7024193930064,1506
1021.8939437896848,1511
1024.0848786293977,1551
1026.2752241431122,1502
1028.4649805618747,1497
1030.6541481168115,1528
1032.842727039127,1524
1035.0307175601051,1473
1037.2181199111074,1437
1039.4049343235752,1551
1041.591161029029,1475
1043.7768002590683,1446
1045.9618522453698,1548
1048.1463172196918,1520
1050.3301954138697,1469
1052.513487059818,1479
1054.69619238953,1453
1056.8783116350783,1496
1059.0598450286152,1493
1061.2407928023704,1453
1063.4211551886528,1512
1065.6009324198508,1481
1067.780124728432,1443
1069.9587323469414,1422
1072.1367555080046,1387
1074.314194444325,1436
1076.4910493886855,1475
1078.667320573947,1425
1080.843008233051,1430
1083.0181125990161,1477
1085.1926339049414,1416
1087.3665723840027,1424
1089.5399282694575,1408
1091.7127017946405,1417
1093.8848931929647,1435
1096.0565026979243,1368
1098.2275305430899,1361
1100.3979769621128,1447
1102.567842188722,1358
1104.737126456726,1374
1106.9058300000124,1362
1109.0739530525475,1359
1111.2414958483764,1358
1113.4084586216231,1412
1115.5748416064907,1383
1117.7406450372605,1366
1119.9058691482942,1352
1122.0705141740304,1353
1124.2345803489884,1393
1126.3980679077658,1366
1128.5609770850388,1394
1130.7233081155623,1351
1132.8850612341707,1325
1135.0462366757774,1351
1137.2068346753745,1397
1139.3668554680326,1355
1141.526299288901,1390
1143.68516637321,1337
1145.8434569562655,1377
1148.001171273455,1356
1150.158309560244,1295
1152.3148720521767,1313
1154.470858984876,1377
1156.626270594044,1307
1158.7811071154629,1368
1160.9353687849912,1378
1163.089055838569,1364
1165.242168512213,1331
1167.3947070420209,1370
1169.5466716641677,1386
1171.6980626149075,1343
1173.8488801305748,1331
1175.9991244475814,1321
1178.1487958024186,1316
1180.2978944316555,1333
1182.4464205719428,1386
1184.5943744600072,1307
1186.7417563326567,1315
1188.8885664267755,1342
1191.0348049793297,1340
1193.1804722273619,1324
1195.325568407995,1314
1197.4700937584303,1333
1199.614048515948,1341
1201.7574329179074,1373
1203.900247201746,1336
1206.042491604982,1314
1208.1841663652099,1279
1210.3252717201053,1377
1212.465807907422,1363
1214.6057751649923,1357
1216.7451737307279,1293
1218.8840038426192,1314
1221.0222657387353,1372
1223.1599596572241,1344
1225.2970858363137,1368
1227.4336445143094,1435
1229.5696359295966,1362
1231.705060320639,1345
1233.8399179259786,1352
1235.9742089842384,1325
1238.107933734118,1368
1240.2410924143974,1345
1242.373685263935,1348
1244.5057125216676,1371
1246.6371744266116,1384
1248.7680712178621,1351
1250.898403134593,1344
1253.028170416058,1349
1255.1573733015875,1335
1257.2860120305932,1381
1259.4140868425648,1366
1261.54159797707,1369
1263.6685456737569,1369
1265.7949301723515,1415
1267.9207517126597,1380
1270.046010534565,1389
1272.1707068780306,1382
1274.2948409830983,1383
1276.4184130898889,1386
1278.541423438603,1418
1280.6638722695184,1409
1282.785759822993,1453
1284.9070863394636,1404
1287.0278520594447,1457
1289.1480572235314,1464
1291.2677020723963,1471
1293.3867868467923,1464
1295.5053117875495,1442
1297.623277135579,1461
1299.740683131868,1499
1301.8575300174857,1487
1303.973818033578,1460
1306.0895474213703,1517
1308.2047184221678,1503
1310.3193312773528,1498
1312.4333862283888,1551
1314.5468835168163,1483
1316.659823384255,1509
1318.7722060724045,1481
1320.8840318230418,1496
1322.9953008780249,1557
1325.1060134792888,1502
1327.2161698688478,1531
1329.3257702887959,1506
1331.4348149813054,1473
1333.5433041886276,1537
1335.6512381530933,1549
1337.7586171171101,1473
1339.8654413231675,1450
1341.9717110138317,1529
1344.0774264317488,1489
1346.1825878196432,1471
1348.2871954203192,1481
1350.3912494766587,1477
1352.4947502316231,1453
1354.5976979282532,1492
1356.7000928096686,1510
1358.8019351190665,1475
1360.9032250997243,1467
1363.0039629949988,1457
1365.1041490483235,1531
1367.2037835032133,1513
1369.3028666032606,1446
1371.401398592137,1516
1373.4993797135926,1521
1375.5968102114575,1494
1377.6936903296396,1580
1379.7900203121262,1525
1381.8858004029835,1511
1383.9810308463561,1536
1386.075711886469,1512
1388.1698437676241,1498
1390.2634267342032,1556
1392.356461030667,1549
1394.4489469015557,1548
1396.5408845914872,1470
1398.6322743451592,1585
1400.7231164073469,1563
1402.813411022907,1545
1404.903158436773,1541
1406.9923588939578,1534
1409.0810126395531,1566
1411.1691199187303,1545
1413.2566809767386,1579
1415.343696058907,1528
1417.4301654106425,1585
1419.5160892774315,1534
1421.6014679048399,1607
1423.6863015385125,1599
1425.7705904241707,1708
1427.8543348076178,1651
1429.9375349347342,1630
1432.0201910514802,1648
1434.102303403894,1643
1436.1838722380944,1736
1438.2648978002767,1753
1440.3453803367174,1736
1442.4253200937692,1726
1444.5047173178677,1719
1446.5835722555234,1766
1448.6618851533285,1798
1450.739656257952,1819
1452.8168858161434,1895
1454.8935740747306,1916
1456.96972128062,1944
1459.045327680797,1902
1461.120393522327,1997
1463.1949190523528,2021
1465.2689045180973,1990
1467.3423501668608,2101
1469.415256246024,2087
1471.4876230030463,2134
1473.559450685465,2144
1475.6307395408976,2234
1477.7014898170391,2171
1479.771701761665,2300
1481.8413756226287,2276
1483.9105116478618,2313
1485.9791100853772,2359
1488.0471711832643,2338
1490.1146951896926,2395
1492.1816823529098,2485
1494.2481329212433,2562
1496.3140471430984,2591
1498.3794252669609,2549
1500.4442675413939,2659
1502.5085742150404,2591
1504.572345536622,2609
1506.6355817549388,2583
1508.6982831188702,2703
1510.7604498773744,2690
1512.8220822794883,2667
1514.8831805743293,2784
1516.9437450110909,2796
1519.003775839048,2709
1521.0632733075522,2822
1523.1222376660367,2804
1525.1806691640113,2798
1527.2385680510652,2841
1529.2959345768668,2883
1531.3527689911643,2916
1533.4090715437833,2953
1535.4648424846291,3045
1537.5200820636855,3080
1539.5747905310159,3162
1541.6289681367616,3177
1543.6826151311434,3194
1545.7357317644614,3147
1547.7883182870937,3224
1549.8403749494987,3299
1551.8919020022113,3377
1553.9428996958477,3378
1555.9933682811015,3485
1558.0433080087469,3594
1560.0927191296346,3752
1562.1416018946961,3742
1564.1899565549415,3676
1566.2377833614592,3770
1568.2850825654164,3862
1570.3318544180606,3666
1572.3780991707158,3576
1574.423817074788,3585
1576.4690083817595,3382
1578.5136733431923,3240
1580.5578122107272,3115
1582.601425236085,2955
1584.6445126710646,2752
1586.6870747675434,2622
1588.7291117774776,2497
1590.7706239529034,2394
1592.8116115459347,2351
1594.8520748087658,2304
1596.8920139936686,2138
1598.9314293529933,2034
1600.9703211391711,2050
1603.008689604711,1999
1605.0465350022005,1918
1607.0838575843068,1827
1609.1206576037753,1804
1611.1569353134305,1731
1613.1926909661765,1709
1615.2279248149953,1680
1617.2626371129481,1650
1619.2968281131757,1611
1621.3304980688963,1666
1623.3636472334088,1594
1625.39627586009,1601
1627.428384202396,1534
1629.459972513861,1525
1631.4910410480993,1523
1633.5215900588028,1566
1635.551619799744,1590
1637.5811305247717,1486
1639.6101224878166,1548
1641.6385959428862,1506
1643.6665511440683,1551
1645.693988345528,1503
1647.7209078015112,1469
1649.7473097663405,1384
1651.7731944944203,1421
1653.7985622402307,1507
1655.823413258333,1474
1657.847747803366,1398
1659.8715661300494,1421
1661.8948684931793,1388
1663.9176551476316,1436
1665.9399263483624,1370
1667.9616823504057,1376
1669.982923408873,1434
1672.0036497789574,1453
1674.0238617159293,1414
1676.043559475138,1358
1678.0627433120121,1377
1680.081413482059,1407
1682.0995702408654,1418
1684.117213844096,1451
1686.134344547495,1394
1688.1509626068864,1406
1690.1670682781705,1407
1692.182661817329,1440
1694.1977434804217,1306
1696.2123135235875,1375
1698.226372203043,1371
1700.2399197750851,1304
1702.2529564960905,1395
1704.2654826225112,1389
1706.277498410882,1341
1708.2890041178139,1363
1710.2999999999988,1445
1712.3104863142066,1381
1714.3204633172854,1366
1716.329931266163,1357
1718.3388904178469,1421
1720.3473410294214,1379
1722.3552833580516,1427
1724.3627176609807,1373
1726.3696441955308,1329
1728.3760632191033,1372
1730.3819749891782,1320
1732.3873797633146,1297
1734.3922777991502,1344
1736.3966693544012,1289
1738.4005546868639,1311
1740.4039340544127,1327
1742.406807715001,1337
1744.4091759266616,1342
1746.4110389475054,1317
1748.4123970357223,1332
1750.413250449582,1304
1752.4135994474318,1335
1754.4134442876993,1307
1756.4127852288902,1326
1758.4116225295893,1323
1760.4099564484595,1279
1762.407787244244,1312
1764.405115175764,1331
1766.4019405019203,1338
1768.3982634816916,1249
1770.3940843741357,1297
1772.3894034383907,1239
1774.3842209336717,1241
1776.378537119274,1231
1778.372352254571,1264
1780.3656665990156,1254
1782.3584804121397,1290
1784.3507939535534,1267
1786.3426074829463,1256
1788.3339212600863,1193
1790.3247355448211,1236
1792.3150505970766,1251
1794.3048666768573,1286
1796.2941840442477,1242
1798.2830029594106,1223
1800.2713236825884,1215
1802.2591464741004,1278
1804.2464715943465,1231
1806.2332993038058,1262
1808.2196298630352,1226
1810.2054635326708,1278
1812.190800573428,1183
1814.175641246101,1238
1816.1599858115628,1211
1818.1438345307652,1241
1820.127187664738,1252
1822.1100454745924,1229
1824.092408221516,1264
1826.0742761667766,1222
1828.055649571721,1235
1830.0365286977735,1210
1832.0169138064398,1238
1833.9968051593014,1234
1835.9762030180214,1188
1837.9551076443408,1211
1839.9335193000788,1223
1841.9114382471344,1213
1843.888864747485,1263
1845.8657990631878,1212
1847.842241456378,1225
1849.8181921892697,1199
1851.7936515241558,1178
1853.7686197234098,1246
1855.7430970494815,1213
1857.7170837649014,1146
1859.6905801322787,1253
1861.6635864143004,1228
1863.6361028737338,1237
1865.608129773424,1234
1867.5796673762961,1237
1869.5507159453537,1215
1871.521275743678,1234
1873.4913470344313,1186
1875.4609300808534,1229
1877.4300251462632,1247
1879.3986324940588,1256
1881.366752387717,1259
1883.3343850907936,1226
1885.3015308669228,1237
1887.268189979819,1262
1889.2343626932739,1263
1891.2000492711595,1237
1893.1652499774254,1274
1895.1299650761011,1301
1897.0941948312952,1240
1899.0579395071945,1233
1901.0211993680641,1302
1902.98397467825,1240
1904.9462657021745,1301
1906.9080727043415,1273
1908.869395949332,1293
1910.8302357018065,1242
1912.790592226504,1292
1914.7504657882428,1243
1916.7098566519212,1287
1918.6687650825133,1264
1920.6271913450764,1178
1922.5851357047422,1233
1924.5425984267245,1269
1926.499579776314,1241
1928.4560800188833,1231
1930.4120994198802,1253
1932.367638244833,1217
1934.32269675935,1267
1936.2772752291175,1197
1938.231373919899,1227
1940.1849930975404,1216
1942.1381330279637,1258
1944.0907939771696,1156
1946.0429762112412,1226
1947.9946799963363,1231
1949.9459055986945,1240
1951.896653284633,1225
1953.8469233205478,1246
1955.7967159729142,1238
1957.7460315082863,1232
1959.6948701932974,1236
1961.6432322946594,1235
1963.5911180791632,1203
1965.5385278136787,1235
1967.4854617651545,1261
1969.4319202006182,1223
1971.377903387176,1204
1973.3234115920136,1216
1975.268445082395,1252
1977.2130041256642,1218
1979.1570889892423,1236
1981.1006999406304,1212
1983.04383724741,1256
1984.986501177238,1242
1986.928691997853,1251
1988.8704099770712,1258
1990.811655382789,1191
1992.7524284829801,1229
1994.692729545698,1198
1996.6325588390755,1230
1998.5719166313224,1193
2000.5108031907307,1209
2002.4492187856677,1234
2004.387163684583,1214
2006.3246381560011,1212
2008.2616424685298,1239
2010.1981768908527,1191
2012.1342416917332,1222
2014.069837140014,1210
2016.0049635046162,1187
2017.9396210545406,1185
2019.8738100588666,1230
2021.8075307867502,1214
2023.740783507431,1238
2025.6735684902228,1224
2027.6058860045214,1203
2029.5377363198004,1225
2031.4691197056118,1193
2033.4000364315875,1221
2035.3304867674374,1197
2037.260470982952,1203
2039.189989347998,1213
2041.1190421325232,1189
2043.047629606554,1198
2044.9757520401945,1198
2046.9034097036288,1234
2048.8306028671195,1224
2050.7573318010086,1198
2052.683596775716,1174
2054.609398061742,1191
2056.5347359296647,1146
2058.4596106501403,1176
2060.384022493906,1175
2062.3079717317764,1140
2064.231458634646,1193
2066.1544834734873,1218
2068.077046519352,1148
2069.99914804337,1165
2071.9207883167524,1233
2073.8419676107865,1142
2075.7626861968406,1167
2077.6829443463607,1161
2079.6027423308715,1186
2081.522080421977,1173
2083.440958891362,1220
2085.359378010786,1174
2087.2773380520907,1170
2089.194839287196,1198
2091.111881988101,1183
2093.0284664268825,1202
2094.9445928756973,1164
2096.86026160678,1154
2098.775472892446,1164
2100.690227005088,1193
2102.604524217178,1173
2104.5183648012676,1191
2106.431749029985,1182
2108.34467717604,1228
2110.2571495122206,1183
2112.169166311393,1174
2114.080727846503,1187
2115.9918343905747,1201
2117.902486216711,1167
2119.8126835980956,1179
2121.722426807987,1176
2123.6317161197285,1179
2125.5405518067364,1242
2127.448934142509,1202
2129.356863400624,1170
2131.264339854737,1197
2133.1713637785815,1186
2135.077935445972,1166
2136.9840551308002,1187
2138.889723107037,1202
2140.7949396487334,1181
2142.699705030018,1150
2144.6040195250994,1164
2146.507883408264,1194
2148.4112969538774,1185
2150.3142604363848,1202
2152.2167741303097,1193
2154.1188383102535,1216
2156.0204532508997,1169
2157.9216192270064,1207
2159.822336513414,1158
2161.7226053850413,1182
2163.622426116884,1239
2165.5217989840185,1197
2167.4207242616,1155
2169.319202224862,1172
2171.2172331491165,1162
2173.1148173097563,1208
2175.0119549822507,1145
2176.90864644215,1238
2178.8048919650823,1138
2180.7006918267534,1167
2182.596046302952,1185
2184.4909556695407,1215
2186.3854202024645,1190
2188.279440177746,1262
2190.173015871487,1161
2192.066147559868,1157
2193.958835519149,1174
2195.851080025667,1191
2197.7428813558417,1193
2199.6342397861667,1170
2201.5251555932186,1219
2203.415629053651,1184
2205.3056604441986,1181
2207.19525004167,1209
2209.084398122958,1268
2210.9731049650327,1214
2212.861370844941,1246
2214.749196039812,1226
2216.636580826851,1230
2218.523525483344,1226
2220.410030286655,1161
2222.296095514226,1228
2224.1817214435805,1204
2226.066908352319,1210
2227.951656518121,1191
2229.835966218746,1212
2231.71983773203,1215
2233.6032713358913,1184
2235.486267308324,1190
2237.3688259274036,1178
2239.2509474712824,1174
2241.132632218193,1206
2243.013880446447,1175
2244.8946924344323,1167
2246.7750684606203,1226
2248.6550088035574,1211
2250.534513741871,1205
2252.413583554265,1203
2254.292218519526,1215
2256.170418916517,1273
2258.0481850241786,1216
2259.925517121534,1233
2261.8024154876825,1209
2263.678880401803,1158
2265.5549121431536,1215
2267.430510991071,1179
2269.305677224971,1155
2271.180411124348,1235
2273.0547129687766,1204
2274.9285830379076,1180
2276.8020216114737,1202
2278.6750289692845,1170
2280.5476053912294,1195
2282.4197511572766,1245
2284.2914665474727,1201
2286.162751841943,1191
2288.0336073208937,1210
2289.904033264608,1227
2291.774029953448,1208
2293.6435976678554,1162
2295.5127366883517,1149
2297.381447295534,1167
2299.2497297700825,1189
2301.1175843927526,1219
2302.9850114443825,1211
2304.852011205885,1184
2306.7185839582553,1183
2308.5847299825664,1192
2310.4504495599676,1156
2312.3157429716925,1189
2314.1806104990483,1211
2316.0450524234247,1270
2317.9090690262888,1170
2319.772660589186,1225
2321.635827393742,1303
2323.498569721661,1263
2325.3608878547248,1250
2327.2227820747967,1240
2329.0842526638157,1215
2330.945299903803,1191
2332.805924076857,1227
2334.6661254651535,1203
2336.525904350951,1215
2338.3852610165827,1232
2340.244195744464,1160
2342.102708817088,1234
2343.9608005170253,1225
2345.8184711269287,1229
2347.675720929526,1213
2349.532550207628,1229
2351.38895924412,1217
2353.24494832197,1253
2355.100517724223,1203
2356.955667734004,1163
2358.810398634514,1256
2360.664710709037,1256
2362.5186042409337,1262
2364.3720795136437,1204
2366.225136810686,1227
2368.0777764156583,1261
2369.929998612237,1277
2371.7818036841777,1296
2373.633191915315,1244
2375.484163589562,1215
2377.3347189909114,1193
2379.184858403434,1219
2381.03458211128,1267
2382.8838903986775,1247
2384.732783549936,1282
2386.5812618494406,1280
2388.4293255816588,1275
2390.2769750311327,1232
2392.1242104824883,1262
2393.971032220427,1258
2395.8174405297295,1244
2397.6634356952563,1276
2399.509018001947,1250
2401.3541877348193,1309
2403.1989451789705,1280
2405.043290619576,1246
2406.8872243418905,1264
2408.730746631247,1271
2410.5738577730594,1274
2412.4165580528183,1289
2414.258847756095,1298
2416.100727168537,1268
2417.9421965758734,1323
2419.783256263912,1288
2421.623906518538,1329
2423.4641476257157,1270
2425.303979871491,1312
2427.143403541984,1265
2428.9824189233977,1319
2430.821026302012,1248
2432.6592259641866,1304
2434.497018196361,1228
2436.33440328505,1271
2438.171381516851,1249
2440.00795317844,1321
2441.844118556569,1245
2443.6798779380724,1285
2445.5152316098606,1272
2447.3501798589255,1243
2449.1847229723357,1277
2451.0188612372403,1283
2452.8525949408663,1272
2454.6859243705203,1268
2456.518849813587,1280
2458.3513715575314,1243
2460.183489889895,1242
2462.015205098301,1279
2463.8465174704493,1327
2465.67742729412,1247
2467.5079348571717,1210
2469.338040447542,1307
2471.1677443532476,1250
2472.9970468623833,1316
2474.825948263123,1292
2476.6544488437207,1291
2478.482548892508,1325
2480.310248697896,1315
2482.137548548374,1350
2483.9644487325118,1295
2485.790949538956,1300
2487.617051256433,1289
2489.44275417375,1280
2491.26805857979,1273
2493.0929647635157,1329
2494.917473013971,1317
2496.741583620276,1399
2498.5652968716304,1335
2500.3886130573137,1292
2502.2115324666834,1324
2504.0340553891765,1360
2505.856182114308,1328
2507.6779129316733,1333
2509.499248130945,1313
2511.3201880018764,1297
2513.140732834298,1300
2514.9608829181198,1338
2516.780638543331,1334
2518.6,1378
2520.418967578273,1366
2522.237541568376,1307
2524.0557222606144,1346
2525.8735099453706,1371
2527.6909049131086,1406
2529.507907454368,1347
2531.32451785977,1346
2533.140736420014,1344
2534.9565634258774,1323
2536.771999168218,1371
2538.5870439379714,1375
2540.4016980261526,1456
2542.2159617238544,1425
2544.02983532225,1394
2545.8433191125914,1408
2547.656413386209,1463
2549.4691184345115,1440
2551.2814345489874,1430
2553.093362021204,1413
2554.904901142808,1425
2556.716052205523,1468
2558.526815501153,1461
2560.3371913215824,1497
2562.147179958771,1496
2563.956781704761,1498
2565.7659968516705,1518
2567.5748256916986,1501
2569.3832685171224,1549
2571.1913256202984,1562
2572.9989972936614,1539
2574.806283829725,1609
2576.613185521084,1545
2578.4197026604074,1521
2580.2258355404483,1579
2582.031584454035,1583
2583.836949694077,1619
2585.6419315535613,1595
2587.4465303255533,1555
2589.2507463032002,1589
2591.0545797797245,1599
2592.8580310484303,1590
2594.6611004026995,1579
2596.463788135992,1608
2598.266094541849,1635
2600.0680199138874,1561
2601.869564545807,1602
2603.670728731383,1580
2605.4715127644704,1597
2607.2719169390048,1639
2609.071941548998,1580
2610.8715868885433,1645
2612.670853251811,1638
2614.469740933052,1612
2616.268250226594,1617
2618.0663814268455,1597
2619.864134828292,1675
2621.6615107255006,1588
2623.458509413115,1631
2625.2551311858597,1628
2627.0513763385347,1595
2628.8472451660223,1583
2630.6427379632833,1603
2632.4378550253564,1631
2634.232596647359,1537
2636.026963124488,1592
2637.8209547520187,1569
2639.6145718253065,1580
2641.407814639785,1514
2643.200683490966,1529
2644.9931786744414,1485
2646.7853004858807,1510
2648.577049221034,1514
2650.3684251757277,1493
2652.1594286458712,1518
2653.9500599274484,1422
2655.740319316525,1445
2657.5302071092437,1436
2659.3197236018286,1440
2661.10886909058,1475
2662.8976438718782,1457
2664.686048242183,1391
2666.4740824980327,1372
2668.2617469360443,1400
2670.0490418529134,1388
2671.8359675454153,1374
2673.622524310403,1370
2675.408712444811,1403
2677.1945322456495,1325
2678.979984010009,1387
2680.76506803506,1340
2682.5497846180497,1284
2684.334134056306,1333
2686.1181166472343,1340
2687.9017326883213,1355
2689.6849824771293,1328
2691.4678663113013,1301
2693.2503844885596,1357
2695.032537306705,1281
2696.8143250636167,1293
2698.5957480572542,1310
2700.3768065856534,1325
2702.1575009469316,1297
2703.937831439283,1267
2705.717798360982,1265
2707.4974020103837,1237
2709.276642685917,1280
2711.055520686095,1284
2712.834036309506,1264
2714.612189854819,1228
2716.389981620782,1252
2718.1674119062204,1234
2719.944481010041,1233
2721.721189231226,1217
2723.4975368688415,1227
2725.273524222027,1274
2727.0491515900053,1209
2728.824419272075,1231
2730.5993275676146,1256
2732.3738767760838,1210
2734.148067197016,1279
2735.921899130031,1198
2737.6953728748194,1228
2739.468488731156,1224
2741.2412469988926,1207
2743.0136479779617,1262
2744.785691968372,1207
2746.5573792702116,1253
2748.3287101836504,1207
2750.099685008934,1222
2751.870304046388,1177
2753.640567596418,1184
2755.4104759595057,1182
2757.1800294362156,1183
2758.949228327187,1241
2760.7180729331412,1151
2762.486563554877,1220
2764.254700493272,1185
2766.022484049284,1149
2767.789914523947,1189
2769.5569922183786,1168
2771.3237174337705,1207
2773.090090471394,1201
2774.8561116326036,1139
2776.6217812188274,1213
2778.3870995315756,1199
2780.1520668724356,1180
2781.9166835430747,1200
2783.6809498452394,1181
2785.444866080754,1282
2787.2084325515225,1176
2788.971649559527,1183
2790.73451740683,1185
2792.4970363955713,1187
2794.2592068279705,1223
2796.0210290063264,1188
2797.7825032330147,1235
2799.543629810493,1235
2801.304409041296,1177
2803.0648412280366,1184
2804.8249266734088,1196
2806.5846656801846,1206
2808.344058551212,1177
2810.1031055894246,1171
2811.8618070978273,1222
2813.6201633795085,1189
2815.378174737636,1230
2817.1358414754536,1185
2818.893163896285,1165
2820.6501423035334,1171
2822.4067770006814,1132
2824.1630682912883,1194
2825.9190164789957,1216
2827.6746218675207,1205
2829.429884760661,1210
2831.184805462294,1223
2832.9393842763743,1193
2834.693621506936,1188
2836.4475174580916,1160
2838.201072434034,1178
2839.954286739034,1167
2841.707160677441,1209
2843.459694553685,1215
2845.2118886722724,1209
2846.96374333779,1198
2848.7152588549034,1186
2850.4664355283567,1172
2852.217273662973,1175
2853.9677735636546,1152
2855.7179355353833,1181
2857.4677598832186,1174
2859.217246912299,1196
2860.9663969278427,1176
2862.715210235146,1199
2864.4636871395846,1216
2866.211827946614,1164
2867.9596329617652,1160
2869.7071024906536,1189
2871.4542368389684,1135
2873.20103631248,1194
2874.947501217038,1193
2876.6936318585695,1172
2878.4394285430812,1174
2880.1848915766604,1144
2881.9300212654707,1170
2883.6748179157553,1161
2885.4192818338374,1224
2887.1634133261173,1128
2888.907212699077,1163
2890.6506802592744,1180
2892.393816313348,1192
2894.1366211680142,1195
2895.8790951300693,1164
2897.621238506388,1156
2899.363051603925,1173
2901.1045347297118,1175
2902.8456881908596,1205
2904.58651229456,1190
2906.327007348081,1185
2908.067173658772,1192
2909.8070115340597,1211
2911.5465212814497,1202
2913.285703208527,1186
2915.0245576229563,1164
2916.7630848324807,1183
2918.5012851449196,1204
2920.2391588681758,1179
2921.976706310227,1245
2923.7139277791334,1148
2925.4508235830313,1202
2927.187394030137,1158
2928.923639428745,1208
2930.6595600872306,1193
2932.395156314046,1197
2934.1304284177218,1155
2935.8653767068713,1195
2937.6000014901815,1183
2939.3343030764227,1202
2941.068281774442,1257
2942.8019378931644,1199
2944.5352717415976,1157
2946.2682836288236,1154
2948.0009738640065,1223
2949.7333427563885,1165
2951.465390615289,1191
2953.1971177501086,1197
2954.9285244703265,1195
2956.6596110855,1194
2958.3903779052657,1174
2960.1208252393385,1181
2961.8509533975125,1121
2963.5807626896617,1179
2965.3102534257378,1174
2967.0394259157715,1138
2968.768280469873,1196
2970.496817398232,1107
2972.2250370111146,1164
2973.952939618869,1176
2975.6805255319196,1200
2977.4077950607707,1207
2979.134748516006,1191
2980.861386208289,1181
2982.587708448359,1169
2984.313715547037,1210
2986.039407815222,1184
2987.764785563891,1202
2989.489849104102,1146
2991.2145987469908,1132
2992.9390348037705,1173
2994.6631575857346,1208
2996.3869674042576,1148
2998.1104645707887,1143
2999.83364939686,1148
3001.5565221940783,1160
3003.2790832741334,1194
3005.0013329487924,1124
3006.7232715298996,1172
3008.4448993293804,1172
3010.166216659239,1176
3011.887223831558,1155
3013.607921158498,1177
3015.3283089522993,1176
3017.0483875252826,1169
3018.7681571898443,1147
3020.4876182584626,1148
3022.2067710436927,1180
3023.9256158581707,1171
3025.644153014609,1176
3027.362382825801,1186
3029.0803056046193,1156
3030.797921664012,1224
3032.5152313170106,1181
3034.2322348767225,1191
3035.9489326563353,1183
3037.665324969115,1153
3039.3814121284063,1184
3041.097194447633,1178
3042.812672240299,1236
3044.5278458199855,1195
3046.2427155003525,1152
3047.9572815951406,1190
3049.671544418167,1133
3051.38550428333,1146
3053.0991615046073,1172
3054.812516396051,1149
3056.5255692717974,1218
3058.2383204460575,1228
3059.9507702331257,1176
3061.662918947372,1188
3063.3747669032446,1169
3065.0863144152736,1220
3066.7975617980674,1212
3068.508509366309,1190
3070.219157434767,1143
3071.9295063182844,1124
3073.639556331785,1217
3075.3493077902704,1209
3077.058761008821,1185
3078.7679163025964,1162
3080.476773986837,1218
3082.1853343768594,1182
3083.89359778806,1217
3085.6015645359153,1159
3087.3092349359786,1180
3089.016609303884,1133
3090.7236879553434,1205
3092.4304712061476,1164
3094.136959372166,1182
3095.843152769349,1198
3097.5490517137237,1209
3099.2546565213966,1152
3100.959967508554,1150
3102.66498499146,1263
3104.3697092864577,1130
3106.0741407099695,1202
3107.778279578498,1171
3109.482126208622,1225
3111.1856809170004,1199
3112.8889440203716,1221
3114.5919158355528,1218
3116.294596679439,1216
3117.996986869006,1207
3119.6990867213062,1245
3121.4008965534726,1202
3123.102416682717,1177
3124.803647426329,1203
3126.5045891016784,1190
3128.205242026213,1153
3129.90560651746,1203
3131.605682893025,1153
3133.3054714705922,1188
3135.0049725679282,1224
3136.7041865028714,1192
3138.4031135933465,1217
3140.101754157353,1184
3141.800108512971,1209
3143.498176978357,1188
3145.1959598717494,1185
3146.8934575114636,1191
3148.5906702158954,1137
3150.2875983035183,1160
3151.9842420928853,1209
3153.680601902627,1189
3155.376678051456,1146
3157.07247085816,1153
3158.767980641609,1149
3160.463207720748,1194
3162.158152414606,1182
3163.8528150422862,1144
3165.5471959229726,1191
3167.2412953759303,1175
3168.9351137204976,1184
3170.628651276098,1113
3172.3219083622307,1202
3174.014885298474,1223
3175.707582404485,1189
3177.4000000000005,1175
3179.092138404835,1104
3180.7839979388846,1209
3182.47557892212,1129
3184.166881674594,1160
3185.8579065164386,1159
3187.5486537678626,1185
3189.2391237491547,1191
3190.9293167806827,1173
3192.6192331828934,1122
3194.3088732763117,1227
3195.998237381542,1144
3197.687325819268,1175
3199.376138910251,1177
3201.064676975334,1130
3202.7529403354347,1157
3204.4409293115523,1148
3206.1286442247647,1093
3207.816085396229,1195
3209.5032531471825,1113
3211.190147798936,1149
3212.8767696728846,1151
3214.5631190905015,1119
3216.2491963733373,1174
3217.9350018430214,1121
3219.6205358212637,1174
3221.305798629851,1124
3222.990790590651,1147
3224.6755120256103,1169
3226.359963256751,1177
3228.0441446061795,1183
3229.7280563960758,1119
3231.411698948703,1160
3233.0950725863995,1085
3234.778177631587,1159
3236.461014406761,1129
3238.1435832345005,1196
3239.8258844374595,1177
3241.507918338374,1152
3243.1896852600576,1118
3244.8711855254023,1171
3246.552419457381,1186
3248.233387379042,1154
3249.914089613516,1188
3251.59452648401,1156
3253.274698313813,1166
3254.95460542629,1127
3256.6342481448855,1155
3258.313626793125,1105
3259.9927416946084,1157
3261.6715931730196,1137
3263.3501815521176,1139
3265.0285071557437,1181
3266.706570307815,1123
3268.3843713323286,1127
3270.0619105533615,1133
3271.739188295068,1139
3273.4162048816834,1113
3275.0929606375184,1189
3276.769455886966,1106
3278.445690954498,1158
3280.1216661646613,1171
3281.797381842087,1117
3283.4728383114807,1111
3285.1480358976296,1126
3286.8229749253996,1102
3288.4976557197333,1155
3290.172078605655,1136
3291.846243908266,1119
3293.5201519527463,1155
3295.193803064357,1124
3296.8671975684374,1178
3298.5403357904024,1157
3300.21321805575,1146
3301.8858446900567,1150
3303.558216018975,1155
3305.23033236824,1137
3306.9021940636603,1153
3308.57380143113,1115
3310.2451547966184,1227
3311.916254486174,1119
3313.5871008259246,1153
3315.2576941420766,1172
3316.9280347609147,1134
3318.5981230088046,1165
3320.2679592121895,1122
3321.9375436975924,1116
3323.606876791612,1117
3325.27595882093,1116
3326.944790112305,1189
3328.6133709925753,1096
3330.2817017886573,1159
3331.949782827547,1103
3333.617614436319,1153
3335.2851969421245,1172
3336.952530672199,1131
3338.619615953853,1119
3340.286453114475,1194
3341.9530424815357,1142
3343.619384382583,1133
3345.2854791452437,1114
3346.951327097224,1178
3348.6169285663073,1198
3350.2822838803577,1138
3351.947393367319,1207
3353.61225735521,1140
3355.2768761721345,1161
3356.9412501462693,1166
3358.605379605873,1169
3360.2692648792827,1202
3361.9329062949146,1114
3363.596304181263,1145
