CollectionTime,6/28/2024 3:05:29 PM
ExposureUsed,3
CalibratedSpectrum
-962.7078968117929,730
-959.9714848408522,768
-957.2358232597828,775
-954.5009119013725,738
-951.7667505983302,774
-949.0333391832855,786
-946.3006774887896,769
-943.5687653473143,797
-940.837602591253,794
-938.1071890529199,792
-935.3775245645503,786
-932.6486089583007,821
-929.9204420662485,800
-927.1930237203925,804
-924.4663537526524,803
-921.7404319948689,786
-919.0152582788041,850
-916.2908324361409,788
-913.5671542984834,775
-910.8442236973568,819
-908.1220404642074,733
-905.4006044304027,756
-902.679915427231,786
-899.959973285902,831
-897.2407778375464,790
-894.5223289132158,780
-891.8046263438832,770
-889.0876699604426,739
-886.3714595937089,738
-883.6559950744183,744
-880.9412762332282,707
-878.2273029007168,709
-875.5140749073835,751
-872.8015920836489,711
-870.0898542598545,699
-867.3788612662631,717
-864.6686129330585,727
-861.9591090903457,718
-859.2503495681506,692
-856.5423341964203,728
-853.8350628050229,743
-851.1285352237478,769
-848.4227512823054,742
-845.7177108103272,746
-843.0134136373656,724
-840.3098595928943,736
-837.6070485063082,762
-834.9049802069229,721
-832.2036545239757,751
-829.5030712866244,719
-826.8032303239481,718
-824.1041314649472,702
-821.4057745385428,761
-818.7081593735775,733
-816.0112857988148,739
-813.3151536429393,713
-810.6197627345566,710
-807.9251129021936,756
-805.2312039742981,753
-802.5380357792392,729
-799.8456081453069,716
-797.1539209007124,709
-794.462973873588,703
-791.772766891987,760
-789.083299783884,756
-786.3945723771743,736
-783.7065844996748,722
-781.0193359791231,701
-778.3328266431781,731
-775.6470563194197,758
-772.9620248353489,764
-770.2777320183878,762
-767.5941776958798,752
-764.9113616950891,773
-762.2292838432011,762
-759.5479439673222,740
-756.8673418944801,736
-754.1874774516235,741
-751.5083504656222,716
-748.8299607632671,719
-746.15230817127,777
-743.475392516264,730
-740.7992136248035,785
-738.1237713233636,765
-735.4490654383407,771
-732.7750957960521,761
-730.1018622227365,799
-727.4293645445534,753
-724.7576025875837,816
-722.0865761778291,796
-719.4162851412126,767
-716.7467293035781,806
-714.0779084906909,796
-711.409822528237,771
-708.7424712418238,779
-706.0758544569796,795
-703.4099719991541,788
-700.7448236937178,783
-698.0804093659622,801
-695.4167288411002,854
-692.7537819442656,828
-690.0915685005134,847
-687.4300883348199,843
-684.7693412720819,847
-682.1093271371178,811
-679.4500457546669,835
-676.7914969493897,844
-674.1336805458676,843
-671.4765963686034,869
-668.8202442420206,864
-666.1646239904642,847
-663.5097354382001,848
-660.8555784094151,849
-658.2021527282176,837
-655.5494582186366,896
-652.8974947046223,920
-650.2462620100463,954
-647.5957599587009,917
-644.9459883742998,899
-642.2969470804776,879
-639.6486359007902,946
-637.0010546587141,888
-634.3542031776476,888
-631.7080812809096,862
-629.0626887917401,861
-626.4180255333008,830
-623.7740913286734,859
-621.1308860008619,845
-618.4884093727904,825
-615.8466612673046,869
-613.2056415071715,822
-610.5653499150785,836
-607.9257863136347,886
-605.28695052537,884
-602.6488423727357,887
-600.0114616781036,850
-597.3748082637674,832
-594.7388819519412,853
-592.1036825647604,866
-589.4692099242818,852
-586.8354638524829,873
-584.2024441712624,857
-581.5701507024403,810
-578.9385832677575,892
-576.3077416888759,826
-573.6776257873787,846
-571.0482353847704,852
-568.4195703024757,891
-565.7916303618415,899
-563.164415384135,909
-560.5379251905453,873
-557.9121596021815,843
-555.2871184400748,814
-552.6628015251767,869
-550.0392086783606,896
-547.4163397204204,873
-544.794194472071,883
-542.1727727539491,845
-539.5520743866118,909
-536.9320991905377,924
-534.3128469861261,940
-531.6943175936979,977
-529.0765108334947,968
-526.4594265256793,1044
-523.8430644903358,1210
-521.2274245474689,1316
-518.612506517005,1431
-515.9983102187913,1494
-513.3848354725959,1583
-510.77208209810846,1632
-508.16004991493924,1723
-505.5487387426199,1817
-502.9381484006032,1988
-500.3282787082628,2088
-497.71912948489364,2025
-495.1107005497117,2060
-492.5029917218539,1858
-489.8960028203786,1615
-487.28973366426493,1475
-484.68418407241325,1253
-482.07935386364494,1228
-479.47524285670266,1156
-476.87185087025,1207
-474.2691777228715,1156
-471.66722323307334,1177
-469.0659872192821,1108
-466.4654694998459,1053
-463.86566989303384,1096
-461.26658821703614,1096
-458.66822428996414,1097
-456.07057792985,1074
-453.4736489546475,1049
-450.877437182231,1085
-448.28194243039627,1043
-445.68716451686,1028
-443.09310325926003,1055
-440.49975847515555,998
-437.9071299820263,1020
-435.31521759727354,1037
-432.72402113821954,1043
-430.13354042210767,1036
-427.5437752661022,1136
-424.95472548728867,1131
-422.36639090267386,1127
-419.7787713291855,1081
-417.1918665836721,1069
-414.60567648290385,1179
-412.0202008435715,1147
-409.4354394822874,1150
-406.8513922155845,1087
-404.26805885991723,1162
-401.685439231661,1221
-399.103533147112,1126
-396.522340422488,1160
-393.9418608739278,1102
-391.3620943174908,1063
-388.7830405691583,1046
-386.2046994448317,1022
-383.6270707603344,978
-381.05015433141045,877
-378.473949973725,819
-375.8984575028645,784
-373.32367673433623,742
-370.74960748356875,730
-368.1762495659117,626
-365.60360279663576,637
-363.03166699093265,589
-360.4604419639154,581
-357.8899275306178,540
-355.32012350599507,517
-352.7510297049233,497
-350.1826459421999,514
-347.61497203254316,513
-345.04800779059235,517
-342.4817530309082,512
-339.91620756797226,491
-337.35137121618743,487
-334.7872437898774,477
-332.22382510328725,502
-329.66111497058273,537
-327.09911320585127,536
-324.53781962310075,538
-321.9772340362607,557
-319.4173562591816,550
-316.8581861056348,560
-314.2997233893127,551
-311.7419679238294,555
-309.1849195227194,559
-306.62857799943856,521
-304.0729431673641,498
-301.51801483979375,501
-298.963792829947,513
-296.41027695096386,585
-293.85746701590574,632
-291.3053628377552,602
-288.7539642294155,556
-286.2032710037115,561
-283.65328297338897,557
-281.1039999511146,594
-278.5554217494762,602
-276.007548180983,558
-273.4603790580651,621
-270.9139141930734,608
-268.3681533982807,629
-265.8230964858798,647
-263.27874326798565,633
-260.7350935566336,640
-258.1921471637804,656
-255.6499039013039,587
-253.10836358100266,593
-250.56752601459698,597
-248.02739101372765,708
-245.48795838995704,739
-242.94922795476816,731
-240.41119951956557,715
-237.8738728956746,749
-235.33724789434166,741
-232.80132432673452,739
-230.2661020039418,776
-227.73158073697357,724
-225.19776033676033,696
-222.66464061415422,746
-220.1322213799284,708
-217.60050244477725,745
-215.06948361931552,711
-212.53916471408013,723
-210.00954553952818,755
-207.48062590603843,767
-204.9524056239104,850
-202.4248845033651,867
-199.8980623545441,774
-197.37193898751036,767
-194.84651421224817,749
-192.32178783866232,859
-189.79775967657952,812
-187.27442953574644,784
-184.7517972258321,778
-182.2298625564256,819
-179.7086253370378,771
-177.18808537710026,816
-174.66824248596583,862
-172.14909647290835,837
-169.6306471471229,830
-167.11289431772548,793
-164.59583779375328,816
-162.07947738416453,827
-159.5638128978386,801
-157.04884414357605,964
-154.53457093009854,981
-152.02099306604828,980
-149.50811035998936,925
-146.99592262040665,968
-144.48442965570587,978
-141.97363127421409,977
-139.46352728417958,1002
-136.95411749377126,953
-134.44540171107985,1105
-131.93737974411636,1103
-129.43005140081357,1243
-126.92341648902493,1257
-124.41747481652521,1247
-121.91222619101006,1229
-119.40767042009657,1196
-116.90380731132257,1316
-114.40063667214702,1389
-111.8981583099503,1312
-109.3963720320337,1453
-106.89527764561933,1600
-104.39487495785067,1518
-101.89516377579241,1455
-99.39614390642998,1578
-96.89781515667039,1710
-94.40017733334128,1896
-91.90323024319173,1962
-89.40697369289148,1766
-86.91140748903172,1764
-84.41653143812482,1791
-81.92234534660395,1874
-79.42884902082358,1865
-76.93604226705907,1869
-74.4439248915071,1830
-71.95249670028534,1952
-69.46175749943245,2137
-66.97170709490854,2283
-64.48234529259423,2739
-61.99367189829195,2298
-59.50568671772464,2220
-57.01838955653636,2548
-54.53178022029283,2769
-52.045858514480074,2722
-49.560624244506016,2860
-47.07607721569923,3084
-44.59221723330904,3254
-42.10904410250669,2862
-39.62655762838392,3702
-37.14475761595372,4825
-34.66364387015028,5430
-32.18321619582866,6088
-29.70347439776515,6818
-27.224418280657005,8527
-24.74604764912317,12356
-22.26836230770266,19482
-19.7913620608565,31778
-17.315046712966478,40310
-14.83941606833514,43647
-12.36446993118659,65029
-9.89020810566592,65029
-7.416630395839093,65029
-4.94373660569363,65029
-2.471526539137585,65029
-6.821210263296962E-13,65029
2.47084320796705,65029
4.941003281093458,65029
7.410480415786196,65029
9.879274808531363,65029
12.347386655893956,65029
14.814816154518212,65029
17.28156350112681,65029
19.74762889252179,65029
22.21301252558385,65029
24.67771459727237,47373
27.141735304626195,18694
29.605074844762612,13436
32.06773341487792,9352
34.52971121224755,6979
36.99100843422559,7428
39.45162527824516,7965
41.91156194181792,6108
44.370818622535126,6956
46.82939551806646,8521
49.287292826160524,8595
51.74451074464503,8602
54.201049471426245,7254
56.65690920448981,6000
59.112090141899785,4736
61.56659248179983,3440
64.02041642241159,2454
66.4735621620365,2764
68.92602989905402,2073
71.37781983192338,2078
73.82893215918205,2617
76.27936707944684,2493
78.72912479141326,2335
81.17820549385567,2418
83.62660938562783,2098
86.07433666566146,2121
88.5213875329681,2513
90.96776218663751,2297
93.41346082583925,2122
95.85848364982041,1865
98.30283085790859,1923
100.7465026495089,2085
103.18949922410604,1992
105.63182078126385,2061
108.07346752062438,1883
110.51443964190923,1728
112.95473734491827,1492
115.39436082953114,1532
117.83331029570547,1625
120.27158594347827,1858
122.7091879729652,1493
125.1461165843615,1582
127.58237197794062,1495
130.01795435405518,1302
132.4528639131364,1390
134.88710085569494,1523
137.32066538231982,1451
139.75355769367923,1484
142.1857779905207,1498
144.61732647366978,1587
147.04820334403132,1569
149.47840880258934,1527
151.90794305040674,1641
154.33680628862487,1742
156.76499871846443,1753
159.19252054122433,2066
161.61937195828352,1999
164.04555317109896,2065
166.47106438120693,2318
168.89590579022217,2679
171.320077599839,2664
173.7435800118302,2771
176.16641322804742,2890
178.58857745042144,3011
181.01007288096173,2974
183.43089972175687,3092
185.85105817497413,3057
188.27054844285988,3097
190.6893707277394,3047
193.10752523201643,3015
195.5250121581745,3028
197.9418317087751,3224
200.3579840864594,3153
202.7734694939469,3255
205.18828813403627,3161
207.6024402096051,3093
210.01592592360964,3200
212.42874547908548,3087
214.84089907914665,2960
217.2523869269868,3085
219.66320922587727,3112
222.0733661791695,3121
224.48285799029293,3077
226.8916848627572,3228
229.29984700014882,3193
231.7073446061355,3332
234.11417788446204,3211
236.520347038953,3334
238.92585227351185,3464
241.33069379212054,3626
243.73487179884035,3561
246.1383864978112,3544
248.541238093252,3541
250.9434267894609,3650
253.34495279081432,3806
255.74581630176783,3706
258.1460175268563,3894
260.54555667069314,3824
262.9444339379703,3707
265.3426495334594,3757
267.7402036620107,3646
270.1370965285529,3341
272.53332833809407,3294
274.9288992957214,3203
277.32380960660055,2984
279.718059475976,2944
282.1116491091717,2813
284.5045787115897,2945
286.89684848871195,2945
289.2884586460981,2802
291.67940938938807,2750
294.0697009242996,2835
296.4593334566299,2802
298.84830719225477,2789
301.23662233712923,2793
303.6242790972866,2681
306.01127767884,2716
308.39761828798066,2653
310.78330113097934,2567
313.16832641418534,2669
315.5526943440269,2532
317.9364051270112,2465
320.3194589697242,2449
322.70185607883093,2513
325.0835966610754,2477
327.4646809232805,2463
329.8451090723478,2416
332.2248813152577,2311
334.6039978590701,2279
336.9824589109231,2313
339.36026467803447,2241
341.7374153677,2369
344.113911187295,2282
346.48975234427337,2268
348.8649390461686,2224
351.2394715005918,2256
353.61334991523415,2283
355.9865744978655,2280
358.35914545633375,2243
360.73106299856715,2272
363.10232733257146,2228
365.47293866643247,2275
367.84289720831396,2338
370.2122031664593,2211
372.5808567491905,2184
374.9488581649083,2193
377.31620762209275,2190
379.6829053293021,2117
382.0489514951745,2093
384.4143463284262,2053
386.7790900378528,2147
389.14318283232853,2131
391.50662492080653,2139
393.86941651231916,2102
396.23155781597745,2108
398.5930490409713,2047
400.9538903965696,2066
403.3140820921202,1982
405.6736243370498,2043
408.03251734086336,2105
410.3907613131465,2026
412.74835646356166,2112
415.10530300185144,2077
417.4616011378372,2039
419.81725108141893,2082
422.1722530425758,2196
424.5266072313656,1990
426.880313857925,1948
429.2333731324701,1976
431.58578526529516,2047
433.9375504667738,1990
436.2886689473588,2029
438.63914091758113,1989
440.9889665880513,2018
443.33814616945835,2000
445.68667987257015,2030
448.03456790823395,1917
450.3818104873759,1941
452.72840782100013,2002
455.07436012019105,1951
457.41966759611057,2000
459.7643304600007,1932
462.10834892318155,1965
464.4517231970525,1946
466.79445349309174,1975
469.1365400228566,2075
471.4779829979826,2020
473.81878263018564,2017
476.15893913125876,2024
478.4984527130747,2141
480.8373235875855,2108
483.17555196682144,2131
485.5131380628919,2228
487.8500820879857,2271
490.1863842543697,2367
492.52204477439034,2497
494.8570638604725,2680
497.1914417251204,2968
499.52517858091653,3283
501.85827464052306,3454
504.19073011668036,3569
506.5225452222086,3497
508.85372017000566,3638
511.18425517304956,3590
513.514150444396,3707
515.8434061971808,4140
518.1720226446176,4674
520.4999999999999,4954
522.8273384766991,5208
525.1540382881666,5260
527.480099647932,4901
529.8055227696037,3871
532.1303078668694,2804
534.454455153496,2263
536.777964843328,2073
539.1008371502907,1910
541.4230722883866,2003
543.744670471698,2001
546.0656319143858,1868
548.3859568306899,1923
550.7056454349294,1807
553.0246979415016,1838
555.3431145648834,1904
557.6608955196306,1832
559.978041020377,1804
562.2945512818363,1786
564.6104265188006,1798
566.9256669461412,1750
569.2402727788082,1744
571.5542442318302,1810
573.8675815203156,1829
576.1802848594508,1808
578.4923544645015,1790
580.8037905508126,1787
583.114593333807,1787
585.4247630289875,1783
587.7342998519354,1789
590.0432040183106,1751
592.3514757438526,1725
594.6591152443794,1790
596.9661227357875,1752
599.2724984340531,1767
601.578242555231,1803
603.8833553154542,1895
606.1878369309362,1863
608.4916876179676,1821
610.7949075929192,1875
613.0974970722403,1862
615.3994562724587,1809
617.7007854101818,1818
620.0014847020951,1801
622.3015543649641,1758
624.6009946156324,1835
626.8998056710224,1845
629.1979877481361,1942
631.4955410640538,1806
633.7924658359349,1824
636.0887622810175,1884
638.3844306166192,1865
640.6794710601358,1839
642.9738838290426,1890
645.2676691408932,1904
647.5608272133207,1863
649.853358264037,1887
652.1452625108324,1942
654.4365401715764,1935
656.7271914642178,1970
659.0172166067838,1924
661.3066158173809,1928
663.5953893141935,1863
665.8835373154867,1913
668.1710600396028,1951
670.4579577049639,1901
672.7442305300709,1892
675.0298787335033,1884
677.3149025339197,1947
679.599302150058,1945
681.8830778007342,1991
684.1662297048437,1880
686.4487580813608,1882
688.7306631493387,1892
691.0119451279091,1921
693.2926042362834,1926
695.5726406937516,1928
697.8520547196814,2006
700.1308465335215,1904
702.4090163547982,1958
704.6865644031171,1966
706.9634908981619,1897
709.2397960596965,1953
711.5154801075631,1906
713.7905432616823,1847
716.0649857420548,1839
718.3388077687592,1885
720.612009561953,1914
722.8845913418733,1874
725.1565533288352,1892
727.427895743234,1819
729.6986188055427,1888
731.9687227363137,1866
734.238207756178,1856
736.5070740858458,1852
738.7753219461066,1799
741.0429515578281,1870
743.3099631419569,1838
745.5763569195191,1871
747.8421331116193,1899
750.1072919394409,1849
752.3718336242467,1858
754.6357583873777,1829
756.8990664502545,1835
759.1617580343765,1864
761.423833361321,1819
763.6852926527457,1895
765.9461361303862,1888
768.206364016058,1809
770.4659765316536,1890
772.7249738991469,1873
774.9833563405886,1934
777.2411240781092,1855
779.4982773339183,1938
781.7548163303044,1879
784.010741289634,1916
786.2660524343538,1925
788.5207499869881,1835
790.7748341701416,1893
793.0283052064964,1910
795.2811633188143,1886
797.5334087299362,1928
799.7850416627813,1869
802.0360623403484,1892
804.2864709857143,1869
806.5362678220353,1832
808.7854530725468,1896
811.0340269605625,1912
813.2819897094754,1965
815.5293415427581,1863
817.77608268396,1909
820.0222133567116,1884
822.2677337847211,1834
824.5126441917765,1902
826.7569448017433,1844
829.0006358385675,1905
831.2437175262731,1870
833.4861900889629,1911
835.7280537508192,1898
837.9693087361026,1857
840.2099552691533,1933
842.4499935743896,1898
844.689423876309,1902
846.9282463994886,1925
849.1664613685833,1893
851.4040690083276,1944
853.6410695435349,1868
855.877463199097,1867
858.1132501999847,1830
860.3484307712487,1931
862.5830051380175,1875
864.8169735254988,1917
867.0503361589791,1948
869.2830932638243,1941
871.5152450654786,1865
873.7467917894654,1935
875.9777336613873,1929
878.2080709069252,1952
880.4378037518389,1918
882.666932421968,1953
884.8954571432301,1959
887.1233781416219,1928
889.3506956432192,1958
891.5774098741766,1954
893.803521060728,1937
896.0290294291852,1922
898.2539352059397,1943
900.4782386174619,2020
902.7019398903011,1926
904.925039251085,1912
907.147536926521,1947
909.3694331433943,1989
911.59072812857,1952
913.8114221089921,1864
916.0315153116827,1981
918.2510079637437,1912
920.4699002923547,2023
922.6881925247761,1904
924.905884888345,1958
927.1229776104793,1960
929.3394709186747,1990
931.555365040506,1974
933.7706602036275,1981
935.9853566357709,2054
938.1994545647489,1944
940.4129542184515,1974
942.6258558248488,2015
944.8381596119883,1950
947.0498658079974,1982
949.2609746410825,1914
951.4714863395287,1937
953.6814011316998,1913
955.8907192460387,1928
958.0994409110671,1873
960.3075663553858,1939
962.5150958076741,1936
964.7220294966913,1886
966.928367651274,1902
969.1341105003388,1948
971.3392582728806,1895
973.5438111979742,1869
975.747769504772,1867
977.9511334225061,1887
980.153903180487,1873
982.3560790081052,1885
984.5576611348289,1796
986.7586497902058,1837
988.9590452038618,1794
991.158847605503,1729
993.3580572249133,1721
995.5566742919558,1705
997.7546990365728,1652
999.952131688785,1699
1002.1489724786926,1685
1004.3452216364743,1745
1006.5408793923874,1630
1008.7359459767691,1584
1010.9304216200343,1554
1013.1243065526781,1660
1015.3176010052733,1627
1017.510305208472,1574
1019.7024193930064,1535
1021.8939437896848,1602
1024.0848786293977,1521
1026.2752241431122,1487
1028.4649805618747,1524
1030.6541481168115,1498
1032.842727039127,1551
1035.0307175601051,1562
1037.2181199111074,1486
1039.4049343235752,1516
1041.591161029029,1568
1043.7768002590683,1517
1045.9618522453698,1549
1048.1463172196918,1565
1050.3301954138697,1570
1052.513487059818,1559
1054.69619238953,1490
1056.8783116350783,1609
1059.0598450286152,1563
1061.2407928023704,1555
1063.4211551886528,1524
1065.6009324198508,1495
1067.780124728432,1503
1069.9587323469414,1451
1072.1367555080046,1536
1074.314194444325,1536
1076.4910493886855,1425
1078.667320573947,1557
1080.843008233051,1489
1083.0181125990161,1492
1085.1926339049414,1427
1087.3665723840027,1452
1089.5399282694575,1471
1091.7127017946405,1460
1093.8848931929647,1533
1096.0565026979243,1452
1098.2275305430899,1542
1100.3979769621128,1446
1102.567842188722,1464
1104.737126456726,1391
1106.9058300000124,1414
1109.0739530525475,1452
1111.2414958483764,1491
1113.4084586216231,1426
1115.5748416064907,1413
1117.7406450372605,1442
1119.9058691482942,1395
1122.0705141740304,1440
1124.2345803489884,1389
1126.3980679077658,1447
1128.5609770850388,1394
1130.7233081155623,1387
1132.8850612341707,1419
1135.0462366757774,1388
1137.2068346753745,1398
1139.3668554680326,1376
1141.526299288901,1362
1143.68516637321,1434
1145.8434569562655,1433
1148.001171273455,1377
1150.158309560244,1366
1152.3148720521767,1345
1154.470858984876,1353
1156.626270594044,1386
1158.7811071154629,1341
1160.9353687849912,1385
1163.089055838569,1401
1165.242168512213,1416
1167.3947070420209,1404
1169.5466716641677,1351
1171.6980626149075,1358
1173.8488801305748,1347
1175.9991244475814,1334
1178.1487958024186,1415
1180.2978944316555,1380
1182.4464205719428,1421
1184.5943744600072,1396
1186.7417563326567,1386
1188.8885664267755,1378
1191.0348049793297,1381
1193.1804722273619,1353
1195.325568407995,1349
1197.4700937584303,1399
1199.614048515948,1339
1201.7574329179074,1400
1203.900247201746,1351
1206.042491604982,1387
1208.1841663652099,1381
1210.3252717201053,1410
1212.465807907422,1372
1214.6057751649923,1416
1216.7451737307279,1411
1218.8840038426192,1404
1221.0222657387353,1413
1223.1599596572241,1333
1225.2970858363137,1385
1227.4336445143094,1389
1229.5696359295966,1363
1231.705060320639,1388
1233.8399179259786,1372
1235.9742089842384,1404
1238.107933734118,1364
1240.2410924143974,1401
1242.373685263935,1461
1244.5057125216676,1451
1246.6371744266116,1374
1248.7680712178621,1398
1250.898403134593,1387
1253.028170416058,1383
1255.1573733015875,1464
1257.2860120305932,1409
1259.4140868425648,1409
1261.54159797707,1403
1263.6685456737569,1397
1265.7949301723515,1427
1267.9207517126597,1466
1270.046010534565,1381
1272.1707068780306,1457
1274.2948409830983,1450
1276.4184130898889,1437
1278.541423438603,1460
1280.6638722695184,1443
1282.785759822993,1549
1284.9070863394636,1425
1287.0278520594447,1458
1289.1480572235314,1479
1291.2677020723963,1517
1293.3867868467923,1582
1295.5053117875495,1507
1297.623277135579,1479
1299.740683131868,1536
1301.8575300174857,1547
1303.973818033578,1513
1306.0895474213703,1535
1308.2047184221678,1561
1310.3193312773528,1559
1312.4333862283888,1513
1314.5468835168163,1569
1316.659823384255,1536
1318.7722060724045,1562
1320.8840318230418,1572
1322.9953008780249,1558
1325.1060134792888,1549
1327.2161698688478,1583
1329.3257702887959,1542
1331.4348149813054,1571
1333.5433041886276,1559
1335.6512381530933,1555
1337.7586171171101,1602
1339.8654413231675,1568
1341.9717110138317,1534
1344.0774264317488,1542
1346.1825878196432,1535
1348.2871954203192,1544
1350.3912494766587,1570
1352.4947502316231,1543
1354.5976979282532,1475
1356.7000928096686,1551
1358.8019351190665,1513
1360.9032250997243,1519
1363.0039629949988,1534
1365.1041490483235,1540
1367.2037835032133,1568
1369.3028666032606,1562
1371.401398592137,1576
1373.4993797135926,1525
1375.5968102114575,1578
1377.6936903296396,1600
1379.7900203121262,1624
1381.8858004029835,1521
1383.9810308463561,1566
1386.075711886469,1531
1388.1698437676241,1564
1390.2634267342032,1568
1392.356461030667,1559
1394.4489469015557,1578
1396.5408845914872,1597
1398.6322743451592,1614
1400.7231164073469,1577
1402.813411022907,1644
1404.903158436773,1606
1406.9923588939578,1631
1409.0810126395531,1662
1411.1691199187303,1610
1413.2566809767386,1634
1415.343696058907,1684
1417.4301654106425,1678
1419.5160892774315,1677
1421.6014679048399,1724
1423.6863015385125,1714
1425.7705904241707,1646
1427.8543348076178,1755
1429.9375349347342,1749
1432.0201910514802,1768
1434.102303403894,1779
1436.1838722380944,1786
1438.2648978002767,1744
1440.3453803367174,1867
1442.4253200937692,1871
1444.5047173178677,1880
1446.5835722555234,1925
1448.6618851533285,1938
1450.739656257952,1983
1452.8168858161434,2083
1454.8935740747306,2053
1456.96972128062,2081
1459.045327680797,2133
1461.120393522327,2128
1463.1949190523528,2144
1465.2689045180973,2258
1467.3423501668608,2213
1469.415256246024,2237
1471.4876230030463,2262
1473.559450685465,2376
1475.6307395408976,2405
1477.7014898170391,2362
1479.771701761665,2469
1481.8413756226287,2478
1483.9105116478618,2539
1485.9791100853772,2528
1488.0471711832643,2630
1490.1146951896926,2623
1492.1816823529098,2656
1494.2481329212433,2770
1496.3140471430984,2817
1498.3794252669609,2838
1500.4442675413939,2853
1502.5085742150404,2880
1504.572345536622,2879
1506.6355817549388,2919
1508.6982831188702,2935
1510.7604498773744,2973
1512.8220822794883,3021
1514.8831805743293,3045
1516.9437450110909,3068
1519.003775839048,3130
1521.0632733075522,3128
1523.1222376660367,3230
1525.1806691640113,3237
1527.2385680510652,3202
1529.2959345768668,3300
1531.3527689911643,3326
1533.4090715437833,3267
1535.4648424846291,3348
1537.5200820636855,3467
1539.5747905310159,3497
1541.6289681367616,3571
1543.6826151311434,3620
1545.7357317644614,3679
1547.7883182870937,3725
1549.8403749494987,3666
1551.8919020022113,3837
1553.9428996958477,3967
1555.9933682811015,3922
1558.0433080087469,4032
1560.0927191296346,4079
1562.1416018946961,4226
1564.1899565549415,4223
1566.2377833614592,4245
1568.2850825654164,4281
1570.3318544180606,4148
1572.3780991707158,3958
1574.423817074788,3811
1576.4690083817595,3778
1578.5136733431923,3563
1580.5578122107272,3291
1582.601425236085,3178
1584.6445126710646,2970
1586.6870747675434,2794
1588.7291117774776,2715
1590.7706239529034,2618
1592.8116115459347,2433
1594.8520748087658,2445
1596.8920139936686,2281
1598.9314293529933,2262
1600.9703211391711,2176
1603.008689604711,2054
1605.0465350022005,2000
1607.0838575843068,1929
1609.1206576037753,1937
1611.1569353134305,1881
1613.1926909661765,1827
1615.2279248149953,1767
1617.2626371129481,1758
1619.2968281131757,1793
1621.3304980688963,1731
1623.3636472334088,1727
1625.39627586009,1665
1627.428384202396,1647
1629.459972513861,1629
1631.4910410480993,1582
1633.5215900588028,1570
1635.551619799744,1613
1637.5811305247717,1586
1639.6101224878166,1547
1641.6385959428862,1529
1643.6665511440683,1539
1645.693988345528,1477
1647.7209078015112,1556
1649.7473097663405,1499
1651.7731944944203,1558
1653.7985622402307,1490
1655.823413258333,1486
1657.847747803366,1524
1659.8715661300494,1509
1661.8948684931793,1455
1663.9176551476316,1514
1665.9399263483624,1492
1667.9616823504057,1506
1669.982923408873,1474
1672.0036497789574,1493
1674.0238617159293,1452
1676.043559475138,1474
1678.0627433120121,1433
1680.081413482059,1405
1682.0995702408654,1490
1684.117213844096,1425
1686.134344547495,1443
1688.1509626068864,1452
1690.1670682781705,1389
1692.182661817329,1433
1694.1977434804217,1464
1696.2123135235875,1436
1698.226372203043,1445
1700.2399197750851,1431
1702.2529564960905,1422
1704.2654826225112,1401
1706.277498410882,1481
1708.2890041178139,1456
1710.2999999999988,1440
1712.3104863142066,1412
1714.3204633172854,1410
1716.329931266163,1440
1718.3388904178469,1379
1720.3473410294214,1376
1722.3552833580516,1343
1724.3627176609807,1354
1726.3696441955308,1394
1728.3760632191033,1400
1730.3819749891782,1413
1732.3873797633146,1398
1734.3922777991502,1403
1736.3966693544012,1419
1738.4005546868639,1378
1740.4039340544127,1353
1742.406807715001,1351
1744.4091759266616,1372
1746.4110389475054,1360
1748.4123970357223,1345
1750.413250449582,1308
1752.4135994474318,1345
1754.4134442876993,1289
1756.4127852288902,1325
1758.4116225295893,1316
1760.4099564484595,1277
1762.407787244244,1284
1764.405115175764,1297
1766.4019405019203,1292
1768.3982634816916,1324
1770.3940843741357,1262
1772.3894034383907,1248
1774.3842209336717,1225
1776.378537119274,1279
1778.372352254571,1267
1780.3656665990156,1290
1782.3584804121397,1324
1784.3507939535534,1259
1786.3426074829463,1260
1788.3339212600863,1304
1790.3247355448211,1304
1792.3150505970766,1241
1794.3048666768573,1236
1796.2941840442477,1270
1798.2830029594106,1216
1800.2713236825884,1271
1802.2591464741004,1219
1804.2464715943465,1286
1806.2332993038058,1261
1808.2196298630352,1254
1810.2054635326708,1289
1812.190800573428,1231
1814.175641246101,1211
1816.1599858115628,1274
1818.1438345307652,1265
1820.127187664738,1212
1822.1100454745924,1243
1824.092408221516,1200
1826.0742761667766,1237
1828.055649571721,1201
1830.0365286977735,1261
1832.0169138064398,1219
1833.9968051593014,1197
1835.9762030180214,1242
1837.9551076443408,1193
1839.9335193000788,1254
1841.9114382471344,1201
1843.888864747485,1236
1845.8657990631878,1225
1847.842241456378,1257
1849.8181921892697,1234
1851.7936515241558,1228
1853.7686197234098,1229
1855.7430970494815,1186
1857.7170837649014,1255
1859.6905801322787,1237
1861.6635864143004,1252
1863.6361028737338,1290
1865.608129773424,1200
1867.5796673762961,1234
1869.5507159453537,1307
1871.521275743678,1293
1873.4913470344313,1295
1875.4609300808534,1285
1877.4300251462632,1247
1879.3986324940588,1230
1881.366752387717,1259
1883.3343850907936,1230
1885.3015308669228,1271
1887.268189979819,1277
1889.2343626932739,1213
1891.2000492711595,1249
1893.1652499774254,1306
1895.1299650761011,1276
1897.0941948312952,1293
1899.0579395071945,1292
1901.0211993680641,1328
1902.98397467825,1286
1904.9462657021745,1310
1906.9080727043415,1293
1908.869395949332,1230
1910.8302357018065,1213
1912.790592226504,1276
1914.7504657882428,1339
1916.7098566519212,1221
1918.6687650825133,1278
1920.6271913450764,1270
1922.5851357047422,1277
1924.5425984267245,1227
1926.499579776314,1325
1928.4560800188833,1289
1930.4120994198802,1273
1932.367638244833,1266
1934.32269675935,1249
1936.2772752291175,1260
1938.231373919899,1319
1940.1849930975404,1270
1942.1381330279637,1226
1944.0907939771696,1262
1946.0429762112412,1255
1947.9946799963363,1171
1949.9459055986945,1243
1951.896653284633,1270
1953.8469233205478,1271
1955.7967159729142,1241
1957.7460315082863,1299
1959.6948701932974,1242
1961.6432322946594,1295
1963.5911180791632,1209
1965.5385278136787,1250
1967.4854617651545,1226
1969.4319202006182,1233
1971.377903387176,1280
1973.3234115920136,1287
1975.268445082395,1228
1977.2130041256642,1242
1979.1570889892423,1302
1981.1006999406304,1284
1983.04383724741,1287
1984.986501177238,1207
1986.928691997853,1222
1988.8704099770712,1222
1990.811655382789,1209
1992.7524284829801,1229
1994.692729545698,1211
1996.6325588390755,1186
1998.5719166313224,1225
2000.5108031907307,1199
2002.4492187856677,1224
2004.387163684583,1174
2006.3246381560011,1202
2008.2616424685298,1186
2010.1981768908527,1202
2012.1342416917332,1159
2014.069837140014,1213
2016.0049635046162,1238
2017.9396210545406,1232
2019.8738100588666,1241
2021.8075307867502,1200
2023.740783507431,1186
2025.6735684902228,1213
2027.6058860045214,1200
2029.5377363198004,1206
2031.4691197056118,1233
2033.4000364315875,1256
2035.3304867674374,1243
2037.260470982952,1212
2039.189989347998,1198
2041.1190421325232,1151
2043.047629606554,1167
2044.9757520401945,1177
2046.9034097036288,1187
2048.8306028671195,1207
2050.7573318010086,1204
2052.683596775716,1249
2054.609398061742,1203
2056.5347359296647,1250
2058.4596106501403,1238
2060.384022493906,1193
2062.3079717317764,1189
2064.231458634646,1232
2066.1544834734873,1181
2068.077046519352,1181
2069.99914804337,1222
2071.9207883167524,1168
2073.8419676107865,1221
2075.7626861968406,1285
2077.6829443463607,1202
2079.6027423308715,1208
2081.522080421977,1195
2083.440958891362,1207
2085.359378010786,1209
2087.2773380520907,1216
2089.194839287196,1210
2091.111881988101,1175
2093.0284664268825,1220
2094.9445928756973,1201
2096.86026160678,1177
2098.775472892446,1162
2100.690227005088,1148
2102.604524217178,1151
2104.5183648012676,1218
2106.431749029985,1249
2108.34467717604,1190
2110.2571495122206,1215
2112.169166311393,1215
2114.080727846503,1150
2115.9918343905747,1198
2117.902486216711,1200
2119.8126835980956,1240
2121.722426807987,1223
2123.6317161197285,1199
2125.5405518067364,1205
2127.448934142509,1186
2129.356863400624,1194
2131.264339854737,1203
2133.1713637785815,1225
2135.077935445972,1165
2136.9840551308002,1223
2138.889723107037,1238
2140.7949396487334,1182
2142.699705030018,1193
2144.6040195250994,1181
2146.507883408264,1212
2148.4112969538774,1227
2150.3142604363848,1201
2152.2167741303097,1156
2154.1188383102535,1219
2156.0204532508997,1178
2157.9216192270064,1224
2159.822336513414,1203
2161.7226053850413,1204
2163.622426116884,1142
2165.5217989840185,1192
2167.4207242616,1197
2169.319202224862,1225
2171.2172331491165,1235
2173.1148173097563,1178
2175.0119549822507,1209
2176.90864644215,1152
2178.8048919650823,1242
2180.7006918267534,1161
2182.596046302952,1204
2184.4909556695407,1232
2186.3854202024645,1213
2188.279440177746,1204
2190.173015871487,1199
2192.066147559868,1210
2193.958835519149,1214
2195.851080025667,1190
2197.7428813558417,1202
2199.6342397861667,1226
2201.5251555932186,1186
2203.415629053651,1176
2205.3056604441986,1195
2207.19525004167,1217
2209.084398122958,1230
2210.9731049650327,1187
2212.861370844941,1205
2214.749196039812,1206
2216.636580826851,1241
2218.523525483344,1218
2220.410030286655,1203
2222.296095514226,1169
2224.1817214435805,1167
2226.066908352319,1206
2227.951656518121,1277
2229.835966218746,1136
2231.71983773203,1226
2233.6032713358913,1182
2235.486267308324,1218
2237.3688259274036,1185
2239.2509474712824,1222
2241.132632218193,1185
2243.013880446447,1177
2244.8946924344323,1171
2246.7750684606203,1221
2248.6550088035574,1209
2250.534513741871,1240
2252.413583554265,1198
2254.292218519526,1194
2256.170418916517,1224
2258.0481850241786,1181
2259.925517121534,1201
2261.8024154876825,1217
2263.678880401803,1251
2265.5549121431536,1221
2267.430510991071,1198
2269.305677224971,1196
2271.180411124348,1234
2273.0547129687766,1253
2274.9285830379076,1190
2276.8020216114737,1168
2278.6750289692845,1165
2280.5476053912294,1137
2282.4197511572766,1208
2284.2914665474727,1149
2286.162751841943,1228
2288.0336073208937,1207
2289.904033264608,1208
2291.774029953448,1237
2293.6435976678554,1219
2295.5127366883517,1257
2297.381447295534,1224
2299.2497297700825,1236
2301.1175843927526,1214
2302.9850114443825,1121
2304.852011205885,1164
2306.7185839582553,1177
2308.5847299825664,1223
2310.4504495599676,1215
2312.3157429716925,1274
2314.1806104990483,1206
2316.0450524234247,1220
2317.9090690262888,1204
2319.772660589186,1233
2321.635827393742,1279
2323.498569721661,1176
2325.3608878547248,1212
2327.2227820747967,1225
2329.0842526638157,1209
2330.945299903803,1254
2332.805924076857,1285
2334.6661254651535,1268
2336.525904350951,1247
2338.3852610165827,1255
2340.244195744464,1246
2342.102708817088,1222
2343.9608005170253,1248
2345.8184711269287,1239
2347.675720929526,1263
2349.532550207628,1285
2351.38895924412,1230
2353.24494832197,1239
2355.100517724223,1271
2356.955667734004,1245
2358.810398634514,1280
2360.664710709037,1264
2362.5186042409337,1207
2364.3720795136437,1227
2366.225136810686,1272
2368.0777764156583,1247
2369.929998612237,1281
2371.7818036841777,1307
2373.633191915315,1225
2375.484163589562,1224
2377.3347189909114,1264
2379.184858403434,1309
2381.03458211128,1255
2382.8838903986775,1267
2384.732783549936,1272
2386.5812618494406,1257
2388.4293255816588,1296
2390.2769750311327,1296
2392.1242104824883,1277
2393.971032220427,1269
2395.8174405297295,1281
2397.6634356952563,1261
2399.509018001947,1322
2401.3541877348193,1229
2403.1989451789705,1230
2405.043290619576,1318
2406.8872243418905,1292
2408.730746631247,1304
2410.5738577730594,1257
2412.4165580528183,1284
2414.258847756095,1269
2416.100727168537,1243
2417.9421965758734,1268
2419.783256263912,1323
2421.623906518538,1268
2423.4641476257157,1274
2425.303979871491,1307
2427.143403541984,1284
2428.9824189233977,1340
2430.821026302012,1299
2432.6592259641866,1310
2434.497018196361,1297
2436.33440328505,1326
2438.171381516851,1261
2440.00795317844,1345
2441.844118556569,1286
2443.6798779380724,1275
2445.5152316098606,1305
2447.3501798589255,1297
2449.1847229723357,1337
2451.0188612372403,1295
2452.8525949408663,1251
2454.6859243705203,1287
2456.518849813587,1318
2458.3513715575314,1270
2460.183489889895,1305
2462.015205098301,1269
2463.8465174704493,1358
2465.67742729412,1336
2467.5079348571717,1301
2469.338040447542,1310
2471.1677443532476,1309
2472.9970468623833,1243
2474.825948263123,1295
2476.6544488437207,1298
2478.482548892508,1289
2480.310248697896,1334
2482.137548548374,1329
2483.9644487325118,1361
2485.790949538956,1322
2487.617051256433,1344
2489.44275417375,1264
2491.26805857979,1356
2493.0929647635157,1321
2494.917473013971,1321
2496.741583620276,1263
2498.5652968716304,1337
2500.3886130573137,1310
2502.2115324666834,1323
2504.0340553891765,1351
2505.856182114308,1367
2507.6779129316733,1329
2509.499248130945,1412
2511.3201880018764,1318
2513.140732834298,1414
2514.9608829181198,1362
2516.780638543331,1349
2518.6,1383
2520.418967578273,1315
2522.237541568376,1345
2524.0557222606144,1373
2525.8735099453706,1377
2527.6909049131086,1369
2529.507907454368,1396
2531.32451785977,1345
2533.140736420014,1422
2534.9565634258774,1395
2536.771999168218,1420
2538.5870439379714,1460
2540.4016980261526,1405
2542.2159617238544,1494
2544.02983532225,1482
2545.8433191125914,1464
2547.656413386209,1480
2549.4691184345115,1535
2551.2814345489874,1488
2553.093362021204,1507
2554.904901142808,1485
2556.716052205523,1548
2558.526815501153,1455
2560.3371913215824,1514
2562.147179958771,1572
2563.956781704761,1557
2565.7659968516705,1541
2567.5748256916986,1522
2569.3832685171224,1526
2571.1913256202984,1558
2572.9989972936614,1491
2574.806283829725,1592
2576.613185521084,1546
2578.4197026604074,1590
2580.2258355404483,1598
2582.031584454035,1638
2583.836949694077,1556
2585.6419315535613,1609
2587.4465303255533,1629
2589.2507463032002,1568
2591.0545797797245,1645
2592.8580310484303,1683
2594.6611004026995,1626
2596.463788135992,1608
2598.266094541849,1638
2600.0680199138874,1643
2601.869564545807,1682
2603.670728731383,1646
2605.4715127644704,1670
2607.2719169390048,1675
2609.071941548998,1656
2610.8715868885433,1684
2612.670853251811,1726
2614.469740933052,1675
2616.268250226594,1654
2618.0663814268455,1711
2619.864134828292,1710
2621.6615107255006,1675
2623.458509413115,1693
2625.2551311858597,1582
2627.0513763385347,1661
2628.8472451660223,1645
2630.6427379632833,1617
2632.4378550253564,1668
2634.232596647359,1652
2636.026963124488,1596
2637.8209547520187,1609
2639.6145718253065,1558
2641.407814639785,1597
2643.200683490966,1547
2644.9931786744414,1593
2646.7853004858807,1562
2648.577049221034,1528
2650.3684251757277,1517
2652.1594286458712,1496
2653.9500599274484,1551
2655.740319316525,1441
2657.5302071092437,1423
2659.3197236018286,1492
2661.10886909058,1409
2662.8976438718782,1426
2664.686048242183,1414
2666.4740824980327,1430
2668.2617469360443,1483
2670.0490418529134,1422
2671.8359675454153,1395
2673.622524310403,1374
2675.408712444811,1418
2677.1945322456495,1386
2678.979984010009,1307
2680.76506803506,1361
2682.5497846180497,1360
2684.334134056306,1360
2686.1181166472343,1345
2687.9017326883213,1326
2689.6849824771293,1348
2691.4678663113013,1321
2693.2503844885596,1269
2695.032537306705,1294
2696.8143250636167,1282
2698.5957480572542,1348
2700.3768065856534,1296
2702.1575009469316,1254
2703.937831439283,1235
2705.717798360982,1281
2707.4974020103837,1306
2709.276642685917,1321
2711.055520686095,1267
2712.834036309506,1318
2714.612189854819,1278
2716.389981620782,1287
2718.1674119062204,1274
2719.944481010041,1207
2721.721189231226,1313
2723.4975368688415,1321
2725.273524222027,1275
2727.0491515900053,1245
2728.824419272075,1247
2730.5993275676146,1256
2732.3738767760838,1217
2734.148067197016,1160
2735.921899130031,1208
2737.6953728748194,1279
2739.468488731156,1304
2741.2412469988926,1250
2743.0136479779617,1223
2744.785691968372,1201
2746.5573792702116,1188
2748.3287101836504,1229
2750.099685008934,1208
2751.870304046388,1253
2753.640567596418,1224
2755.4104759595057,1265
2757.1800294362156,1166
2758.949228327187,1228
2760.7180729331412,1207
2762.486563554877,1227
2764.254700493272,1182
2766.022484049284,1254
2767.789914523947,1199
2769.5569922183786,1215
2771.3237174337705,1184
2773.090090471394,1194
2774.8561116326036,1219
2776.6217812188274,1188
2778.3870995315756,1261
2780.1520668724356,1237
2781.9166835430747,1220
2783.6809498452394,1143
2785.444866080754,1220
2787.2084325515225,1149
2788.971649559527,1177
2790.73451740683,1177
2792.4970363955713,1209
2794.2592068279705,1215
2796.0210290063264,1206
2797.7825032330147,1242
2799.543629810493,1218
2801.304409041296,1219
2803.0648412280366,1179
2804.8249266734088,1209
2806.5846656801846,1169
2808.344058551212,1221
2810.1031055894246,1182
2811.8618070978273,1248
2813.6201633795085,1270
2815.378174737636,1184
2817.1358414754536,1155
2818.893163896285,1200
2820.6501423035334,1205
2822.4067770006814,1205
2824.1630682912883,1238
2825.9190164789957,1196
2827.6746218675207,1195
2829.429884760661,1218
2831.184805462294,1197
2832.9393842763743,1225
2834.693621506936,1229
2836.4475174580916,1166
2838.201072434034,1174
2839.954286739034,1200
2841.707160677441,1220
2843.459694553685,1194
2845.2118886722724,1227
2846.96374333779,1182
2848.7152588549034,1181
2850.4664355283567,1153
2852.217273662973,1218
2853.9677735636546,1229
2855.7179355353833,1202
2857.4677598832186,1189
2859.217246912299,1224
2860.9663969278427,1193
2862.715210235146,1230
2864.4636871395846,1195
2866.211827946614,1254
2867.9596329617652,1237
2869.7071024906536,1169
2871.4542368389684,1165
2873.20103631248,1207
2874.947501217038,1201
2876.6936318585695,1204
2878.4394285430812,1190
2880.1848915766604,1180
2881.9300212654707,1168
2883.6748179157553,1219
2885.4192818338374,1174
2887.1634133261173,1138
2888.907212699077,1192
2890.6506802592744,1241
2892.393816313348,1200
2894.1366211680142,1251
2895.8790951300693,1207
2897.621238506388,1210
2899.363051603925,1204
2901.1045347297118,1224
2902.8456881908596,1195
2904.58651229456,1212
2906.327007348081,1165
2908.067173658772,1225
2909.8070115340597,1211
2911.5465212814497,1236
2913.285703208527,1231
2915.0245576229563,1200
2916.7630848324807,1172
2918.5012851449196,1166
2920.2391588681758,1186
2921.976706310227,1184
2923.7139277791334,1165
2925.4508235830313,1163
2927.187394030137,1225
2928.923639428745,1193
2930.6595600872306,1200
2932.395156314046,1216
2934.1304284177218,1211
2935.8653767068713,1151
2937.6000014901815,1197
2939.3343030764227,1253
2941.068281774442,1222
2942.8019378931644,1173
2944.5352717415976,1176
2946.2682836288236,1156
2948.0009738640065,1203
2949.7333427563885,1166
2951.465390615289,1182
2953.1971177501086,1211
2954.9285244703265,1212
2956.6596110855,1169
2958.3903779052657,1200
2960.1208252393385,1221
2961.8509533975125,1247
2963.5807626896617,1214
2965.3102534257378,1177
2967.0394259157715,1195
2968.768280469873,1151
2970.496817398232,1192
2972.2250370111146,1186
2973.952939618869,1180
2975.6805255319196,1230
2977.4077950607707,1201
2979.134748516006,1202
2980.861386208289,1232
2982.587708448359,1147
2984.313715547037,1189
2986.039407815222,1257
2987.764785563891,1213
2989.489849104102,1189
2991.2145987469908,1164
2992.9390348037705,1172
2994.6631575857346,1178
2996.3869674042576,1202
2998.1104645707887,1203
2999.83364939686,1159
3001.5565221940783,1162
3003.2790832741334,1115
3005.0013329487924,1194
3006.7232715298996,1177
3008.4448993293804,1200
3010.166216659239,1184
3011.887223831558,1172
3013.607921158498,1195
3015.3283089522993,1145
3017.0483875252826,1126
3018.7681571898443,1184
3020.4876182584626,1242
3022.2067710436927,1140
3023.9256158581707,1189
3025.644153014609,1205
3027.362382825801,1178
3029.0803056046193,1157
3030.797921664012,1180
3032.5152313170106,1172
3034.2322348767225,1220
3035.9489326563353,1168
3037.665324969115,1189
3039.3814121284063,1205
3041.097194447633,1174
3042.812672240299,1211
3044.5278458199855,1158
3046.2427155003525,1215
3047.9572815951406,1225
3049.671544418167,1158
3051.38550428333,1174
3053.0991615046073,1158
3054.812516396051,1224
3056.5255692717974,1243
3058.2383204460575,1174
3059.9507702331257,1174
3061.662918947372,1184
3063.3747669032446,1177
3065.0863144152736,1173
3066.7975617980674,1219
3068.508509366309,1167
3070.219157434767,1214
3071.9295063182844,1223
3073.639556331785,1223
3075.3493077902704,1210
3077.058761008821,1190
3078.7679163025964,1214
3080.476773986837,1184
3082.1853343768594,1205
3083.89359778806,1164
3085.6015645359153,1197
3087.3092349359786,1193
3089.016609303884,1182
3090.7236879553434,1202
3092.4304712061476,1161
3094.136959372166,1219
3095.843152769349,1226
3097.5490517137237,1166
3099.2546565213966,1227
3100.959967508554,1192
3102.66498499146,1215
3104.3697092864577,1201
3106.0741407099695,1210
3107.778279578498,1245
3109.482126208622,1174
3111.1856809170004,1182
3112.8889440203716,1195
3114.5919158355528,1185
3116.294596679439,1218
3117.996986869006,1253
3119.6990867213062,1238
3121.4008965534726,1222
3123.102416682717,1230
3124.803647426329,1197
3126.5045891016784,1180
3128.205242026213,1209
3129.90560651746,1205
3131.605682893025,1221
3133.3054714705922,1214
3135.0049725679282,1289
3136.7041865028714,1196
3138.4031135933465,1178
3140.101754157353,1168
3141.800108512971,1203
3143.498176978357,1238
3145.1959598717494,1221
3146.8934575114636,1177
3148.5906702158954,1222
3150.2875983035183,1206
3151.9842420928853,1215
3153.680601902627,1166
3155.376678051456,1208
3157.07247085816,1216
3158.767980641609,1248
3160.463207720748,1151
3162.158152414606,1169
3163.8528150422862,1197
3165.5471959229726,1176
3167.2412953759303,1168
3168.9351137204976,1150
3170.628651276098,1170
3172.3219083622307,1198
3174.014885298474,1213
3175.707582404485,1207
3177.4000000000005,1177
3179.092138404835,1142
3180.7839979388846,1177
3182.47557892212,1220
3184.166881674594,1219
3185.8579065164386,1235
3187.5486537678626,1228
3189.2391237491547,1179
3190.9293167806827,1182
3192.6192331828934,1185
3194.3088732763117,1164
3195.998237381542,1209
3197.687325819268,1174
3199.376138910251,1169
3201.064676975334,1188
3202.7529403354347,1209
3204.4409293115523,1155
3206.1286442247647,1150
3207.816085396229,1157
3209.5032531471825,1183
3211.190147798936,1163
3212.8767696728846,1103
3214.5631190905015,1094
3216.2491963733373,1119
3217.9350018430214,1134
3219.6205358212637,1117
3221.305798629851,1122
3222.990790590651,1124
3224.6755120256103,1162
3226.359963256751,1166
3228.0441446061795,1120
3229.7280563960758,1086
3231.411698948703,1102
3233.0950725863995,1125
3234.778177631587,1129
3236.461014406761,1157
3238.1435832345005,1147
3239.8258844374595,1136
3241.507918338374,1116
3243.1896852600576,1192
3244.8711855254023,1091
3246.552419457381,1173
3248.233387379042,1184
3249.914089613516,1200
3251.59452648401,1157
3253.274698313813,1115
3254.95460542629,1165
3256.6342481448855,1190
3258.313626793125,1147
3259.9927416946084,1165
3261.6715931730196,1121
3263.3501815521176,1147
3265.0285071557437,1138
3266.706570307815,1166
3268.3843713323286,1149
3270.0619105533615,1134
3271.739188295068,1164
3273.4162048816834,1162
3275.0929606375184,1128
3276.769455886966,1174
3278.445690954498,1188
3280.1216661646613,1119
3281.797381842087,1145
3283.4728383114807,1191
3285.1480358976296,1172
3286.8229749253996,1132
3288.4976557197333,1149
3290.172078605655,1163
3291.846243908266,1123
3293.5201519527463,1135
3295.193803064357,1124
3296.8671975684374,1140
3298.5403357904024,1124
3300.21321805575,1134
3301.8858446900567,1119
3303.558216018975,1140
3305.23033236824,1168
3306.9021940636603,1136
3308.57380143113,1157
3310.2451547966184,1162
3311.916254486174,1170
3313.5871008259246,1162
3315.2576941420766,1142
3316.9280347609147,1162
3318.5981230088046,1137
3320.2679592121895,1143
3321.9375436975924,1191
3323.606876791612,1175
3325.27595882093,1143
3326.944790112305,1126
3328.6133709925753,1157
3330.2817017886573,1147
3331.949782827547,1116
3333.617614436319,1161
3335.2851969421245,1159
3336.952530672199,1134
3338.619615953853,1103
3340.286453114475,1168
3341.9530424815357,1122
3343.619384382583,1125
3345.2854791452437,1130
3346.951327097224,1153
3348.6169285663073,1143
3350.2822838803577,1133
3351.947393367319,1139
3353.61225735521,1154
3355.2768761721345,1166
3356.9412501462693,1196
3358.605379605873,1184
3360.2692648792827,1130
3361.9329062949146,1097
3363.596304181263,1142
