CollectionTime,6/28/2024 3:02:08 PM
ExposureUsed,3
CalibratedSpectrum
-962.7078968117929,594
-959.9714848408522,669
-957.2358232597828,671
-954.5009119013725,680
-951.7667505983302,678
-949.0333391832855,682
-946.3006774887896,704
-943.5687653473143,679
-940.837602591253,705
-938.1071890529199,684
-935.3775245645503,675
-932.6486089583007,719
-929.9204420662485,687
-927.1930237203925,694
-924.4663537526524,680
-921.7404319948689,699
-919.0152582788041,722
-916.2908324361409,711
-913.5671542984834,720
-910.8442236973568,700
-908.1220404642074,684
-905.4006044304027,675
-902.679915427231,702
-899.959973285902,720
-897.2407778375464,701
-894.5223289132158,697
-891.8046263438832,657
-889.0876699604426,668
-886.3714595937089,654
-883.6559950744183,652
-880.9412762332282,636
-878.2273029007168,668
-875.5140749073835,644
-872.8015920836489,632
-870.0898542598545,631
-867.3788612662631,630
-864.6686129330585,606
-861.9591090903457,619
-859.2503495681506,637
-856.5423341964203,654
-853.8350628050229,643
-851.1285352237478,672
-848.4227512823054,625
-845.7177108103272,653
-843.0134136373656,605
-840.3098595928943,647
-837.6070485063082,663
-834.9049802069229,655
-832.2036545239757,646
-829.5030712866244,626
-826.8032303239481,616
-824.1041314649472,638
-821.4057745385428,645
-818.7081593735775,680
-816.0112857988148,638
-813.3151536429393,638
-810.6197627345566,625
-807.9251129021936,624
-805.2312039742981,659
-802.5380357792392,649
-799.8456081453069,642
-797.1539209007124,650
-794.462973873588,649
-791.772766891987,595
-789.083299783884,627
-786.3945723771743,645
-783.7065844996748,656
-781.0193359791231,671
-778.3328266431781,665
-775.6470563194197,696
-772.9620248353489,645
-770.2777320183878,628
-767.5941776958798,633
-764.9113616950891,642
-762.2292838432011,650
-759.5479439673222,646
-756.8673418944801,695
-754.1874774516235,691
-751.5083504656222,692
-748.8299607632671,675
-746.15230817127,716
-743.475392516264,710
-740.7992136248035,695
-738.1237713233636,680
-735.4490654383407,701
-732.7750957960521,679
-730.1018622227365,677
-727.4293645445534,665
-724.7576025875837,695
-722.0865761778291,677
-719.4162851412126,737
-716.7467293035781,708
-714.0779084906909,714
-711.409822528237,698
-708.7424712418238,732
-706.0758544569796,698
-703.4099719991541,668
-700.7448236937178,699
-698.0804093659622,730
-695.4167288411002,722
-692.7537819442656,675
-690.0915685005134,683
-687.4300883348199,699
-684.7693412720819,671
-682.1093271371178,687
-679.4500457546669,708
-676.7914969493897,684
-674.1336805458676,709
-671.4765963686034,751
-668.8202442420206,786
-666.1646239904642,722
-663.5097354382001,717
-660.8555784094151,677
-658.2021527282176,744
-655.5494582186366,779
-652.8974947046223,730
-650.2462620100463,825
-647.5957599587009,759
-644.9459883742998,766
-642.2969470804776,751
-639.6486359007902,787
-637.0010546587141,818
-634.3542031776476,799
-631.7080812809096,772
-629.0626887917401,741
-626.4180255333008,746
-623.7740913286734,770
-621.1308860008619,738
-618.4884093727904,740
-615.8466612673046,750
-613.2056415071715,755
-610.5653499150785,740
-607.9257863136347,731
-605.28695052537,738
-602.6488423727357,717
-600.0114616781036,710
-597.3748082637674,756
-594.7388819519412,765
-592.1036825647604,753
-589.4692099242818,748
-586.8354638524829,744
-584.2024441712624,736
-581.5701507024403,751
-578.9385832677575,765
-576.3077416888759,762
-573.6776257873787,785
-571.0482353847704,738
-568.4195703024757,831
-565.7916303618415,843
-563.164415384135,815
-560.5379251905453,786
-557.9121596021815,783
-555.2871184400748,724
-552.6628015251767,767
-550.0392086783606,779
-547.4163397204204,814
-544.794194472071,803
-542.1727727539491,788
-539.5520743866118,814
-536.9320991905377,821
-534.3128469861261,914
-531.6943175936979,865
-529.0765108334947,916
-526.4594265256793,994
-523.8430644903358,1123
-521.2274245474689,1304
-518.612506517005,1415
-515.9983102187913,1526
-513.3848354725959,1540
-510.77208209810846,1769
-508.16004991493924,1779
-505.5487387426199,1944
-502.9381484006032,2057
-500.3282787082628,2187
-497.71912948489364,2197
-495.1107005497117,2162
-492.5029917218539,1903
-489.8960028203786,1664
-487.28973366426493,1490
-484.68418407241325,1279
-482.07935386364494,1150
-479.47524285670266,1109
-476.87185087025,1068
-474.2691777228715,1145
-471.66722323307334,1107
-469.0659872192821,1024
-466.4654694998459,1043
-463.86566989303384,1030
-461.26658821703614,949
-458.66822428996414,973
-456.07057792985,998
-453.4736489546475,1007
-450.877437182231,1033
-448.28194243039627,985
-445.68716451686,932
-443.09310325926003,904
-440.49975847515555,969
-437.9071299820263,950
-435.31521759727354,989
-432.72402113821954,949
-430.13354042210767,1007
-427.5437752661022,977
-424.95472548728867,1004
-422.36639090267386,1064
-419.7787713291855,1031
-417.1918665836721,995
-414.60567648290385,1031
-412.0202008435715,994
-409.4354394822874,1033
-406.8513922155845,1061
-404.26805885991723,1055
-401.685439231661,1116
-399.103533147112,1071
-396.522340422488,1003
-393.9418608739278,1024
-391.3620943174908,1072
-388.7830405691583,1003
-386.2046994448317,987
-383.6270707603344,938
-381.05015433141045,897
-378.473949973725,842
-375.8984575028645,780
-373.32367673433623,775
-370.74960748356875,705
-368.1762495659117,709
-365.60360279663576,621
-363.03166699093265,575
-360.4604419639154,572
-357.8899275306178,524
-355.32012350599507,534
-352.7510297049233,530
-350.1826459421999,514
-347.61497203254316,531
-345.04800779059235,533
-342.4817530309082,494
-339.91620756797226,524
-337.35137121618743,535
-334.7872437898774,541
-332.22382510328725,543
-329.66111497058273,574
-327.09911320585127,601
-324.53781962310075,601
-321.9772340362607,589
-319.4173562591816,572
-316.8581861056348,534
-314.2997233893127,556
-311.7419679238294,597
-309.1849195227194,565
-306.62857799943856,496
-304.0729431673641,523
-301.51801483979375,561
-298.963792829947,554
-296.41027695096386,569
-293.85746701590574,564
-291.3053628377552,651
-288.7539642294155,637
-286.2032710037115,616
-283.65328297338897,573
-281.1039999511146,633
-278.5554217494762,642
-276.007548180983,604
-273.4603790580651,598
-270.9139141930734,597
-268.3681533982807,576
-265.8230964858798,606
-263.27874326798565,656
-260.7350935566336,730
-258.1921471637804,649
-255.6499039013039,625
-253.10836358100266,615
-250.56752601459698,673
-248.02739101372765,751
-245.48795838995704,825
-242.94922795476816,765
-240.41119951956557,767
-237.8738728956746,739
-235.33724789434166,838
-232.80132432673452,980
-230.2661020039418,898
-227.73158073697357,798
-225.19776033676033,693
-222.66464061415422,759
-220.1322213799284,685
-217.60050244477725,732
-215.06948361931552,749
-212.53916471408013,817
-210.00954553952818,874
-207.48062590603843,882
-204.9524056239104,845
-202.4248845033651,790
-199.8980623545441,787
-197.37193898751036,765
-194.84651421224817,747
-192.32178783866232,890
-189.79775967657952,841
-187.27442953574644,844
-184.7517972258321,851
-182.2298625564256,872
-179.7086253370378,857
-177.18808537710026,854
-174.66824248596583,865
-172.14909647290835,971
-169.6306471471229,1076
-167.11289431772548,977
-164.59583779375328,912
-162.07947738416453,1026
-159.5638128978386,1171
-157.04884414357605,1127
-154.53457093009854,1135
-152.02099306604828,1077
-149.50811035998936,1066
-146.99592262040665,1048
-144.48442965570587,1066
-141.97363127421409,1082
-139.46352728417958,1051
-136.95411749377126,1056
-134.44540171107985,1181
-131.93737974411636,1222
-129.43005140081357,1203
-126.92341648902493,1241
-124.41747481652521,1305
-121.91222619101006,1450
-119.40767042009657,1363
-116.90380731132257,1473
-114.40063667214702,1406
-111.8981583099503,1467
-109.3963720320337,1618
-106.89527764561933,1561
-104.39487495785067,1562
-101.89516377579241,1628
-99.39614390642998,1707
-96.89781515667039,1794
-94.40017733334128,2175
-91.90323024319173,2123
-89.40697369289148,2003
-86.91140748903172,1963
-84.41653143812482,1749
-81.92234534660395,1931
-79.42884902082358,2059
-76.93604226705907,2377
-74.4439248915071,2101
-71.95249670028534,1980
-69.46175749943245,2228
-66.97170709490854,2775
-64.48234529259423,3227
-61.99367189829195,2528
-59.50568671772464,2611
-57.01838955653636,3260
-54.53178022029283,3245
-52.045858514480074,3031
-49.560624244506016,3083
-47.07607721569923,3202
-44.59221723330904,3186
-42.10904410250669,3283
-39.62655762838392,4162
-37.14475761595372,5679
-34.66364387015028,6420
-32.18321619582866,6381
-29.70347439776515,7141
-27.224418280657005,8752
-24.74604764912317,13106
-22.26836230770266,20393
-19.7913620608565,33837
-17.315046712966478,48042
-14.83941606833514,50862
-12.36446993118659,65029
-9.89020810566592,65029
-7.416630395839093,65029
-4.94373660569363,65029
-2.471526539137585,65029
-6.821210263296962E-13,65029
2.47084320796705,65029
4.941003281093458,65029
7.410480415786196,65029
9.879274808531363,65029
12.347386655893956,65029
14.814816154518212,65029
17.28156350112681,65029
19.74762889252179,65029
22.21301252558385,65029
24.67771459727237,65029
27.141735304626195,44555
29.605074844762612,17906
32.06773341487792,9232
34.52971121224755,6351
36.99100843422559,7571
39.45162527824516,8495
41.91156194181792,7420
44.370818622535126,9129
46.82939551806646,11970
49.287292826160524,12901
51.74451074464503,12099
54.201049471426245,9906
56.65690920448981,7381
59.112090141899785,5435
61.56659248179983,3793
64.02041642241159,2949
66.4735621620365,3195
68.92602989905402,2726
71.37781983192338,2618
73.82893215918205,2862
76.27936707944684,2863
78.72912479141326,3116
81.17820549385567,2812
83.62660938562783,2250
86.07433666566146,2071
88.5213875329681,2101
90.96776218663751,2193
93.41346082583925,2170
95.85848364982041,2041
98.30283085790859,2073
100.7465026495089,2277
103.18949922410604,2092
105.63182078126385,2290
108.07346752062438,1974
110.51443964190923,1822
112.95473734491827,1500
115.39436082953114,1525
117.83331029570547,1765
120.27158594347827,1726
122.7091879729652,1648
125.1461165843615,1449
127.58237197794062,1584
130.01795435405518,1390
132.4528639131364,1449
134.88710085569494,1448
137.32066538231982,1551
139.75355769367923,1475
142.1857779905207,1627
144.61732647366978,1515
147.04820334403132,1527
149.47840880258934,1568
151.90794305040674,1702
154.33680628862487,1758
156.76499871846443,1728
159.19252054122433,1839
161.61937195828352,2009
164.04555317109896,1974
166.47106438120693,2297
168.89590579022217,2548
171.320077599839,2534
173.7435800118302,2599
176.16641322804742,2579
178.58857745042144,2621
181.01007288096173,2722
183.43089972175687,2661
185.85105817497413,2742
188.27054844285988,2803
190.6893707277394,2750
193.10752523201643,2762
195.5250121581745,2849
197.9418317087751,2920
200.3579840864594,2955
202.7734694939469,2919
205.18828813403627,2878
207.6024402096051,2803
210.01592592360964,2892
212.42874547908548,2834
214.84089907914665,2815
217.2523869269868,2890
219.66320922587727,2870
222.0733661791695,2779
224.48285799029293,2748
226.8916848627572,2857
229.29984700014882,2890
231.7073446061355,2988
234.11417788446204,3045
236.520347038953,3041
238.92585227351185,3139
241.33069379212054,3133
243.73487179884035,3154
246.1383864978112,3223
248.541238093252,3149
250.9434267894609,3181
253.34495279081432,3235
255.74581630176783,3250
258.1460175268563,3333
260.54555667069314,3195
262.9444339379703,3290
265.3426495334594,3117
267.7402036620107,3162
270.1370965285529,3019
272.53332833809407,2971
274.9288992957214,2922
277.32380960660055,2794
279.718059475976,2725
282.1116491091717,2698
284.5045787115897,2812
286.89684848871195,2721
289.2884586460981,2796
291.67940938938807,2785
294.0697009242996,2793
296.4593334566299,2757
298.84830719225477,2678
301.23662233712923,2678
303.6242790972866,2625
306.01127767884,2666
308.39761828798066,2546
310.78330113097934,2601
313.16832641418534,2609
315.5526943440269,2495
317.9364051270112,2444
320.3194589697242,2385
322.70185607883093,2307
325.0835966610754,2362
327.4646809232805,2355
329.8451090723478,2398
332.2248813152577,2340
334.6039978590701,2283
336.9824589109231,2270
339.36026467803447,2225
341.7374153677,2284
344.113911187295,2257
346.48975234427337,2228
348.8649390461686,2166
351.2394715005918,2177
353.61334991523415,2139
355.9865744978655,2165
358.35914545633375,2196
360.73106299856715,2193
363.10232733257146,2185
365.47293866643247,2167
367.84289720831396,2212
370.2122031664593,2180
372.5808567491905,2203
374.9488581649083,2103
377.31620762209275,2157
379.6829053293021,2109
382.0489514951745,2151
384.4143463284262,2086
386.7790900378528,2032
389.14318283232853,2049
391.50662492080653,2064
393.86941651231916,2101
396.23155781597745,2060
398.5930490409713,1965
400.9538903965696,2031
403.3140820921202,1998
405.6736243370498,2006
408.03251734086336,2054
410.3907613131465,2039
412.74835646356166,2035
415.10530300185144,2033
417.4616011378372,2003
419.81725108141893,2041
422.1722530425758,2075
424.5266072313656,2076
426.880313857925,2011
429.2333731324701,1979
431.58578526529516,1976
433.9375504667738,1998
436.2886689473588,1945
438.63914091758113,1921
440.9889665880513,1964
443.33814616945835,1933
445.68667987257015,1981
448.03456790823395,1909
450.3818104873759,1897
452.72840782100013,1938
455.07436012019105,2011
457.41966759611057,1933
459.7643304600007,1960
462.10834892318155,1952
464.4517231970525,1966
466.79445349309174,1920
469.1365400228566,1950
471.4779829979826,2027
473.81878263018564,2048
476.15893913125876,2096
478.4984527130747,2131
480.8373235875855,2050
483.17555196682144,2093
485.5131380628919,2164
487.8500820879857,2300
490.1863842543697,2390
492.52204477439034,2582
494.8570638604725,2787
497.1914417251204,3253
499.52517858091653,3496
501.85827464052306,3647
504.19073011668036,3942
506.5225452222086,3886
508.85372017000566,3852
511.18425517304956,3778
513.514150444396,3944
515.8434061971808,4421
518.1720226446176,4867
520.4999999999999,5126
522.8273384766991,5438
525.1540382881666,5506
527.480099647932,5159
529.8055227696037,4170
532.1303078668694,2893
534.454455153496,2274
536.777964843328,2062
539.1008371502907,2020
541.4230722883866,1953
543.744670471698,1873
546.0656319143858,1873
548.3859568306899,1853
550.7056454349294,1834
553.0246979415016,1754
555.3431145648834,1805
557.6608955196306,1808
559.978041020377,1734
562.2945512818363,1767
564.6104265188006,1724
566.9256669461412,1738
569.2402727788082,1718
571.5542442318302,1767
573.8675815203156,1747
576.1802848594508,1685
578.4923544645015,1730
580.8037905508126,1715
583.114593333807,1765
585.4247630289875,1743
587.7342998519354,1770
590.0432040183106,1788
592.3514757438526,1713
594.6591152443794,1755
596.9661227357875,1759
599.2724984340531,1756
601.578242555231,1809
603.8833553154542,1761
606.1878369309362,1734
608.4916876179676,1863
610.7949075929192,1867
613.0974970722403,1794
615.3994562724587,1756
617.7007854101818,1810
620.0014847020951,1799
622.3015543649641,1896
624.6009946156324,1775
626.8998056710224,1824
629.1979877481361,1780
631.4955410640538,1816
633.7924658359349,1780
636.0887622810175,1824
638.3844306166192,1829
640.6794710601358,1875
642.9738838290426,1817
645.2676691408932,1771
647.5608272133207,1802
649.853358264037,1793
652.1452625108324,1828
654.4365401715764,1851
656.7271914642178,1799
659.0172166067838,1792
661.3066158173809,1804
663.5953893141935,1775
665.8835373154867,1925
668.1710600396028,1822
670.4579577049639,1870
672.7442305300709,1817
675.0298787335033,1772
677.3149025339197,1826
679.599302150058,1900
681.8830778007342,1925
684.1662297048437,1820
686.4487580813608,1830
688.7306631493387,1852
691.0119451279091,1788
693.2926042362834,1848
695.5726406937516,1856
697.8520547196814,1837
700.1308465335215,1847
702.4090163547982,1804
704.6865644031171,1831
706.9634908981619,1880
709.2397960596965,1849
711.5154801075631,1876
713.7905432616823,1885
716.0649857420548,1770
718.3388077687592,1788
720.612009561953,1795
722.8845913418733,1801
725.1565533288352,1788
727.427895743234,1783
729.6986188055427,1827
731.9687227363137,1807
734.238207756178,1750
736.5070740858458,1829
738.7753219461066,1812
741.0429515578281,1801
743.3099631419569,1795
745.5763569195191,1820
747.8421331116193,1848
750.1072919394409,1855
752.3718336242467,1886
754.6357583873777,1824
756.8990664502545,1801
759.1617580343765,1810
761.423833361321,1748
763.6852926527457,1756
765.9461361303862,1801
768.206364016058,1822
770.4659765316536,1846
772.7249738991469,1820
774.9833563405886,1778
777.2411240781092,1823
779.4982773339183,1867
781.7548163303044,1855
784.010741289634,1886
786.2660524343538,1879
788.5207499869881,1808
790.7748341701416,1859
793.0283052064964,1847
795.2811633188143,1866
797.5334087299362,1870
799.7850416627813,1876
802.0360623403484,1842
804.2864709857143,1846
806.5362678220353,1852
808.7854530725468,1905
811.0340269605625,1836
813.2819897094754,1893
815.5293415427581,1846
817.77608268396,1916
820.0222133567116,1885
822.2677337847211,1824
824.5126441917765,1872
826.7569448017433,1918
829.0006358385675,1880
831.2437175262731,1777
833.4861900889629,1846
835.7280537508192,1850
837.9693087361026,1826
840.2099552691533,1878
842.4499935743896,1881
844.689423876309,1833
846.9282463994886,1864
849.1664613685833,1861
851.4040690083276,1758
853.6410695435349,1771
855.877463199097,1881
858.1132501999847,1866
860.3484307712487,1848
862.5830051380175,1842
864.8169735254988,1881
867.0503361589791,1846
869.2830932638243,1835
871.5152450654786,1869
873.7467917894654,1974
875.9777336613873,1798
878.2080709069252,1903
880.4378037518389,1960
882.666932421968,1905
884.8954571432301,1852
887.1233781416219,1956
889.3506956432192,1933
891.5774098741766,1883
893.803521060728,1989
896.0290294291852,1907
898.2539352059397,1876
900.4782386174619,1961
902.7019398903011,1946
904.925039251085,1856
907.147536926521,1930
909.3694331433943,1915
911.59072812857,1921
913.8114221089921,1883
916.0315153116827,1993
918.2510079637437,1844
920.4699002923547,1916
922.6881925247761,1883
924.905884888345,1817
927.1229776104793,1849
929.3394709186747,1875
931.555365040506,1957
933.7706602036275,1876
935.9853566357709,1950
938.1994545647489,1863
940.4129542184515,1894
942.6258558248488,1925
944.8381596119883,1914
947.0498658079974,1913
949.2609746410825,1863
951.4714863395287,1912
953.6814011316998,1863
955.8907192460387,1867
958.0994409110671,1853
960.3075663553858,1815
962.5150958076741,1890
964.7220294966913,1798
966.928367651274,1832
969.1341105003388,1812
971.3392582728806,1761
973.5438111979742,1746
975.747769504772,1758
977.9511334225061,1746
980.153903180487,1799
982.3560790081052,1793
984.5576611348289,1769
986.7586497902058,1846
988.9590452038618,1788
991.158847605503,1722
993.3580572249133,1723
995.5566742919558,1637
997.7546990365728,1690
999.952131688785,1636
1002.1489724786926,1551
1004.3452216364743,1601
1006.5408793923874,1609
1008.7359459767691,1511
1010.9304216200343,1606
1013.1243065526781,1554
1015.3176010052733,1522
1017.510305208472,1505
1019.7024193930064,1493
1021.8939437896848,1451
1024.0848786293977,1492
1026.2752241431122,1509
1028.4649805618747,1480
1030.6541481168115,1507
1032.842727039127,1558
1035.0307175601051,1507
1037.2181199111074,1417
1039.4049343235752,1435
1041.591161029029,1463
1043.7768002590683,1465
1045.9618522453698,1441
1048.1463172196918,1492
1050.3301954138697,1423
1052.513487059818,1481
1054.69619238953,1496
1056.8783116350783,1437
1059.0598450286152,1434
1061.2407928023704,1509
1063.4211551886528,1441
1065.6009324198508,1448
1067.780124728432,1446
1069.9587323469414,1421
1072.1367555080046,1438
1074.314194444325,1464
1076.4910493886855,1403
1078.667320573947,1431
1080.843008233051,1399
1083.0181125990161,1399
1085.1926339049414,1352
1087.3665723840027,1375
1089.5399282694575,1391
1091.7127017946405,1357
1093.8848931929647,1356
1096.0565026979243,1369
1098.2275305430899,1333
1100.3979769621128,1398
1102.567842188722,1394
1104.737126456726,1333
1106.9058300000124,1312
1109.0739530525475,1412
1111.2414958483764,1427
1113.4084586216231,1357
1115.5748416064907,1345
1117.7406450372605,1367
1119.9058691482942,1376
1122.0705141740304,1381
1124.2345803489884,1417
1126.3980679077658,1437
1128.5609770850388,1394
1130.7233081155623,1350
1132.8850612341707,1326
1135.0462366757774,1397
1137.2068346753745,1376
1139.3668554680326,1380
1141.526299288901,1297
1143.68516637321,1430
1145.8434569562655,1325
1148.001171273455,1273
1150.158309560244,1314
1152.3148720521767,1303
1154.470858984876,1301
1156.626270594044,1326
1158.7811071154629,1373
1160.9353687849912,1378
1163.089055838569,1318
1165.242168512213,1324
1167.3947070420209,1322
1169.5466716641677,1339
1171.6980626149075,1318
1173.8488801305748,1302
1175.9991244475814,1335
1178.1487958024186,1315
1180.2978944316555,1276
1182.4464205719428,1320
1184.5943744600072,1369
1186.7417563326567,1307
1188.8885664267755,1315
1191.0348049793297,1318
1193.1804722273619,1319
1195.325568407995,1351
1197.4700937584303,1342
1199.614048515948,1320
1201.7574329179074,1281
1203.900247201746,1350
1206.042491604982,1285
1208.1841663652099,1274
1210.3252717201053,1274
1212.465807907422,1372
1214.6057751649923,1318
1216.7451737307279,1307
1218.8840038426192,1327
1221.0222657387353,1306
1223.1599596572241,1312
1225.2970858363137,1311
1227.4336445143094,1302
1229.5696359295966,1346
1231.705060320639,1317
1233.8399179259786,1332
1235.9742089842384,1315
1238.107933734118,1301
1240.2410924143974,1320
1242.373685263935,1333
1244.5057125216676,1317
1246.6371744266116,1352
1248.7680712178621,1339
1250.898403134593,1333
1253.028170416058,1266
1255.1573733015875,1373
1257.2860120305932,1384
1259.4140868425648,1341
1261.54159797707,1298
1263.6685456737569,1333
1265.7949301723515,1340
1267.9207517126597,1347
1270.046010534565,1450
1272.1707068780306,1342
1274.2948409830983,1391
1276.4184130898889,1430
1278.541423438603,1410
1280.6638722695184,1398
1282.785759822993,1383
1284.9070863394636,1465
1287.0278520594447,1462
1289.1480572235314,1393
1291.2677020723963,1405
1293.3867868467923,1417
1295.5053117875495,1459
1297.623277135579,1422
1299.740683131868,1442
1301.8575300174857,1443
1303.973818033578,1438
1306.0895474213703,1440
1308.2047184221678,1442
1310.3193312773528,1437
1312.4333862283888,1450
1314.5468835168163,1429
1316.659823384255,1428
1318.7722060724045,1422
1320.8840318230418,1418
1322.9953008780249,1506
1325.1060134792888,1527
1327.2161698688478,1527
1329.3257702887959,1481
1331.4348149813054,1477
1333.5433041886276,1449
1335.6512381530933,1459
1337.7586171171101,1465
1339.8654413231675,1447
1341.9717110138317,1451
1344.0774264317488,1420
1346.1825878196432,1395
1348.2871954203192,1421
1350.3912494766587,1457
1352.4947502316231,1416
1354.5976979282532,1487
1356.7000928096686,1430
1358.8019351190665,1408
1360.9032250997243,1400
1363.0039629949988,1422
1365.1041490483235,1480
1367.2037835032133,1400
1369.3028666032606,1432
1371.401398592137,1460
1373.4993797135926,1468
1375.5968102114575,1405
1377.6936903296396,1347
1379.7900203121262,1451
1381.8858004029835,1474
1383.9810308463561,1439
1386.075711886469,1458
1388.1698437676241,1480
1390.2634267342032,1460
1392.356461030667,1449
1394.4489469015557,1489
1396.5408845914872,1470
1398.6322743451592,1561
1400.7231164073469,1565
1402.813411022907,1483
1404.903158436773,1536
1406.9923588939578,1502
1409.0810126395531,1455
1411.1691199187303,1457
1413.2566809767386,1495
1415.343696058907,1549
1417.4301654106425,1470
1419.5160892774315,1518
1421.6014679048399,1527
1423.6863015385125,1597
1425.7705904241707,1582
1427.8543348076178,1537
1429.9375349347342,1543
1432.0201910514802,1542
1434.102303403894,1527
1436.1838722380944,1539
1438.2648978002767,1612
1440.3453803367174,1681
1442.4253200937692,1622
1444.5047173178677,1636
1446.5835722555234,1650
1448.6618851533285,1714
1450.739656257952,1715
1452.8168858161434,1733
1454.8935740747306,1724
1456.96972128062,1728
1459.045327680797,1785
1461.120393522327,1672
1463.1949190523528,1763
1465.2689045180973,1785
1467.3423501668608,1785
1469.415256246024,1841
1471.4876230030463,1893
1473.559450685465,1911
1475.6307395408976,1960
1477.7014898170391,1941
1479.771701761665,1991
1481.8413756226287,2033
1483.9105116478618,2013
1485.9791100853772,2058
1488.0471711832643,2094
1490.1146951896926,2013
1492.1816823529098,2054
1494.2481329212433,2221
1496.3140471430984,2149
1498.3794252669609,2213
1500.4442675413939,2218
1502.5085742150404,2269
1504.572345536622,2187
1506.6355817549388,2183
1508.6982831188702,2242
1510.7604498773744,2262
1512.8220822794883,2378
1514.8831805743293,2312
1516.9437450110909,2298
1519.003775839048,2378
1521.0632733075522,2343
1523.1222376660367,2374
1525.1806691640113,2437
1527.2385680510652,2301
1529.2959345768668,2440
1531.3527689911643,2462
1533.4090715437833,2518
1535.4648424846291,2520
1537.5200820636855,2509
1539.5747905310159,2517
1541.6289681367616,2671
1543.6826151311434,2585
1545.7357317644614,2655
1547.7883182870937,2746
1549.8403749494987,2765
1551.8919020022113,2640
1553.9428996958477,2681
1555.9933682811015,2764
1558.0433080087469,2922
1560.0927191296346,2941
1562.1416018946961,3060
1564.1899565549415,3053
1566.2377833614592,3175
1568.2850825654164,3002
1570.3318544180606,3064
1572.3780991707158,2989
1574.423817074788,2884
1576.4690083817595,2778
1578.5136733431923,2694
1580.5578122107272,2571
1582.601425236085,2492
1584.6445126710646,2437
1586.6870747675434,2271
1588.7291117774776,2226
1590.7706239529034,2093
1592.8116115459347,2055
1594.8520748087658,2008
1596.8920139936686,1889
1598.9314293529933,1848
1600.9703211391711,1812
1603.008689604711,1770
1605.0465350022005,1745
1607.0838575843068,1690
1609.1206576037753,1663
1611.1569353134305,1586
1613.1926909661765,1643
1615.2279248149953,1528
1617.2626371129481,1511
1619.2968281131757,1561
1621.3304980688963,1560
1623.3636472334088,1460
1625.39627586009,1540
1627.428384202396,1464
1629.459972513861,1467
1631.4910410480993,1563
1633.5215900588028,1412
1635.551619799744,1479
1637.5811305247717,1397
1639.6101224878166,1452
1641.6385959428862,1474
1643.6665511440683,1414
1645.693988345528,1465
1647.7209078015112,1438
1649.7473097663405,1340
1651.7731944944203,1414
1653.7985622402307,1355
1655.823413258333,1416
1657.847747803366,1341
1659.8715661300494,1392
1661.8948684931793,1397
1663.9176551476316,1364
1665.9399263483624,1355
1667.9616823504057,1349
1669.982923408873,1307
1672.0036497789574,1389
1674.0238617159293,1392
1676.043559475138,1360
1678.0627433120121,1367
1680.081413482059,1354
1682.0995702408654,1340
1684.117213844096,1392
1686.134344547495,1383
1688.1509626068864,1357
1690.1670682781705,1383
1692.182661817329,1431
1694.1977434804217,1352
1696.2123135235875,1407
1698.226372203043,1349
1700.2399197750851,1355
1702.2529564960905,1383
1704.2654826225112,1368
1706.277498410882,1382
1708.2890041178139,1401
1710.2999999999988,1390
1712.3104863142066,1408
1714.3204633172854,1363
1716.329931266163,1379
1718.3388904178469,1411
1720.3473410294214,1334
1722.3552833580516,1321
1724.3627176609807,1381
1726.3696441955308,1378
1728.3760632191033,1306
1730.3819749891782,1307
1732.3873797633146,1352
1734.3922777991502,1358
1736.3966693544012,1291
1738.4005546868639,1255
1740.4039340544127,1273
1742.406807715001,1345
1744.4091759266616,1327
1746.4110389475054,1265
1748.4123970357223,1272
1750.413250449582,1336
1752.4135994474318,1307
1754.4134442876993,1273
1756.4127852288902,1245
1758.4116225295893,1297
1760.4099564484595,1319
1762.407787244244,1354
1764.405115175764,1289
1766.4019405019203,1230
1768.3982634816916,1283
1770.3940843741357,1261
1772.3894034383907,1274
1774.3842209336717,1269
1776.378537119274,1283
1778.372352254571,1314
1780.3656665990156,1252
1782.3584804121397,1287
1784.3507939535534,1267
1786.3426074829463,1283
1788.3339212600863,1315
1790.3247355448211,1273
1792.3150505970766,1266
1794.3048666768573,1328
1796.2941840442477,1310
1798.2830029594106,1283
1800.2713236825884,1276
1802.2591464741004,1265
1804.2464715943465,1217
1806.2332993038058,1278
1808.2196298630352,1315
1810.2054635326708,1266
1812.190800573428,1221
1814.175641246101,1279
1816.1599858115628,1293
1818.1438345307652,1246
1820.127187664738,1241
1822.1100454745924,1300
1824.092408221516,1317
1826.0742761667766,1315
1828.055649571721,1254
1830.0365286977735,1265
1832.0169138064398,1254
1833.9968051593014,1222
1835.9762030180214,1255
1837.9551076443408,1258
1839.9335193000788,1268
1841.9114382471344,1234
1843.888864747485,1221
1845.8657990631878,1211
1847.842241456378,1283
1849.8181921892697,1229
1851.7936515241558,1249
1853.7686197234098,1218
1855.7430970494815,1235
1857.7170837649014,1239
1859.6905801322787,1201
1861.6635864143004,1200
1863.6361028737338,1232
1865.608129773424,1260
1867.5796673762961,1218
1869.5507159453537,1216
1871.521275743678,1267
1873.4913470344313,1264
1875.4609300808534,1213
1877.4300251462632,1277
1879.3986324940588,1265
1881.366752387717,1308
1883.3343850907936,1312
1885.3015308669228,1265
1887.268189979819,1235
1889.2343626932739,1318
1891.2000492711595,1296
1893.1652499774254,1308
1895.1299650761011,1249
1897.0941948312952,1249
1899.0579395071945,1266
1901.0211993680641,1229
1902.98397467825,1296
1904.9462657021745,1261
1906.9080727043415,1300
1908.869395949332,1295
1910.8302357018065,1246
1912.790592226504,1253
1914.7504657882428,1283
1916.7098566519212,1255
1918.6687650825133,1299
1920.6271913450764,1256
1922.5851357047422,1286
1924.5425984267245,1314
1926.499579776314,1271
1928.4560800188833,1327
1930.4120994198802,1240
1932.367638244833,1275
1934.32269675935,1231
1936.2772752291175,1237
1938.231373919899,1286
1940.1849930975404,1290
1942.1381330279637,1286
1944.0907939771696,1284
1946.0429762112412,1298
1947.9946799963363,1314
1949.9459055986945,1281
1951.896653284633,1311
1953.8469233205478,1243
1955.7967159729142,1299
1957.7460315082863,1254
1959.6948701932974,1239
1961.6432322946594,1295
1963.5911180791632,1264
1965.5385278136787,1281
1967.4854617651545,1265
1969.4319202006182,1285
1971.377903387176,1196
1973.3234115920136,1237
1975.268445082395,1271
1977.2130041256642,1253
1979.1570889892423,1272
1981.1006999406304,1282
1983.04383724741,1236
1984.986501177238,1237
1986.928691997853,1235
1988.8704099770712,1269
1990.811655382789,1234
1992.7524284829801,1260
1994.692729545698,1248
1996.6325588390755,1262
1998.5719166313224,1265
2000.5108031907307,1277
2002.4492187856677,1258
2004.387163684583,1234
2006.3246381560011,1240
2008.2616424685298,1217
2010.1981768908527,1258
2012.1342416917332,1198
2014.069837140014,1176
2016.0049635046162,1205
2017.9396210545406,1213
2019.8738100588666,1256
2021.8075307867502,1212
2023.740783507431,1203
2025.6735684902228,1242
2027.6058860045214,1224
2029.5377363198004,1235
2031.4691197056118,1248
2033.4000364315875,1271
2035.3304867674374,1246
2037.260470982952,1229
2039.189989347998,1220
2041.1190421325232,1198
2043.047629606554,1193
2044.9757520401945,1203
2046.9034097036288,1183
2048.8306028671195,1226
2050.7573318010086,1222
2052.683596775716,1203
2054.609398061742,1189
2056.5347359296647,1217
2058.4596106501403,1153
2060.384022493906,1224
2062.3079717317764,1213
2064.231458634646,1198
2066.1544834734873,1254
2068.077046519352,1246
2069.99914804337,1200
2071.9207883167524,1199
2073.8419676107865,1275
2075.7626861968406,1193
2077.6829443463607,1261
2079.6027423308715,1253
2081.522080421977,1218
2083.440958891362,1243
2085.359378010786,1240
2087.2773380520907,1232
2089.194839287196,1205
2091.111881988101,1252
2093.0284664268825,1285
2094.9445928756973,1260
2096.86026160678,1163
2098.775472892446,1229
2100.690227005088,1216
2102.604524217178,1177
2104.5183648012676,1252
2106.431749029985,1221
2108.34467717604,1260
2110.2571495122206,1244
2112.169166311393,1241
2114.080727846503,1234
2115.9918343905747,1208
2117.902486216711,1231
2119.8126835980956,1231
2121.722426807987,1210
2123.6317161197285,1215
2125.5405518067364,1208
2127.448934142509,1232
2129.356863400624,1255
2131.264339854737,1155
2133.1713637785815,1206
2135.077935445972,1243
2136.9840551308002,1231
2138.889723107037,1227
2140.7949396487334,1229
2142.699705030018,1214
2144.6040195250994,1212
2146.507883408264,1245
2148.4112969538774,1269
2150.3142604363848,1297
2152.2167741303097,1256
2154.1188383102535,1230
2156.0204532508997,1199
2157.9216192270064,1233
2159.822336513414,1223
2161.7226053850413,1211
2163.622426116884,1219
2165.5217989840185,1204
2167.4207242616,1188
2169.319202224862,1255
2171.2172331491165,1268
2173.1148173097563,1233
2175.0119549822507,1310
2176.90864644215,1229
2178.8048919650823,1255
2180.7006918267534,1244
2182.596046302952,1192
2184.4909556695407,1255
2186.3854202024645,1214
2188.279440177746,1248
2190.173015871487,1233
2192.066147559868,1228
2193.958835519149,1200
2195.851080025667,1216
2197.7428813558417,1248
2199.6342397861667,1253
2201.5251555932186,1222
2203.415629053651,1274
2205.3056604441986,1277
2207.19525004167,1219
2209.084398122958,1255
2210.9731049650327,1245
2212.861370844941,1238
2214.749196039812,1169
2216.636580826851,1183
2218.523525483344,1221
2220.410030286655,1228
2222.296095514226,1225
2224.1817214435805,1247
2226.066908352319,1248
2227.951656518121,1250
2229.835966218746,1286
2231.71983773203,1261
2233.6032713358913,1237
2235.486267308324,1242
2237.3688259274036,1209
2239.2509474712824,1231
2241.132632218193,1213
2243.013880446447,1186
2244.8946924344323,1252
2246.7750684606203,1231
2248.6550088035574,1246
2250.534513741871,1284
2252.413583554265,1241
2254.292218519526,1251
2256.170418916517,1209
2258.0481850241786,1192
2259.925517121534,1245
2261.8024154876825,1217
2263.678880401803,1226
2265.5549121431536,1246
2267.430510991071,1232
2269.305677224971,1193
2271.180411124348,1237
2273.0547129687766,1268
2274.9285830379076,1262
2276.8020216114737,1219
2278.6750289692845,1246
2280.5476053912294,1220
2282.4197511572766,1203
2284.2914665474727,1216
2286.162751841943,1282
2288.0336073208937,1248
2289.904033264608,1233
2291.774029953448,1223
2293.6435976678554,1272
2295.5127366883517,1264
2297.381447295534,1191
2299.2497297700825,1288
2301.1175843927526,1259
2302.9850114443825,1220
2304.852011205885,1296
2306.7185839582553,1300
2308.5847299825664,1246
2310.4504495599676,1264
2312.3157429716925,1257
2314.1806104990483,1261
2316.0450524234247,1240
2317.9090690262888,1255
2319.772660589186,1274
2321.635827393742,1292
2323.498569721661,1289
2325.3608878547248,1292
2327.2227820747967,1277
2329.0842526638157,1268
2330.945299903803,1288
2332.805924076857,1294
2334.6661254651535,1262
2336.525904350951,1286
2338.3852610165827,1283
2340.244195744464,1265
2342.102708817088,1270
2343.9608005170253,1249
2345.8184711269287,1275
2347.675720929526,1256
2349.532550207628,1244
2351.38895924412,1268
2353.24494832197,1302
2355.100517724223,1327
2356.955667734004,1312
2358.810398634514,1283
2360.664710709037,1272
2362.5186042409337,1270
2364.3720795136437,1311
2366.225136810686,1257
2368.0777764156583,1244
2369.929998612237,1253
2371.7818036841777,1259
2373.633191915315,1235
2375.484163589562,1236
2377.3347189909114,1295
2379.184858403434,1276
2381.03458211128,1274
2382.8838903986775,1290
2384.732783549936,1265
2386.5812618494406,1298
2388.4293255816588,1314
2390.2769750311327,1304
2392.1242104824883,1258
2393.971032220427,1270
2395.8174405297295,1246
2397.6634356952563,1248
2399.509018001947,1258
2401.3541877348193,1280
2403.1989451789705,1273
2405.043290619576,1235
2406.8872243418905,1272
2408.730746631247,1339
2410.5738577730594,1279
2412.4165580528183,1280
2414.258847756095,1296
2416.100727168537,1344
2417.9421965758734,1296
2419.783256263912,1312
2421.623906518538,1339
2423.4641476257157,1253
2425.303979871491,1328
2427.143403541984,1299
2428.9824189233977,1259
2430.821026302012,1321
2432.6592259641866,1341
2434.497018196361,1336
2436.33440328505,1341
2438.171381516851,1336
2440.00795317844,1334
2441.844118556569,1294
2443.6798779380724,1338
2445.5152316098606,1298
2447.3501798589255,1355
2449.1847229723357,1331
2451.0188612372403,1272
2452.8525949408663,1355
2454.6859243705203,1253
2456.518849813587,1283
2458.3513715575314,1285
2460.183489889895,1293
2462.015205098301,1285
2463.8465174704493,1277
2465.67742729412,1301
2467.5079348571717,1344
2469.338040447542,1283
2471.1677443532476,1285
2472.9970468623833,1307
2474.825948263123,1322
2476.6544488437207,1316
2478.482548892508,1250
2480.310248697896,1328
2482.137548548374,1312
2483.9644487325118,1360
2485.790949538956,1303
2487.617051256433,1328
2489.44275417375,1352
2491.26805857979,1345
2493.0929647635157,1319
2494.917473013971,1306
2496.741583620276,1307
2498.5652968716304,1349
2500.3886130573137,1331
2502.2115324666834,1336
2504.0340553891765,1348
2505.856182114308,1348
2507.6779129316733,1319
2509.499248130945,1312
2511.3201880018764,1353
2513.140732834298,1388
2514.9608829181198,1326
2516.780638543331,1360
2518.6,1312
2520.418967578273,1354
2522.237541568376,1398
2524.0557222606144,1320
2525.8735099453706,1270
2527.6909049131086,1273
2529.507907454368,1370
2531.32451785977,1347
2533.140736420014,1411
2534.9565634258774,1306
2536.771999168218,1395
2538.5870439379714,1372
2540.4016980261526,1374
2542.2159617238544,1364
2544.02983532225,1421
2545.8433191125914,1472
2547.656413386209,1409
2549.4691184345115,1429
2551.2814345489874,1472
2553.093362021204,1465
2554.904901142808,1523
2556.716052205523,1400
2558.526815501153,1465
2560.3371913215824,1454
2562.147179958771,1514
2563.956781704761,1485
2565.7659968516705,1490
2567.5748256916986,1463
2569.3832685171224,1496
2571.1913256202984,1468
2572.9989972936614,1523
2574.806283829725,1534
2576.613185521084,1511
2578.4197026604074,1514
2580.2258355404483,1529
2582.031584454035,1501
2583.836949694077,1587
2585.6419315535613,1565
2587.4465303255533,1486
2589.2507463032002,1484
2591.0545797797245,1537
2592.8580310484303,1564
2594.6611004026995,1628
2596.463788135992,1584
2598.266094541849,1607
2600.0680199138874,1547
2601.869564545807,1611
2603.670728731383,1547
2605.4715127644704,1550
2607.2719169390048,1594
2609.071941548998,1571
2610.8715868885433,1565
2612.670853251811,1535
2614.469740933052,1566
2616.268250226594,1590
2618.0663814268455,1597
2619.864134828292,1574
2621.6615107255006,1592
2623.458509413115,1569
2625.2551311858597,1541
2627.0513763385347,1534
2628.8472451660223,1526
2630.6427379632833,1519
2632.4378550253564,1503
2634.232596647359,1469
2636.026963124488,1510
2637.8209547520187,1449
2639.6145718253065,1493
2641.407814639785,1532
2643.200683490966,1473
2644.9931786744414,1501
2646.7853004858807,1534
2648.577049221034,1489
2650.3684251757277,1421
2652.1594286458712,1483
2653.9500599274484,1499
2655.740319316525,1395
2657.5302071092437,1405
2659.3197236018286,1351
2661.10886909058,1430
2662.8976438718782,1456
2664.686048242183,1393
2666.4740824980327,1371
2668.2617469360443,1394
2670.0490418529134,1358
2671.8359675454153,1320
2673.622524310403,1344
2675.408712444811,1361
2677.1945322456495,1379
2678.979984010009,1321
2680.76506803506,1330
2682.5497846180497,1357
2684.334134056306,1374
2686.1181166472343,1302
2687.9017326883213,1299
2689.6849824771293,1264
2691.4678663113013,1328
2693.2503844885596,1333
2695.032537306705,1261
2696.8143250636167,1315
2698.5957480572542,1268
2700.3768065856534,1279
2702.1575009469316,1341
2703.937831439283,1319
2705.717798360982,1333
2707.4974020103837,1325
2709.276642685917,1317
2711.055520686095,1267
2712.834036309506,1315
2714.612189854819,1230
2716.389981620782,1296
2718.1674119062204,1274
2719.944481010041,1225
2721.721189231226,1287
2723.4975368688415,1232
2725.273524222027,1265
2727.0491515900053,1264
2728.824419272075,1225
2730.5993275676146,1234
2732.3738767760838,1241
2734.148067197016,1248
2735.921899130031,1217
2737.6953728748194,1278
2739.468488731156,1201
2741.2412469988926,1257
2743.0136479779617,1250
2744.785691968372,1234
2746.5573792702116,1268
2748.3287101836504,1218
2750.099685008934,1233
2751.870304046388,1240
2753.640567596418,1253
2755.4104759595057,1265
2757.1800294362156,1261
2758.949228327187,1301
2760.7180729331412,1290
2762.486563554877,1288
2764.254700493272,1212
2766.022484049284,1222
2767.789914523947,1243
2769.5569922183786,1244
2771.3237174337705,1214
2773.090090471394,1253
2774.8561116326036,1229
2776.6217812188274,1211
2778.3870995315756,1277
2780.1520668724356,1253
2781.9166835430747,1223
2783.6809498452394,1207
2785.444866080754,1216
2787.2084325515225,1229
2788.971649559527,1194
2790.73451740683,1185
2792.4970363955713,1234
2794.2592068279705,1239
2796.0210290063264,1207
2797.7825032330147,1180
2799.543629810493,1241
2801.304409041296,1232
2803.0648412280366,1215
2804.8249266734088,1246
2806.5846656801846,1229
2808.344058551212,1248
2810.1031055894246,1190
2811.8618070978273,1286
2813.6201633795085,1215
2815.378174737636,1232
2817.1358414754536,1242
2818.893163896285,1260
2820.6501423035334,1288
2822.4067770006814,1207
2824.1630682912883,1239
2825.9190164789957,1182
2827.6746218675207,1213
2829.429884760661,1230
2831.184805462294,1223
2832.9393842763743,1234
2834.693621506936,1289
2836.4475174580916,1226
2838.201072434034,1179
2839.954286739034,1223
2841.707160677441,1255
2843.459694553685,1228
2845.2118886722724,1203
2846.96374333779,1238
2848.7152588549034,1233
2850.4664355283567,1266
2852.217273662973,1238
2853.9677735636546,1217
2855.7179355353833,1191
2857.4677598832186,1224
2859.217246912299,1241
2860.9663969278427,1234
2862.715210235146,1234
2864.4636871395846,1262
2866.211827946614,1240
2867.9596329617652,1210
2869.7071024906536,1242
2871.4542368389684,1232
2873.20103631248,1192
2874.947501217038,1222
2876.6936318585695,1230
2878.4394285430812,1208
2880.1848915766604,1198
2881.9300212654707,1193
2883.6748179157553,1259
2885.4192818338374,1216
2887.1634133261173,1227
2888.907212699077,1303
2890.6506802592744,1283
2892.393816313348,1150
2894.1366211680142,1183
2895.8790951300693,1200
2897.621238506388,1262
2899.363051603925,1245
2901.1045347297118,1207
2902.8456881908596,1270
2904.58651229456,1257
2906.327007348081,1244
2908.067173658772,1187
2909.8070115340597,1241
2911.5465212814497,1267
2913.285703208527,1250
2915.0245576229563,1225
2916.7630848324807,1216
2918.5012851449196,1207
2920.2391588681758,1266
2921.976706310227,1238
2923.7139277791334,1201
2925.4508235830313,1280
2927.187394030137,1239
2928.923639428745,1223
2930.6595600872306,1245
2932.395156314046,1247
2934.1304284177218,1202
2935.8653767068713,1233
2937.6000014901815,1219
2939.3343030764227,1209
2941.068281774442,1253
2942.8019378931644,1205
2944.5352717415976,1231
2946.2682836288236,1228
2948.0009738640065,1196
2949.7333427563885,1249
2951.465390615289,1209
2953.1971177501086,1221
2954.9285244703265,1261
2956.6596110855,1206
2958.3903779052657,1235
2960.1208252393385,1212
2961.8509533975125,1209
2963.5807626896617,1166
2965.3102534257378,1202
2967.0394259157715,1201
2968.768280469873,1249
2970.496817398232,1185
2972.2250370111146,1230
2973.952939618869,1242
2975.6805255319196,1256
2977.4077950607707,1222
2979.134748516006,1231
2980.861386208289,1258
2982.587708448359,1241
2984.313715547037,1221
2986.039407815222,1243
2987.764785563891,1243
2989.489849104102,1240
2991.2145987469908,1249
2992.9390348037705,1247
2994.6631575857346,1206
2996.3869674042576,1195
2998.1104645707887,1264
2999.83364939686,1272
3001.5565221940783,1224
3003.2790832741334,1243
3005.0013329487924,1229
3006.7232715298996,1244
3008.4448993293804,1184
3010.166216659239,1207
3011.887223831558,1250
3013.607921158498,1232
3015.3283089522993,1213
3017.0483875252826,1224
3018.7681571898443,1199
3020.4876182584626,1190
3022.2067710436927,1230
3023.9256158581707,1184
3025.644153014609,1240
3027.362382825801,1224
3029.0803056046193,1275
3030.797921664012,1217
3032.5152313170106,1217
3034.2322348767225,1198
3035.9489326563353,1185
3037.665324969115,1269
3039.3814121284063,1204
3041.097194447633,1240
3042.812672240299,1229
3044.5278458199855,1180
3046.2427155003525,1199
3047.9572815951406,1263
3049.671544418167,1225
3051.38550428333,1203
3053.0991615046073,1235
3054.812516396051,1201
3056.5255692717974,1210
3058.2383204460575,1210
3059.9507702331257,1211
3061.662918947372,1227
3063.3747669032446,1263
3065.0863144152736,1213
3066.7975617980674,1233
3068.508509366309,1217
3070.219157434767,1255
3071.9295063182844,1177
3073.639556331785,1240
3075.3493077902704,1235
3077.058761008821,1253
3078.7679163025964,1231
3080.476773986837,1232
3082.1853343768594,1284
3083.89359778806,1225
3085.6015645359153,1219
3087.3092349359786,1278
3089.016609303884,1236
3090.7236879553434,1190
3092.4304712061476,1206
3094.136959372166,1218
3095.843152769349,1244
3097.5490517137237,1212
3099.2546565213966,1225
3100.959967508554,1217
3102.66498499146,1188
3104.3697092864577,1209
3106.0741407099695,1242
3107.778279578498,1277
3109.482126208622,1217
3111.1856809170004,1253
3112.8889440203716,1328
3114.5919158355528,1210
3116.294596679439,1232
3117.996986869006,1198
3119.6990867213062,1212
3121.4008965534726,1207
3123.102416682717,1284
3124.803647426329,1267
3126.5045891016784,1227
3128.205242026213,1241
3129.90560651746,1258
3131.605682893025,1217
3133.3054714705922,1218
3135.0049725679282,1268
3136.7041865028714,1257
3138.4031135933465,1258
3140.101754157353,1271
3141.800108512971,1233
3143.498176978357,1199
3145.1959598717494,1209
3146.8934575114636,1248
3148.5906702158954,1211
3150.2875983035183,1193
3151.9842420928853,1216
3153.680601902627,1251
3155.376678051456,1263
3157.07247085816,1210
3158.767980641609,1286
3160.463207720748,1246
3162.158152414606,1173
3163.8528150422862,1221
3165.5471959229726,1246
3167.2412953759303,1261
3168.9351137204976,1219
3170.628651276098,1190
3172.3219083622307,1224
3174.014885298474,1222
3175.707582404485,1183
3177.4000000000005,1200
3179.092138404835,1242
3180.7839979388846,1204
3182.47557892212,1238
3184.166881674594,1207
3185.8579065164386,1194
3187.5486537678626,1211
3189.2391237491547,1189
3190.9293167806827,1228
3192.6192331828934,1217
3194.3088732763117,1258
3195.998237381542,1226
3197.687325819268,1221
3199.376138910251,1260
3201.064676975334,1205
3202.7529403354347,1226
3204.4409293115523,1156
3206.1286442247647,1179
3207.816085396229,1219
3209.5032531471825,1184
3211.190147798936,1191
3212.8767696728846,1181
3214.5631190905015,1169
3216.2491963733373,1218
3217.9350018430214,1175
3219.6205358212637,1164
3221.305798629851,1138
3222.990790590651,1132
3224.6755120256103,1191
3226.359963256751,1201
3228.0441446061795,1203
3229.7280563960758,1210
3231.411698948703,1229
3233.0950725863995,1132
3234.778177631587,1268
3236.461014406761,1208
3238.1435832345005,1223
3239.8258844374595,1214
3241.507918338374,1181
3243.1896852600576,1181
3244.8711855254023,1228
3246.552419457381,1182
3248.233387379042,1249
3249.914089613516,1165
3251.59452648401,1184
3253.274698313813,1240
3254.95460542629,1217
3256.6342481448855,1239
3258.313626793125,1136
3259.9927416946084,1164
3261.6715931730196,1166
3263.3501815521176,1194
3265.0285071557437,1182
3266.706570307815,1185
3268.3843713323286,1217
3270.0619105533615,1205
3271.739188295068,1235
3273.4162048816834,1217
3275.0929606375184,1177
3276.769455886966,1224
3278.445690954498,1206
3280.1216661646613,1203
3281.797381842087,1192
3283.4728383114807,1188
3285.1480358976296,1218
3286.8229749253996,1233
3288.4976557197333,1205
3290.172078605655,1135
3291.846243908266,1159
3293.5201519527463,1185
3295.193803064357,1234
3296.8671975684374,1202
3298.5403357904024,1212
3300.21321805575,1246
3301.8858446900567,1243
3303.558216018975,1151
3305.23033236824,1197
3306.9021940636603,1197
3308.57380143113,1220
3310.2451547966184,1184
3311.916254486174,1149
3313.5871008259246,1175
3315.2576941420766,1195
3316.9280347609147,1172
3318.5981230088046,1149
3320.2679592121895,1183
3321.9375436975924,1191
3323.606876791612,1177
3325.27595882093,1138
3326.944790112305,1167
3328.6133709925753,1136
3330.2817017886573,1171
3331.949782827547,1227
3333.617614436319,1235
3335.2851969421245,1245
3336.952530672199,1202
3338.619615953853,1170
3340.286453114475,1225
3341.9530424815357,1241
3343.619384382583,1207
3345.2854791452437,1219
3346.951327097224,1191
3348.6169285663073,1184
3350.2822838803577,1190
3351.947393367319,1183
3353.61225735521,1156
3355.2768761721345,1243
3356.9412501462693,1197
3358.605379605873,1155
3360.2692648792827,1159
3361.9329062949146,1185
3363.596304181263,1191
