CollectionTime,6/28/2024 3:05:19 PM
ExposureUsed,3
CalibratedSpectrum
-962.7078968117929,716
-959.9714848408522,778
-957.2358232597828,785
-954.5009119013725,767
-951.7667505983302,788
-949.0333391832855,724
-946.3006774887896,803
-943.5687653473143,750
-940.837602591253,795
-938.1071890529199,786
-935.3775245645503,792
-932.6486089583007,757
-929.9204420662485,794
-927.1930237203925,796
-924.4663537526524,768
-921.7404319948689,756
-919.0152582788041,803
-916.2908324361409,756
-913.5671542984834,800
-910.8442236973568,777
-908.1220404642074,787
-905.4006044304027,760
-902.679915427231,779
-899.959973285902,780
-897.2407778375464,784
-894.5223289132158,771
-891.8046263438832,765
-889.0876699604426,720
-886.3714595937089,723
-883.6559950744183,764
-880.9412762332282,722
-878.2273029007168,738
-875.5140749073835,697
-872.8015920836489,730
-870.0898542598545,728
-867.3788612662631,699
-864.6686129330585,663
-861.9591090903457,721
-859.2503495681506,700
-856.5423341964203,751
-853.8350628050229,708
-851.1285352237478,731
-848.4227512823054,735
-845.7177108103272,715
-843.0134136373656,698
-840.3098595928943,733
-837.6070485063082,734
-834.9049802069229,714
-832.2036545239757,677
-829.5030712866244,715
-826.8032303239481,683
-824.1041314649472,749
-821.4057745385428,725
-818.7081593735775,722
-816.0112857988148,697
-813.3151536429393,667
-810.6197627345566,715
-807.9251129021936,683
-805.2312039742981,698
-802.5380357792392,734
-799.8456081453069,700
-797.1539209007124,753
-794.462973873588,702
-791.772766891987,703
-789.083299783884,707
-786.3945723771743,669
-783.7065844996748,711
-781.0193359791231,735
-778.3328266431781,731
-775.6470563194197,731
-772.9620248353489,700
-770.2777320183878,701
-767.5941776958798,735
-764.9113616950891,723
-762.2292838432011,719
-759.5479439673222,695
-756.8673418944801,677
-754.1874774516235,681
-751.5083504656222,744
-748.8299607632671,722
-746.15230817127,727
-743.475392516264,739
-740.7992136248035,764
-738.1237713233636,730
-735.4490654383407,732
-732.7750957960521,791
-730.1018622227365,770
-727.4293645445534,720
-724.7576025875837,776
-722.0865761778291,767
-719.4162851412126,769
-716.7467293035781,780
-714.0779084906909,824
-711.409822528237,786
-708.7424712418238,793
-706.0758544569796,781
-703.4099719991541,801
-700.7448236937178,863
-698.0804093659622,804
-695.4167288411002,816
-692.7537819442656,774
-690.0915685005134,799
-687.4300883348199,780
-684.7693412720819,845
-682.1093271371178,835
-679.4500457546669,832
-676.7914969493897,829
-674.1336805458676,805
-671.4765963686034,827
-668.8202442420206,828
-666.1646239904642,874
-663.5097354382001,843
-660.8555784094151,833
-658.2021527282176,835
-655.5494582186366,844
-652.8974947046223,866
-650.2462620100463,884
-647.5957599587009,909
-644.9459883742998,855
-642.2969470804776,904
-639.6486359007902,903
-637.0010546587141,870
-634.3542031776476,844
-631.7080812809096,868
-629.0626887917401,830
-626.4180255333008,854
-623.7740913286734,840
-621.1308860008619,820
-618.4884093727904,847
-615.8466612673046,847
-613.2056415071715,848
-610.5653499150785,826
-607.9257863136347,796
-605.28695052537,796
-602.6488423727357,843
-600.0114616781036,823
-597.3748082637674,829
-594.7388819519412,877
-592.1036825647604,852
-589.4692099242818,831
-586.8354638524829,793
-584.2024441712624,830
-581.5701507024403,855
-578.9385832677575,831
-576.3077416888759,839
-573.6776257873787,839
-571.0482353847704,810
-568.4195703024757,923
-565.7916303618415,887
-563.164415384135,874
-560.5379251905453,886
-557.9121596021815,880
-555.2871184400748,861
-552.6628015251767,856
-550.0392086783606,852
-547.4163397204204,889
-544.794194472071,861
-542.1727727539491,873
-539.5520743866118,866
-536.9320991905377,955
-534.3128469861261,960
-531.6943175936979,935
-529.0765108334947,983
-526.4594265256793,1098
-523.8430644903358,1246
-521.2274245474689,1278
-518.612506517005,1361
-515.9983102187913,1486
-513.3848354725959,1520
-510.77208209810846,1587
-508.16004991493924,1780
-505.5487387426199,1834
-502.9381484006032,2006
-500.3282787082628,1978
-497.71912948489364,2001
-495.1107005497117,1877
-492.5029917218539,1769
-489.8960028203786,1556
-487.28973366426493,1381
-484.68418407241325,1299
-482.07935386364494,1172
-479.47524285670266,1104
-476.87185087025,1109
-474.2691777228715,1136
-471.66722323307334,1102
-469.0659872192821,1101
-466.4654694998459,1088
-463.86566989303384,1062
-461.26658821703614,1088
-458.66822428996414,1051
-456.07057792985,1067
-453.4736489546475,1061
-450.877437182231,1050
-448.28194243039627,1012
-445.68716451686,1053
-443.09310325926003,1040
-440.49975847515555,1008
-437.9071299820263,1014
-435.31521759727354,1055
-432.72402113821954,1046
-430.13354042210767,1073
-427.5437752661022,1064
-424.95472548728867,1123
-422.36639090267386,1075
-419.7787713291855,1101
-417.1918665836721,1108
-414.60567648290385,1090
-412.0202008435715,1111
-409.4354394822874,1114
-406.8513922155845,1109
-404.26805885991723,1108
-401.685439231661,1088
-399.103533147112,1166
-396.522340422488,1151
-393.9418608739278,1086
-391.3620943174908,1059
-388.7830405691583,1024
-386.2046994448317,1070
-383.6270707603344,908
-381.05015433141045,837
-378.473949973725,857
-375.8984575028645,797
-373.32367673433623,694
-370.74960748356875,701
-368.1762495659117,672
-365.60360279663576,598
-363.03166699093265,577
-360.4604419639154,582
-357.8899275306178,544
-355.32012350599507,512
-352.7510297049233,523
-350.1826459421999,512
-347.61497203254316,521
-345.04800779059235,502
-342.4817530309082,513
-339.91620756797226,499
-337.35137121618743,461
-334.7872437898774,475
-332.22382510328725,474
-329.66111497058273,518
-327.09911320585127,547
-324.53781962310075,526
-321.9772340362607,550
-319.4173562591816,569
-316.8581861056348,574
-314.2997233893127,544
-311.7419679238294,580
-309.1849195227194,550
-306.62857799943856,513
-304.0729431673641,478
-301.51801483979375,517
-298.963792829947,513
-296.41027695096386,550
-293.85746701590574,592
-291.3053628377552,629
-288.7539642294155,552
-286.2032710037115,516
-283.65328297338897,523
-281.1039999511146,545
-278.5554217494762,566
-276.007548180983,579
-273.4603790580651,652
-270.9139141930734,604
-268.3681533982807,620
-265.8230964858798,613
-263.27874326798565,633
-260.7350935566336,664
-258.1921471637804,672
-255.6499039013039,609
-253.10836358100266,614
-250.56752601459698,600
-248.02739101372765,719
-245.48795838995704,751
-242.94922795476816,729
-240.41119951956557,736
-237.8738728956746,729
-235.33724789434166,689
-232.80132432673452,728
-230.2661020039418,789
-227.73158073697357,736
-225.19776033676033,661
-222.66464061415422,702
-220.1322213799284,714
-217.60050244477725,721
-215.06948361931552,697
-212.53916471408013,671
-210.00954553952818,685
-207.48062590603843,763
-204.9524056239104,882
-202.4248845033651,902
-199.8980623545441,801
-197.37193898751036,742
-194.84651421224817,740
-192.32178783866232,799
-189.79775967657952,723
-187.27442953574644,765
-184.7517972258321,777
-182.2298625564256,790
-179.7086253370378,755
-177.18808537710026,805
-174.66824248596583,819
-172.14909647290835,875
-169.6306471471229,862
-167.11289431772548,836
-164.59583779375328,838
-162.07947738416453,821
-159.5638128978386,854
-157.04884414357605,956
-154.53457093009854,966
-152.02099306604828,953
-149.50811035998936,935
-146.99592262040665,980
-144.48442965570587,971
-141.97363127421409,946
-139.46352728417958,950
-136.95411749377126,918
-134.44540171107985,1096
-131.93737974411636,1110
-129.43005140081357,1184
-126.92341648902493,1194
-124.41747481652521,1255
-121.91222619101006,1233
-119.40767042009657,1159
-116.90380731132257,1252
-114.40063667214702,1361
-111.8981583099503,1244
-109.3963720320337,1428
-106.89527764561933,1559
-104.39487495785067,1435
-101.89516377579241,1445
-99.39614390642998,1515
-96.89781515667039,1582
-94.40017733334128,1837
-91.90323024319173,1945
-89.40697369289148,1782
-86.91140748903172,1728
-84.41653143812482,1745
-81.92234534660395,1754
-79.42884902082358,1772
-76.93604226705907,1791
-74.4439248915071,1755
-71.95249670028534,1875
-69.46175749943245,2015
-66.97170709490854,2239
-64.48234529259423,2792
-61.99367189829195,2195
-59.50568671772464,2183
-57.01838955653636,2551
-54.53178022029283,2818
-52.045858514480074,2681
-49.560624244506016,2730
-47.07607721569923,2910
-44.59221723330904,3169
-42.10904410250669,2781
-39.62655762838392,3598
-37.14475761595372,4865
-34.66364387015028,5254
-32.18321619582866,5617
-29.70347439776515,6299
-27.224418280657005,8140
-24.74604764912317,11629
-22.26836230770266,18546
-19.7913620608565,29875
-17.315046712966478,39122
-14.83941606833514,42402
-12.36446993118659,65029
-9.89020810566592,65029
-7.416630395839093,65029
-4.94373660569363,65029
-2.471526539137585,65029
-6.821210263296962E-13,65029
2.47084320796705,65029
4.941003281093458,65029
7.410480415786196,65029
9.879274808531363,65029
12.347386655893956,65029
14.814816154518212,65029
17.28156350112681,65029
19.74762889252179,65029
22.21301252558385,65029
24.67771459727237,45161
27.141735304626195,18174
29.605074844762612,13184
32.06773341487792,8973
34.52971121224755,6737
36.99100843422559,7195
39.45162527824516,7731
41.91156194181792,5875
44.370818622535126,6693
46.82939551806646,8408
49.287292826160524,8410
51.74451074464503,8493
54.201049471426245,7410
56.65690920448981,6038
59.112090141899785,4704
61.56659248179983,3453
64.02041642241159,2415
66.4735621620365,2701
68.92602989905402,2206
71.37781983192338,2126
73.82893215918205,2525
76.27936707944684,2366
78.72912479141326,2430
81.17820549385567,2453
83.62660938562783,2152
86.07433666566146,2065
88.5213875329681,2259
90.96776218663751,2157
93.41346082583925,2056
95.85848364982041,1830
98.30283085790859,1860
100.7465026495089,1928
103.18949922410604,1861
105.63182078126385,2003
108.07346752062438,1728
110.51443964190923,1564
112.95473734491827,1488
115.39436082953114,1506
117.83331029570547,1547
120.27158594347827,1754
122.7091879729652,1440
125.1461165843615,1536
127.58237197794062,1449
130.01795435405518,1333
132.4528639131364,1414
134.88710085569494,1472
137.32066538231982,1422
139.75355769367923,1447
142.1857779905207,1432
144.61732647366978,1551
147.04820334403132,1538
149.47840880258934,1509
151.90794305040674,1586
154.33680628862487,1782
156.76499871846443,1689
159.19252054122433,1924
161.61937195828352,1966
164.04555317109896,2063
166.47106438120693,2345
168.89590579022217,2706
171.320077599839,2660
173.7435800118302,2737
176.16641322804742,2834
178.58857745042144,2974
181.01007288096173,2921
183.43089972175687,3109
185.85105817497413,3028
188.27054844285988,3031
190.6893707277394,3007
193.10752523201643,3033
195.5250121581745,3080
197.9418317087751,3068
200.3579840864594,3148
202.7734694939469,3112
205.18828813403627,3132
207.6024402096051,3055
210.01592592360964,3004
212.42874547908548,3078
214.84089907914665,2897
217.2523869269868,3056
219.66320922587727,3089
222.0733661791695,3047
224.48285799029293,2918
226.8916848627572,3103
229.29984700014882,3232
231.7073446061355,3348
234.11417788446204,3153
236.520347038953,3271
238.92585227351185,3317
241.33069379212054,3591
243.73487179884035,3577
246.1383864978112,3535
248.541238093252,3660
250.9434267894609,3700
253.34495279081432,3651
255.74581630176783,3736
258.1460175268563,3884
260.54555667069314,3852
262.9444339379703,3752
265.3426495334594,3751
267.7402036620107,3559
270.1370965285529,3223
272.53332833809407,3088
274.9288992957214,3041
277.32380960660055,3019
279.718059475976,2842
282.1116491091717,2822
284.5045787115897,2882
286.89684848871195,2847
289.2884586460981,2767
291.67940938938807,2772
294.0697009242996,2681
296.4593334566299,2701
298.84830719225477,2929
301.23662233712923,2650
303.6242790972866,2742
306.01127767884,2613
308.39761828798066,2662
310.78330113097934,2627
313.16832641418534,2537
315.5526943440269,2522
317.9364051270112,2457
320.3194589697242,2413
322.70185607883093,2440
325.0835966610754,2370
327.4646809232805,2335
329.8451090723478,2317
332.2248813152577,2293
334.6039978590701,2354
336.9824589109231,2320
339.36026467803447,2332
341.7374153677,2356
344.113911187295,2267
346.48975234427337,2204
348.8649390461686,2209
351.2394715005918,2126
353.61334991523415,2185
355.9865744978655,2181
358.35914545633375,2209
360.73106299856715,2166
363.10232733257146,2203
365.47293866643247,2222
367.84289720831396,2150
370.2122031664593,2155
372.5808567491905,2101
374.9488581649083,2136
377.31620762209275,2096
379.6829053293021,2143
382.0489514951745,2033
384.4143463284262,2072
386.7790900378528,2066
389.14318283232853,1985
391.50662492080653,2117
393.86941651231916,2043
396.23155781597745,2088
398.5930490409713,2020
400.9538903965696,2041
403.3140820921202,2094
405.6736243370498,1912
408.03251734086336,2003
410.3907613131465,2035
412.74835646356166,2052
415.10530300185144,1991
417.4616011378372,2073
419.81725108141893,2069
422.1722530425758,2040
424.5266072313656,2019
426.880313857925,2030
429.2333731324701,1996
431.58578526529516,1938
433.9375504667738,2019
436.2886689473588,1887
438.63914091758113,2001
440.9889665880513,1994
443.33814616945835,1905
445.68667987257015,1897
448.03456790823395,1957
450.3818104873759,1868
452.72840782100013,1950
455.07436012019105,1970
457.41966759611057,1950
459.7643304600007,1954
462.10834892318155,1869
464.4517231970525,1944
466.79445349309174,1875
469.1365400228566,1891
471.4779829979826,2027
473.81878263018564,2002
476.15893913125876,1996
478.4984527130747,1985
480.8373235875855,2089
483.17555196682144,2095
485.5131380628919,2117
487.8500820879857,2205
490.1863842543697,2294
492.52204477439034,2375
494.8570638604725,2553
497.1914417251204,2897
499.52517858091653,3232
501.85827464052306,3351
504.19073011668036,3494
506.5225452222086,3541
508.85372017000566,3565
511.18425517304956,3573
513.514150444396,3681
515.8434061971808,4140
518.1720226446176,4563
520.4999999999999,4851
522.8273384766991,5090
525.1540382881666,5273
527.480099647932,4964
529.8055227696037,3820
532.1303078668694,2784
534.454455153496,2250
536.777964843328,2052
539.1008371502907,1885
541.4230722883866,1898
543.744670471698,1918
546.0656319143858,1865
548.3859568306899,1895
550.7056454349294,1841
553.0246979415016,1795
555.3431145648834,1819
557.6608955196306,1758
559.978041020377,1742
562.2945512818363,1788
564.6104265188006,1787
566.9256669461412,1733
569.2402727788082,1760
571.5542442318302,1806
573.8675815203156,1707
576.1802848594508,1814
578.4923544645015,1711
580.8037905508126,1689
583.114593333807,1780
585.4247630289875,1780
587.7342998519354,1727
590.0432040183106,1848
592.3514757438526,1788
594.6591152443794,1736
596.9661227357875,1723
599.2724984340531,1742
601.578242555231,1762
603.8833553154542,1811
606.1878369309362,1789
608.4916876179676,1768
610.7949075929192,1801
613.0974970722403,1817
615.3994562724587,1706
617.7007854101818,1797
620.0014847020951,1791
622.3015543649641,1819
624.6009946156324,1747
626.8998056710224,1798
629.1979877481361,1781
631.4955410640538,1835
633.7924658359349,1801
636.0887622810175,1836
638.3844306166192,1874
640.6794710601358,1820
642.9738838290426,1829
645.2676691408932,1816
647.5608272133207,1847
649.853358264037,1857
652.1452625108324,1814
654.4365401715764,1842
656.7271914642178,1882
659.0172166067838,1884
661.3066158173809,1930
663.5953893141935,1871
665.8835373154867,1859
668.1710600396028,1870
670.4579577049639,1956
672.7442305300709,1971
675.0298787335033,1863
677.3149025339197,1890
679.599302150058,1958
681.8830778007342,1876
684.1662297048437,1885
686.4487580813608,1924
688.7306631493387,1883
691.0119451279091,1889
693.2926042362834,1869
695.5726406937516,1893
697.8520547196814,1883
700.1308465335215,1870
702.4090163547982,1911
704.6865644031171,1815
706.9634908981619,1928
709.2397960596965,1875
711.5154801075631,1932
713.7905432616823,1868
716.0649857420548,1825
718.3388077687592,1881
720.612009561953,1813
722.8845913418733,1898
725.1565533288352,1845
727.427895743234,1829
729.6986188055427,1893
731.9687227363137,1801
734.238207756178,1842
736.5070740858458,1809
738.7753219461066,1918
741.0429515578281,1795
743.3099631419569,1861
745.5763569195191,1816
747.8421331116193,1835
750.1072919394409,1810
752.3718336242467,1841
754.6357583873777,1807
756.8990664502545,1777
759.1617580343765,1816
761.423833361321,1816
763.6852926527457,1836
765.9461361303862,1796
768.206364016058,1804
770.4659765316536,1831
772.7249738991469,1823
774.9833563405886,1874
777.2411240781092,1850
779.4982773339183,1788
781.7548163303044,1875
784.010741289634,1817
786.2660524343538,1991
788.5207499869881,1797
790.7748341701416,1855
793.0283052064964,1830
795.2811633188143,1804
797.5334087299362,1894
799.7850416627813,1824
802.0360623403484,1889
804.2864709857143,1854
806.5362678220353,1782
808.7854530725468,1853
811.0340269605625,1836
813.2819897094754,1898
815.5293415427581,1862
817.77608268396,1821
820.0222133567116,1870
822.2677337847211,1878
824.5126441917765,1880
826.7569448017433,1799
829.0006358385675,1885
831.2437175262731,1857
833.4861900889629,1790
835.7280537508192,1836
837.9693087361026,1849
840.2099552691533,1920
842.4499935743896,1859
844.689423876309,1848
846.9282463994886,1839
849.1664613685833,1809
851.4040690083276,1832
853.6410695435349,1817
855.877463199097,1883
858.1132501999847,1859
860.3484307712487,1819
862.5830051380175,1845
864.8169735254988,1874
867.0503361589791,1866
869.2830932638243,1905
871.5152450654786,1863
873.7467917894654,1961
875.9777336613873,1908
878.2080709069252,1929
880.4378037518389,1963
882.666932421968,1932
884.8954571432301,1919
887.1233781416219,1942
889.3506956432192,1913
891.5774098741766,1923
893.803521060728,1928
896.0290294291852,1882
898.2539352059397,1951
900.4782386174619,1998
902.7019398903011,1887
904.925039251085,1920
907.147536926521,1910
909.3694331433943,1930
911.59072812857,1868
913.8114221089921,1950
916.0315153116827,1902
918.2510079637437,1904
920.4699002923547,1895
922.6881925247761,1852
924.905884888345,1899
927.1229776104793,1906
929.3394709186747,1944
931.555365040506,1901
933.7706602036275,1940
935.9853566357709,1964
938.1994545647489,1878
940.4129542184515,2015
942.6258558248488,1888
944.8381596119883,1905
947.0498658079974,1891
949.2609746410825,1977
951.4714863395287,1874
953.6814011316998,1887
955.8907192460387,1904
958.0994409110671,1888
960.3075663553858,1862
962.5150958076741,1904
964.7220294966913,1851
966.928367651274,1790
969.1341105003388,1903
971.3392582728806,1902
973.5438111979742,1791
975.747769504772,1841
977.9511334225061,1764
980.153903180487,1774
982.3560790081052,1815
984.5576611348289,1795
986.7586497902058,1684
988.9590452038618,1759
991.158847605503,1749
993.3580572249133,1720
995.5566742919558,1656
997.7546990365728,1690
999.952131688785,1676
1002.1489724786926,1632
1004.3452216364743,1628
1006.5408793923874,1675
1008.7359459767691,1616
1010.9304216200343,1598
1013.1243065526781,1578
1015.3176010052733,1526
1017.510305208472,1541
1019.7024193930064,1532
1021.8939437896848,1580
1024.0848786293977,1468
1026.2752241431122,1487
1028.4649805618747,1482
1030.6541481168115,1553
1032.842727039127,1564
1035.0307175601051,1535
1037.2181199111074,1516
1039.4049343235752,1527
1041.591161029029,1485
1043.7768002590683,1489
1045.9618522453698,1565
1048.1463172196918,1515
1050.3301954138697,1514
1052.513487059818,1536
1054.69619238953,1572
1056.8783116350783,1413
1059.0598450286152,1518
1061.2407928023704,1581
1063.4211551886528,1533
1065.6009324198508,1487
1067.780124728432,1443
1069.9587323469414,1476
1072.1367555080046,1489
1074.314194444325,1442
1076.4910493886855,1459
1078.667320573947,1504
1080.843008233051,1399
1083.0181125990161,1439
1085.1926339049414,1512
1087.3665723840027,1450
1089.5399282694575,1430
1091.7127017946405,1436
1093.8848931929647,1437
1096.0565026979243,1394
1098.2275305430899,1433
1100.3979769621128,1370
1102.567842188722,1372
1104.737126456726,1375
1106.9058300000124,1400
1109.0739530525475,1457
1111.2414958483764,1325
1113.4084586216231,1436
1115.5748416064907,1400
1117.7406450372605,1456
1119.9058691482942,1374
1122.0705141740304,1376
1124.2345803489884,1361
1126.3980679077658,1346
1128.5609770850388,1401
1130.7233081155623,1403
1132.8850612341707,1402
1135.0462366757774,1340
1137.2068346753745,1433
1139.3668554680326,1380
1141.526299288901,1410
1143.68516637321,1362
1145.8434569562655,1338
1148.001171273455,1358
1150.158309560244,1348
1152.3148720521767,1325
1154.470858984876,1411
1156.626270594044,1333
1158.7811071154629,1343
1160.9353687849912,1433
1163.089055838569,1378
1165.242168512213,1400
1167.3947070420209,1335
1169.5466716641677,1403
1171.6980626149075,1352
1173.8488801305748,1358
1175.9991244475814,1305
1178.1487958024186,1358
1180.2978944316555,1344
1182.4464205719428,1400
1184.5943744600072,1394
1186.7417563326567,1375
1188.8885664267755,1319
1191.0348049793297,1320
1193.1804722273619,1311
1195.325568407995,1392
1197.4700937584303,1361
1199.614048515948,1381
1201.7574329179074,1342
1203.900247201746,1398
1206.042491604982,1363
1208.1841663652099,1393
1210.3252717201053,1367
1212.465807907422,1403
1214.6057751649923,1370
1216.7451737307279,1412
1218.8840038426192,1390
1221.0222657387353,1340
1223.1599596572241,1360
1225.2970858363137,1368
1227.4336445143094,1409
1229.5696359295966,1338
1231.705060320639,1410
1233.8399179259786,1337
1235.9742089842384,1414
1238.107933734118,1411
1240.2410924143974,1427
1242.373685263935,1400
1244.5057125216676,1358
1246.6371744266116,1399
1248.7680712178621,1388
1250.898403134593,1369
1253.028170416058,1366
1255.1573733015875,1447
1257.2860120305932,1429
1259.4140868425648,1357
1261.54159797707,1436
1263.6685456737569,1400
1265.7949301723515,1436
1267.9207517126597,1409
1270.046010534565,1411
1272.1707068780306,1446
1274.2948409830983,1405
1276.4184130898889,1434
1278.541423438603,1420
1280.6638722695184,1407
1282.785759822993,1434
1284.9070863394636,1426
1287.0278520594447,1483
1289.1480572235314,1476
1291.2677020723963,1472
1293.3867868467923,1492
1295.5053117875495,1567
1297.623277135579,1463
1299.740683131868,1551
1301.8575300174857,1561
1303.973818033578,1492
1306.0895474213703,1550
1308.2047184221678,1502
1310.3193312773528,1484
1312.4333862283888,1564
1314.5468835168163,1509
1316.659823384255,1533
1318.7722060724045,1508
1320.8840318230418,1594
1322.9953008780249,1578
1325.1060134792888,1565
1327.2161698688478,1540
1329.3257702887959,1500
1331.4348149813054,1510
1333.5433041886276,1537
1335.6512381530933,1526
1337.7586171171101,1517
1339.8654413231675,1503
1341.9717110138317,1520
1344.0774264317488,1530
1346.1825878196432,1529
1348.2871954203192,1470
1350.3912494766587,1569
1352.4947502316231,1436
1354.5976979282532,1521
1356.7000928096686,1491
1358.8019351190665,1519
1360.9032250997243,1533
1363.0039629949988,1530
1365.1041490483235,1478
1367.2037835032133,1542
1369.3028666032606,1537
1371.401398592137,1494
1373.4993797135926,1501
1375.5968102114575,1547
1377.6936903296396,1518
1379.7900203121262,1531
1381.8858004029835,1514
1383.9810308463561,1542
1386.075711886469,1523
1388.1698437676241,1498
1390.2634267342032,1623
1392.356461030667,1550
1394.4489469015557,1561
1396.5408845914872,1486
1398.6322743451592,1616
1400.7231164073469,1609
1402.813411022907,1597
1404.903158436773,1580
1406.9923588939578,1610
1409.0810126395531,1575
1411.1691199187303,1631
1413.2566809767386,1588
1415.343696058907,1685
1417.4301654106425,1658
1419.5160892774315,1592
1421.6014679048399,1685
1423.6863015385125,1664
1425.7705904241707,1695
1427.8543348076178,1670
1429.9375349347342,1676
1432.0201910514802,1710
1434.102303403894,1757
1436.1838722380944,1755
1438.2648978002767,1737
1440.3453803367174,1832
1442.4253200937692,1881
1444.5047173178677,1889
1446.5835722555234,1882
1448.6618851533285,1944
1450.739656257952,1954
1452.8168858161434,1929
1454.8935740747306,1962
1456.96972128062,2018
1459.045327680797,2046
1461.120393522327,2072
1463.1949190523528,2099
1465.2689045180973,2115
1467.3423501668608,2188
1469.415256246024,2224
1471.4876230030463,2289
1473.559450685465,2283
1475.6307395408976,2374
1477.7014898170391,2336
1479.771701761665,2386
1481.8413756226287,2405
1483.9105116478618,2529
1485.9791100853772,2553
1488.0471711832643,2623
1490.1146951896926,2595
1492.1816823529098,2647
1494.2481329212433,2670
1496.3140471430984,2702
1498.3794252669609,2776
1500.4442675413939,2742
1502.5085742150404,2809
1504.572345536622,2877
1506.6355817549388,2862
1508.6982831188702,2921
1510.7604498773744,2865
1512.8220822794883,2933
1514.8831805743293,2931
1516.9437450110909,2976
1519.003775839048,3025
1521.0632733075522,3046
1523.1222376660367,3230
1525.1806691640113,3169
1527.2385680510652,3153
1529.2959345768668,3122
1531.3527689911643,3271
1533.4090715437833,3287
1535.4648424846291,3376
1537.5200820636855,3390
1539.5747905310159,3458
1541.6289681367616,3488
1543.6826151311434,3604
1545.7357317644614,3540
1547.7883182870937,3564
1549.8403749494987,3667
1551.8919020022113,3707
1553.9428996958477,3831
1555.9933682811015,3804
1558.0433080087469,3965
1560.0927191296346,4042
1562.1416018946961,4144
1564.1899565549415,4234
1566.2377833614592,4247
1568.2850825654164,4138
1570.3318544180606,4071
1572.3780991707158,3857
1574.423817074788,3848
1576.4690083817595,3682
1578.5136733431923,3495
1580.5578122107272,3362
1582.601425236085,3212
1584.6445126710646,2986
1586.6870747675434,2882
1588.7291117774776,2746
1590.7706239529034,2609
1592.8116115459347,2499
1594.8520748087658,2418
1596.8920139936686,2252
1598.9314293529933,2281
1600.9703211391711,2186
1603.008689604711,2020
1605.0465350022005,1954
1607.0838575843068,2001
1609.1206576037753,1929
1611.1569353134305,1834
1613.1926909661765,1807
1615.2279248149953,1749
1617.2626371129481,1691
1619.2968281131757,1671
1621.3304980688963,1625
1623.3636472334088,1622
1625.39627586009,1603
1627.428384202396,1631
1629.459972513861,1631
1631.4910410480993,1517
1633.5215900588028,1571
1635.551619799744,1554
1637.5811305247717,1622
1639.6101224878166,1545
1641.6385959428862,1502
1643.6665511440683,1545
1645.693988345528,1556
1647.7209078015112,1493
1649.7473097663405,1476
1651.7731944944203,1509
1653.7985622402307,1453
1655.823413258333,1456
1657.847747803366,1505
1659.8715661300494,1475
1661.8948684931793,1409
1663.9176551476316,1449
1665.9399263483624,1522
1667.9616823504057,1416
1669.982923408873,1469
1672.0036497789574,1434
1674.0238617159293,1465
1676.043559475138,1406
1678.0627433120121,1450
1680.081413482059,1420
1682.0995702408654,1411
1684.117213844096,1472
1686.134344547495,1509
1688.1509626068864,1448
1690.1670682781705,1385
1692.182661817329,1356
1694.1977434804217,1397
1696.2123135235875,1441
1698.226372203043,1416
1700.2399197750851,1434
1702.2529564960905,1427
1704.2654826225112,1423
1706.277498410882,1391
1708.2890041178139,1467
1710.2999999999988,1452
1712.3104863142066,1421
1714.3204633172854,1394
1716.329931266163,1430
1718.3388904178469,1415
1720.3473410294214,1362
1722.3552833580516,1387
1724.3627176609807,1401
1726.3696441955308,1419
1728.3760632191033,1407
1730.3819749891782,1417
1732.3873797633146,1411
1734.3922777991502,1357
1736.3966693544012,1338
1738.4005546868639,1352
1740.4039340544127,1382
1742.406807715001,1343
1744.4091759266616,1343
1746.4110389475054,1368
1748.4123970357223,1306
1750.413250449582,1331
1752.4135994474318,1369
1754.4134442876993,1369
1756.4127852288902,1283
1758.4116225295893,1332
1760.4099564484595,1269
1762.407787244244,1283
1764.405115175764,1292
1766.4019405019203,1318
1768.3982634816916,1259
1770.3940843741357,1332
1772.3894034383907,1272
1774.3842209336717,1283
1776.378537119274,1228
1778.372352254571,1321
1780.3656665990156,1276
1782.3584804121397,1230
1784.3507939535534,1292
1786.3426074829463,1279
1788.3339212600863,1193
1790.3247355448211,1234
1792.3150505970766,1239
1794.3048666768573,1254
1796.2941840442477,1250
1798.2830029594106,1240
1800.2713236825884,1260
1802.2591464741004,1185
1804.2464715943465,1248
1806.2332993038058,1237
1808.2196298630352,1212
1810.2054635326708,1261
1812.190800573428,1234
1814.175641246101,1208
1816.1599858115628,1277
1818.1438345307652,1203
1820.127187664738,1231
1822.1100454745924,1196
1824.092408221516,1226
1826.0742761667766,1203
1828.055649571721,1212
1830.0365286977735,1216
1832.0169138064398,1204
1833.9968051593014,1247
1835.9762030180214,1209
1837.9551076443408,1225
1839.9335193000788,1222
1841.9114382471344,1177
1843.888864747485,1224
1845.8657990631878,1197
1847.842241456378,1231
1849.8181921892697,1245
1851.7936515241558,1261
1853.7686197234098,1245
1855.7430970494815,1171
1857.7170837649014,1238
1859.6905801322787,1206
1861.6635864143004,1225
1863.6361028737338,1216
1865.608129773424,1236
1867.5796673762961,1227
1869.5507159453537,1254
1871.521275743678,1258
1873.4913470344313,1238
1875.4609300808534,1216
1877.4300251462632,1184
1879.3986324940588,1277
1881.366752387717,1297
1883.3343850907936,1239
1885.3015308669228,1266
1887.268189979819,1231
1889.2343626932739,1237
1891.2000492711595,1250
1893.1652499774254,1281
1895.1299650761011,1266
1897.0941948312952,1245
1899.0579395071945,1249
1901.0211993680641,1247
1902.98397467825,1307
1904.9462657021745,1287
1906.9080727043415,1230
1908.869395949332,1272
1910.8302357018065,1250
1912.790592226504,1246
1914.7504657882428,1271
1916.7098566519212,1236
1918.6687650825133,1268
1920.6271913450764,1259
1922.5851357047422,1207
1924.5425984267245,1249
1926.499579776314,1254
1928.4560800188833,1199
1930.4120994198802,1234
1932.367638244833,1239
1934.32269675935,1229
1936.2772752291175,1209
1938.231373919899,1284
1940.1849930975404,1266
1942.1381330279637,1223
1944.0907939771696,1300
1946.0429762112412,1277
1947.9946799963363,1261
1949.9459055986945,1230
1951.896653284633,1233
1953.8469233205478,1254
1955.7967159729142,1262
1957.7460315082863,1249
1959.6948701932974,1207
1961.6432322946594,1196
1963.5911180791632,1219
1965.5385278136787,1224
1967.4854617651545,1223
1969.4319202006182,1263
1971.377903387176,1170
1973.3234115920136,1240
1975.268445082395,1227
1977.2130041256642,1221
1979.1570889892423,1243
1981.1006999406304,1280
1983.04383724741,1243
1984.986501177238,1252
1986.928691997853,1216
1988.8704099770712,1218
1990.811655382789,1233
1992.7524284829801,1190
1994.692729545698,1192
1996.6325588390755,1247
1998.5719166313224,1193
2000.5108031907307,1206
2002.4492187856677,1181
2004.387163684583,1204
2006.3246381560011,1249
2008.2616424685298,1189
2010.1981768908527,1253
2012.1342416917332,1198
2014.069837140014,1138
2016.0049635046162,1204
2017.9396210545406,1181
2019.8738100588666,1192
2021.8075307867502,1172
2023.740783507431,1169
2025.6735684902228,1177
2027.6058860045214,1197
2029.5377363198004,1219
2031.4691197056118,1208
2033.4000364315875,1191
2035.3304867674374,1184
2037.260470982952,1209
2039.189989347998,1187
2041.1190421325232,1197
2043.047629606554,1192
2044.9757520401945,1183
2046.9034097036288,1193
2048.8306028671195,1181
2050.7573318010086,1172
2052.683596775716,1204
2054.609398061742,1168
2056.5347359296647,1167
2058.4596106501403,1212
2060.384022493906,1187
2062.3079717317764,1214
2064.231458634646,1143
2066.1544834734873,1195
2068.077046519352,1183
2069.99914804337,1274
2071.9207883167524,1147
2073.8419676107865,1202
2075.7626861968406,1179
2077.6829443463607,1197
2079.6027423308715,1194
2081.522080421977,1197
2083.440958891362,1158
2085.359378010786,1164
2087.2773380520907,1150
2089.194839287196,1137
2091.111881988101,1125
2093.0284664268825,1223
2094.9445928756973,1201
2096.86026160678,1154
2098.775472892446,1197
2100.690227005088,1162
2102.604524217178,1264
2104.5183648012676,1192
2106.431749029985,1141
2108.34467717604,1149
2110.2571495122206,1174
2112.169166311393,1176
2114.080727846503,1118
2115.9918343905747,1182
2117.902486216711,1191
2119.8126835980956,1160
2121.722426807987,1206
2123.6317161197285,1151
2125.5405518067364,1188
2127.448934142509,1211
2129.356863400624,1173
2131.264339854737,1180
2133.1713637785815,1181
2135.077935445972,1166
2136.9840551308002,1219
2138.889723107037,1163
2140.7949396487334,1143
2142.699705030018,1229
2144.6040195250994,1153
2146.507883408264,1197
2148.4112969538774,1138
2150.3142604363848,1206
2152.2167741303097,1245
2154.1188383102535,1190
2156.0204532508997,1177
2157.9216192270064,1229
2159.822336513414,1141
2161.7226053850413,1178
2163.622426116884,1159
2165.5217989840185,1171
2167.4207242616,1135
2169.319202224862,1169
2171.2172331491165,1178
2173.1148173097563,1168
2175.0119549822507,1171
2176.90864644215,1237
2178.8048919650823,1147
2180.7006918267534,1154
2182.596046302952,1177
2184.4909556695407,1235
2186.3854202024645,1219
2188.279440177746,1218
2190.173015871487,1203
2192.066147559868,1220
2193.958835519149,1133
2195.851080025667,1176
2197.7428813558417,1168
2199.6342397861667,1139
2201.5251555932186,1209
2203.415629053651,1212
2205.3056604441986,1192
2207.19525004167,1155
2209.084398122958,1194
2210.9731049650327,1198
2212.861370844941,1172
2214.749196039812,1194
2216.636580826851,1156
2218.523525483344,1229
2220.410030286655,1211
2222.296095514226,1164
2224.1817214435805,1197
2226.066908352319,1214
2227.951656518121,1152
2229.835966218746,1193
2231.71983773203,1244
2233.6032713358913,1165
2235.486267308324,1185
2237.3688259274036,1131
2239.2509474712824,1190
2241.132632218193,1195
2243.013880446447,1255
2244.8946924344323,1179
2246.7750684606203,1181
2248.6550088035574,1187
2250.534513741871,1177
2252.413583554265,1175
2254.292218519526,1211
2256.170418916517,1191
2258.0481850241786,1200
2259.925517121534,1193
2261.8024154876825,1192
2263.678880401803,1199
2265.5549121431536,1215
2267.430510991071,1175
2269.305677224971,1200
2271.180411124348,1188
2273.0547129687766,1205
2274.9285830379076,1169
2276.8020216114737,1236
2278.6750289692845,1161
2280.5476053912294,1162
2282.4197511572766,1181
2284.2914665474727,1205
2286.162751841943,1206
2288.0336073208937,1188
2289.904033264608,1200
2291.774029953448,1183
2293.6435976678554,1227
2295.5127366883517,1182
2297.381447295534,1194
2299.2497297700825,1200
2301.1175843927526,1131
2302.9850114443825,1182
2304.852011205885,1164
2306.7185839582553,1222
2308.5847299825664,1214
2310.4504495599676,1191
2312.3157429716925,1179
2314.1806104990483,1231
2316.0450524234247,1233
2317.9090690262888,1189
2319.772660589186,1218
2321.635827393742,1147
2323.498569721661,1153
2325.3608878547248,1275
2327.2227820747967,1265
2329.0842526638157,1190
2330.945299903803,1229
2332.805924076857,1193
2334.6661254651535,1229
2336.525904350951,1266
2338.3852610165827,1201
2340.244195744464,1258
2342.102708817088,1222
2343.9608005170253,1212
2345.8184711269287,1225
2347.675720929526,1233
2349.532550207628,1248
2351.38895924412,1223
2353.24494832197,1231
2355.100517724223,1259
2356.955667734004,1234
2358.810398634514,1241
2360.664710709037,1226
2362.5186042409337,1188
2364.3720795136437,1281
2366.225136810686,1248
2368.0777764156583,1218
2369.929998612237,1227
2371.7818036841777,1287
2373.633191915315,1215
2375.484163589562,1234
2377.3347189909114,1240
2379.184858403434,1297
2381.03458211128,1252
2382.8838903986775,1231
2384.732783549936,1281
2386.5812618494406,1278
2388.4293255816588,1264
2390.2769750311327,1274
2392.1242104824883,1299
2393.971032220427,1268
2395.8174405297295,1245
2397.6634356952563,1232
2399.509018001947,1279
2401.3541877348193,1277
2403.1989451789705,1295
2405.043290619576,1261
2406.8872243418905,1314
2408.730746631247,1295
2410.5738577730594,1252
2412.4165580528183,1222
2414.258847756095,1243
2416.100727168537,1280
2417.9421965758734,1260
2419.783256263912,1272
2421.623906518538,1241
2423.4641476257157,1253
2425.303979871491,1277
2427.143403541984,1270
2428.9824189233977,1290
2430.821026302012,1318
2432.6592259641866,1280
2434.497018196361,1281
2436.33440328505,1284
2438.171381516851,1299
2440.00795317844,1225
2441.844118556569,1317
2443.6798779380724,1337
2445.5152316098606,1289
2447.3501798589255,1275
2449.1847229723357,1296
2451.0188612372403,1260
2452.8525949408663,1269
2454.6859243705203,1231
2456.518849813587,1257
2458.3513715575314,1293
2460.183489889895,1260
2462.015205098301,1256
2463.8465174704493,1298
2465.67742729412,1272
2467.5079348571717,1293
2469.338040447542,1262
2471.1677443532476,1283
2472.9970468623833,1315
2474.825948263123,1257
2476.6544488437207,1271
2478.482548892508,1238
2480.310248697896,1254
2482.137548548374,1284
2483.9644487325118,1327
2485.790949538956,1280
2487.617051256433,1312
2489.44275417375,1299
2491.26805857979,1302
2493.0929647635157,1338
2494.917473013971,1281
2496.741583620276,1341
2498.5652968716304,1285
2500.3886130573137,1276
2502.2115324666834,1293
2504.0340553891765,1330
2505.856182114308,1265
2507.6779129316733,1323
2509.499248130945,1308
2511.3201880018764,1337
2513.140732834298,1311
2514.9608829181198,1338
2516.780638543331,1325
2518.6,1345
2520.418967578273,1346
2522.237541568376,1321
2524.0557222606144,1357
2525.8735099453706,1388
2527.6909049131086,1409
2529.507907454368,1331
2531.32451785977,1301
2533.140736420014,1367
2534.9565634258774,1348
2536.771999168218,1380
2538.5870439379714,1402
2540.4016980261526,1425
2542.2159617238544,1369
2544.02983532225,1417
2545.8433191125914,1424
2547.656413386209,1447
2549.4691184345115,1427
2551.2814345489874,1445
2553.093362021204,1513
2554.904901142808,1455
2556.716052205523,1438
2558.526815501153,1491
2560.3371913215824,1487
2562.147179958771,1552
2563.956781704761,1500
2565.7659968516705,1521
2567.5748256916986,1505
2569.3832685171224,1545
2571.1913256202984,1525
2572.9989972936614,1559
2574.806283829725,1607
2576.613185521084,1591
2578.4197026604074,1567
2580.2258355404483,1577
2582.031584454035,1568
2583.836949694077,1595
2585.6419315535613,1641
2587.4465303255533,1610
2589.2507463032002,1625
2591.0545797797245,1625
2592.8580310484303,1721
2594.6611004026995,1685
2596.463788135992,1632
2598.266094541849,1707
2600.0680199138874,1673
2601.869564545807,1643
2603.670728731383,1694
2605.4715127644704,1645
2607.2719169390048,1672
2609.071941548998,1685
2610.8715868885433,1682
2612.670853251811,1676
2614.469740933052,1659
2616.268250226594,1618
2618.0663814268455,1611
2619.864134828292,1698
2621.6615107255006,1612
2623.458509413115,1677
2625.2551311858597,1692
2627.0513763385347,1603
2628.8472451660223,1621
2630.6427379632833,1618
2632.4378550253564,1607
2634.232596647359,1557
2636.026963124488,1553
2637.8209547520187,1565
2639.6145718253065,1608
2641.407814639785,1569
2643.200683490966,1604
2644.9931786744414,1568
2646.7853004858807,1496
2648.577049221034,1573
2650.3684251757277,1473
2652.1594286458712,1511
2653.9500599274484,1513
2655.740319316525,1487
2657.5302071092437,1445
2659.3197236018286,1447
2661.10886909058,1432
2662.8976438718782,1402
2664.686048242183,1398
2666.4740824980327,1393
2668.2617469360443,1395
2670.0490418529134,1425
2671.8359675454153,1382
2673.622524310403,1433
2675.408712444811,1381
2677.1945322456495,1343
2678.979984010009,1358
2680.76506803506,1372
2682.5497846180497,1388
2684.334134056306,1305
2686.1181166472343,1327
2687.9017326883213,1319
2689.6849824771293,1348
2691.4678663113013,1362
2693.2503844885596,1353
2695.032537306705,1270
2696.8143250636167,1280
2698.5957480572542,1293
2700.3768065856534,1275
2702.1575009469316,1294
2703.937831439283,1313
2705.717798360982,1236
2707.4974020103837,1257
2709.276642685917,1274
2711.055520686095,1244
2712.834036309506,1248
2714.612189854819,1273
2716.389981620782,1219
2718.1674119062204,1187
2719.944481010041,1204
2721.721189231226,1240
2723.4975368688415,1227
2725.273524222027,1258
2727.0491515900053,1242
2728.824419272075,1196
2730.5993275676146,1216
2732.3738767760838,1257
2734.148067197016,1198
2735.921899130031,1221
2737.6953728748194,1235
2739.468488731156,1277
2741.2412469988926,1198
2743.0136479779617,1259
2744.785691968372,1207
2746.5573792702116,1209
2748.3287101836504,1204
2750.099685008934,1172
2751.870304046388,1196
2753.640567596418,1209
2755.4104759595057,1237
2757.1800294362156,1205
2758.949228327187,1176
2760.7180729331412,1175
2762.486563554877,1181
2764.254700493272,1213
2766.022484049284,1176
2767.789914523947,1208
2769.5569922183786,1188
2771.3237174337705,1199
2773.090090471394,1186
2774.8561116326036,1190
2776.6217812188274,1219
2778.3870995315756,1244
2780.1520668724356,1205
2781.9166835430747,1129
2783.6809498452394,1202
2785.444866080754,1192
2787.2084325515225,1135
2788.971649559527,1212
2790.73451740683,1187
2792.4970363955713,1205
2794.2592068279705,1227
2796.0210290063264,1192
2797.7825032330147,1189
2799.543629810493,1237
2801.304409041296,1156
2803.0648412280366,1190
2804.8249266734088,1187
2806.5846656801846,1195
2808.344058551212,1148
2810.1031055894246,1193
2811.8618070978273,1155
2813.6201633795085,1154
2815.378174737636,1173
2817.1358414754536,1185
2818.893163896285,1181
2820.6501423035334,1185
2822.4067770006814,1189
2824.1630682912883,1179
2825.9190164789957,1166
2827.6746218675207,1160
2829.429884760661,1172
2831.184805462294,1165
2832.9393842763743,1152
2834.693621506936,1169
2836.4475174580916,1207
2838.201072434034,1156
2839.954286739034,1249
2841.707160677441,1193
2843.459694553685,1144
2845.2118886722724,1149
2846.96374333779,1169
2848.7152588549034,1224
2850.4664355283567,1156
2852.217273662973,1145
2853.9677735636546,1177
2855.7179355353833,1203
2857.4677598832186,1221
2859.217246912299,1191
2860.9663969278427,1172
2862.715210235146,1207
2864.4636871395846,1177
2866.211827946614,1153
2867.9596329617652,1201
2869.7071024906536,1238
2871.4542368389684,1192
2873.20103631248,1136
2874.947501217038,1152
2876.6936318585695,1213
2878.4394285430812,1157
2880.1848915766604,1214
2881.9300212654707,1222
2883.6748179157553,1171
2885.4192818338374,1180
2887.1634133261173,1130
2888.907212699077,1191
2890.6506802592744,1147
2892.393816313348,1187
2894.1366211680142,1204
2895.8790951300693,1179
2897.621238506388,1116
2899.363051603925,1186
2901.1045347297118,1212
2902.8456881908596,1167
2904.58651229456,1126
2906.327007348081,1192
2908.067173658772,1183
2909.8070115340597,1146
2911.5465212814497,1101
2913.285703208527,1155
2915.0245576229563,1176
2916.7630848324807,1139
2918.5012851449196,1164
2920.2391588681758,1186
2921.976706310227,1191
2923.7139277791334,1158
2925.4508235830313,1187
2927.187394030137,1219
2928.923639428745,1164
2930.6595600872306,1210
2932.395156314046,1179
2934.1304284177218,1169
2935.8653767068713,1140
2937.6000014901815,1153
2939.3343030764227,1211
2941.068281774442,1240
2942.8019378931644,1152
2944.5352717415976,1124
2946.2682836288236,1207
2948.0009738640065,1167
2949.7333427563885,1176
2951.465390615289,1192
2953.1971177501086,1158
2954.9285244703265,1157
2956.6596110855,1191
2958.3903779052657,1148
2960.1208252393385,1147
2961.8509533975125,1146
2963.5807626896617,1181
2965.3102534257378,1147
2967.0394259157715,1184
2968.768280469873,1218
2970.496817398232,1167
2972.2250370111146,1134
2973.952939618869,1153
2975.6805255319196,1126
2977.4077950607707,1119
2979.134748516006,1140
2980.861386208289,1130
2982.587708448359,1196
2984.313715547037,1189
2986.039407815222,1169
2987.764785563891,1140
2989.489849104102,1126
2991.2145987469908,1178
2992.9390348037705,1166
2994.6631575857346,1156
2996.3869674042576,1137
2998.1104645707887,1208
2999.83364939686,1143
3001.5565221940783,1149
3003.2790832741334,1170
3005.0013329487924,1137
3006.7232715298996,1165
3008.4448993293804,1174
3010.166216659239,1177
3011.887223831558,1149
3013.607921158498,1151
3015.3283089522993,1152
3017.0483875252826,1147
3018.7681571898443,1133
3020.4876182584626,1133
3022.2067710436927,1141
3023.9256158581707,1157
3025.644153014609,1174
3027.362382825801,1192
3029.0803056046193,1181
3030.797921664012,1142
3032.5152313170106,1180
3034.2322348767225,1149
3035.9489326563353,1175
3037.665324969115,1131
3039.3814121284063,1168
3041.097194447633,1170
3042.812672240299,1137
3044.5278458199855,1144
3046.2427155003525,1117
3047.9572815951406,1176
3049.671544418167,1126
3051.38550428333,1185
3053.0991615046073,1177
3054.812516396051,1109
3056.5255692717974,1151
3058.2383204460575,1171
3059.9507702331257,1205
3061.662918947372,1226
3063.3747669032446,1129
3065.0863144152736,1146
3066.7975617980674,1171
3068.508509366309,1156
3070.219157434767,1181
3071.9295063182844,1147
3073.639556331785,1143
3075.3493077902704,1171
3077.058761008821,1120
3078.7679163025964,1176
3080.476773986837,1177
3082.1853343768594,1179
3083.89359778806,1161
3085.6015645359153,1182
3087.3092349359786,1173
3089.016609303884,1160
3090.7236879553434,1210
3092.4304712061476,1195
3094.136959372166,1164
3095.843152769349,1165
3097.5490517137237,1192
3099.2546565213966,1155
3100.959967508554,1199
3102.66498499146,1173
3104.3697092864577,1181
3106.0741407099695,1183
3107.778279578498,1179
3109.482126208622,1146
3111.1856809170004,1195
3112.8889440203716,1212
3114.5919158355528,1181
3116.294596679439,1198
3117.996986869006,1223
3119.6990867213062,1162
3121.4008965534726,1169
3123.102416682717,1199
3124.803647426329,1144
3126.5045891016784,1179
3128.205242026213,1210
3129.90560651746,1141
3131.605682893025,1163
3133.3054714705922,1159
3135.0049725679282,1230
3136.7041865028714,1207
3138.4031135933465,1143
3140.101754157353,1188
3141.800108512971,1228
3143.498176978357,1192
3145.1959598717494,1217
3146.8934575114636,1111
3148.5906702158954,1158
3150.2875983035183,1199
3151.9842420928853,1145
3153.680601902627,1177
3155.376678051456,1167
3157.07247085816,1189
3158.767980641609,1161
3160.463207720748,1162
3162.158152414606,1211
3163.8528150422862,1149
3165.5471959229726,1131
3167.2412953759303,1151
3168.9351137204976,1178
3170.628651276098,1180
3172.3219083622307,1194
3174.014885298474,1214
3175.707582404485,1169
3177.4000000000005,1166
3179.092138404835,1197
3180.7839979388846,1207
3182.47557892212,1187
3184.166881674594,1214
3185.8579065164386,1162
3187.5486537678626,1172
3189.2391237491547,1186
3190.9293167806827,1134
3192.6192331828934,1146
3194.3088732763117,1173
3195.998237381542,1126
3197.687325819268,1191
3199.376138910251,1145
3201.064676975334,1172
3202.7529403354347,1136
3204.4409293115523,1156
3206.1286442247647,1157
3207.816085396229,1167
3209.5032531471825,1194
3211.190147798936,1183
3212.8767696728846,1084
3214.5631190905015,1084
3216.2491963733373,1120
3217.9350018430214,1112
3219.6205358212637,1096
3221.305798629851,1149
3222.990790590651,1124
3224.6755120256103,1090
3226.359963256751,1134
3228.0441446061795,1164
3229.7280563960758,1108
3231.411698948703,1132
3233.0950725863995,1115
3234.778177631587,1084
3236.461014406761,1181
3238.1435832345005,1168
3239.8258844374595,1099
3241.507918338374,1124
3243.1896852600576,1129
3244.8711855254023,1132
3246.552419457381,1101
3248.233387379042,1126
3249.914089613516,1135
3251.59452648401,1146
3253.274698313813,1133
3254.95460542629,1190
3256.6342481448855,1134
3258.313626793125,1128
3259.9927416946084,1095
3261.6715931730196,1076
3263.3501815521176,1175
3265.0285071557437,1134
3266.706570307815,1078
3268.3843713323286,1130
3270.0619105533615,1078
3271.739188295068,1104
3273.4162048816834,1193
3275.0929606375184,1197
3276.769455886966,1189
3278.445690954498,1162
3280.1216661646613,1121
3281.797381842087,1124
3283.4728383114807,1140
3285.1480358976296,1150
3286.8229749253996,1145
3288.4976557197333,1129
3290.172078605655,1099
3291.846243908266,1144
3293.5201519527463,1176
3295.193803064357,1154
3296.8671975684374,1119
3298.5403357904024,1117
3300.21321805575,1134
3301.8858446900567,1127
3303.558216018975,1148
3305.23033236824,1163
3306.9021940636603,1094
3308.57380143113,1140
3310.2451547966184,1130
3311.916254486174,1117
3313.5871008259246,1155
3315.2576941420766,1134
3316.9280347609147,1097
3318.5981230088046,1091
3320.2679592121895,1094
3321.9375436975924,1116
3323.606876791612,1094
3325.27595882093,1113
3326.944790112305,1100
3328.6133709925753,1076
3330.2817017886573,1138
3331.949782827547,1111
3333.617614436319,1099
3335.2851969421245,1142
3336.952530672199,1094
3338.619615953853,1123
3340.286453114475,1128
3341.9530424815357,1130
3343.619384382583,1151
3345.2854791452437,1152
3346.951327097224,1159
3348.6169285663073,1143
3350.2822838803577,1127
3351.947393367319,1117
3353.61225735521,1136
3355.2768761721345,1200
3356.9412501462693,1118
3358.605379605873,1128
3360.2692648792827,1136
3361.9329062949146,1117
3363.596304181263,1141
