CollectionTime,6/28/2024 3:03:53 PM
ExposureUsed,3
CalibratedSpectrum
-962.7078968117929,732
-959.9714848408522,789
-957.2358232597828,772
-954.5009119013725,737
-951.7667505983302,747
-949.0333391832855,789
-946.3006774887896,736
-943.5687653473143,738
-940.837602591253,762
-938.1071890529199,758
-935.3775245645503,749
-932.6486089583007,768
-929.9204420662485,734
-927.1930237203925,783
-924.4663537526524,744
-921.7404319948689,753
-919.0152582788041,782
-916.2908324361409,808
-913.5671542984834,784
-910.8442236973568,764
-908.1220404642074,756
-905.4006044304027,716
-902.679915427231,764
-899.959973285902,729
-897.2407778375464,743
-894.5223289132158,727
-891.8046263438832,750
-889.0876699604426,754
-886.3714595937089,710
-883.6559950744183,706
-880.9412762332282,693
-878.2273029007168,697
-875.5140749073835,695
-872.8015920836489,686
-870.0898542598545,693
-867.3788612662631,707
-864.6686129330585,710
-861.9591090903457,716
-859.2503495681506,682
-856.5423341964203,664
-853.8350628050229,701
-851.1285352237478,719
-848.4227512823054,705
-845.7177108103272,709
-843.0134136373656,682
-840.3098595928943,702
-837.6070485063082,726
-834.9049802069229,692
-832.2036545239757,673
-829.5030712866244,706
-826.8032303239481,675
-824.1041314649472,689
-821.4057745385428,707
-818.7081593735775,728
-816.0112857988148,715
-813.3151536429393,676
-810.6197627345566,680
-807.9251129021936,733
-805.2312039742981,750
-802.5380357792392,723
-799.8456081453069,688
-797.1539209007124,662
-794.462973873588,684
-791.772766891987,679
-789.083299783884,685
-786.3945723771743,663
-783.7065844996748,668
-781.0193359791231,703
-778.3328266431781,759
-775.6470563194197,751
-772.9620248353489,714
-770.2777320183878,717
-767.5941776958798,711
-764.9113616950891,681
-762.2292838432011,723
-759.5479439673222,687
-756.8673418944801,691
-754.1874774516235,706
-751.5083504656222,677
-748.8299607632671,695
-746.15230817127,689
-743.475392516264,737
-740.7992136248035,714
-738.1237713233636,726
-735.4490654383407,730
-732.7750957960521,708
-730.1018622227365,737
-727.4293645445534,771
-724.7576025875837,776
-722.0865761778291,756
-719.4162851412126,759
-716.7467293035781,753
-714.0779084906909,812
-711.409822528237,766
-708.7424712418238,753
-706.0758544569796,770
-703.4099719991541,732
-700.7448236937178,790
-698.0804093659622,765
-695.4167288411002,763
-692.7537819442656,760
-690.0915685005134,780
-687.4300883348199,772
-684.7693412720819,780
-682.1093271371178,831
-679.4500457546669,836
-676.7914969493897,798
-674.1336805458676,798
-671.4765963686034,821
-668.8202442420206,794
-666.1646239904642,793
-663.5097354382001,792
-660.8555784094151,869
-658.2021527282176,847
-655.5494582186366,867
-652.8974947046223,845
-650.2462620100463,881
-647.5957599587009,846
-644.9459883742998,869
-642.2969470804776,868
-639.6486359007902,887
-637.0010546587141,889
-634.3542031776476,857
-631.7080812809096,838
-629.0626887917401,810
-626.4180255333008,830
-623.7740913286734,799
-621.1308860008619,806
-618.4884093727904,816
-615.8466612673046,799
-613.2056415071715,793
-610.5653499150785,815
-607.9257863136347,831
-605.28695052537,802
-602.6488423727357,783
-600.0114616781036,821
-597.3748082637674,777
-594.7388819519412,808
-592.1036825647604,815
-589.4692099242818,826
-586.8354638524829,856
-584.2024441712624,826
-581.5701507024403,786
-578.9385832677575,806
-576.3077416888759,796
-573.6776257873787,815
-571.0482353847704,832
-568.4195703024757,848
-565.7916303618415,856
-563.164415384135,831
-560.5379251905453,762
-557.9121596021815,825
-555.2871184400748,837
-552.6628015251767,835
-550.0392086783606,841
-547.4163397204204,857
-544.794194472071,857
-542.1727727539491,877
-539.5520743866118,870
-536.9320991905377,890
-534.3128469861261,945
-531.6943175936979,909
-529.0765108334947,957
-526.4594265256793,1056
-523.8430644903358,1172
-521.2274245474689,1276
-518.612506517005,1382
-515.9983102187913,1432
-513.3848354725959,1506
-510.77208209810846,1620
-508.16004991493924,1737
-505.5487387426199,1864
-502.9381484006032,2043
-500.3282787082628,2141
-497.71912948489364,2112
-495.1107005497117,2005
-492.5029917218539,1773
-489.8960028203786,1520
-487.28973366426493,1365
-484.68418407241325,1257
-482.07935386364494,1178
-479.47524285670266,1159
-476.87185087025,1128
-474.2691777228715,1070
-471.66722323307334,1105
-469.0659872192821,1069
-466.4654694998459,1067
-463.86566989303384,1115
-461.26658821703614,1032
-458.66822428996414,1085
-456.07057792985,1025
-453.4736489546475,1035
-450.877437182231,1016
-448.28194243039627,1012
-445.68716451686,975
-443.09310325926003,1032
-440.49975847515555,962
-437.9071299820263,1035
-435.31521759727354,1027
-432.72402113821954,996
-430.13354042210767,1049
-427.5437752661022,1046
-424.95472548728867,1089
-422.36639090267386,1076
-419.7787713291855,1051
-417.1918665836721,1102
-414.60567648290385,1086
-412.0202008435715,1109
-409.4354394822874,1079
-406.8513922155845,1076
-404.26805885991723,1100
-401.685439231661,1160
-399.103533147112,1134
-396.522340422488,1097
-393.9418608739278,1078
-391.3620943174908,1052
-388.7830405691583,1028
-386.2046994448317,1000
-383.6270707603344,953
-381.05015433141045,889
-378.473949973725,788
-375.8984575028645,812
-373.32367673433623,786
-370.74960748356875,664
-368.1762495659117,672
-365.60360279663576,631
-363.03166699093265,572
-360.4604419639154,597
-357.8899275306178,529
-355.32012350599507,535
-352.7510297049233,522
-350.1826459421999,516
-347.61497203254316,497
-345.04800779059235,498
-342.4817530309082,516
-339.91620756797226,490
-337.35137121618743,490
-334.7872437898774,460
-332.22382510328725,511
-329.66111497058273,548
-327.09911320585127,542
-324.53781962310075,549
-321.9772340362607,585
-319.4173562591816,562
-316.8581861056348,606
-314.2997233893127,539
-311.7419679238294,605
-309.1849195227194,577
-306.62857799943856,550
-304.0729431673641,511
-301.51801483979375,505
-298.963792829947,549
-296.41027695096386,572
-293.85746701590574,610
-291.3053628377552,637
-288.7539642294155,582
-286.2032710037115,540
-283.65328297338897,557
-281.1039999511146,541
-278.5554217494762,552
-276.007548180983,622
-273.4603790580651,602
-270.9139141930734,600
-268.3681533982807,620
-265.8230964858798,665
-263.27874326798565,672
-260.7350935566336,673
-258.1921471637804,674
-255.6499039013039,620
-253.10836358100266,604
-250.56752601459698,606
-248.02739101372765,691
-245.48795838995704,798
-242.94922795476816,758
-240.41119951956557,790
-237.8738728956746,748
-235.33724789434166,706
-232.80132432673452,769
-230.2661020039418,735
-227.73158073697357,701
-225.19776033676033,676
-222.66464061415422,704
-220.1322213799284,749
-217.60050244477725,759
-215.06948361931552,744
-212.53916471408013,733
-210.00954553952818,718
-207.48062590603843,812
-204.9524056239104,887
-202.4248845033651,879
-199.8980623545441,822
-197.37193898751036,727
-194.84651421224817,789
-192.32178783866232,834
-189.79775967657952,832
-187.27442953574644,778
-184.7517972258321,780
-182.2298625564256,819
-179.7086253370378,822
-177.18808537710026,832
-174.66824248596583,818
-172.14909647290835,832
-169.6306471471229,813
-167.11289431772548,846
-164.59583779375328,848
-162.07947738416453,874
-159.5638128978386,873
-157.04884414357605,969
-154.53457093009854,999
-152.02099306604828,950
-149.50811035998936,897
-146.99592262040665,982
-144.48442965570587,977
-141.97363127421409,1026
-139.46352728417958,999
-136.95411749377126,958
-134.44540171107985,1072
-131.93737974411636,1120
-129.43005140081357,1239
-126.92341648902493,1304
-124.41747481652521,1283
-121.91222619101006,1292
-119.40767042009657,1181
-116.90380731132257,1234
-114.40063667214702,1375
-111.8981583099503,1316
-109.3963720320337,1420
-106.89527764561933,1637
-104.39487495785067,1462
-101.89516377579241,1466
-99.39614390642998,1638
-96.89781515667039,1594
-94.40017733334128,1955
-91.90323024319173,1982
-89.40697369289148,1835
-86.91140748903172,1783
-84.41653143812482,1793
-81.92234534660395,1863
-79.42884902082358,1860
-76.93604226705907,1796
-74.4439248915071,1785
-71.95249670028534,1943
-69.46175749943245,2062
-66.97170709490854,2347
-64.48234529259423,2780
-61.99367189829195,2317
-59.50568671772464,2136
-57.01838955653636,2525
-54.53178022029283,2816
-52.045858514480074,2810
-49.560624244506016,2781
-47.07607721569923,3112
-44.59221723330904,3174
-42.10904410250669,2881
-39.62655762838392,3618
-37.14475761595372,4885
-34.66364387015028,5644
-32.18321619582866,6233
-29.70347439776515,6876
-27.224418280657005,8708
-24.74604764912317,11887
-22.26836230770266,19159
-19.7913620608565,30474
-17.315046712966478,39148
-14.83941606833514,43324
-12.36446993118659,65029
-9.89020810566592,65029
-7.416630395839093,65029
-4.94373660569363,65029
-2.471526539137585,65029
-6.821210263296962E-13,65029
2.47084320796705,65029
4.941003281093458,65029
7.410480415786196,65029
9.879274808531363,65029
12.347386655893956,65029
14.814816154518212,65029
17.28156350112681,65029
19.74762889252179,65029
22.21301252558385,65029
24.67771459727237,46485
27.141735304626195,19408
29.605074844762612,13389
32.06773341487792,9389
34.52971121224755,7230
36.99100843422559,7796
39.45162527824516,8455
41.91156194181792,6865
44.370818622535126,7351
46.82939551806646,9022
49.287292826160524,9414
51.74451074464503,9230
54.201049471426245,7591
56.65690920448981,6757
59.112090141899785,5216
61.56659248179983,3758
64.02041642241159,2653
66.4735621620365,2949
68.92602989905402,2258
71.37781983192338,2148
73.82893215918205,2632
76.27936707944684,2478
78.72912479141326,2425
81.17820549385567,2583
83.62660938562783,2199
86.07433666566146,2150
88.5213875329681,2373
90.96776218663751,2294
93.41346082583925,2155
95.85848364982041,1927
98.30283085790859,1967
100.7465026495089,2013
103.18949922410604,1944
105.63182078126385,2104
108.07346752062438,2018
110.51443964190923,1720
112.95473734491827,1509
115.39436082953114,1547
117.83331029570547,1606
120.27158594347827,1851
122.7091879729652,1487
125.1461165843615,1531
127.58237197794062,1577
130.01795435405518,1339
132.4528639131364,1437
134.88710085569494,1547
137.32066538231982,1448
139.75355769367923,1498
142.1857779905207,1499
144.61732647366978,1582
147.04820334403132,1576
149.47840880258934,1502
151.90794305040674,1626
154.33680628862487,1700
156.76499871846443,1783
159.19252054122433,1982
161.61937195828352,1936
164.04555317109896,2045
166.47106438120693,2269
168.89590579022217,2614
171.320077599839,2605
173.7435800118302,2731
176.16641322804742,2800
178.58857745042144,2836
181.01007288096173,2802
183.43089972175687,3009
185.85105817497413,2986
188.27054844285988,2944
190.6893707277394,3038
193.10752523201643,3036
195.5250121581745,3000
197.9418317087751,3092
200.3579840864594,3159
202.7734694939469,3101
205.18828813403627,2982
207.6024402096051,3083
210.01592592360964,3060
212.42874547908548,2974
214.84089907914665,2904
217.2523869269868,2909
219.66320922587727,2990
222.0733661791695,2980
224.48285799029293,2915
226.8916848627572,3040
229.29984700014882,3073
231.7073446061355,3214
234.11417788446204,3091
236.520347038953,3165
238.92585227351185,3320
241.33069379212054,3434
243.73487179884035,3385
246.1383864978112,3453
248.541238093252,3498
250.9434267894609,3648
253.34495279081432,3660
255.74581630176783,3567
258.1460175268563,3677
260.54555667069314,3689
262.9444339379703,3535
265.3426495334594,3644
267.7402036620107,3455
270.1370965285529,3291
272.53332833809407,3161
274.9288992957214,3047
277.32380960660055,2899
279.718059475976,2801
282.1116491091717,2780
284.5045787115897,2865
286.89684848871195,2825
289.2884586460981,2777
291.67940938938807,2770
294.0697009242996,2695
296.4593334566299,2717
298.84830719225477,2692
301.23662233712923,2688
303.6242790972866,2672
306.01127767884,2595
308.39761828798066,2602
310.78330113097934,2558
313.16832641418534,2600
315.5526943440269,2532
317.9364051270112,2380
320.3194589697242,2304
322.70185607883093,2363
325.0835966610754,2413
327.4646809232805,2294
329.8451090723478,2271
332.2248813152577,2322
334.6039978590701,2337
336.9824589109231,2269
339.36026467803447,2288
341.7374153677,2288
344.113911187295,2299
346.48975234427337,2275
348.8649390461686,2190
351.2394715005918,2158
353.61334991523415,2198
355.9865744978655,2186
358.35914545633375,2136
360.73106299856715,2136
363.10232733257146,2200
365.47293866643247,2122
367.84289720831396,2220
370.2122031664593,2203
372.5808567491905,2083
374.9488581649083,2096
377.31620762209275,2139
379.6829053293021,2065
382.0489514951745,2123
384.4143463284262,2015
386.7790900378528,2034
389.14318283232853,2058
391.50662492080653,2022
393.86941651231916,2028
396.23155781597745,2048
398.5930490409713,2008
400.9538903965696,2034
403.3140820921202,2040
405.6736243370498,1973
408.03251734086336,2031
410.3907613131465,2027
412.74835646356166,2038
415.10530300185144,1950
417.4616011378372,2018
419.81725108141893,2051
422.1722530425758,1977
424.5266072313656,2015
426.880313857925,1984
429.2333731324701,1982
431.58578526529516,1960
433.9375504667738,1944
436.2886689473588,1889
438.63914091758113,1958
440.9889665880513,1891
443.33814616945835,1978
445.68667987257015,2012
448.03456790823395,1973
450.3818104873759,1964
452.72840782100013,1954
455.07436012019105,1869
457.41966759611057,1913
459.7643304600007,1906
462.10834892318155,1910
464.4517231970525,1947
466.79445349309174,1967
469.1365400228566,1927
471.4779829979826,2003
473.81878263018564,1918
476.15893913125876,1982
478.4984527130747,1993
480.8373235875855,2095
483.17555196682144,2030
485.5131380628919,2149
487.8500820879857,2189
490.1863842543697,2288
492.52204477439034,2421
494.8570638604725,2651
497.1914417251204,2977
499.52517858091653,3240
501.85827464052306,3443
504.19073011668036,3598
506.5225452222086,3698
508.85372017000566,3659
511.18425517304956,3592
513.514150444396,3816
515.8434061971808,4188
518.1720226446176,4557
520.4999999999999,4818
522.8273384766991,5015
525.1540382881666,5255
527.480099647932,4877
529.8055227696037,4036
532.1303078668694,2769
534.454455153496,2282
536.777964843328,2045
539.1008371502907,1958
541.4230722883866,1889
543.744670471698,1890
546.0656319143858,1844
548.3859568306899,1835
550.7056454349294,1838
553.0246979415016,1764
555.3431145648834,1784
557.6608955196306,1792
559.978041020377,1787
562.2945512818363,1760
564.6104265188006,1779
566.9256669461412,1692
569.2402727788082,1825
571.5542442318302,1702
573.8675815203156,1734
576.1802848594508,1730
578.4923544645015,1710
580.8037905508126,1723
583.114593333807,1738
585.4247630289875,1702
587.7342998519354,1723
590.0432040183106,1747
592.3514757438526,1677
594.6591152443794,1737
596.9661227357875,1816
599.2724984340531,1694
601.578242555231,1787
603.8833553154542,1744
606.1878369309362,1823
608.4916876179676,1744
610.7949075929192,1763
613.0974970722403,1764
615.3994562724587,1779
617.7007854101818,1738
620.0014847020951,1770
622.3015543649641,1758
624.6009946156324,1804
626.8998056710224,1799
629.1979877481361,1812
631.4955410640538,1775
633.7924658359349,1777
636.0887622810175,1823
638.3844306166192,1810
640.6794710601358,1769
642.9738838290426,1746
645.2676691408932,1788
647.5608272133207,1791
649.853358264037,1831
652.1452625108324,1887
654.4365401715764,1815
656.7271914642178,1857
659.0172166067838,1936
661.3066158173809,1814
663.5953893141935,1872
665.8835373154867,1825
668.1710600396028,1876
670.4579577049639,1921
672.7442305300709,1871
675.0298787335033,1879
677.3149025339197,1972
679.599302150058,1883
681.8830778007342,1832
684.1662297048437,1804
686.4487580813608,1915
688.7306631493387,1811
691.0119451279091,1794
693.2926042362834,1843
695.5726406937516,1897
697.8520547196814,1912
700.1308465335215,1899
702.4090163547982,1794
704.6865644031171,1908
706.9634908981619,1872
709.2397960596965,1934
711.5154801075631,1879
713.7905432616823,1831
716.0649857420548,1746
718.3388077687592,1803
720.612009561953,1788
722.8845913418733,1829
725.1565533288352,1775
727.427895743234,1926
729.6986188055427,1844
731.9687227363137,1807
734.238207756178,1790
736.5070740858458,1821
738.7753219461066,1789
741.0429515578281,1855
743.3099631419569,1759
745.5763569195191,1792
747.8421331116193,1813
750.1072919394409,1831
752.3718336242467,1831
754.6357583873777,1789
756.8990664502545,1826
759.1617580343765,1764
761.423833361321,1772
763.6852926527457,1869
765.9461361303862,1781
768.206364016058,1838
770.4659765316536,1788
772.7249738991469,1797
774.9833563405886,1815
777.2411240781092,1866
779.4982773339183,1845
781.7548163303044,1809
784.010741289634,1809
786.2660524343538,1916
788.5207499869881,1863
790.7748341701416,1866
793.0283052064964,1809
795.2811633188143,1801
797.5334087299362,1825
799.7850416627813,1854
802.0360623403484,1802
804.2864709857143,1837
806.5362678220353,1817
808.7854530725468,1868
811.0340269605625,1876
813.2819897094754,1865
815.5293415427581,1957
817.77608268396,1935
820.0222133567116,1823
822.2677337847211,1847
824.5126441917765,1846
826.7569448017433,1810
829.0006358385675,1878
831.2437175262731,1889
833.4861900889629,1920
835.7280537508192,1832
837.9693087361026,1789
840.2099552691533,1791
842.4499935743896,1898
844.689423876309,1800
846.9282463994886,1866
849.1664613685833,1781
851.4040690083276,1795
853.6410695435349,1866
855.877463199097,1902
858.1132501999847,1860
860.3484307712487,1824
862.5830051380175,1839
864.8169735254988,1884
867.0503361589791,1855
869.2830932638243,1840
871.5152450654786,1849
873.7467917894654,1811
875.9777336613873,1843
878.2080709069252,1905
880.4378037518389,1889
882.666932421968,1895
884.8954571432301,1894
887.1233781416219,1945
889.3506956432192,1905
891.5774098741766,1841
893.803521060728,1932
896.0290294291852,1961
898.2539352059397,1949
900.4782386174619,2019
902.7019398903011,1889
904.925039251085,1873
907.147536926521,1911
909.3694331433943,1916
911.59072812857,1869
913.8114221089921,1880
916.0315153116827,1813
918.2510079637437,1910
920.4699002923547,1885
922.6881925247761,1828
924.905884888345,1924
927.1229776104793,1866
929.3394709186747,1907
931.555365040506,1861
933.7706602036275,1942
935.9853566357709,1990
938.1994545647489,1876
940.4129542184515,1921
942.6258558248488,1959
944.8381596119883,1881
947.0498658079974,1995
949.2609746410825,1957
951.4714863395287,1919
953.6814011316998,1805
955.8907192460387,1895
958.0994409110671,1767
960.3075663553858,1869
962.5150958076741,1895
964.7220294966913,1806
966.928367651274,1807
969.1341105003388,1874
971.3392582728806,1838
973.5438111979742,1780
975.747769504772,1787
977.9511334225061,1822
980.153903180487,1777
982.3560790081052,1826
984.5576611348289,1781
986.7586497902058,1808
988.9590452038618,1684
991.158847605503,1698
993.3580572249133,1710
995.5566742919558,1632
997.7546990365728,1709
999.952131688785,1646
1002.1489724786926,1575
1004.3452216364743,1596
1006.5408793923874,1573
1008.7359459767691,1592
1010.9304216200343,1564
1013.1243065526781,1625
1015.3176010052733,1511
1017.510305208472,1598
1019.7024193930064,1526
1021.8939437896848,1538
1024.0848786293977,1568
1026.2752241431122,1495
1028.4649805618747,1474
1030.6541481168115,1527
1032.842727039127,1481
1035.0307175601051,1488
1037.2181199111074,1504
1039.4049343235752,1530
1041.591161029029,1488
1043.7768002590683,1538
1045.9618522453698,1469
1048.1463172196918,1511
1050.3301954138697,1527
1052.513487059818,1487
1054.69619238953,1474
1056.8783116350783,1465
1059.0598450286152,1458
1061.2407928023704,1474
1063.4211551886528,1499
1065.6009324198508,1495
1067.780124728432,1450
1069.9587323469414,1481
1072.1367555080046,1444
1074.314194444325,1440
1076.4910493886855,1471
1078.667320573947,1470
1080.843008233051,1439
1083.0181125990161,1460
1085.1926339049414,1455
1087.3665723840027,1427
1089.5399282694575,1399
1091.7127017946405,1418
1093.8848931929647,1415
1096.0565026979243,1386
1098.2275305430899,1363
1100.3979769621128,1433
1102.567842188722,1373
1104.737126456726,1416
1106.9058300000124,1354
1109.0739530525475,1333
1111.2414958483764,1364
1113.4084586216231,1425
1115.5748416064907,1346
1117.7406450372605,1387
1119.9058691482942,1329
1122.0705141740304,1393
1124.2345803489884,1378
1126.3980679077658,1420
1128.5609770850388,1365
1130.7233081155623,1365
1132.8850612341707,1372
1135.0462366757774,1419
1137.2068346753745,1345
1139.3668554680326,1324
1141.526299288901,1348
1143.68516637321,1360
1145.8434569562655,1315
1148.001171273455,1351
1150.158309560244,1397
1152.3148720521767,1346
1154.470858984876,1325
1156.626270594044,1300
1158.7811071154629,1390
1160.9353687849912,1312
1163.089055838569,1316
1165.242168512213,1347
1167.3947070420209,1362
1169.5466716641677,1354
1171.6980626149075,1317
1173.8488801305748,1357
1175.9991244475814,1335
1178.1487958024186,1302
1180.2978944316555,1354
1182.4464205719428,1317
1184.5943744600072,1369
1186.7417563326567,1320
1188.8885664267755,1340
1191.0348049793297,1274
1193.1804722273619,1376
1195.325568407995,1315
1197.4700937584303,1305
1199.614048515948,1306
1201.7574329179074,1360
1203.900247201746,1309
1206.042491604982,1332
1208.1841663652099,1340
1210.3252717201053,1300
1212.465807907422,1308
1214.6057751649923,1357
1216.7451737307279,1320
1218.8840038426192,1353
1221.0222657387353,1324
1223.1599596572241,1338
1225.2970858363137,1335
1227.4336445143094,1349
1229.5696359295966,1399
1231.705060320639,1337
1233.8399179259786,1336
1235.9742089842384,1373
1238.107933734118,1382
1240.2410924143974,1362
1242.373685263935,1341
1244.5057125216676,1372
1246.6371744266116,1348
1248.7680712178621,1410
1250.898403134593,1332
1253.028170416058,1373
1255.1573733015875,1366
1257.2860120305932,1375
1259.4140868425648,1360
1261.54159797707,1389
1263.6685456737569,1410
1265.7949301723515,1435
1267.9207517126597,1388
1270.046010534565,1434
1272.1707068780306,1400
1274.2948409830983,1388
1276.4184130898889,1370
1278.541423438603,1412
1280.6638722695184,1411
1282.785759822993,1413
1284.9070863394636,1387
1287.0278520594447,1422
1289.1480572235314,1457
1291.2677020723963,1410
1293.3867868467923,1495
1295.5053117875495,1442
1297.623277135579,1475
1299.740683131868,1520
1301.8575300174857,1453
1303.973818033578,1475
1306.0895474213703,1479
1308.2047184221678,1472
1310.3193312773528,1517
1312.4333862283888,1575
1314.5468835168163,1501
1316.659823384255,1556
1318.7722060724045,1591
1320.8840318230418,1535
1322.9953008780249,1513
1325.1060134792888,1533
1327.2161698688478,1546
1329.3257702887959,1554
1331.4348149813054,1493
1333.5433041886276,1519
1335.6512381530933,1464
1337.7586171171101,1497
1339.8654413231675,1445
1341.9717110138317,1466
1344.0774264317488,1471
1346.1825878196432,1469
1348.2871954203192,1485
1350.3912494766587,1510
1352.4947502316231,1440
1354.5976979282532,1431
1356.7000928096686,1562
1358.8019351190665,1438
1360.9032250997243,1444
1363.0039629949988,1462
1365.1041490483235,1479
1367.2037835032133,1496
1369.3028666032606,1496
1371.401398592137,1517
1373.4993797135926,1552
1375.5968102114575,1518
1377.6936903296396,1489
1379.7900203121262,1527
1381.8858004029835,1518
1383.9810308463561,1570
1386.075711886469,1531
1388.1698437676241,1536
1390.2634267342032,1537
1392.356461030667,1500
1394.4489469015557,1529
1396.5408845914872,1566
1398.6322743451592,1548
1400.7231164073469,1631
1402.813411022907,1536
1404.903158436773,1589
1406.9923588939578,1604
1409.0810126395531,1542
1411.1691199187303,1631
1413.2566809767386,1617
1415.343696058907,1526
1417.4301654106425,1614
1419.5160892774315,1615
1421.6014679048399,1616
1423.6863015385125,1626
1425.7705904241707,1672
1427.8543348076178,1635
1429.9375349347342,1671
1432.0201910514802,1696
1434.102303403894,1731
1436.1838722380944,1733
1438.2648978002767,1730
1440.3453803367174,1823
1442.4253200937692,1746
1444.5047173178677,1822
1446.5835722555234,1783
1448.6618851533285,1880
1450.739656257952,1863
1452.8168858161434,1916
1454.8935740747306,1946
1456.96972128062,1932
1459.045327680797,1937
1461.120393522327,1958
1463.1949190523528,2027
1465.2689045180973,2037
1467.3423501668608,2110
1469.415256246024,2171
1471.4876230030463,2138
1473.559450685465,2221
1475.6307395408976,2201
1477.7014898170391,2273
1479.771701761665,2252
1481.8413756226287,2377
1483.9105116478618,2419
1485.9791100853772,2374
1488.0471711832643,2385
1490.1146951896926,2479
1492.1816823529098,2536
1494.2481329212433,2494
1496.3140471430984,2492
1498.3794252669609,2591
1500.4442675413939,2627
1502.5085742150404,2598
1504.572345536622,2698
1506.6355817549388,2670
1508.6982831188702,2661
1510.7604498773744,2725
1512.8220822794883,2812
1514.8831805743293,2707
1516.9437450110909,2721
1519.003775839048,2829
1521.0632733075522,2829
1523.1222376660367,2879
1525.1806691640113,2890
1527.2385680510652,2944
1529.2959345768668,2991
1531.3527689911643,2989
1533.4090715437833,2964
1535.4648424846291,3170
1537.5200820636855,3204
1539.5747905310159,3235
1541.6289681367616,3200
1543.6826151311434,3324
1545.7357317644614,3279
1547.7883182870937,3279
1549.8403749494987,3340
1551.8919020022113,3457
1553.9428996958477,3436
1555.9933682811015,3410
1558.0433080087469,3637
1560.0927191296346,3717
1562.1416018946961,3724
1564.1899565549415,3804
1566.2377833614592,3790
1568.2850825654164,3832
1570.3318544180606,3793
1572.3780991707158,3696
1574.423817074788,3602
1576.4690083817595,3525
1578.5136733431923,3342
1580.5578122107272,3113
1582.601425236085,3010
1584.6445126710646,2886
1586.6870747675434,2729
1588.7291117774776,2577
1590.7706239529034,2431
1592.8116115459347,2385
1594.8520748087658,2269
1596.8920139936686,2259
1598.9314293529933,2164
1600.9703211391711,2093
1603.008689604711,1999
1605.0465350022005,1949
1607.0838575843068,1921
1609.1206576037753,1772
1611.1569353134305,1748
1613.1926909661765,1702
1615.2279248149953,1662
1617.2626371129481,1577
1619.2968281131757,1601
1621.3304980688963,1645
1623.3636472334088,1686
1625.39627586009,1611
1627.428384202396,1595
1629.459972513861,1614
1631.4910410480993,1570
1633.5215900588028,1497
1635.551619799744,1533
1637.5811305247717,1482
1639.6101224878166,1554
1641.6385959428862,1519
1643.6665511440683,1445
1645.693988345528,1455
1647.7209078015112,1466
1649.7473097663405,1423
1651.7731944944203,1446
1653.7985622402307,1445
1655.823413258333,1399
1657.847747803366,1343
1659.8715661300494,1372
1661.8948684931793,1377
1663.9176551476316,1493
1665.9399263483624,1402
1667.9616823504057,1404
1669.982923408873,1378
1672.0036497789574,1407
1674.0238617159293,1381
1676.043559475138,1425
1678.0627433120121,1414
1680.081413482059,1367
1682.0995702408654,1375
1684.117213844096,1420
1686.134344547495,1377
1688.1509626068864,1451
1690.1670682781705,1420
1692.182661817329,1368
1694.1977434804217,1409
1696.2123135235875,1359
1698.226372203043,1371
1700.2399197750851,1413
1702.2529564960905,1389
1704.2654826225112,1362
1706.277498410882,1464
1708.2890041178139,1358
1710.2999999999988,1409
1712.3104863142066,1398
1714.3204633172854,1415
1716.329931266163,1319
1718.3388904178469,1304
1720.3473410294214,1337
1722.3552833580516,1413
1724.3627176609807,1355
1726.3696441955308,1385
1728.3760632191033,1340
1730.3819749891782,1309
1732.3873797633146,1347
1734.3922777991502,1330
1736.3966693544012,1360
1738.4005546868639,1388
1740.4039340544127,1296
1742.406807715001,1293
1744.4091759266616,1267
1746.4110389475054,1359
1748.4123970357223,1274
1750.413250449582,1311
1752.4135994474318,1303
1754.4134442876993,1301
1756.4127852288902,1293
1758.4116225295893,1275
1760.4099564484595,1350
1762.407787244244,1303
1764.405115175764,1284
1766.4019405019203,1264
1768.3982634816916,1235
1770.3940843741357,1252
1772.3894034383907,1247
1774.3842209336717,1267
1776.378537119274,1263
1778.372352254571,1271
1780.3656665990156,1244
1782.3584804121397,1235
1784.3507939535534,1283
1786.3426074829463,1248
1788.3339212600863,1237
1790.3247355448211,1217
1792.3150505970766,1268
1794.3048666768573,1215
1796.2941840442477,1236
1798.2830029594106,1190
1800.2713236825884,1190
1802.2591464741004,1221
1804.2464715943465,1262
1806.2332993038058,1245
1808.2196298630352,1238
1810.2054635326708,1223
1812.190800573428,1167
1814.175641246101,1272
1816.1599858115628,1192
1818.1438345307652,1240
1820.127187664738,1245
1822.1100454745924,1227
1824.092408221516,1193
1826.0742761667766,1209
1828.055649571721,1202
1830.0365286977735,1229
1832.0169138064398,1224
1833.9968051593014,1202
1835.9762030180214,1207
1837.9551076443408,1250
1839.9335193000788,1256
1841.9114382471344,1250
1843.888864747485,1232
1845.8657990631878,1227
1847.842241456378,1242
1849.8181921892697,1221
1851.7936515241558,1222
1853.7686197234098,1201
1855.7430970494815,1256
1857.7170837649014,1202
1859.6905801322787,1193
1861.6635864143004,1224
1863.6361028737338,1269
1865.608129773424,1254
1867.5796673762961,1231
1869.5507159453537,1223
1871.521275743678,1235
1873.4913470344313,1219
1875.4609300808534,1261
1877.4300251462632,1186
1879.3986324940588,1233
1881.366752387717,1204
1883.3343850907936,1233
1885.3015308669228,1276
1887.268189979819,1294
1889.2343626932739,1274
1891.2000492711595,1217
1893.1652499774254,1255
1895.1299650761011,1241
1897.0941948312952,1268
1899.0579395071945,1277
1901.0211993680641,1272
1902.98397467825,1252
1904.9462657021745,1228
1906.9080727043415,1192
1908.869395949332,1226
1910.8302357018065,1249
1912.790592226504,1222
1914.7504657882428,1292
1916.7098566519212,1298
1918.6687650825133,1273
1920.6271913450764,1255
1922.5851357047422,1269
1924.5425984267245,1267
1926.499579776314,1311
1928.4560800188833,1278
1930.4120994198802,1198
1932.367638244833,1244
1934.32269675935,1215
1936.2772752291175,1238
1938.231373919899,1232
1940.1849930975404,1216
1942.1381330279637,1257
1944.0907939771696,1235
1946.0429762112412,1250
1947.9946799963363,1219
1949.9459055986945,1221
1951.896653284633,1257
1953.8469233205478,1216
1955.7967159729142,1252
1957.7460315082863,1221
1959.6948701932974,1267
1961.6432322946594,1309
1963.5911180791632,1292
1965.5385278136787,1252
1967.4854617651545,1289
1969.4319202006182,1246
1971.377903387176,1215
1973.3234115920136,1276
1975.268445082395,1249
1977.2130041256642,1206
1979.1570889892423,1264
1981.1006999406304,1213
1983.04383724741,1193
1984.986501177238,1204
1986.928691997853,1197
1988.8704099770712,1228
1990.811655382789,1215
1992.7524284829801,1204
1994.692729545698,1225
1996.6325588390755,1183
1998.5719166313224,1186
2000.5108031907307,1183
2002.4492187856677,1165
2004.387163684583,1146
2006.3246381560011,1218
2008.2616424685298,1241
2010.1981768908527,1192
2012.1342416917332,1198
2014.069837140014,1185
2016.0049635046162,1202
2017.9396210545406,1214
2019.8738100588666,1163
2021.8075307867502,1188
2023.740783507431,1214
2025.6735684902228,1158
2027.6058860045214,1196
2029.5377363198004,1138
2031.4691197056118,1162
2033.4000364315875,1146
2035.3304867674374,1158
2037.260470982952,1217
2039.189989347998,1184
2041.1190421325232,1174
2043.047629606554,1189
2044.9757520401945,1198
2046.9034097036288,1211
2048.8306028671195,1190
2050.7573318010086,1219
2052.683596775716,1193
2054.609398061742,1159
2056.5347359296647,1135
2058.4596106501403,1176
2060.384022493906,1189
2062.3079717317764,1217
2064.231458634646,1194
2066.1544834734873,1205
2068.077046519352,1166
2069.99914804337,1220
2071.9207883167524,1128
2073.8419676107865,1123
2075.7626861968406,1189
2077.6829443463607,1210
2079.6027423308715,1220
2081.522080421977,1181
2083.440958891362,1182
2085.359378010786,1191
2087.2773380520907,1202
2089.194839287196,1108
2091.111881988101,1266
2093.0284664268825,1195
2094.9445928756973,1178
2096.86026160678,1167
2098.775472892446,1172
2100.690227005088,1253
2102.604524217178,1182
2104.5183648012676,1188
2106.431749029985,1213
2108.34467717604,1194
2110.2571495122206,1185
2112.169166311393,1182
2114.080727846503,1132
2115.9918343905747,1211
2117.902486216711,1198
2119.8126835980956,1210
2121.722426807987,1170
2123.6317161197285,1161
2125.5405518067364,1197
2127.448934142509,1173
2129.356863400624,1192
2131.264339854737,1206
2133.1713637785815,1195
2135.077935445972,1191
2136.9840551308002,1185
2138.889723107037,1170
2140.7949396487334,1200
2142.699705030018,1158
2144.6040195250994,1137
2146.507883408264,1133
2148.4112969538774,1181
2150.3142604363848,1194
2152.2167741303097,1199
2154.1188383102535,1205
2156.0204532508997,1141
2157.9216192270064,1207
2159.822336513414,1174
2161.7226053850413,1125
2163.622426116884,1203
2165.5217989840185,1175
2167.4207242616,1195
2169.319202224862,1172
2171.2172331491165,1211
2173.1148173097563,1202
2175.0119549822507,1250
2176.90864644215,1198
2178.8048919650823,1201
2180.7006918267534,1192
2182.596046302952,1185
2184.4909556695407,1136
2186.3854202024645,1181
2188.279440177746,1196
2190.173015871487,1172
2192.066147559868,1230
2193.958835519149,1201
2195.851080025667,1224
2197.7428813558417,1185
2199.6342397861667,1185
2201.5251555932186,1161
2203.415629053651,1151
2205.3056604441986,1228
2207.19525004167,1175
2209.084398122958,1227
2210.9731049650327,1164
2212.861370844941,1233
2214.749196039812,1178
2216.636580826851,1203
2218.523525483344,1175
2220.410030286655,1217
2222.296095514226,1156
2224.1817214435805,1144
2226.066908352319,1178
2227.951656518121,1178
2229.835966218746,1189
2231.71983773203,1180
2233.6032713358913,1214
2235.486267308324,1195
2237.3688259274036,1216
2239.2509474712824,1225
2241.132632218193,1218
2243.013880446447,1185
2244.8946924344323,1194
2246.7750684606203,1185
2248.6550088035574,1209
2250.534513741871,1196
2252.413583554265,1173
2254.292218519526,1161
2256.170418916517,1204
2258.0481850241786,1185
2259.925517121534,1220
2261.8024154876825,1170
2263.678880401803,1187
2265.5549121431536,1203
2267.430510991071,1208
2269.305677224971,1146
2271.180411124348,1196
2273.0547129687766,1191
2274.9285830379076,1167
2276.8020216114737,1196
2278.6750289692845,1185
2280.5476053912294,1184
2282.4197511572766,1179
2284.2914665474727,1191
2286.162751841943,1150
2288.0336073208937,1143
2289.904033264608,1206
2291.774029953448,1215
2293.6435976678554,1212
2295.5127366883517,1257
2297.381447295534,1198
2299.2497297700825,1233
2301.1175843927526,1177
2302.9850114443825,1184
2304.852011205885,1180
2306.7185839582553,1157
2308.5847299825664,1265
2310.4504495599676,1207
2312.3157429716925,1195
2314.1806104990483,1226
2316.0450524234247,1167
2317.9090690262888,1244
2319.772660589186,1197
2321.635827393742,1188
2323.498569721661,1222
2325.3608878547248,1229
2327.2227820747967,1227
2329.0842526638157,1200
2330.945299903803,1228
2332.805924076857,1145
2334.6661254651535,1185
2336.525904350951,1183
2338.3852610165827,1208
2340.244195744464,1281
2342.102708817088,1217
2343.9608005170253,1185
2345.8184711269287,1225
2347.675720929526,1205
2349.532550207628,1233
2351.38895924412,1220
2353.24494832197,1216
2355.100517724223,1226
2356.955667734004,1242
2358.810398634514,1245
2360.664710709037,1161
2362.5186042409337,1259
2364.3720795136437,1200
2366.225136810686,1273
2368.0777764156583,1276
2369.929998612237,1295
2371.7818036841777,1274
2373.633191915315,1259
2375.484163589562,1214
2377.3347189909114,1302
2379.184858403434,1217
2381.03458211128,1252
2382.8838903986775,1247
2384.732783549936,1252
2386.5812618494406,1243
2388.4293255816588,1231
2390.2769750311327,1257
2392.1242104824883,1303
2393.971032220427,1312
2395.8174405297295,1268
2397.6634356952563,1275
2399.509018001947,1267
2401.3541877348193,1226
2403.1989451789705,1296
2405.043290619576,1259
2406.8872243418905,1297
2408.730746631247,1250
2410.5738577730594,1273
2412.4165580528183,1248
2414.258847756095,1245
2416.100727168537,1249
2417.9421965758734,1271
2419.783256263912,1290
2421.623906518538,1290
2423.4641476257157,1274
2425.303979871491,1245
2427.143403541984,1245
2428.9824189233977,1292
2430.821026302012,1309
2432.6592259641866,1275
2434.497018196361,1269
2436.33440328505,1280
2438.171381516851,1233
2440.00795317844,1301
2441.844118556569,1257
2443.6798779380724,1283
2445.5152316098606,1266
2447.3501798589255,1344
2449.1847229723357,1298
2451.0188612372403,1289
2452.8525949408663,1294
2454.6859243705203,1268
2456.518849813587,1316
2458.3513715575314,1249
2460.183489889895,1322
2462.015205098301,1252
2463.8465174704493,1298
2465.67742729412,1313
2467.5079348571717,1274
2469.338040447542,1273
2471.1677443532476,1240
2472.9970468623833,1257
2474.825948263123,1286
2476.6544488437207,1254
2478.482548892508,1290
2480.310248697896,1308
2482.137548548374,1336
2483.9644487325118,1328
2485.790949538956,1282
2487.617051256433,1280
2489.44275417375,1273
2491.26805857979,1313
2493.0929647635157,1310
2494.917473013971,1291
2496.741583620276,1281
2498.5652968716304,1332
2500.3886130573137,1283
2502.2115324666834,1347
2504.0340553891765,1362
2505.856182114308,1345
2507.6779129316733,1321
2509.499248130945,1328
2511.3201880018764,1336
2513.140732834298,1332
2514.9608829181198,1262
2516.780638543331,1346
2518.6,1347
2520.418967578273,1307
2522.237541568376,1355
2524.0557222606144,1327
2525.8735099453706,1356
2527.6909049131086,1332
2529.507907454368,1350
2531.32451785977,1340
2533.140736420014,1377
2534.9565634258774,1393
2536.771999168218,1370
2538.5870439379714,1376
2540.4016980261526,1446
2542.2159617238544,1435
2544.02983532225,1402
2545.8433191125914,1408
2547.656413386209,1398
2549.4691184345115,1435
2551.2814345489874,1423
2553.093362021204,1443
2554.904901142808,1437
2556.716052205523,1494
2558.526815501153,1423
2560.3371913215824,1411
2562.147179958771,1480
2563.956781704761,1473
2565.7659968516705,1521
2567.5748256916986,1557
2569.3832685171224,1489
2571.1913256202984,1568
2572.9989972936614,1565
2574.806283829725,1557
2576.613185521084,1538
2578.4197026604074,1613
2580.2258355404483,1569
2582.031584454035,1581
2583.836949694077,1606
2585.6419315535613,1520
2587.4465303255533,1564
2589.2507463032002,1594
2591.0545797797245,1598
2592.8580310484303,1598
2594.6611004026995,1583
2596.463788135992,1661
2598.266094541849,1613
2600.0680199138874,1734
2601.869564545807,1620
2603.670728731383,1657
2605.4715127644704,1618
2607.2719169390048,1652
2609.071941548998,1687
2610.8715868885433,1675
2612.670853251811,1662
2614.469740933052,1652
2616.268250226594,1678
2618.0663814268455,1631
2619.864134828292,1588
2621.6615107255006,1668
2623.458509413115,1540
2625.2551311858597,1584
2627.0513763385347,1604
2628.8472451660223,1577
2630.6427379632833,1523
2632.4378550253564,1571
2634.232596647359,1491
2636.026963124488,1544
2637.8209547520187,1595
2639.6145718253065,1539
2641.407814639785,1541
2643.200683490966,1558
2644.9931786744414,1516
2646.7853004858807,1518
2648.577049221034,1473
2650.3684251757277,1448
2652.1594286458712,1439
2653.9500599274484,1474
2655.740319316525,1483
2657.5302071092437,1447
2659.3197236018286,1402
2661.10886909058,1417
2662.8976438718782,1406
2664.686048242183,1333
2666.4740824980327,1384
2668.2617469360443,1437
2670.0490418529134,1400
2671.8359675454153,1416
2673.622524310403,1356
2675.408712444811,1298
2677.1945322456495,1362
2678.979984010009,1365
2680.76506803506,1329
2682.5497846180497,1353
2684.334134056306,1325
2686.1181166472343,1320
2687.9017326883213,1348
2689.6849824771293,1267
2691.4678663113013,1291
2693.2503844885596,1274
2695.032537306705,1271
2696.8143250636167,1235
2698.5957480572542,1248
2700.3768065856534,1316
2702.1575009469316,1318
2703.937831439283,1296
2705.717798360982,1314
2707.4974020103837,1249
2709.276642685917,1211
2711.055520686095,1243
2712.834036309506,1232
2714.612189854819,1285
2716.389981620782,1262
2718.1674119062204,1233
2719.944481010041,1233
2721.721189231226,1184
2723.4975368688415,1236
2725.273524222027,1245
2727.0491515900053,1256
2728.824419272075,1181
2730.5993275676146,1144
2732.3738767760838,1157
2734.148067197016,1235
2735.921899130031,1250
2737.6953728748194,1234
2739.468488731156,1189
2741.2412469988926,1209
2743.0136479779617,1242
2744.785691968372,1214
2746.5573792702116,1273
2748.3287101836504,1216
2750.099685008934,1202
2751.870304046388,1180
2753.640567596418,1229
2755.4104759595057,1254
2757.1800294362156,1166
2758.949228327187,1211
2760.7180729331412,1214
2762.486563554877,1204
2764.254700493272,1220
2766.022484049284,1168
2767.789914523947,1222
2769.5569922183786,1160
2771.3237174337705,1197
2773.090090471394,1182
2774.8561116326036,1199
2776.6217812188274,1180
2778.3870995315756,1187
2780.1520668724356,1168
2781.9166835430747,1144
2783.6809498452394,1209
2785.444866080754,1191
2787.2084325515225,1158
2788.971649559527,1204
2790.73451740683,1171
2792.4970363955713,1151
2794.2592068279705,1174
2796.0210290063264,1185
2797.7825032330147,1167
2799.543629810493,1215
2801.304409041296,1242
2803.0648412280366,1165
2804.8249266734088,1178
2806.5846656801846,1169
2808.344058551212,1146
2810.1031055894246,1163
2811.8618070978273,1165
2813.6201633795085,1210
2815.378174737636,1222
2817.1358414754536,1216
2818.893163896285,1181
2820.6501423035334,1162
2822.4067770006814,1191
2824.1630682912883,1197
2825.9190164789957,1159
2827.6746218675207,1200
2829.429884760661,1204
2831.184805462294,1192
2832.9393842763743,1201
2834.693621506936,1177
2836.4475174580916,1180
2838.201072434034,1219
2839.954286739034,1210
2841.707160677441,1202
2843.459694553685,1142
2845.2118886722724,1155
2846.96374333779,1177
2848.7152588549034,1204
2850.4664355283567,1140
2852.217273662973,1176
2853.9677735636546,1149
2855.7179355353833,1229
2857.4677598832186,1188
2859.217246912299,1181
2860.9663969278427,1170
2862.715210235146,1182
2864.4636871395846,1180
2866.211827946614,1239
2867.9596329617652,1189
2869.7071024906536,1206
2871.4542368389684,1180
2873.20103631248,1180
2874.947501217038,1224
2876.6936318585695,1192
2878.4394285430812,1147
2880.1848915766604,1202
2881.9300212654707,1163
2883.6748179157553,1126
2885.4192818338374,1179
2887.1634133261173,1197
2888.907212699077,1190
2890.6506802592744,1183
2892.393816313348,1145
2894.1366211680142,1220
2895.8790951300693,1142
2897.621238506388,1170
2899.363051603925,1158
2901.1045347297118,1180
2902.8456881908596,1217
2904.58651229456,1127
2906.327007348081,1192
2908.067173658772,1150
2909.8070115340597,1222
2911.5465212814497,1186
2913.285703208527,1181
2915.0245576229563,1167
2916.7630848324807,1225
2918.5012851449196,1160
2920.2391588681758,1237
2921.976706310227,1209
2923.7139277791334,1205
2925.4508235830313,1138
2927.187394030137,1186
2928.923639428745,1210
2930.6595600872306,1095
2932.395156314046,1182
2934.1304284177218,1244
2935.8653767068713,1169
2937.6000014901815,1210
2939.3343030764227,1166
2941.068281774442,1148
2942.8019378931644,1202
2944.5352717415976,1160
2946.2682836288236,1221
2948.0009738640065,1163
2949.7333427563885,1184
2951.465390615289,1146
2953.1971177501086,1181
2954.9285244703265,1189
2956.6596110855,1134
2958.3903779052657,1201
2960.1208252393385,1169
2961.8509533975125,1173
2963.5807626896617,1206
2965.3102534257378,1162
2967.0394259157715,1116
2968.768280469873,1162
2970.496817398232,1147
2972.2250370111146,1170
2973.952939618869,1133
2975.6805255319196,1113
2977.4077950607707,1187
2979.134748516006,1164
2980.861386208289,1179
2982.587708448359,1149
2984.313715547037,1176
2986.039407815222,1214
2987.764785563891,1139
2989.489849104102,1182
2991.2145987469908,1140
2992.9390348037705,1195
2994.6631575857346,1230
2996.3869674042576,1166
2998.1104645707887,1173
2999.83364939686,1128
3001.5565221940783,1241
3003.2790832741334,1183
3005.0013329487924,1223
3006.7232715298996,1137
3008.4448993293804,1177
3010.166216659239,1158
3011.887223831558,1187
3013.607921158498,1192
3015.3283089522993,1141
3017.0483875252826,1221
3018.7681571898443,1211
3020.4876182584626,1187
3022.2067710436927,1171
3023.9256158581707,1189
3025.644153014609,1191
3027.362382825801,1174
3029.0803056046193,1160
3030.797921664012,1173
3032.5152313170106,1161
3034.2322348767225,1197
3035.9489326563353,1149
3037.665324969115,1180
3039.3814121284063,1215
3041.097194447633,1201
3042.812672240299,1166
3044.5278458199855,1162
3046.2427155003525,1160
3047.9572815951406,1181
3049.671544418167,1192
3051.38550428333,1142
3053.0991615046073,1117
3054.812516396051,1115
3056.5255692717974,1159
3058.2383204460575,1181
3059.9507702331257,1185
3061.662918947372,1164
3063.3747669032446,1146
3065.0863144152736,1218
3066.7975617980674,1167
3068.508509366309,1177
3070.219157434767,1201
3071.9295063182844,1174
3073.639556331785,1156
3075.3493077902704,1162
3077.058761008821,1206
3078.7679163025964,1210
3080.476773986837,1188
3082.1853343768594,1214
3083.89359778806,1185
3085.6015645359153,1195
3087.3092349359786,1181
3089.016609303884,1175
3090.7236879553434,1201
3092.4304712061476,1164
3094.136959372166,1149
3095.843152769349,1168
3097.5490517137237,1167
3099.2546565213966,1243
3100.959967508554,1172
3102.66498499146,1143
3104.3697092864577,1218
3106.0741407099695,1217
3107.778279578498,1198
3109.482126208622,1153
3111.1856809170004,1163
3112.8889440203716,1192
3114.5919158355528,1196
3116.294596679439,1161
3117.996986869006,1197
3119.6990867213062,1223
3121.4008965534726,1153
3123.102416682717,1152
3124.803647426329,1191
3126.5045891016784,1140
3128.205242026213,1213
3129.90560651746,1224
3131.605682893025,1182
3133.3054714705922,1215
3135.0049725679282,1236
3136.7041865028714,1178
3138.4031135933465,1205
3140.101754157353,1161
3141.800108512971,1200
3143.498176978357,1144
3145.1959598717494,1205
3146.8934575114636,1160
3148.5906702158954,1176
3150.2875983035183,1196
3151.9842420928853,1179
3153.680601902627,1193
3155.376678051456,1157
3157.07247085816,1154
3158.767980641609,1145
3160.463207720748,1171
3162.158152414606,1222
3163.8528150422862,1192
3165.5471959229726,1160
3167.2412953759303,1108
3168.9351137204976,1191
3170.628651276098,1183
3172.3219083622307,1186
3174.014885298474,1196
3175.707582404485,1138
3177.4000000000005,1151
3179.092138404835,1190
3180.7839979388846,1174
3182.47557892212,1211
3184.166881674594,1153
3185.8579065164386,1215
3187.5486537678626,1136
3189.2391237491547,1177
3190.9293167806827,1199
3192.6192331828934,1138
3194.3088732763117,1203
3195.998237381542,1156
3197.687325819268,1151
3199.376138910251,1154
3201.064676975334,1157
3202.7529403354347,1179
3204.4409293115523,1167
3206.1286442247647,1128
3207.816085396229,1079
3209.5032531471825,1160
3211.190147798936,1156
3212.8767696728846,1187
3214.5631190905015,1129
3216.2491963733373,1171
3217.9350018430214,1191
3219.6205358212637,1134
3221.305798629851,1134
3222.990790590651,1162
3224.6755120256103,1201
3226.359963256751,1123
3228.0441446061795,1137
3229.7280563960758,1166
3231.411698948703,1141
3233.0950725863995,1149
3234.778177631587,1104
3236.461014406761,1131
3238.1435832345005,1133
3239.8258844374595,1091
3241.507918338374,1125
3243.1896852600576,1153
3244.8711855254023,1077
3246.552419457381,1139
3248.233387379042,1154
3249.914089613516,1138
3251.59452648401,1152
3253.274698313813,1193
3254.95460542629,1137
3256.6342481448855,1142
3258.313626793125,1154
3259.9927416946084,1135
3261.6715931730196,1109
3263.3501815521176,1108
3265.0285071557437,1132
3266.706570307815,1148
3268.3843713323286,1187
3270.0619105533615,1123
3271.739188295068,1126
3273.4162048816834,1131
3275.0929606375184,1113
3276.769455886966,1105
3278.445690954498,1101
3280.1216661646613,1158
3281.797381842087,1164
3283.4728383114807,1137
3285.1480358976296,1092
3286.8229749253996,1163
3288.4976557197333,1135
3290.172078605655,1116
3291.846243908266,1122
3293.5201519527463,1120
3295.193803064357,1123
3296.8671975684374,1110
3298.5403357904024,1123
3300.21321805575,1113
3301.8858446900567,1146
3303.558216018975,1114
3305.23033236824,1132
3306.9021940636603,1165
3308.57380143113,1129
3310.2451547966184,1149
3311.916254486174,1129
3313.5871008259246,1152
3315.2576941420766,1171
3316.9280347609147,1103
3318.5981230088046,1089
3320.2679592121895,1082
3321.9375436975924,1136
3323.606876791612,1120
3325.27595882093,1091
3326.944790112305,1134
3328.6133709925753,1135
3330.2817017886573,1103
3331.949782827547,1138
3333.617614436319,1155
3335.2851969421245,1138
3336.952530672199,1147
3338.619615953853,1190
3340.286453114475,1181
3341.9530424815357,1177
3343.619384382583,1151
3345.2854791452437,1192
3346.951327097224,1231
3348.6169285663073,1188
3350.2822838803577,1170
3351.947393367319,1185
3353.61225735521,1150
3355.2768761721345,1163
3356.9412501462693,1168
3358.605379605873,1133
3360.2692648792827,1127
3361.9329062949146,1144
3363.596304181263,1124
