CollectionTime,6/28/2024 3:05:49 PM
ExposureUsed,3
CalibratedSpectrum
-962.7078968117929,720
-959.9714848408522,787
-957.2358232597828,757
-954.5009119013725,792
-951.7667505983302,789
-949.0333391832855,782
-946.3006774887896,787
-943.5687653473143,779
-940.837602591253,846
-938.1071890529199,772
-935.3775245645503,779
-932.6486089583007,803
-929.9204420662485,768
-927.1930237203925,800
-924.4663537526524,767
-921.7404319948689,787
-919.0152582788041,806
-916.2908324361409,828
-913.5671542984834,813
-910.8442236973568,800
-908.1220404642074,811
-905.4006044304027,801
-902.679915427231,792
-899.959973285902,769
-897.2407778375464,716
-894.5223289132158,733
-891.8046263438832,733
-889.0876699604426,730
-886.3714595937089,742
-883.6559950744183,715
-880.9412762332282,680
-878.2273029007168,725
-875.5140749073835,730
-872.8015920836489,709
-870.0898542598545,705
-867.3788612662631,721
-864.6686129330585,711
-861.9591090903457,707
-859.2503495681506,711
-856.5423341964203,728
-853.8350628050229,764
-851.1285352237478,754
-848.4227512823054,710
-845.7177108103272,717
-843.0134136373656,718
-840.3098595928943,710
-837.6070485063082,770
-834.9049802069229,729
-832.2036545239757,749
-829.5030712866244,712
-826.8032303239481,703
-824.1041314649472,717
-821.4057745385428,714
-818.7081593735775,717
-816.0112857988148,734
-813.3151536429393,698
-810.6197627345566,732
-807.9251129021936,727
-805.2312039742981,698
-802.5380357792392,734
-799.8456081453069,755
-797.1539209007124,690
-794.462973873588,697
-791.772766891987,713
-789.083299783884,726
-786.3945723771743,707
-783.7065844996748,715
-781.0193359791231,739
-778.3328266431781,739
-775.6470563194197,739
-772.9620248353489,763
-770.2777320183878,724
-767.5941776958798,726
-764.9113616950891,717
-762.2292838432011,724
-759.5479439673222,775
-756.8673418944801,737
-754.1874774516235,744
-751.5083504656222,719
-748.8299607632671,769
-746.15230817127,737
-743.475392516264,737
-740.7992136248035,738
-738.1237713233636,751
-735.4490654383407,764
-732.7750957960521,739
-730.1018622227365,749
-727.4293645445534,767
-724.7576025875837,767
-722.0865761778291,801
-719.4162851412126,776
-716.7467293035781,788
-714.0779084906909,810
-711.409822528237,806
-708.7424712418238,813
-706.0758544569796,768
-703.4099719991541,778
-700.7448236937178,840
-698.0804093659622,802
-695.4167288411002,815
-692.7537819442656,852
-690.0915685005134,787
-687.4300883348199,809
-684.7693412720819,827
-682.1093271371178,844
-679.4500457546669,865
-676.7914969493897,842
-674.1336805458676,857
-671.4765963686034,866
-668.8202442420206,838
-666.1646239904642,854
-663.5097354382001,866
-660.8555784094151,849
-658.2021527282176,843
-655.5494582186366,871
-652.8974947046223,896
-650.2462620100463,869
-647.5957599587009,876
-644.9459883742998,864
-642.2969470804776,881
-639.6486359007902,918
-637.0010546587141,915
-634.3542031776476,883
-631.7080812809096,846
-629.0626887917401,854
-626.4180255333008,800
-623.7740913286734,834
-621.1308860008619,837
-618.4884093727904,843
-615.8466612673046,892
-613.2056415071715,848
-610.5653499150785,823
-607.9257863136347,815
-605.28695052537,836
-602.6488423727357,845
-600.0114616781036,813
-597.3748082637674,872
-594.7388819519412,839
-592.1036825647604,899
-589.4692099242818,833
-586.8354638524829,806
-584.2024441712624,854
-581.5701507024403,853
-578.9385832677575,852
-576.3077416888759,837
-573.6776257873787,855
-571.0482353847704,837
-568.4195703024757,841
-565.7916303618415,872
-563.164415384135,867
-560.5379251905453,842
-557.9121596021815,854
-555.2871184400748,824
-552.6628015251767,833
-550.0392086783606,892
-547.4163397204204,866
-544.794194472071,871
-542.1727727539491,910
-539.5520743866118,866
-536.9320991905377,910
-534.3128469861261,936
-531.6943175936979,944
-529.0765108334947,996
-526.4594265256793,1062
-523.8430644903358,1137
-521.2274245474689,1253
-518.612506517005,1452
-515.9983102187913,1480
-513.3848354725959,1530
-510.77208209810846,1626
-508.16004991493924,1788
-505.5487387426199,1809
-502.9381484006032,1966
-500.3282787082628,1990
-497.71912948489364,1984
-495.1107005497117,1920
-492.5029917218539,1822
-489.8960028203786,1534
-487.28973366426493,1419
-484.68418407241325,1252
-482.07935386364494,1210
-479.47524285670266,1140
-476.87185087025,1080
-474.2691777228715,1079
-471.66722323307334,1123
-469.0659872192821,1146
-466.4654694998459,1109
-463.86566989303384,1057
-461.26658821703614,1061
-458.66822428996414,1047
-456.07057792985,1011
-453.4736489546475,1073
-450.877437182231,1054
-448.28194243039627,1037
-445.68716451686,1058
-443.09310325926003,1053
-440.49975847515555,1017
-437.9071299820263,1096
-435.31521759727354,1016
-432.72402113821954,1023
-430.13354042210767,1040
-427.5437752661022,1061
-424.95472548728867,1152
-422.36639090267386,1156
-419.7787713291855,1113
-417.1918665836721,1137
-414.60567648290385,1140
-412.0202008435715,1125
-409.4354394822874,1134
-406.8513922155845,1133
-404.26805885991723,1116
-401.685439231661,1221
-399.103533147112,1152
-396.522340422488,1102
-393.9418608739278,1133
-391.3620943174908,1032
-388.7830405691583,1045
-386.2046994448317,1030
-383.6270707603344,980
-381.05015433141045,869
-378.473949973725,827
-375.8984575028645,840
-373.32367673433623,734
-370.74960748356875,702
-368.1762495659117,653
-365.60360279663576,601
-363.03166699093265,567
-360.4604419639154,577
-357.8899275306178,531
-355.32012350599507,531
-352.7510297049233,504
-350.1826459421999,478
-347.61497203254316,526
-345.04800779059235,504
-342.4817530309082,484
-339.91620756797226,517
-337.35137121618743,475
-334.7872437898774,496
-332.22382510328725,471
-329.66111497058273,525
-327.09911320585127,522
-324.53781962310075,506
-321.9772340362607,534
-319.4173562591816,518
-316.8581861056348,552
-314.2997233893127,521
-311.7419679238294,554
-309.1849195227194,533
-306.62857799943856,502
-304.0729431673641,525
-301.51801483979375,505
-298.963792829947,537
-296.41027695096386,556
-293.85746701590574,599
-291.3053628377552,656
-288.7539642294155,594
-286.2032710037115,550
-283.65328297338897,569
-281.1039999511146,568
-278.5554217494762,534
-276.007548180983,589
-273.4603790580651,590
-270.9139141930734,598
-268.3681533982807,643
-265.8230964858798,610
-263.27874326798565,655
-260.7350935566336,578
-258.1921471637804,624
-255.6499039013039,637
-253.10836358100266,610
-250.56752601459698,610
-248.02739101372765,664
-245.48795838995704,764
-242.94922795476816,689
-240.41119951956557,716
-237.8738728956746,688
-235.33724789434166,722
-232.80132432673452,777
-230.2661020039418,798
-227.73158073697357,680
-225.19776033676033,636
-222.66464061415422,684
-220.1322213799284,685
-217.60050244477725,730
-215.06948361931552,709
-212.53916471408013,728
-210.00954553952818,704
-207.48062590603843,698
-204.9524056239104,785
-202.4248845033651,829
-199.8980623545441,772
-197.37193898751036,780
-194.84651421224817,742
-192.32178783866232,823
-189.79775967657952,797
-187.27442953574644,757
-184.7517972258321,770
-182.2298625564256,776
-179.7086253370378,781
-177.18808537710026,796
-174.66824248596583,781
-172.14909647290835,790
-169.6306471471229,815
-167.11289431772548,775
-164.59583779375328,830
-162.07947738416453,874
-159.5638128978386,825
-157.04884414357605,930
-154.53457093009854,964
-152.02099306604828,910
-149.50811035998936,905
-146.99592262040665,924
-144.48442965570587,940
-141.97363127421409,927
-139.46352728417958,1000
-136.95411749377126,958
-134.44540171107985,1045
-131.93737974411636,1118
-129.43005140081357,1071
-126.92341648902493,1117
-124.41747481652521,1219
-121.91222619101006,1251
-119.40767042009657,1131
-116.90380731132257,1174
-114.40063667214702,1202
-111.8981583099503,1288
-109.3963720320337,1343
-106.89527764561933,1475
-104.39487495785067,1416
-101.89516377579241,1343
-99.39614390642998,1496
-96.89781515667039,1529
-94.40017733334128,1769
-91.90323024319173,1726
-89.40697369289148,1581
-86.91140748903172,1648
-84.41653143812482,1575
-81.92234534660395,1704
-79.42884902082358,1769
-76.93604226705907,1776
-74.4439248915071,1722
-71.95249670028534,1814
-69.46175749943245,1934
-66.97170709490854,2223
-64.48234529259423,2571
-61.99367189829195,2112
-59.50568671772464,2093
-57.01838955653636,2188
-54.53178022029283,2502
-52.045858514480074,2491
-49.560624244506016,2583
-47.07607721569923,2735
-44.59221723330904,2964
-42.10904410250669,2829
-39.62655762838392,3444
-37.14475761595372,4484
-34.66364387015028,5163
-32.18321619582866,5755
-29.70347439776515,6450
-27.224418280657005,8046
-24.74604764912317,11293
-22.26836230770266,18059
-19.7913620608565,29714
-17.315046712966478,39131
-14.83941606833514,42578
-12.36446993118659,65029
-9.89020810566592,65029
-7.416630395839093,65029
-4.94373660569363,65029
-2.471526539137585,65029
-6.821210263296962E-13,65029
2.47084320796705,65029
4.941003281093458,65029
7.410480415786196,65029
9.879274808531363,65029
12.347386655893956,65029
14.814816154518212,65029
17.28156350112681,65029
19.74762889252179,65029
22.21301252558385,65029
24.67771459727237,43043
27.141735304626195,17401
29.605074844762612,12560
32.06773341487792,8888
34.52971121224755,6701
36.99100843422559,7038
39.45162527824516,7431
41.91156194181792,5770
44.370818622535126,6563
46.82939551806646,8533
49.287292826160524,8545
51.74451074464503,8358
54.201049471426245,7181
56.65690920448981,5632
59.112090141899785,4595
61.56659248179983,3466
64.02041642241159,2527
66.4735621620365,2673
68.92602989905402,2090
71.37781983192338,1948
73.82893215918205,2500
76.27936707944684,2350
78.72912479141326,2206
81.17820549385567,2204
83.62660938562783,2077
86.07433666566146,2074
88.5213875329681,2353
90.96776218663751,2111
93.41346082583925,2043
95.85848364982041,1867
98.30283085790859,1870
100.7465026495089,2043
103.18949922410604,1893
105.63182078126385,1805
108.07346752062438,1800
110.51443964190923,1576
112.95473734491827,1309
115.39436082953114,1393
117.83331029570547,1421
120.27158594347827,1742
122.7091879729652,1397
125.1461165843615,1349
127.58237197794062,1441
130.01795435405518,1236
132.4528639131364,1315
134.88710085569494,1422
137.32066538231982,1385
139.75355769367923,1409
142.1857779905207,1441
144.61732647366978,1574
147.04820334403132,1509
149.47840880258934,1522
151.90794305040674,1534
154.33680628862487,1675
156.76499871846443,1701
159.19252054122433,1960
161.61937195828352,2079
164.04555317109896,2044
166.47106438120693,2263
168.89590579022217,2644
171.320077599839,2688
173.7435800118302,2810
176.16641322804742,2773
178.58857745042144,2985
181.01007288096173,2935
183.43089972175687,3045
185.85105817497413,2883
188.27054844285988,3064
190.6893707277394,2975
193.10752523201643,2994
195.5250121581745,3057
197.9418317087751,3127
200.3579840864594,3202
202.7734694939469,3302
205.18828813403627,3056
207.6024402096051,3087
210.01592592360964,3029
212.42874547908548,3005
214.84089907914665,2917
217.2523869269868,3049
219.66320922587727,3012
222.0733661791695,3069
224.48285799029293,3063
226.8916848627572,3102
229.29984700014882,3220
231.7073446061355,3424
234.11417788446204,3376
236.520347038953,3254
238.92585227351185,3469
241.33069379212054,3543
243.73487179884035,3539
246.1383864978112,3631
248.541238093252,3651
250.9434267894609,3726
253.34495279081432,3739
255.74581630176783,3631
258.1460175268563,3827
260.54555667069314,3833
262.9444339379703,3666
265.3426495334594,3671
267.7402036620107,3483
270.1370965285529,3278
272.53332833809407,3125
274.9288992957214,3135
277.32380960660055,2862
279.718059475976,2894
282.1116491091717,2742
284.5045787115897,2811
286.89684848871195,2832
289.2884586460981,2811
291.67940938938807,2788
294.0697009242996,2801
296.4593334566299,2692
298.84830719225477,2806
301.23662233712923,2698
303.6242790972866,2667
306.01127767884,2662
308.39761828798066,2728
310.78330113097934,2667
313.16832641418534,2576
315.5526943440269,2543
317.9364051270112,2513
320.3194589697242,2397
322.70185607883093,2428
325.0835966610754,2409
327.4646809232805,2380
329.8451090723478,2395
332.2248813152577,2314
334.6039978590701,2344
336.9824589109231,2307
339.36026467803447,2299
341.7374153677,2317
344.113911187295,2296
346.48975234427337,2281
348.8649390461686,2247
351.2394715005918,2243
353.61334991523415,2232
355.9865744978655,2186
358.35914545633375,2207
360.73106299856715,2247
363.10232733257146,2169
365.47293866643247,2190
367.84289720831396,2200
370.2122031664593,2152
372.5808567491905,2149
374.9488581649083,2130
377.31620762209275,2172
379.6829053293021,2158
382.0489514951745,2122
384.4143463284262,1987
386.7790900378528,2117
389.14318283232853,2131
391.50662492080653,2092
393.86941651231916,2113
396.23155781597745,1988
398.5930490409713,1996
400.9538903965696,2105
403.3140820921202,2074
405.6736243370498,2088
408.03251734086336,2073
410.3907613131465,2064
412.74835646356166,2083
415.10530300185144,1997
417.4616011378372,2091
419.81725108141893,2109
422.1722530425758,1974
424.5266072313656,1966
426.880313857925,1985
429.2333731324701,2059
431.58578526529516,1942
433.9375504667738,1950
436.2886689473588,1950
438.63914091758113,1960
440.9889665880513,1981
443.33814616945835,1932
445.68667987257015,2018
448.03456790823395,1931
450.3818104873759,1919
452.72840782100013,2058
455.07436012019105,1989
457.41966759611057,1951
459.7643304600007,1964
462.10834892318155,2006
464.4517231970525,1964
466.79445349309174,1980
469.1365400228566,2038
471.4779829979826,2067
473.81878263018564,1972
476.15893913125876,2004
478.4984527130747,2115
480.8373235875855,2051
483.17555196682144,2155
485.5131380628919,2236
487.8500820879857,2181
490.1863842543697,2335
492.52204477439034,2376
494.8570638604725,2685
497.1914417251204,2877
499.52517858091653,3178
501.85827464052306,3390
504.19073011668036,3555
506.5225452222086,3590
508.85372017000566,3554
511.18425517304956,3515
513.514150444396,3647
515.8434061971808,4150
518.1720226446176,4515
520.4999999999999,4759
522.8273384766991,4983
525.1540382881666,5083
527.480099647932,4835
529.8055227696037,3769
532.1303078668694,2735
534.454455153496,2284
536.777964843328,2081
539.1008371502907,1972
541.4230722883866,1908
543.744670471698,1885
546.0656319143858,1858
548.3859568306899,1890
550.7056454349294,1819
553.0246979415016,1883
555.3431145648834,1800
557.6608955196306,1771
559.978041020377,1722
562.2945512818363,1803
564.6104265188006,1830
566.9256669461412,1782
569.2402727788082,1810
571.5542442318302,1782
573.8675815203156,1782
576.1802848594508,1777
578.4923544645015,1772
580.8037905508126,1780
583.114593333807,1860
585.4247630289875,1815
587.7342998519354,1806
590.0432040183106,1734
592.3514757438526,1797
594.6591152443794,1739
596.9661227357875,1747
599.2724984340531,1742
601.578242555231,1725
603.8833553154542,1848
606.1878369309362,1854
608.4916876179676,1816
610.7949075929192,1946
613.0974970722403,1830
615.3994562724587,1835
617.7007854101818,1839
620.0014847020951,1834
622.3015543649641,1780
624.6009946156324,1837
626.8998056710224,1799
629.1979877481361,1825
631.4955410640538,1840
633.7924658359349,1816
636.0887622810175,1930
638.3844306166192,1826
640.6794710601358,1888
642.9738838290426,1828
645.2676691408932,1945
647.5608272133207,1897
649.853358264037,1855
652.1452625108324,1829
654.4365401715764,1852
656.7271914642178,1831
659.0172166067838,1901
661.3066158173809,1871
663.5953893141935,1888
665.8835373154867,1862
668.1710600396028,1881
670.4579577049639,1924
672.7442305300709,1907
675.0298787335033,1875
677.3149025339197,1905
679.599302150058,1928
681.8830778007342,1964
684.1662297048437,1872
686.4487580813608,1856
688.7306631493387,1893
691.0119451279091,1910
693.2926042362834,1892
695.5726406937516,1867
697.8520547196814,1915
700.1308465335215,1913
702.4090163547982,1905
704.6865644031171,1913
706.9634908981619,1903
709.2397960596965,1835
711.5154801075631,1914
713.7905432616823,1925
716.0649857420548,1815
718.3388077687592,1870
720.612009561953,1883
722.8845913418733,1830
725.1565533288352,1821
727.427895743234,1822
729.6986188055427,1934
731.9687227363137,1897
734.238207756178,1868
736.5070740858458,1833
738.7753219461066,1863
741.0429515578281,1783
743.3099631419569,1825
745.5763569195191,1834
747.8421331116193,1857
750.1072919394409,1888
752.3718336242467,1770
754.6357583873777,1905
756.8990664502545,1853
759.1617580343765,1874
761.423833361321,1832
763.6852926527457,1833
765.9461361303862,1848
768.206364016058,1824
770.4659765316536,1854
772.7249738991469,1860
774.9833563405886,1862
777.2411240781092,1853
779.4982773339183,1857
781.7548163303044,1932
784.010741289634,1867
786.2660524343538,1921
788.5207499869881,1809
790.7748341701416,1855
793.0283052064964,1828
795.2811633188143,1848
797.5334087299362,1897
799.7850416627813,1855
802.0360623403484,1856
804.2864709857143,1899
806.5362678220353,1864
808.7854530725468,1878
811.0340269605625,1855
813.2819897094754,1829
815.5293415427581,1907
817.77608268396,1921
820.0222133567116,1847
822.2677337847211,1890
824.5126441917765,1843
826.7569448017433,1917
829.0006358385675,1888
831.2437175262731,1822
833.4861900889629,1846
835.7280537508192,1913
837.9693087361026,1833
840.2099552691533,1885
842.4499935743896,1888
844.689423876309,1925
846.9282463994886,1907
849.1664613685833,1827
851.4040690083276,1951
853.6410695435349,1833
855.877463199097,1934
858.1132501999847,1920
860.3484307712487,1860
862.5830051380175,1855
864.8169735254988,1860
867.0503361589791,1833
869.2830932638243,1906
871.5152450654786,1923
873.7467917894654,1863
875.9777336613873,1871
878.2080709069252,1959
880.4378037518389,1909
882.666932421968,1919
884.8954571432301,1976
887.1233781416219,2012
889.3506956432192,1955
891.5774098741766,1990
893.803521060728,1978
896.0290294291852,1965
898.2539352059397,1957
900.4782386174619,2043
902.7019398903011,1939
904.925039251085,1975
907.147536926521,1965
909.3694331433943,2000
911.59072812857,1947
913.8114221089921,1867
916.0315153116827,1929
918.2510079637437,1920
920.4699002923547,1879
922.6881925247761,1913
924.905884888345,1863
927.1229776104793,1966
929.3394709186747,1942
931.555365040506,2027
933.7706602036275,1960
935.9853566357709,1988
938.1994545647489,1981
940.4129542184515,1937
942.6258558248488,1933
944.8381596119883,1983
947.0498658079974,1892
949.2609746410825,1908
951.4714863395287,1964
953.6814011316998,1936
955.8907192460387,1980
958.0994409110671,1867
960.3075663553858,1918
962.5150958076741,1914
964.7220294966913,1913
966.928367651274,1912
969.1341105003388,1822
971.3392582728806,1876
973.5438111979742,1820
975.747769504772,1887
977.9511334225061,1815
980.153903180487,1940
982.3560790081052,1800
984.5576611348289,1816
986.7586497902058,1863
988.9590452038618,1730
991.158847605503,1767
993.3580572249133,1709
995.5566742919558,1651
997.7546990365728,1691
999.952131688785,1702
1002.1489724786926,1666
1004.3452216364743,1665
1006.5408793923874,1634
1008.7359459767691,1597
1010.9304216200343,1536
1013.1243065526781,1581
1015.3176010052733,1557
1017.510305208472,1512
1019.7024193930064,1579
1021.8939437896848,1525
1024.0848786293977,1558
1026.2752241431122,1565
1028.4649805618747,1592
1030.6541481168115,1498
1032.842727039127,1499
1035.0307175601051,1522
1037.2181199111074,1567
1039.4049343235752,1511
1041.591161029029,1529
1043.7768002590683,1553
1045.9618522453698,1526
1048.1463172196918,1596
1050.3301954138697,1547
1052.513487059818,1493
1054.69619238953,1545
1056.8783116350783,1559
1059.0598450286152,1496
1061.2407928023704,1511
1063.4211551886528,1569
1065.6009324198508,1523
1067.780124728432,1510
1069.9587323469414,1495
1072.1367555080046,1410
1074.314194444325,1501
1076.4910493886855,1474
1078.667320573947,1528
1080.843008233051,1447
1083.0181125990161,1436
1085.1926339049414,1386
1087.3665723840027,1401
1089.5399282694575,1369
1091.7127017946405,1376
1093.8848931929647,1414
1096.0565026979243,1424
1098.2275305430899,1482
1100.3979769621128,1379
1102.567842188722,1425
1104.737126456726,1404
1106.9058300000124,1400
1109.0739530525475,1384
1111.2414958483764,1341
1113.4084586216231,1358
1115.5748416064907,1399
1117.7406450372605,1431
1119.9058691482942,1404
1122.0705141740304,1386
1124.2345803489884,1374
1126.3980679077658,1383
1128.5609770850388,1317
1130.7233081155623,1392
1132.8850612341707,1388
1135.0462366757774,1399
1137.2068346753745,1375
1139.3668554680326,1384
1141.526299288901,1356
1143.68516637321,1348
1145.8434569562655,1312
1148.001171273455,1363
1150.158309560244,1337
1152.3148720521767,1341
1154.470858984876,1303
1156.626270594044,1397
1158.7811071154629,1405
1160.9353687849912,1407
1163.089055838569,1401
1165.242168512213,1360
1167.3947070420209,1329
1169.5466716641677,1328
1171.6980626149075,1346
1173.8488801305748,1324
1175.9991244475814,1298
1178.1487958024186,1338
1180.2978944316555,1366
1182.4464205719428,1383
1184.5943744600072,1322
1186.7417563326567,1369
1188.8885664267755,1384
1191.0348049793297,1405
1193.1804722273619,1341
1195.325568407995,1420
1197.4700937584303,1398
1199.614048515948,1392
1201.7574329179074,1376
1203.900247201746,1378
1206.042491604982,1402
1208.1841663652099,1375
1210.3252717201053,1391
1212.465807907422,1389
1214.6057751649923,1425
1216.7451737307279,1362
1218.8840038426192,1415
1221.0222657387353,1356
1223.1599596572241,1390
1225.2970858363137,1355
1227.4336445143094,1335
1229.5696359295966,1397
1231.705060320639,1393
1233.8399179259786,1448
1235.9742089842384,1402
1238.107933734118,1419
1240.2410924143974,1382
1242.373685263935,1336
1244.5057125216676,1387
1246.6371744266116,1402
1248.7680712178621,1411
1250.898403134593,1382
1253.028170416058,1418
1255.1573733015875,1451
1257.2860120305932,1447
1259.4140868425648,1403
1261.54159797707,1361
1263.6685456737569,1443
1265.7949301723515,1431
1267.9207517126597,1444
1270.046010534565,1445
1272.1707068780306,1470
1274.2948409830983,1468
1276.4184130898889,1430
1278.541423438603,1497
1280.6638722695184,1452
1282.785759822993,1474
1284.9070863394636,1425
1287.0278520594447,1389
1289.1480572235314,1509
1291.2677020723963,1447
1293.3867868467923,1491
1295.5053117875495,1510
1297.623277135579,1447
1299.740683131868,1505
1301.8575300174857,1491
1303.973818033578,1528
1306.0895474213703,1548
1308.2047184221678,1489
1310.3193312773528,1508
1312.4333862283888,1530
1314.5468835168163,1568
1316.659823384255,1576
1318.7722060724045,1591
1320.8840318230418,1580
1322.9953008780249,1551
1325.1060134792888,1517
1327.2161698688478,1544
1329.3257702887959,1538
1331.4348149813054,1474
1333.5433041886276,1559
1335.6512381530933,1586
1337.7586171171101,1494
1339.8654413231675,1572
1341.9717110138317,1523
1344.0774264317488,1522
1346.1825878196432,1519
1348.2871954203192,1529
1350.3912494766587,1556
1352.4947502316231,1457
1354.5976979282532,1575
1356.7000928096686,1579
1358.8019351190665,1526
1360.9032250997243,1497
1363.0039629949988,1496
1365.1041490483235,1532
1367.2037835032133,1497
1369.3028666032606,1517
1371.401398592137,1521
1373.4993797135926,1537
1375.5968102114575,1529
1377.6936903296396,1517
1379.7900203121262,1540
1381.8858004029835,1526
1383.9810308463561,1606
1386.075711886469,1569
1388.1698437676241,1613
1390.2634267342032,1576
1392.356461030667,1627
1394.4489469015557,1599
1396.5408845914872,1617
1398.6322743451592,1672
1400.7231164073469,1572
1402.813411022907,1644
1404.903158436773,1639
1406.9923588939578,1616
1409.0810126395531,1628
1411.1691199187303,1728
1413.2566809767386,1632
1415.343696058907,1670
1417.4301654106425,1696
1419.5160892774315,1690
1421.6014679048399,1647
1423.6863015385125,1707
1425.7705904241707,1652
1427.8543348076178,1677
1429.9375349347342,1761
1432.0201910514802,1737
1434.102303403894,1782
1436.1838722380944,1716
1438.2648978002767,1821
1440.3453803367174,1883
1442.4253200937692,1847
1444.5047173178677,1860
1446.5835722555234,1893
1448.6618851533285,1923
1450.739656257952,1968
1452.8168858161434,1997
1454.8935740747306,1982
1456.96972128062,2023
1459.045327680797,2131
1461.120393522327,2080
1463.1949190523528,2172
1465.2689045180973,2202
1467.3423501668608,2211
1469.415256246024,2358
1471.4876230030463,2269
1473.559450685465,2328
1475.6307395408976,2359
1477.7014898170391,2483
1479.771701761665,2458
1481.8413756226287,2498
1483.9105116478618,2604
1485.9791100853772,2616
1488.0471711832643,2635
1490.1146951896926,2663
1492.1816823529098,2725
1494.2481329212433,2834
1496.3140471430984,2830
1498.3794252669609,2839
1500.4442675413939,2985
1502.5085742150404,2889
1504.572345536622,2923
1506.6355817549388,2927
1508.6982831188702,2939
1510.7604498773744,2911
1512.8220822794883,2988
1514.8831805743293,3054
1516.9437450110909,3028
1519.003775839048,3094
1521.0632733075522,3141
1523.1222376660367,3140
1525.1806691640113,3125
1527.2385680510652,3211
1529.2959345768668,3270
1531.3527689911643,3270
1533.4090715437833,3421
1535.4648424846291,3370
1537.5200820636855,3542
1539.5747905310159,3595
1541.6289681367616,3593
1543.6826151311434,3622
1545.7357317644614,3743
1547.7883182870937,3699
1549.8403749494987,3802
1551.8919020022113,3817
1553.9428996958477,3930
1555.9933682811015,3993
1558.0433080087469,4098
1560.0927191296346,4133
1562.1416018946961,4139
1564.1899565549415,4313
1566.2377833614592,4278
1568.2850825654164,4225
1570.3318544180606,4197
1572.3780991707158,3977
1574.423817074788,3890
1576.4690083817595,3768
1578.5136733431923,3566
1580.5578122107272,3410
1582.601425236085,3205
1584.6445126710646,3044
1586.6870747675434,2923
1588.7291117774776,2712
1590.7706239529034,2573
1592.8116115459347,2489
1594.8520748087658,2402
1596.8920139936686,2308
1598.9314293529933,2187
1600.9703211391711,2099
1603.008689604711,2001
1605.0465350022005,2014
1607.0838575843068,1949
1609.1206576037753,1921
1611.1569353134305,1893
1613.1926909661765,1823
1615.2279248149953,1822
1617.2626371129481,1696
1619.2968281131757,1723
1621.3304980688963,1760
1623.3636472334088,1671
1625.39627586009,1613
1627.428384202396,1617
1629.459972513861,1609
1631.4910410480993,1635
1633.5215900588028,1553
1635.551619799744,1548
1637.5811305247717,1613
1639.6101224878166,1529
1641.6385959428862,1524
1643.6665511440683,1607
1645.693988345528,1434
1647.7209078015112,1514
1649.7473097663405,1467
1651.7731944944203,1475
1653.7985622402307,1514
1655.823413258333,1463
1657.847747803366,1413
1659.8715661300494,1445
1661.8948684931793,1480
1663.9176551476316,1466
1665.9399263483624,1477
1667.9616823504057,1497
1669.982923408873,1446
1672.0036497789574,1431
1674.0238617159293,1404
1676.043559475138,1445
1678.0627433120121,1426
1680.081413482059,1467
1682.0995702408654,1453
1684.117213844096,1428
1686.134344547495,1481
1688.1509626068864,1451
1690.1670682781705,1424
1692.182661817329,1420
1694.1977434804217,1404
1696.2123135235875,1451
1698.226372203043,1429
1700.2399197750851,1432
1702.2529564960905,1454
1704.2654826225112,1397
1706.277498410882,1393
1708.2890041178139,1426
1710.2999999999988,1421
1712.3104863142066,1433
1714.3204633172854,1398
1716.329931266163,1413
1718.3388904178469,1404
1720.3473410294214,1345
1722.3552833580516,1390
1724.3627176609807,1432
1726.3696441955308,1369
1728.3760632191033,1328
1730.3819749891782,1411
1732.3873797633146,1447
1734.3922777991502,1419
1736.3966693544012,1351
1738.4005546868639,1374
1740.4039340544127,1324
1742.406807715001,1372
1744.4091759266616,1340
1746.4110389475054,1275
1748.4123970357223,1268
1750.413250449582,1317
1752.4135994474318,1295
1754.4134442876993,1296
1756.4127852288902,1339
1758.4116225295893,1301
1760.4099564484595,1347
1762.407787244244,1297
1764.405115175764,1270
1766.4019405019203,1249
1768.3982634816916,1307
1770.3940843741357,1313
1772.3894034383907,1268
1774.3842209336717,1289
1776.378537119274,1268
1778.372352254571,1234
1780.3656665990156,1338
1782.3584804121397,1232
1784.3507939535534,1247
1786.3426074829463,1241
1788.3339212600863,1264
1790.3247355448211,1250
1792.3150505970766,1260
1794.3048666768573,1215
1796.2941840442477,1259
1798.2830029594106,1298
1800.2713236825884,1294
1802.2591464741004,1226
1804.2464715943465,1299
1806.2332993038058,1205
1808.2196298630352,1219
1810.2054635326708,1238
1812.190800573428,1240
1814.175641246101,1278
1816.1599858115628,1244
1818.1438345307652,1240
1820.127187664738,1230
1822.1100454745924,1318
1824.092408221516,1274
1826.0742761667766,1270
1828.055649571721,1197
1830.0365286977735,1200
1832.0169138064398,1234
1833.9968051593014,1287
1835.9762030180214,1225
1837.9551076443408,1256
1839.9335193000788,1239
1841.9114382471344,1214
1843.888864747485,1230
1845.8657990631878,1264
1847.842241456378,1241
1849.8181921892697,1210
1851.7936515241558,1252
1853.7686197234098,1257
1855.7430970494815,1184
1857.7170837649014,1246
1859.6905801322787,1209
1861.6635864143004,1248
1863.6361028737338,1199
1865.608129773424,1254
1867.5796673762961,1273
1869.5507159453537,1238
1871.521275743678,1258
1873.4913470344313,1279
1875.4609300808534,1225
1877.4300251462632,1249
1879.3986324940588,1229
1881.366752387717,1293
1883.3343850907936,1229
1885.3015308669228,1295
1887.268189979819,1227
1889.2343626932739,1244
1891.2000492711595,1230
1893.1652499774254,1316
1895.1299650761011,1290
1897.0941948312952,1227
1899.0579395071945,1228
1901.0211993680641,1264
1902.98397467825,1299
1904.9462657021745,1249
1906.9080727043415,1225
1908.869395949332,1244
1910.8302357018065,1262
1912.790592226504,1266
1914.7504657882428,1329
1916.7098566519212,1276
1918.6687650825133,1250
1920.6271913450764,1216
1922.5851357047422,1254
1924.5425984267245,1269
1926.499579776314,1166
1928.4560800188833,1230
1930.4120994198802,1261
1932.367638244833,1268
1934.32269675935,1199
1936.2772752291175,1243
1938.231373919899,1241
1940.1849930975404,1230
1942.1381330279637,1264
1944.0907939771696,1240
1946.0429762112412,1214
1947.9946799963363,1251
1949.9459055986945,1310
1951.896653284633,1272
1953.8469233205478,1297
1955.7967159729142,1244
1957.7460315082863,1265
1959.6948701932974,1284
1961.6432322946594,1255
1963.5911180791632,1240
1965.5385278136787,1194
1967.4854617651545,1245
1969.4319202006182,1228
1971.377903387176,1238
1973.3234115920136,1300
1975.268445082395,1283
1977.2130041256642,1219
1979.1570889892423,1241
1981.1006999406304,1221
1983.04383724741,1181
1984.986501177238,1184
1986.928691997853,1224
1988.8704099770712,1194
1990.811655382789,1267
1992.7524284829801,1176
1994.692729545698,1248
1996.6325588390755,1230
1998.5719166313224,1190
2000.5108031907307,1207
2002.4492187856677,1202
2004.387163684583,1205
2006.3246381560011,1191
2008.2616424685298,1209
2010.1981768908527,1177
2012.1342416917332,1248
2014.069837140014,1177
2016.0049635046162,1213
2017.9396210545406,1188
2019.8738100588666,1247
2021.8075307867502,1162
2023.740783507431,1196
2025.6735684902228,1208
2027.6058860045214,1159
2029.5377363198004,1178
2031.4691197056118,1193
2033.4000364315875,1154
2035.3304867674374,1154
2037.260470982952,1212
2039.189989347998,1134
2041.1190421325232,1140
2043.047629606554,1207
2044.9757520401945,1204
2046.9034097036288,1238
2048.8306028671195,1223
2050.7573318010086,1205
2052.683596775716,1189
2054.609398061742,1201
2056.5347359296647,1176
2058.4596106501403,1220
2060.384022493906,1208
2062.3079717317764,1198
2064.231458634646,1210
2066.1544834734873,1201
2068.077046519352,1118
2069.99914804337,1209
2071.9207883167524,1245
2073.8419676107865,1235
2075.7626861968406,1173
2077.6829443463607,1238
2079.6027423308715,1193
2081.522080421977,1191
2083.440958891362,1186
2085.359378010786,1209
2087.2773380520907,1191
2089.194839287196,1189
2091.111881988101,1241
2093.0284664268825,1158
2094.9445928756973,1196
2096.86026160678,1206
2098.775472892446,1161
2100.690227005088,1202
2102.604524217178,1154
2104.5183648012676,1122
2106.431749029985,1196
2108.34467717604,1169
2110.2571495122206,1169
2112.169166311393,1227
2114.080727846503,1173
2115.9918343905747,1195
2117.902486216711,1141
2119.8126835980956,1178
2121.722426807987,1181
2123.6317161197285,1218
2125.5405518067364,1149
2127.448934142509,1141
2129.356863400624,1218
2131.264339854737,1172
2133.1713637785815,1226
2135.077935445972,1229
2136.9840551308002,1155
2138.889723107037,1254
2140.7949396487334,1185
2142.699705030018,1221
2144.6040195250994,1177
2146.507883408264,1175
2148.4112969538774,1174
2150.3142604363848,1172
2152.2167741303097,1173
2154.1188383102535,1176
2156.0204532508997,1228
2157.9216192270064,1198
2159.822336513414,1176
2161.7226053850413,1223
2163.622426116884,1212
2165.5217989840185,1182
2167.4207242616,1230
2169.319202224862,1198
2171.2172331491165,1255
2173.1148173097563,1158
2175.0119549822507,1165
2176.90864644215,1234
2178.8048919650823,1243
2180.7006918267534,1195
2182.596046302952,1189
2184.4909556695407,1222
2186.3854202024645,1156
2188.279440177746,1186
2190.173015871487,1205
2192.066147559868,1189
2193.958835519149,1167
2195.851080025667,1161
2197.7428813558417,1146
2199.6342397861667,1170
2201.5251555932186,1224
2203.415629053651,1195
2205.3056604441986,1157
2207.19525004167,1211
2209.084398122958,1223
2210.9731049650327,1198
2212.861370844941,1203
2214.749196039812,1236
2216.636580826851,1166
2218.523525483344,1216
2220.410030286655,1155
2222.296095514226,1204
2224.1817214435805,1217
2226.066908352319,1224
2227.951656518121,1226
2229.835966218746,1193
2231.71983773203,1216
2233.6032713358913,1199
2235.486267308324,1225
2237.3688259274036,1207
2239.2509474712824,1234
2241.132632218193,1226
2243.013880446447,1174
2244.8946924344323,1214
2246.7750684606203,1219
2248.6550088035574,1192
2250.534513741871,1166
2252.413583554265,1182
2254.292218519526,1162
2256.170418916517,1138
2258.0481850241786,1169
2259.925517121534,1190
2261.8024154876825,1212
2263.678880401803,1143
2265.5549121431536,1175
2267.430510991071,1155
2269.305677224971,1241
2271.180411124348,1236
2273.0547129687766,1189
2274.9285830379076,1211
2276.8020216114737,1232
2278.6750289692845,1190
2280.5476053912294,1137
2282.4197511572766,1169
2284.2914665474727,1215
2286.162751841943,1201
2288.0336073208937,1173
2289.904033264608,1168
2291.774029953448,1224
2293.6435976678554,1204
2295.5127366883517,1234
2297.381447295534,1237
2299.2497297700825,1239
2301.1175843927526,1256
2302.9850114443825,1181
2304.852011205885,1150
2306.7185839582553,1133
2308.5847299825664,1183
2310.4504495599676,1177
2312.3157429716925,1163
2314.1806104990483,1254
2316.0450524234247,1248
2317.9090690262888,1234
2319.772660589186,1216
2321.635827393742,1172
2323.498569721661,1215
2325.3608878547248,1220
2327.2227820747967,1232
2329.0842526638157,1214
2330.945299903803,1199
2332.805924076857,1243
2334.6661254651535,1211
2336.525904350951,1210
2338.3852610165827,1206
2340.244195744464,1227
2342.102708817088,1218
2343.9608005170253,1209
2345.8184711269287,1241
2347.675720929526,1212
2349.532550207628,1187
2351.38895924412,1218
2353.24494832197,1180
2355.100517724223,1209
2356.955667734004,1252
2358.810398634514,1261
2360.664710709037,1208
2362.5186042409337,1248
2364.3720795136437,1281
2366.225136810686,1222
2368.0777764156583,1247
2369.929998612237,1273
2371.7818036841777,1242
2373.633191915315,1261
2375.484163589562,1214
2377.3347189909114,1243
2379.184858403434,1232
2381.03458211128,1209
2382.8838903986775,1266
2384.732783549936,1302
2386.5812618494406,1273
2388.4293255816588,1230
2390.2769750311327,1233
2392.1242104824883,1233
2393.971032220427,1302
2395.8174405297295,1302
2397.6634356952563,1308
2399.509018001947,1242
2401.3541877348193,1286
2403.1989451789705,1270
2405.043290619576,1261
2406.8872243418905,1261
2408.730746631247,1267
2410.5738577730594,1266
2412.4165580528183,1303
2414.258847756095,1253
2416.100727168537,1290
2417.9421965758734,1262
2419.783256263912,1270
2421.623906518538,1275
2423.4641476257157,1323
2425.303979871491,1307
2427.143403541984,1287
2428.9824189233977,1277
2430.821026302012,1245
2432.6592259641866,1309
2434.497018196361,1297
2436.33440328505,1304
2438.171381516851,1312
2440.00795317844,1286
2441.844118556569,1319
2443.6798779380724,1287
2445.5152316098606,1307
2447.3501798589255,1302
2449.1847229723357,1274
2451.0188612372403,1280
2452.8525949408663,1208
2454.6859243705203,1242
2456.518849813587,1312
2458.3513715575314,1260
2460.183489889895,1308
2462.015205098301,1286
2463.8465174704493,1289
2465.67742729412,1311
2467.5079348571717,1255
2469.338040447542,1275
2471.1677443532476,1276
2472.9970468623833,1298
2474.825948263123,1254
2476.6544488437207,1296
2478.482548892508,1301
2480.310248697896,1308
2482.137548548374,1224
2483.9644487325118,1273
2485.790949538956,1311
2487.617051256433,1299
2489.44275417375,1313
2491.26805857979,1285
2493.0929647635157,1326
2494.917473013971,1356
2496.741583620276,1265
2498.5652968716304,1276
2500.3886130573137,1280
2502.2115324666834,1320
2504.0340553891765,1356
2505.856182114308,1297
2507.6779129316733,1311
2509.499248130945,1337
2511.3201880018764,1337
2513.140732834298,1297
2514.9608829181198,1354
2516.780638543331,1342
2518.6,1333
2520.418967578273,1340
2522.237541568376,1357
2524.0557222606144,1359
2525.8735099453706,1318
2527.6909049131086,1368
2529.507907454368,1326
2531.32451785977,1397
2533.140736420014,1383
2534.9565634258774,1440
2536.771999168218,1400
2538.5870439379714,1368
2540.4016980261526,1421
2542.2159617238544,1387
2544.02983532225,1364
2545.8433191125914,1406
2547.656413386209,1430
2549.4691184345115,1435
2551.2814345489874,1465
2553.093362021204,1467
2554.904901142808,1470
2556.716052205523,1468
2558.526815501153,1577
2560.3371913215824,1452
2562.147179958771,1500
2563.956781704761,1540
2565.7659968516705,1569
2567.5748256916986,1540
2569.3832685171224,1544
2571.1913256202984,1623
2572.9989972936614,1589
2574.806283829725,1529
2576.613185521084,1585
2578.4197026604074,1599
2580.2258355404483,1581
2582.031584454035,1538
2583.836949694077,1623
2585.6419315535613,1593
2587.4465303255533,1548
2589.2507463032002,1656
2591.0545797797245,1625
2592.8580310484303,1581
2594.6611004026995,1662
2596.463788135992,1584
2598.266094541849,1627
2600.0680199138874,1609
2601.869564545807,1665
2603.670728731383,1652
2605.4715127644704,1770
2607.2719169390048,1686
2609.071941548998,1641
2610.8715868885433,1693
2612.670853251811,1699
2614.469740933052,1705
2616.268250226594,1689
2618.0663814268455,1711
2619.864134828292,1642
2621.6615107255006,1652
2623.458509413115,1703
2625.2551311858597,1616
2627.0513763385347,1624
2628.8472451660223,1611
2630.6427379632833,1605
2632.4378550253564,1542
2634.232596647359,1602
2636.026963124488,1596
2637.8209547520187,1585
2639.6145718253065,1596
2641.407814639785,1509
2643.200683490966,1483
2644.9931786744414,1502
2646.7853004858807,1497
2648.577049221034,1527
2650.3684251757277,1541
2652.1594286458712,1489
2653.9500599274484,1508
2655.740319316525,1469
2657.5302071092437,1481
2659.3197236018286,1463
2661.10886909058,1460
2662.8976438718782,1487
2664.686048242183,1425
2666.4740824980327,1468
2668.2617469360443,1386
2670.0490418529134,1415
2671.8359675454153,1380
2673.622524310403,1419
2675.408712444811,1381
2677.1945322456495,1398
2678.979984010009,1318
2680.76506803506,1331
2682.5497846180497,1338
2684.334134056306,1353
2686.1181166472343,1383
2687.9017326883213,1390
2689.6849824771293,1279
2691.4678663113013,1258
2693.2503844885596,1333
2695.032537306705,1276
2696.8143250636167,1319
2698.5957480572542,1268
2700.3768065856534,1283
2702.1575009469316,1355
2703.937831439283,1284
2705.717798360982,1258
2707.4974020103837,1240
2709.276642685917,1309
2711.055520686095,1235
2712.834036309506,1284
2714.612189854819,1239
2716.389981620782,1282
2718.1674119062204,1226
2719.944481010041,1247
2721.721189231226,1257
2723.4975368688415,1237
2725.273524222027,1207
2727.0491515900053,1242
2728.824419272075,1247
2730.5993275676146,1236
2732.3738767760838,1261
2734.148067197016,1218
2735.921899130031,1228
2737.6953728748194,1232
2739.468488731156,1248
2741.2412469988926,1238
2743.0136479779617,1228
2744.785691968372,1190
2746.5573792702116,1239
2748.3287101836504,1212
2750.099685008934,1198
2751.870304046388,1222
2753.640567596418,1234
2755.4104759595057,1177
2757.1800294362156,1187
2758.949228327187,1158
2760.7180729331412,1176
2762.486563554877,1200
2764.254700493272,1190
2766.022484049284,1205
2767.789914523947,1206
2769.5569922183786,1204
2771.3237174337705,1165
2773.090090471394,1194
2774.8561116326036,1127
2776.6217812188274,1163
2778.3870995315756,1218
2780.1520668724356,1225
2781.9166835430747,1234
2783.6809498452394,1166
2785.444866080754,1193
2787.2084325515225,1214
2788.971649559527,1161
2790.73451740683,1143
2792.4970363955713,1191
2794.2592068279705,1143
2796.0210290063264,1244
2797.7825032330147,1218
2799.543629810493,1220
2801.304409041296,1167
2803.0648412280366,1143
2804.8249266734088,1206
2806.5846656801846,1208
2808.344058551212,1168
2810.1031055894246,1254
2811.8618070978273,1205
2813.6201633795085,1186
2815.378174737636,1182
2817.1358414754536,1166
2818.893163896285,1166
2820.6501423035334,1235
2822.4067770006814,1217
2824.1630682912883,1231
2825.9190164789957,1270
2827.6746218675207,1220
2829.429884760661,1177
2831.184805462294,1273
2832.9393842763743,1228
2834.693621506936,1169
2836.4475174580916,1208
2838.201072434034,1160
2839.954286739034,1197
2841.707160677441,1149
2843.459694553685,1223
2845.2118886722724,1190
2846.96374333779,1211
2848.7152588549034,1197
2850.4664355283567,1177
2852.217273662973,1216
2853.9677735636546,1195
2855.7179355353833,1165
2857.4677598832186,1229
2859.217246912299,1157
2860.9663969278427,1165
2862.715210235146,1197
2864.4636871395846,1195
2866.211827946614,1214
2867.9596329617652,1201
2869.7071024906536,1146
2871.4542368389684,1192
2873.20103631248,1179
2874.947501217038,1153
2876.6936318585695,1118
2878.4394285430812,1232
2880.1848915766604,1235
2881.9300212654707,1185
2883.6748179157553,1157
2885.4192818338374,1192
2887.1634133261173,1164
2888.907212699077,1156
2890.6506802592744,1123
2892.393816313348,1180
2894.1366211680142,1170
2895.8790951300693,1156
2897.621238506388,1137
2899.363051603925,1162
2901.1045347297118,1179
2902.8456881908596,1190
2904.58651229456,1210
2906.327007348081,1217
2908.067173658772,1210
2909.8070115340597,1210
2911.5465212814497,1167
2913.285703208527,1178
2915.0245576229563,1181
2916.7630848324807,1170
2918.5012851449196,1180
2920.2391588681758,1171
2921.976706310227,1205
2923.7139277791334,1166
2925.4508235830313,1174
2927.187394030137,1151
2928.923639428745,1177
2930.6595600872306,1192
2932.395156314046,1211
2934.1304284177218,1144
2935.8653767068713,1141
2937.6000014901815,1170
2939.3343030764227,1183
2941.068281774442,1183
2942.8019378931644,1173
2944.5352717415976,1191
2946.2682836288236,1162
2948.0009738640065,1217
2949.7333427563885,1151
2951.465390615289,1176
2953.1971177501086,1178
2954.9285244703265,1151
2956.6596110855,1135
2958.3903779052657,1189
2960.1208252393385,1176
2961.8509533975125,1193
2963.5807626896617,1180
2965.3102534257378,1132
2967.0394259157715,1155
2968.768280469873,1143
2970.496817398232,1167
2972.2250370111146,1155
2973.952939618869,1171
2975.6805255319196,1206
2977.4077950607707,1161
2979.134748516006,1157
2980.861386208289,1197
2982.587708448359,1174
2984.313715547037,1145
2986.039407815222,1163
2987.764785563891,1235
2989.489849104102,1211
2991.2145987469908,1205
2992.9390348037705,1188
2994.6631575857346,1193
2996.3869674042576,1169
2998.1104645707887,1171
2999.83364939686,1192
3001.5565221940783,1172
3003.2790832741334,1186
3005.0013329487924,1167
3006.7232715298996,1154
3008.4448993293804,1131
3010.166216659239,1129
3011.887223831558,1142
3013.607921158498,1159
3015.3283089522993,1126
3017.0483875252826,1122
3018.7681571898443,1189
3020.4876182584626,1180
3022.2067710436927,1180
3023.9256158581707,1157
3025.644153014609,1144
3027.362382825801,1199
3029.0803056046193,1174
3030.797921664012,1195
3032.5152313170106,1159
3034.2322348767225,1153
3035.9489326563353,1154
3037.665324969115,1194
3039.3814121284063,1166
3041.097194447633,1156
3042.812672240299,1183
3044.5278458199855,1167
3046.2427155003525,1169
3047.9572815951406,1195
3049.671544418167,1168
3051.38550428333,1168
3053.0991615046073,1116
3054.812516396051,1207
3056.5255692717974,1190
3058.2383204460575,1201
3059.9507702331257,1146
3061.662918947372,1215
3063.3747669032446,1172
3065.0863144152736,1205
3066.7975617980674,1150
3068.508509366309,1170
3070.219157434767,1220
3071.9295063182844,1186
3073.639556331785,1194
3075.3493077902704,1153
3077.058761008821,1117
3078.7679163025964,1175
3080.476773986837,1215
3082.1853343768594,1180
3083.89359778806,1207
3085.6015645359153,1180
3087.3092349359786,1148
3089.016609303884,1176
3090.7236879553434,1180
3092.4304712061476,1163
3094.136959372166,1154
3095.843152769349,1176
3097.5490517137237,1147
3099.2546565213966,1197
3100.959967508554,1166
3102.66498499146,1187
3104.3697092864577,1157
3106.0741407099695,1200
3107.778279578498,1196
3109.482126208622,1226
3111.1856809170004,1138
3112.8889440203716,1190
3114.5919158355528,1240
3116.294596679439,1201
3117.996986869006,1182
3119.6990867213062,1192
3121.4008965534726,1200
3123.102416682717,1199
3124.803647426329,1226
3126.5045891016784,1277
3128.205242026213,1215
3129.90560651746,1166
3131.605682893025,1201
3133.3054714705922,1200
3135.0049725679282,1206
3136.7041865028714,1133
3138.4031135933465,1213
3140.101754157353,1208
3141.800108512971,1176
3143.498176978357,1211
3145.1959598717494,1214
3146.8934575114636,1171
3148.5906702158954,1196
3150.2875983035183,1165
3151.9842420928853,1110
3153.680601902627,1197
3155.376678051456,1161
3157.07247085816,1179
3158.767980641609,1169
3160.463207720748,1189
3162.158152414606,1156
3163.8528150422862,1175
3165.5471959229726,1206
3167.2412953759303,1167
3168.9351137204976,1166
3170.628651276098,1185
3172.3219083622307,1178
3174.014885298474,1186
3175.707582404485,1150
3177.4000000000005,1183
3179.092138404835,1215
3180.7839979388846,1128
3182.47557892212,1179
3184.166881674594,1186
3185.8579065164386,1173
3187.5486537678626,1191
3189.2391237491547,1210
3190.9293167806827,1180
3192.6192331828934,1149
3194.3088732763117,1160
3195.998237381542,1115
3197.687325819268,1125
3199.376138910251,1116
3201.064676975334,1133
3202.7529403354347,1164
3204.4409293115523,1201
3206.1286442247647,1178
3207.816085396229,1183
3209.5032531471825,1149
3211.190147798936,1162
3212.8767696728846,1194
3214.5631190905015,1134
3216.2491963733373,1137
3217.9350018430214,1112
3219.6205358212637,1150
3221.305798629851,1146
3222.990790590651,1138
3224.6755120256103,1166
3226.359963256751,1161
3228.0441446061795,1145
3229.7280563960758,1109
3231.411698948703,1094
3233.0950725863995,1198
3234.778177631587,1195
3236.461014406761,1172
3238.1435832345005,1127
3239.8258844374595,1139
3241.507918338374,1146
3243.1896852600576,1166
3244.8711855254023,1106
3246.552419457381,1139
3248.233387379042,1131
3249.914089613516,1163
3251.59452648401,1161
3253.274698313813,1126
3254.95460542629,1113
3256.6342481448855,1116
3258.313626793125,1122
3259.9927416946084,1144
3261.6715931730196,1108
3263.3501815521176,1158
3265.0285071557437,1099
3266.706570307815,1150
3268.3843713323286,1165
3270.0619105533615,1127
3271.739188295068,1141
3273.4162048816834,1196
3275.0929606375184,1146
3276.769455886966,1157
3278.445690954498,1142
3280.1216661646613,1150
3281.797381842087,1153
3283.4728383114807,1116
3285.1480358976296,1184
3286.8229749253996,1197
3288.4976557197333,1157
3290.172078605655,1192
3291.846243908266,1151
3293.5201519527463,1125
3295.193803064357,1159
3296.8671975684374,1157
3298.5403357904024,1119
3300.21321805575,1137
3301.8858446900567,1122
3303.558216018975,1161
3305.23033236824,1113
3306.9021940636603,1138
3308.57380143113,1097
3310.2451547966184,1145
3311.916254486174,1117
3313.5871008259246,1142
3315.2576941420766,1157
3316.9280347609147,1100
3318.5981230088046,1084
3320.2679592121895,1072
3321.9375436975924,1110
3323.606876791612,1114
3325.27595882093,1119
3326.944790112305,1130
3328.6133709925753,1077
3330.2817017886573,1095
3331.949782827547,1133
3333.617614436319,1100
3335.2851969421245,1115
3336.952530672199,1104
3338.619615953853,1136
3340.286453114475,1174
3341.9530424815357,1138
3343.619384382583,1185
3345.2854791452437,1177
3346.951327097224,1118
3348.6169285663073,1135
3350.2822838803577,1143
3351.947393367319,1166
3353.61225735521,1125
3355.2768761721345,1121
3356.9412501462693,1186
3358.605379605873,1103
3360.2692648792827,1126
3361.9329062949146,1122
3363.596304181263,1113
