CollectionTime,6/28/2024 3:05:35 PM
ExposureUsed,3
CalibratedSpectrum
-962.7078968117929,759
-959.9714848408522,765
-957.2358232597828,758
-954.5009119013725,774
-951.7667505983302,747
-949.0333391832855,794
-946.3006774887896,774
-943.5687653473143,802
-940.837602591253,787
-938.1071890529199,771
-935.3775245645503,782
-932.6486089583007,782
-929.9204420662485,793
-927.1930237203925,818
-924.4663537526524,761
-921.7404319948689,806
-919.0152582788041,807
-916.2908324361409,841
-913.5671542984834,804
-910.8442236973568,794
-908.1220404642074,752
-905.4006044304027,792
-902.679915427231,769
-899.959973285902,807
-897.2407778375464,767
-894.5223289132158,749
-891.8046263438832,772
-889.0876699604426,752
-886.3714595937089,725
-883.6559950744183,721
-880.9412762332282,741
-878.2273029007168,756
-875.5140749073835,739
-872.8015920836489,769
-870.0898542598545,722
-867.3788612662631,718
-864.6686129330585,751
-861.9591090903457,714
-859.2503495681506,715
-856.5423341964203,704
-853.8350628050229,783
-851.1285352237478,776
-848.4227512823054,750
-845.7177108103272,756
-843.0134136373656,696
-840.3098595928943,740
-837.6070485063082,758
-834.9049802069229,749
-832.2036545239757,697
-829.5030712866244,738
-826.8032303239481,723
-824.1041314649472,717
-821.4057745385428,740
-818.7081593735775,751
-816.0112857988148,729
-813.3151536429393,723
-810.6197627345566,721
-807.9251129021936,706
-805.2312039742981,751
-802.5380357792392,734
-799.8456081453069,714
-797.1539209007124,770
-794.462973873588,720
-791.772766891987,720
-789.083299783884,721
-786.3945723771743,716
-783.7065844996748,744
-781.0193359791231,702
-778.3328266431781,760
-775.6470563194197,742
-772.9620248353489,772
-770.2777320183878,714
-767.5941776958798,733
-764.9113616950891,751
-762.2292838432011,739
-759.5479439673222,757
-756.8673418944801,727
-754.1874774516235,761
-751.5083504656222,763
-748.8299607632671,739
-746.15230817127,749
-743.475392516264,758
-740.7992136248035,742
-738.1237713233636,801
-735.4490654383407,768
-732.7750957960521,789
-730.1018622227365,769
-727.4293645445534,793
-724.7576025875837,792
-722.0865761778291,796
-719.4162851412126,804
-716.7467293035781,767
-714.0779084906909,798
-711.409822528237,789
-708.7424712418238,790
-706.0758544569796,801
-703.4099719991541,777
-700.7448236937178,789
-698.0804093659622,799
-695.4167288411002,801
-692.7537819442656,824
-690.0915685005134,808
-687.4300883348199,841
-684.7693412720819,833
-682.1093271371178,831
-679.4500457546669,831
-676.7914969493897,829
-674.1336805458676,843
-671.4765963686034,834
-668.8202442420206,885
-666.1646239904642,818
-663.5097354382001,790
-660.8555784094151,878
-658.2021527282176,833
-655.5494582186366,843
-652.8974947046223,912
-650.2462620100463,877
-647.5957599587009,886
-644.9459883742998,894
-642.2969470804776,930
-639.6486359007902,871
-637.0010546587141,870
-634.3542031776476,899
-631.7080812809096,881
-629.0626887917401,895
-626.4180255333008,883
-623.7740913286734,868
-621.1308860008619,839
-618.4884093727904,860
-615.8466612673046,872
-613.2056415071715,829
-610.5653499150785,830
-607.9257863136347,861
-605.28695052537,856
-602.6488423727357,838
-600.0114616781036,883
-597.3748082637674,827
-594.7388819519412,861
-592.1036825647604,843
-589.4692099242818,885
-586.8354638524829,826
-584.2024441712624,801
-581.5701507024403,801
-578.9385832677575,874
-576.3077416888759,842
-573.6776257873787,865
-571.0482353847704,870
-568.4195703024757,867
-565.7916303618415,917
-563.164415384135,866
-560.5379251905453,854
-557.9121596021815,878
-555.2871184400748,835
-552.6628015251767,875
-550.0392086783606,906
-547.4163397204204,886
-544.794194472071,915
-542.1727727539491,909
-539.5520743866118,898
-536.9320991905377,924
-534.3128469861261,969
-531.6943175936979,971
-529.0765108334947,1001
-526.4594265256793,1085
-523.8430644903358,1219
-521.2274245474689,1265
-518.612506517005,1460
-515.9983102187913,1502
-513.3848354725959,1548
-510.77208209810846,1648
-508.16004991493924,1696
-505.5487387426199,1788
-502.9381484006032,1968
-500.3282787082628,2034
-497.71912948489364,2035
-495.1107005497117,1916
-492.5029917218539,1849
-489.8960028203786,1575
-487.28973366426493,1456
-484.68418407241325,1326
-482.07935386364494,1171
-479.47524285670266,1180
-476.87185087025,1116
-474.2691777228715,1203
-471.66722323307334,1142
-469.0659872192821,1083
-466.4654694998459,1111
-463.86566989303384,1143
-461.26658821703614,1140
-458.66822428996414,1089
-456.07057792985,1113
-453.4736489546475,1083
-450.877437182231,1049
-448.28194243039627,1077
-445.68716451686,1100
-443.09310325926003,1059
-440.49975847515555,1033
-437.9071299820263,1017
-435.31521759727354,1028
-432.72402113821954,1060
-430.13354042210767,1090
-427.5437752661022,1123
-424.95472548728867,1089
-422.36639090267386,1151
-419.7787713291855,1131
-417.1918665836721,1111
-414.60567648290385,1157
-412.0202008435715,1153
-409.4354394822874,1177
-406.8513922155845,1172
-404.26805885991723,1162
-401.685439231661,1160
-399.103533147112,1191
-396.522340422488,1123
-393.9418608739278,1094
-391.3620943174908,1093
-388.7830405691583,1056
-386.2046994448317,1010
-383.6270707603344,964
-381.05015433141045,888
-378.473949973725,838
-375.8984575028645,807
-373.32367673433623,783
-370.74960748356875,714
-368.1762495659117,651
-365.60360279663576,590
-363.03166699093265,585
-360.4604419639154,589
-357.8899275306178,532
-355.32012350599507,504
-352.7510297049233,509
-350.1826459421999,526
-347.61497203254316,507
-345.04800779059235,491
-342.4817530309082,511
-339.91620756797226,513
-337.35137121618743,496
-334.7872437898774,488
-332.22382510328725,497
-329.66111497058273,543
-327.09911320585127,536
-324.53781962310075,551
-321.9772340362607,553
-319.4173562591816,513
-316.8581861056348,569
-314.2997233893127,540
-311.7419679238294,547
-309.1849195227194,558
-306.62857799943856,517
-304.0729431673641,506
-301.51801483979375,507
-298.963792829947,556
-296.41027695096386,578
-293.85746701590574,622
-291.3053628377552,643
-288.7539642294155,567
-286.2032710037115,562
-283.65328297338897,592
-281.1039999511146,554
-278.5554217494762,553
-276.007548180983,578
-273.4603790580651,588
-270.9139141930734,636
-268.3681533982807,620
-265.8230964858798,623
-263.27874326798565,627
-260.7350935566336,647
-258.1921471637804,603
-255.6499039013039,607
-253.10836358100266,593
-250.56752601459698,608
-248.02739101372765,694
-245.48795838995704,737
-242.94922795476816,741
-240.41119951956557,761
-237.8738728956746,719
-235.33724789434166,719
-232.80132432673452,760
-230.2661020039418,775
-227.73158073697357,702
-225.19776033676033,688
-222.66464061415422,718
-220.1322213799284,704
-217.60050244477725,682
-215.06948361931552,700
-212.53916471408013,742
-210.00954553952818,714
-207.48062590603843,782
-204.9524056239104,780
-202.4248845033651,856
-199.8980623545441,808
-197.37193898751036,743
-194.84651421224817,762
-192.32178783866232,850
-189.79775967657952,803
-187.27442953574644,783
-184.7517972258321,804
-182.2298625564256,750
-179.7086253370378,795
-177.18808537710026,807
-174.66824248596583,777
-172.14909647290835,901
-169.6306471471229,833
-167.11289431772548,809
-164.59583779375328,817
-162.07947738416453,865
-159.5638128978386,850
-157.04884414357605,934
-154.53457093009854,1018
-152.02099306604828,1006
-149.50811035998936,959
-146.99592262040665,960
-144.48442965570587,985
-141.97363127421409,986
-139.46352728417958,1053
-136.95411749377126,975
-134.44540171107985,1106
-131.93737974411636,1161
-129.43005140081357,1214
-126.92341648902493,1230
-124.41747481652521,1208
-121.91222619101006,1297
-119.40767042009657,1178
-116.90380731132257,1288
-114.40063667214702,1400
-111.8981583099503,1331
-109.3963720320337,1446
-106.89527764561933,1564
-104.39487495785067,1464
-101.89516377579241,1451
-99.39614390642998,1676
-96.89781515667039,1652
-94.40017733334128,1885
-91.90323024319173,1886
-89.40697369289148,1765
-86.91140748903172,1613
-84.41653143812482,1755
-81.92234534660395,1860
-79.42884902082358,1872
-76.93604226705907,1911
-74.4439248915071,1699
-71.95249670028534,1979
-69.46175749943245,2155
-66.97170709490854,2270
-64.48234529259423,2730
-61.99367189829195,2278
-59.50568671772464,2306
-57.01838955653636,2490
-54.53178022029283,2759
-52.045858514480074,2730
-49.560624244506016,2844
-47.07607721569923,3045
-44.59221723330904,3152
-42.10904410250669,2978
-39.62655762838392,3775
-37.14475761595372,4848
-34.66364387015028,5436
-32.18321619582866,6246
-29.70347439776515,6974
-27.224418280657005,8759
-24.74604764912317,12536
-22.26836230770266,20054
-19.7913620608565,32328
-17.315046712966478,41628
-14.83941606833514,47351
-12.36446993118659,65029
-9.89020810566592,65029
-7.416630395839093,65029
-4.94373660569363,65029
-2.471526539137585,65029
-6.821210263296962E-13,65029
2.47084320796705,65029
4.941003281093458,65029
7.410480415786196,65029
9.879274808531363,65029
12.347386655893956,65029
14.814816154518212,65029
17.28156350112681,65029
19.74762889252179,65029
22.21301252558385,65029
24.67771459727237,45771
27.141735304626195,18066
29.605074844762612,13079
32.06773341487792,9088
34.52971121224755,6710
36.99100843422559,7350
39.45162527824516,7488
41.91156194181792,5839
44.370818622535126,7096
46.82939551806646,8558
49.287292826160524,8621
51.74451074464503,8658
54.201049471426245,7233
56.65690920448981,5738
59.112090141899785,4613
61.56659248179983,3435
64.02041642241159,2457
66.4735621620365,2722
68.92602989905402,2085
71.37781983192338,2070
73.82893215918205,2650
76.27936707944684,2497
78.72912479141326,2320
81.17820549385567,2351
83.62660938562783,2020
86.07433666566146,2213
88.5213875329681,2372
90.96776218663751,2246
93.41346082583925,2124
95.85848364982041,1874
98.30283085790859,2058
100.7465026495089,2169
103.18949922410604,2011
105.63182078126385,1896
108.07346752062438,1900
110.51443964190923,1597
112.95473734491827,1358
115.39436082953114,1516
117.83331029570547,1658
120.27158594347827,1848
122.7091879729652,1502
125.1461165843615,1522
127.58237197794062,1515
130.01795435405518,1321
132.4528639131364,1342
134.88710085569494,1473
137.32066538231982,1403
139.75355769367923,1483
142.1857779905207,1509
144.61732647366978,1579
147.04820334403132,1578
149.47840880258934,1562
151.90794305040674,1654
154.33680628862487,1765
156.76499871846443,1738
159.19252054122433,2010
161.61937195828352,2006
164.04555317109896,2098
166.47106438120693,2301
168.89590579022217,2633
171.320077599839,2743
173.7435800118302,2712
176.16641322804742,2836
178.58857745042144,2898
181.01007288096173,3048
183.43089972175687,2988
185.85105817497413,3052
188.27054844285988,3058
190.6893707277394,3057
193.10752523201643,3166
195.5250121581745,3185
197.9418317087751,3184
200.3579840864594,3132
202.7734694939469,3180
205.18828813403627,3185
207.6024402096051,3246
210.01592592360964,3147
212.42874547908548,3058
214.84089907914665,2954
217.2523869269868,3046
219.66320922587727,3174
222.0733661791695,3006
224.48285799029293,3105
226.8916848627572,3257
229.29984700014882,3291
231.7073446061355,3342
234.11417788446204,3341
236.520347038953,3379
238.92585227351185,3478
241.33069379212054,3671
243.73487179884035,3488
246.1383864978112,3574
248.541238093252,3633
250.9434267894609,3784
253.34495279081432,3816
255.74581630176783,3761
258.1460175268563,3802
260.54555667069314,3792
262.9444339379703,3839
265.3426495334594,3691
267.7402036620107,3583
270.1370965285529,3316
272.53332833809407,3342
274.9288992957214,3157
277.32380960660055,3077
279.718059475976,2932
282.1116491091717,2919
284.5045787115897,2872
286.89684848871195,2832
289.2884586460981,2748
291.67940938938807,2793
294.0697009242996,2804
296.4593334566299,2797
298.84830719225477,2809
301.23662233712923,2751
303.6242790972866,2798
306.01127767884,2654
308.39761828798066,2762
310.78330113097934,2697
313.16832641418534,2575
315.5526943440269,2620
317.9364051270112,2486
320.3194589697242,2400
322.70185607883093,2417
325.0835966610754,2408
327.4646809232805,2420
329.8451090723478,2457
332.2248813152577,2286
334.6039978590701,2367
336.9824589109231,2406
339.36026467803447,2362
341.7374153677,2376
344.113911187295,2274
346.48975234427337,2166
348.8649390461686,2190
351.2394715005918,2320
353.61334991523415,2200
355.9865744978655,2360
358.35914545633375,2186
360.73106299856715,2284
363.10232733257146,2279
365.47293866643247,2243
367.84289720831396,2246
370.2122031664593,2216
372.5808567491905,2105
374.9488581649083,2173
377.31620762209275,2156
379.6829053293021,2208
382.0489514951745,2139
384.4143463284262,2132
386.7790900378528,2080
389.14318283232853,2067
391.50662492080653,2095
393.86941651231916,2081
396.23155781597745,2102
398.5930490409713,2101
400.9538903965696,2090
403.3140820921202,2095
405.6736243370498,2047
408.03251734086336,2093
410.3907613131465,2042
412.74835646356166,2101
415.10530300185144,2081
417.4616011378372,2068
419.81725108141893,2072
422.1722530425758,2119
424.5266072313656,2060
426.880313857925,2086
429.2333731324701,2055
431.58578526529516,2030
433.9375504667738,2032
436.2886689473588,2069
438.63914091758113,2082
440.9889665880513,1962
443.33814616945835,1981
445.68667987257015,1975
448.03456790823395,1903
450.3818104873759,1971
452.72840782100013,1990
455.07436012019105,2065
457.41966759611057,1947
459.7643304600007,2033
462.10834892318155,2003
464.4517231970525,1989
466.79445349309174,1997
469.1365400228566,2037
471.4779829979826,2050
473.81878263018564,2061
476.15893913125876,2025
478.4984527130747,2093
480.8373235875855,2089
483.17555196682144,2115
485.5131380628919,2235
487.8500820879857,2246
490.1863842543697,2329
492.52204477439034,2555
494.8570638604725,2752
497.1914417251204,3087
499.52517858091653,3268
501.85827464052306,3389
504.19073011668036,3506
506.5225452222086,3610
508.85372017000566,3508
511.18425517304956,3470
513.514150444396,3670
515.8434061971808,4300
518.1720226446176,4641
520.4999999999999,4918
522.8273384766991,5170
525.1540382881666,5187
527.480099647932,4881
529.8055227696037,3930
532.1303078668694,2811
534.454455153496,2376
536.777964843328,2151
539.1008371502907,2029
541.4230722883866,1985
543.744670471698,1950
546.0656319143858,1860
548.3859568306899,1857
550.7056454349294,1823
553.0246979415016,1806
555.3431145648834,1809
557.6608955196306,1841
559.978041020377,1825
562.2945512818363,1810
564.6104265188006,1815
566.9256669461412,1831
569.2402727788082,1820
571.5542442318302,1818
573.8675815203156,1808
576.1802848594508,1803
578.4923544645015,1802
580.8037905508126,1799
583.114593333807,1798
585.4247630289875,1884
587.7342998519354,1793
590.0432040183106,1816
592.3514757438526,1802
594.6591152443794,1801
596.9661227357875,1826
599.2724984340531,1858
601.578242555231,1822
603.8833553154542,1833
606.1878369309362,1842
608.4916876179676,1918
610.7949075929192,1908
613.0974970722403,1861
615.3994562724587,1879
617.7007854101818,1896
620.0014847020951,1801
622.3015543649641,1862
624.6009946156324,1761
626.8998056710224,1857
629.1979877481361,1817
631.4955410640538,1865
633.7924658359349,1851
636.0887622810175,1832
638.3844306166192,1884
640.6794710601358,1912
642.9738838290426,1851
645.2676691408932,1923
647.5608272133207,1910
649.853358264037,1912
652.1452625108324,1852
654.4365401715764,1933
656.7271914642178,1926
659.0172166067838,1951
661.3066158173809,1860
663.5953893141935,1911
665.8835373154867,1918
668.1710600396028,1893
670.4579577049639,1999
672.7442305300709,1988
675.0298787335033,1956
677.3149025339197,1890
679.599302150058,1992
681.8830778007342,1945
684.1662297048437,1982
686.4487580813608,1972
688.7306631493387,1869
691.0119451279091,1900
693.2926042362834,1897
695.5726406937516,1888
697.8520547196814,1886
700.1308465335215,1962
702.4090163547982,1921
704.6865644031171,1935
706.9634908981619,1987
709.2397960596965,1914
711.5154801075631,1828
713.7905432616823,1937
716.0649857420548,1927
718.3388077687592,1862
720.612009561953,1883
722.8845913418733,1877
725.1565533288352,1901
727.427895743234,1893
729.6986188055427,1877
731.9687227363137,1857
734.238207756178,1879
736.5070740858458,1856
738.7753219461066,1820
741.0429515578281,1984
743.3099631419569,1848
745.5763569195191,1895
747.8421331116193,1901
750.1072919394409,1847
752.3718336242467,1873
754.6357583873777,1888
756.8990664502545,1823
759.1617580343765,1923
761.423833361321,1939
763.6852926527457,1863
765.9461361303862,1851
768.206364016058,1902
770.4659765316536,1876
772.7249738991469,1899
774.9833563405886,1855
777.2411240781092,1781
779.4982773339183,1928
781.7548163303044,1890
784.010741289634,1939
786.2660524343538,1955
788.5207499869881,1925
790.7748341701416,1888
793.0283052064964,1934
795.2811633188143,1945
797.5334087299362,1886
799.7850416627813,1856
802.0360623403484,1885
804.2864709857143,1897
806.5362678220353,1853
808.7854530725468,1937
811.0340269605625,1887
813.2819897094754,1903
815.5293415427581,1902
817.77608268396,1898
820.0222133567116,1966
822.2677337847211,1903
824.5126441917765,1990
826.7569448017433,1907
829.0006358385675,1915
831.2437175262731,1855
833.4861900889629,1919
835.7280537508192,1893
837.9693087361026,1856
840.2099552691533,1905
842.4499935743896,1891
844.689423876309,1890
846.9282463994886,1818
849.1664613685833,1901
851.4040690083276,1849
853.6410695435349,1968
855.877463199097,1896
858.1132501999847,1969
860.3484307712487,1934
862.5830051380175,1910
864.8169735254988,1871
867.0503361589791,1909
869.2830932638243,1962
871.5152450654786,1918
873.7467917894654,1897
875.9777336613873,1853
878.2080709069252,1912
880.4378037518389,1915
882.666932421968,1939
884.8954571432301,1945
887.1233781416219,1950
889.3506956432192,1925
891.5774098741766,2013
893.803521060728,1956
896.0290294291852,2013
898.2539352059397,2036
900.4782386174619,2012
902.7019398903011,1966
904.925039251085,1911
907.147536926521,1962
909.3694331433943,1947
911.59072812857,1996
913.8114221089921,1896
916.0315153116827,1932
918.2510079637437,1948
920.4699002923547,2022
922.6881925247761,1894
924.905884888345,1923
927.1229776104793,1942
929.3394709186747,1960
931.555365040506,1953
933.7706602036275,1959
935.9853566357709,2060
938.1994545647489,1958
940.4129542184515,1986
942.6258558248488,1935
944.8381596119883,1983
947.0498658079974,1933
949.2609746410825,1941
951.4714863395287,1917
953.6814011316998,1962
955.8907192460387,1970
958.0994409110671,1946
960.3075663553858,1884
962.5150958076741,1950
964.7220294966913,1905
966.928367651274,1875
969.1341105003388,1900
971.3392582728806,1825
973.5438111979742,1880
975.747769504772,1892
977.9511334225061,1870
980.153903180487,1807
982.3560790081052,1883
984.5576611348289,1782
986.7586497902058,1854
988.9590452038618,1721
991.158847605503,1724
993.3580572249133,1704
995.5566742919558,1767
997.7546990365728,1709
999.952131688785,1673
1002.1489724786926,1727
1004.3452216364743,1654
1006.5408793923874,1660
1008.7359459767691,1640
1010.9304216200343,1590
1013.1243065526781,1605
1015.3176010052733,1616
1017.510305208472,1617
1019.7024193930064,1573
1021.8939437896848,1610
1024.0848786293977,1641
1026.2752241431122,1542
1028.4649805618747,1558
1030.6541481168115,1537
1032.842727039127,1507
1035.0307175601051,1518
1037.2181199111074,1578
1039.4049343235752,1530
1041.591161029029,1513
1043.7768002590683,1507
1045.9618522453698,1585
1048.1463172196918,1560
1050.3301954138697,1594
1052.513487059818,1546
1054.69619238953,1526
1056.8783116350783,1553
1059.0598450286152,1543
1061.2407928023704,1594
1063.4211551886528,1512
1065.6009324198508,1543
1067.780124728432,1470
1069.9587323469414,1562
1072.1367555080046,1513
1074.314194444325,1530
1076.4910493886855,1549
1078.667320573947,1557
1080.843008233051,1519
1083.0181125990161,1443
1085.1926339049414,1502
1087.3665723840027,1473
1089.5399282694575,1469
1091.7127017946405,1422
1093.8848931929647,1449
1096.0565026979243,1410
1098.2275305430899,1404
1100.3979769621128,1437
1102.567842188722,1399
1104.737126456726,1484
1106.9058300000124,1432
1109.0739530525475,1395
1111.2414958483764,1419
1113.4084586216231,1427
1115.5748416064907,1393
1117.7406450372605,1372
1119.9058691482942,1420
1122.0705141740304,1415
1124.2345803489884,1420
1126.3980679077658,1465
1128.5609770850388,1388
1130.7233081155623,1377
1132.8850612341707,1379
1135.0462366757774,1362
1137.2068346753745,1457
1139.3668554680326,1358
1141.526299288901,1398
1143.68516637321,1370
1145.8434569562655,1411
1148.001171273455,1380
1150.158309560244,1416
1152.3148720521767,1407
1154.470858984876,1395
1156.626270594044,1378
1158.7811071154629,1368
1160.9353687849912,1410
1163.089055838569,1423
1165.242168512213,1367
1167.3947070420209,1397
1169.5466716641677,1365
1171.6980626149075,1370
1173.8488801305748,1423
1175.9991244475814,1363
1178.1487958024186,1379
1180.2978944316555,1388
1182.4464205719428,1417
1184.5943744600072,1310
1186.7417563326567,1341
1188.8885664267755,1350
1191.0348049793297,1366
1193.1804722273619,1327
1195.325568407995,1377
1197.4700937584303,1406
1199.614048515948,1390
1201.7574329179074,1372
1203.900247201746,1412
1206.042491604982,1401
1208.1841663652099,1400
1210.3252717201053,1325
1212.465807907422,1377
1214.6057751649923,1392
1216.7451737307279,1417
1218.8840038426192,1393
1221.0222657387353,1360
1223.1599596572241,1407
1225.2970858363137,1404
1227.4336445143094,1426
1229.5696359295966,1357
1231.705060320639,1301
1233.8399179259786,1414
1235.9742089842384,1391
1238.107933734118,1366
1240.2410924143974,1420
1242.373685263935,1392
1244.5057125216676,1377
1246.6371744266116,1392
1248.7680712178621,1438
1250.898403134593,1399
1253.028170416058,1350
1255.1573733015875,1403
1257.2860120305932,1417
1259.4140868425648,1478
1261.54159797707,1426
1263.6685456737569,1437
1265.7949301723515,1383
1267.9207517126597,1469
1270.046010534565,1477
1272.1707068780306,1430
1274.2948409830983,1438
1276.4184130898889,1479
1278.541423438603,1482
1280.6638722695184,1450
1282.785759822993,1460
1284.9070863394636,1491
1287.0278520594447,1538
1289.1480572235314,1448
1291.2677020723963,1480
1293.3867868467923,1506
1295.5053117875495,1551
1297.623277135579,1550
1299.740683131868,1528
1301.8575300174857,1564
1303.973818033578,1577
1306.0895474213703,1472
1308.2047184221678,1573
1310.3193312773528,1539
1312.4333862283888,1537
1314.5468835168163,1524
1316.659823384255,1579
1318.7722060724045,1587
1320.8840318230418,1546
1322.9953008780249,1557
1325.1060134792888,1617
1327.2161698688478,1563
1329.3257702887959,1586
1331.4348149813054,1574
1333.5433041886276,1574
1335.6512381530933,1600
1337.7586171171101,1537
1339.8654413231675,1542
1341.9717110138317,1569
1344.0774264317488,1520
1346.1825878196432,1522
1348.2871954203192,1471
1350.3912494766587,1545
1352.4947502316231,1552
1354.5976979282532,1562
1356.7000928096686,1469
1358.8019351190665,1509
1360.9032250997243,1542
1363.0039629949988,1542
1365.1041490483235,1521
1367.2037835032133,1518
1369.3028666032606,1556
1371.401398592137,1569
1373.4993797135926,1574
1375.5968102114575,1519
1377.6936903296396,1582
1379.7900203121262,1529
1381.8858004029835,1520
1383.9810308463561,1578
1386.075711886469,1575
1388.1698437676241,1594
1390.2634267342032,1598
1392.356461030667,1597
1394.4489469015557,1601
1396.5408845914872,1603
1398.6322743451592,1629
1400.7231164073469,1672
1402.813411022907,1675
1404.903158436773,1610
1406.9923588939578,1565
1409.0810126395531,1689
1411.1691199187303,1612
1413.2566809767386,1621
1415.343696058907,1713
1417.4301654106425,1710
1419.5160892774315,1750
1421.6014679048399,1715
1423.6863015385125,1754
1425.7705904241707,1697
1427.8543348076178,1671
1429.9375349347342,1819
1432.0201910514802,1759
1434.102303403894,1828
1436.1838722380944,1841
1438.2648978002767,1823
1440.3453803367174,1806
1442.4253200937692,1829
1444.5047173178677,1924
1446.5835722555234,1953
1448.6618851533285,1931
1450.739656257952,2066
1452.8168858161434,2039
1454.8935740747306,2043
1456.96972128062,2095
1459.045327680797,2119
1461.120393522327,2104
1463.1949190523528,2231
1465.2689045180973,2229
1467.3423501668608,2264
1469.415256246024,2325
1471.4876230030463,2277
1473.559450685465,2384
1475.6307395408976,2386
1477.7014898170391,2424
1479.771701761665,2498
1481.8413756226287,2545
1483.9105116478618,2537
1485.9791100853772,2595
1488.0471711832643,2680
1490.1146951896926,2656
1492.1816823529098,2744
1494.2481329212433,2779
1496.3140471430984,2750
1498.3794252669609,2806
1500.4442675413939,2824
1502.5085742150404,2997
1504.572345536622,2863
1506.6355817549388,2910
1508.6982831188702,2990
1510.7604498773744,2962
1512.8220822794883,2966
1514.8831805743293,2995
1516.9437450110909,3069
1519.003775839048,3240
1521.0632733075522,3099
1523.1222376660367,3115
1525.1806691640113,3206
1527.2385680510652,3187
1529.2959345768668,3253
1531.3527689911643,3343
1533.4090715437833,3397
1535.4648424846291,3446
1537.5200820636855,3525
1539.5747905310159,3588
1541.6289681367616,3628
1543.6826151311434,3656
1545.7357317644614,3719
1547.7883182870937,3673
1549.8403749494987,3782
1551.8919020022113,3857
1553.9428996958477,3885
1555.9933682811015,4000
1558.0433080087469,4063
1560.0927191296346,4186
1562.1416018946961,4246
1564.1899565549415,4320
1566.2377833614592,4292
1568.2850825654164,4278
1570.3318544180606,4162
1572.3780991707158,3985
1574.423817074788,3841
1576.4690083817595,3631
1578.5136733431923,3519
1580.5578122107272,3329
1582.601425236085,3111
1584.6445126710646,3061
1586.6870747675434,2825
1588.7291117774776,2717
1590.7706239529034,2647
1592.8116115459347,2543
1594.8520748087658,2399
1596.8920139936686,2338
1598.9314293529933,2177
1600.9703211391711,2126
1603.008689604711,2097
1605.0465350022005,1958
1607.0838575843068,1953
1609.1206576037753,1935
1611.1569353134305,1860
1613.1926909661765,1807
1615.2279248149953,1724
1617.2626371129481,1709
1619.2968281131757,1727
1621.3304980688963,1724
1623.3636472334088,1711
1625.39627586009,1609
1627.428384202396,1654
1629.459972513861,1621
1631.4910410480993,1621
1633.5215900588028,1598
1635.551619799744,1640
1637.5811305247717,1569
1639.6101224878166,1525
1641.6385959428862,1591
1643.6665511440683,1551
1645.693988345528,1509
1647.7209078015112,1537
1649.7473097663405,1459
1651.7731944944203,1518
1653.7985622402307,1492
1655.823413258333,1526
1657.847747803366,1497
1659.8715661300494,1512
1661.8948684931793,1498
1663.9176551476316,1520
1665.9399263483624,1453
1667.9616823504057,1445
1669.982923408873,1437
1672.0036497789574,1460
1674.0238617159293,1440
1676.043559475138,1419
1678.0627433120121,1431
1680.081413482059,1420
1682.0995702408654,1425
1684.117213844096,1468
1686.134344547495,1443
1688.1509626068864,1469
1690.1670682781705,1490
1692.182661817329,1418
1694.1977434804217,1471
1696.2123135235875,1420
1698.226372203043,1493
1700.2399197750851,1453
1702.2529564960905,1393
1704.2654826225112,1450
1706.277498410882,1402
1708.2890041178139,1485
1710.2999999999988,1455
1712.3104863142066,1477
1714.3204633172854,1424
1716.329931266163,1418
1718.3388904178469,1423
1720.3473410294214,1421
1722.3552833580516,1462
1724.3627176609807,1422
1726.3696441955308,1411
1728.3760632191033,1381
1730.3819749891782,1414
1732.3873797633146,1377
1734.3922777991502,1323
1736.3966693544012,1391
1738.4005546868639,1377
1740.4039340544127,1385
1742.406807715001,1371
1744.4091759266616,1358
1746.4110389475054,1342
1748.4123970357223,1360
1750.413250449582,1320
1752.4135994474318,1370
1754.4134442876993,1290
1756.4127852288902,1323
1758.4116225295893,1311
1760.4099564484595,1352
1762.407787244244,1299
1764.405115175764,1332
1766.4019405019203,1317
1768.3982634816916,1336
1770.3940843741357,1346
1772.3894034383907,1323
1774.3842209336717,1325
1776.378537119274,1288
1778.372352254571,1305
1780.3656665990156,1326
1782.3584804121397,1320
1784.3507939535534,1317
1786.3426074829463,1284
1788.3339212600863,1339
1790.3247355448211,1292
1792.3150505970766,1343
1794.3048666768573,1276
1796.2941840442477,1253
1798.2830029594106,1262
1800.2713236825884,1309
1802.2591464741004,1288
1804.2464715943465,1260
1806.2332993038058,1279
1808.2196298630352,1285
1810.2054635326708,1272
1812.190800573428,1274
1814.175641246101,1287
1816.1599858115628,1264
1818.1438345307652,1277
1820.127187664738,1251
1822.1100454745924,1244
1824.092408221516,1283
1826.0742761667766,1288
1828.055649571721,1263
1830.0365286977735,1295
1832.0169138064398,1215
1833.9968051593014,1305
1835.9762030180214,1260
1837.9551076443408,1201
1839.9335193000788,1238
1841.9114382471344,1268
1843.888864747485,1224
1845.8657990631878,1231
1847.842241456378,1259
1849.8181921892697,1220
1851.7936515241558,1270
1853.7686197234098,1240
1855.7430970494815,1277
1857.7170837649014,1268
1859.6905801322787,1229
1861.6635864143004,1276
1863.6361028737338,1202
1865.608129773424,1242
1867.5796673762961,1281
1869.5507159453537,1259
1871.521275743678,1294
1873.4913470344313,1290
1875.4609300808534,1273
1877.4300251462632,1241
1879.3986324940588,1291
1881.366752387717,1253
1883.3343850907936,1209
1885.3015308669228,1273
1887.268189979819,1256
1889.2343626932739,1236
1891.2000492711595,1303
1893.1652499774254,1203
1895.1299650761011,1287
1897.0941948312952,1332
1899.0579395071945,1291
1901.0211993680641,1245
1902.98397467825,1275
1904.9462657021745,1268
1906.9080727043415,1241
1908.869395949332,1325
1910.8302357018065,1234
1912.790592226504,1251
1914.7504657882428,1250
1916.7098566519212,1267
1918.6687650825133,1303
1920.6271913450764,1301
1922.5851357047422,1270
1924.5425984267245,1285
1926.499579776314,1274
1928.4560800188833,1320
1930.4120994198802,1229
1932.367638244833,1222
1934.32269675935,1328
1936.2772752291175,1260
1938.231373919899,1265
1940.1849930975404,1309
1942.1381330279637,1210
1944.0907939771696,1276
1946.0429762112412,1331
1947.9946799963363,1314
1949.9459055986945,1269
1951.896653284633,1265
1953.8469233205478,1245
1955.7967159729142,1243
1957.7460315082863,1294
1959.6948701932974,1281
1961.6432322946594,1246
1963.5911180791632,1262
1965.5385278136787,1246
1967.4854617651545,1248
1969.4319202006182,1296
1971.377903387176,1231
1973.3234115920136,1241
1975.268445082395,1189
1977.2130041256642,1229
1979.1570889892423,1272
1981.1006999406304,1236
1983.04383724741,1254
1984.986501177238,1300
1986.928691997853,1307
1988.8704099770712,1201
1990.811655382789,1233
1992.7524284829801,1203
1994.692729545698,1274
1996.6325588390755,1249
1998.5719166313224,1249
2000.5108031907307,1234
2002.4492187856677,1296
2004.387163684583,1205
2006.3246381560011,1253
2008.2616424685298,1193
2010.1981768908527,1235
2012.1342416917332,1218
2014.069837140014,1191
2016.0049635046162,1213
2017.9396210545406,1151
2019.8738100588666,1177
2021.8075307867502,1151
2023.740783507431,1199
2025.6735684902228,1189
2027.6058860045214,1235
2029.5377363198004,1222
2031.4691197056118,1190
2033.4000364315875,1206
2035.3304867674374,1183
2037.260470982952,1168
2039.189989347998,1204
2041.1190421325232,1254
2043.047629606554,1199
2044.9757520401945,1225
2046.9034097036288,1201
2048.8306028671195,1239
2050.7573318010086,1186
2052.683596775716,1187
2054.609398061742,1209
2056.5347359296647,1177
2058.4596106501403,1172
2060.384022493906,1212
2062.3079717317764,1192
2064.231458634646,1253
2066.1544834734873,1204
2068.077046519352,1211
2069.99914804337,1186
2071.9207883167524,1213
2073.8419676107865,1166
2075.7626861968406,1152
2077.6829443463607,1188
2079.6027423308715,1215
2081.522080421977,1158
2083.440958891362,1164
2085.359378010786,1204
2087.2773380520907,1231
2089.194839287196,1217
2091.111881988101,1172
2093.0284664268825,1198
2094.9445928756973,1164
2096.86026160678,1221
2098.775472892446,1221
2100.690227005088,1201
2102.604524217178,1226
2104.5183648012676,1212
2106.431749029985,1167
2108.34467717604,1171
2110.2571495122206,1235
2112.169166311393,1223
2114.080727846503,1192
2115.9918343905747,1195
2117.902486216711,1209
2119.8126835980956,1207
2121.722426807987,1184
2123.6317161197285,1263
2125.5405518067364,1186
2127.448934142509,1201
2129.356863400624,1213
2131.264339854737,1221
2133.1713637785815,1154
2135.077935445972,1248
2136.9840551308002,1247
2138.889723107037,1221
2140.7949396487334,1232
2142.699705030018,1225
2144.6040195250994,1184
2146.507883408264,1192
2148.4112969538774,1209
2150.3142604363848,1255
2152.2167741303097,1211
2154.1188383102535,1191
2156.0204532508997,1207
2157.9216192270064,1304
2159.822336513414,1227
2161.7226053850413,1158
2163.622426116884,1177
2165.5217989840185,1191
2167.4207242616,1208
2169.319202224862,1203
2171.2172331491165,1193
2173.1148173097563,1192
2175.0119549822507,1203
2176.90864644215,1211
2178.8048919650823,1212
2180.7006918267534,1209
2182.596046302952,1168
2184.4909556695407,1181
2186.3854202024645,1226
2188.279440177746,1221
2190.173015871487,1164
2192.066147559868,1182
2193.958835519149,1218
2195.851080025667,1204
2197.7428813558417,1199
2199.6342397861667,1162
2201.5251555932186,1153
2203.415629053651,1199
2205.3056604441986,1192
2207.19525004167,1200
2209.084398122958,1221
2210.9731049650327,1203
2212.861370844941,1265
2214.749196039812,1226
2216.636580826851,1268
2218.523525483344,1186
2220.410030286655,1236
2222.296095514226,1225
2224.1817214435805,1239
2226.066908352319,1218
2227.951656518121,1264
2229.835966218746,1204
2231.71983773203,1243
2233.6032713358913,1196
2235.486267308324,1200
2237.3688259274036,1179
2239.2509474712824,1212
2241.132632218193,1213
2243.013880446447,1213
2244.8946924344323,1193
2246.7750684606203,1185
2248.6550088035574,1199
2250.534513741871,1234
2252.413583554265,1177
2254.292218519526,1196
2256.170418916517,1251
2258.0481850241786,1204
2259.925517121534,1206
2261.8024154876825,1273
2263.678880401803,1178
2265.5549121431536,1172
2267.430510991071,1222
2269.305677224971,1155
2271.180411124348,1161
2273.0547129687766,1244
2274.9285830379076,1190
2276.8020216114737,1189
2278.6750289692845,1189
2280.5476053912294,1258
2282.4197511572766,1230
2284.2914665474727,1239
2286.162751841943,1182
2288.0336073208937,1209
2289.904033264608,1185
2291.774029953448,1192
2293.6435976678554,1262
2295.5127366883517,1208
2297.381447295534,1227
2299.2497297700825,1206
2301.1175843927526,1229
2302.9850114443825,1220
2304.852011205885,1213
2306.7185839582553,1217
2308.5847299825664,1228
2310.4504495599676,1206
2312.3157429716925,1245
2314.1806104990483,1175
2316.0450524234247,1237
2317.9090690262888,1244
2319.772660589186,1213
2321.635827393742,1199
2323.498569721661,1213
2325.3608878547248,1212
2327.2227820747967,1219
2329.0842526638157,1254
2330.945299903803,1172
2332.805924076857,1233
2334.6661254651535,1240
2336.525904350951,1246
2338.3852610165827,1224
2340.244195744464,1251
2342.102708817088,1221
2343.9608005170253,1232
2345.8184711269287,1242
2347.675720929526,1286
2349.532550207628,1240
2351.38895924412,1271
2353.24494832197,1224
2355.100517724223,1210
2356.955667734004,1223
2358.810398634514,1302
2360.664710709037,1280
2362.5186042409337,1284
2364.3720795136437,1307
2366.225136810686,1217
2368.0777764156583,1289
2369.929998612237,1297
2371.7818036841777,1313
2373.633191915315,1337
2375.484163589562,1256
2377.3347189909114,1318
2379.184858403434,1293
2381.03458211128,1248
2382.8838903986775,1243
2384.732783549936,1259
2386.5812618494406,1231
2388.4293255816588,1247
2390.2769750311327,1274
2392.1242104824883,1293
2393.971032220427,1250
2395.8174405297295,1290
2397.6634356952563,1308
2399.509018001947,1297
2401.3541877348193,1241
2403.1989451789705,1299
2405.043290619576,1308
2406.8872243418905,1295
2408.730746631247,1285
2410.5738577730594,1290
2412.4165580528183,1251
2414.258847756095,1301
2416.100727168537,1278
2417.9421965758734,1327
2419.783256263912,1341
2421.623906518538,1290
2423.4641476257157,1335
2425.303979871491,1310
2427.143403541984,1329
2428.9824189233977,1272
2430.821026302012,1348
2432.6592259641866,1319
2434.497018196361,1292
2436.33440328505,1295
2438.171381516851,1333
2440.00795317844,1314
2441.844118556569,1286
2443.6798779380724,1356
2445.5152316098606,1292
2447.3501798589255,1299
2449.1847229723357,1334
2451.0188612372403,1293
2452.8525949408663,1310
2454.6859243705203,1268
2456.518849813587,1255
2458.3513715575314,1288
2460.183489889895,1294
2462.015205098301,1258
2463.8465174704493,1348
2465.67742729412,1276
2467.5079348571717,1287
2469.338040447542,1359
2471.1677443532476,1307
2472.9970468623833,1352
2474.825948263123,1324
2476.6544488437207,1324
2478.482548892508,1292
2480.310248697896,1291
2482.137548548374,1315
2483.9644487325118,1318
2485.790949538956,1317
2487.617051256433,1334
2489.44275417375,1326
2491.26805857979,1291
2493.0929647635157,1267
2494.917473013971,1329
2496.741583620276,1338
2498.5652968716304,1399
2500.3886130573137,1339
2502.2115324666834,1322
2504.0340553891765,1341
2505.856182114308,1372
2507.6779129316733,1431
2509.499248130945,1358
2511.3201880018764,1357
2513.140732834298,1335
2514.9608829181198,1357
2516.780638543331,1348
2518.6,1403
2520.418967578273,1388
2522.237541568376,1412
2524.0557222606144,1368
2525.8735099453706,1388
2527.6909049131086,1394
2529.507907454368,1433
2531.32451785977,1355
2533.140736420014,1389
2534.9565634258774,1457
2536.771999168218,1456
2538.5870439379714,1418
2540.4016980261526,1426
2542.2159617238544,1408
2544.02983532225,1478
2545.8433191125914,1486
2547.656413386209,1441
2549.4691184345115,1475
2551.2814345489874,1464
2553.093362021204,1457
2554.904901142808,1496
2556.716052205523,1526
2558.526815501153,1459
2560.3371913215824,1483
2562.147179958771,1558
2563.956781704761,1567
2565.7659968516705,1559
2567.5748256916986,1522
2569.3832685171224,1567
2571.1913256202984,1522
2572.9989972936614,1623
2574.806283829725,1579
2576.613185521084,1658
2578.4197026604074,1647
2580.2258355404483,1625
2582.031584454035,1572
2583.836949694077,1591
2585.6419315535613,1682
2587.4465303255533,1608
2589.2507463032002,1686
2591.0545797797245,1651
2592.8580310484303,1724
2594.6611004026995,1720
2596.463788135992,1669
2598.266094541849,1653
2600.0680199138874,1657
2601.869564545807,1670
2603.670728731383,1676
2605.4715127644704,1688
2607.2719169390048,1657
2609.071941548998,1714
2610.8715868885433,1679
2612.670853251811,1683
2614.469740933052,1743
2616.268250226594,1672
2618.0663814268455,1744
2619.864134828292,1663
2621.6615107255006,1687
2623.458509413115,1729
2625.2551311858597,1711
2627.0513763385347,1622
2628.8472451660223,1653
2630.6427379632833,1654
2632.4378550253564,1593
2634.232596647359,1585
2636.026963124488,1592
2637.8209547520187,1602
2639.6145718253065,1591
2641.407814639785,1586
2643.200683490966,1557
2644.9931786744414,1523
2646.7853004858807,1548
2648.577049221034,1533
2650.3684251757277,1480
2652.1594286458712,1478
2653.9500599274484,1507
2655.740319316525,1504
2657.5302071092437,1473
2659.3197236018286,1485
2661.10886909058,1476
2662.8976438718782,1408
2664.686048242183,1480
2666.4740824980327,1396
2668.2617469360443,1392
2670.0490418529134,1391
2671.8359675454153,1376
2673.622524310403,1418
2675.408712444811,1435
2677.1945322456495,1379
2678.979984010009,1379
2680.76506803506,1341
2682.5497846180497,1377
2684.334134056306,1343
2686.1181166472343,1345
2687.9017326883213,1356
2689.6849824771293,1322
2691.4678663113013,1306
2693.2503844885596,1321
2695.032537306705,1307
2696.8143250636167,1315
2698.5957480572542,1317
2700.3768065856534,1292
2702.1575009469316,1295
2703.937831439283,1248
2705.717798360982,1330
2707.4974020103837,1285
2709.276642685917,1309
2711.055520686095,1281
2712.834036309506,1233
2714.612189854819,1272
2716.389981620782,1278
2718.1674119062204,1282
2719.944481010041,1285
2721.721189231226,1218
2723.4975368688415,1277
2725.273524222027,1210
2727.0491515900053,1297
2728.824419272075,1264
2730.5993275676146,1227
2732.3738767760838,1258
2734.148067197016,1175
2735.921899130031,1253
2737.6953728748194,1246
2739.468488731156,1303
2741.2412469988926,1229
2743.0136479779617,1175
2744.785691968372,1268
2746.5573792702116,1211
2748.3287101836504,1190
2750.099685008934,1179
2751.870304046388,1273
2753.640567596418,1181
2755.4104759595057,1166
2757.1800294362156,1213
2758.949228327187,1226
2760.7180729331412,1186
2762.486563554877,1186
2764.254700493272,1230
2766.022484049284,1257
2767.789914523947,1212
2769.5569922183786,1245
2771.3237174337705,1170
2773.090090471394,1226
2774.8561116326036,1213
2776.6217812188274,1171
2778.3870995315756,1234
2780.1520668724356,1242
2781.9166835430747,1203
2783.6809498452394,1201
2785.444866080754,1190
2787.2084325515225,1217
2788.971649559527,1193
2790.73451740683,1215
2792.4970363955713,1178
2794.2592068279705,1200
2796.0210290063264,1222
2797.7825032330147,1204
2799.543629810493,1189
2801.304409041296,1221
2803.0648412280366,1209
2804.8249266734088,1209
2806.5846656801846,1171
2808.344058551212,1232
2810.1031055894246,1235
2811.8618070978273,1196
2813.6201633795085,1222
2815.378174737636,1165
2817.1358414754536,1160
2818.893163896285,1189
2820.6501423035334,1182
2822.4067770006814,1221
2824.1630682912883,1262
2825.9190164789957,1195
2827.6746218675207,1207
2829.429884760661,1198
2831.184805462294,1184
2832.9393842763743,1172
2834.693621506936,1221
2836.4475174580916,1174
2838.201072434034,1193
2839.954286739034,1194
2841.707160677441,1185
2843.459694553685,1255
2845.2118886722724,1215
2846.96374333779,1241
2848.7152588549034,1207
2850.4664355283567,1234
2852.217273662973,1241
2853.9677735636546,1206
2855.7179355353833,1221
2857.4677598832186,1195
2859.217246912299,1180
2860.9663969278427,1199
2862.715210235146,1224
2864.4636871395846,1255
2866.211827946614,1185
2867.9596329617652,1226
2869.7071024906536,1223
2871.4542368389684,1197
2873.20103631248,1172
2874.947501217038,1185
2876.6936318585695,1226
2878.4394285430812,1187
2880.1848915766604,1171
2881.9300212654707,1203
2883.6748179157553,1154
2885.4192818338374,1165
2887.1634133261173,1233
2888.907212699077,1207
2890.6506802592744,1221
2892.393816313348,1192
2894.1366211680142,1142
2895.8790951300693,1237
2897.621238506388,1177
2899.363051603925,1242
2901.1045347297118,1212
2902.8456881908596,1220
2904.58651229456,1237
2906.327007348081,1186
2908.067173658772,1169
2909.8070115340597,1239
2911.5465212814497,1177
2913.285703208527,1167
2915.0245576229563,1153
2916.7630848324807,1174
2918.5012851449196,1238
2920.2391588681758,1181
2921.976706310227,1169
2923.7139277791334,1196
2925.4508235830313,1154
2927.187394030137,1163
2928.923639428745,1153
2930.6595600872306,1230
2932.395156314046,1182
2934.1304284177218,1219
2935.8653767068713,1202
2937.6000014901815,1215
2939.3343030764227,1199
2941.068281774442,1189
2942.8019378931644,1163
2944.5352717415976,1216
2946.2682836288236,1225
2948.0009738640065,1228
2949.7333427563885,1216
2951.465390615289,1226
2953.1971177501086,1188
2954.9285244703265,1181
2956.6596110855,1224
2958.3903779052657,1165
2960.1208252393385,1159
2961.8509533975125,1163
2963.5807626896617,1205
2965.3102534257378,1184
2967.0394259157715,1173
2968.768280469873,1163
2970.496817398232,1245
2972.2250370111146,1213
2973.952939618869,1220
2975.6805255319196,1168
2977.4077950607707,1232
2979.134748516006,1193
2980.861386208289,1192
2982.587708448359,1164
2984.313715547037,1209
2986.039407815222,1221
2987.764785563891,1151
2989.489849104102,1177
2991.2145987469908,1234
2992.9390348037705,1226
2994.6631575857346,1226
2996.3869674042576,1139
2998.1104645707887,1200
2999.83364939686,1178
3001.5565221940783,1193
3003.2790832741334,1203
3005.0013329487924,1153
3006.7232715298996,1203
3008.4448993293804,1154
3010.166216659239,1203
3011.887223831558,1168
3013.607921158498,1199
3015.3283089522993,1184
3017.0483875252826,1203
3018.7681571898443,1197
3020.4876182584626,1171
3022.2067710436927,1224
3023.9256158581707,1138
3025.644153014609,1172
3027.362382825801,1216
3029.0803056046193,1202
3030.797921664012,1205
3032.5152313170106,1217
3034.2322348767225,1171
3035.9489326563353,1192
3037.665324969115,1198
3039.3814121284063,1196
3041.097194447633,1175
3042.812672240299,1173
3044.5278458199855,1219
3046.2427155003525,1200
3047.9572815951406,1212
3049.671544418167,1147
3051.38550428333,1211
3053.0991615046073,1202
3054.812516396051,1200
3056.5255692717974,1190
3058.2383204460575,1183
3059.9507702331257,1155
3061.662918947372,1228
3063.3747669032446,1179
3065.0863144152736,1213
3066.7975617980674,1190
3068.508509366309,1219
3070.219157434767,1210
3071.9295063182844,1194
3073.639556331785,1172
3075.3493077902704,1247
3077.058761008821,1203
3078.7679163025964,1201
3080.476773986837,1138
3082.1853343768594,1178
3083.89359778806,1199
3085.6015645359153,1207
3087.3092349359786,1227
3089.016609303884,1222
3090.7236879553434,1216
3092.4304712061476,1228
3094.136959372166,1187
3095.843152769349,1201
3097.5490517137237,1172
3099.2546565213966,1209
3100.959967508554,1203
3102.66498499146,1205
3104.3697092864577,1177
3106.0741407099695,1237
3107.778279578498,1193
3109.482126208622,1166
3111.1856809170004,1168
3112.8889440203716,1248
3114.5919158355528,1237
3116.294596679439,1148
3117.996986869006,1203
3119.6990867213062,1203
3121.4008965534726,1229
3123.102416682717,1230
3124.803647426329,1216
3126.5045891016784,1194
3128.205242026213,1211
3129.90560651746,1193
3131.605682893025,1239
3133.3054714705922,1182
3135.0049725679282,1234
3136.7041865028714,1226
3138.4031135933465,1178
3140.101754157353,1253
3141.800108512971,1198
3143.498176978357,1217
3145.1959598717494,1213
3146.8934575114636,1178
3148.5906702158954,1237
3150.2875983035183,1195
3151.9842420928853,1181
3153.680601902627,1177
3155.376678051456,1177
3157.07247085816,1251
3158.767980641609,1221
3160.463207720748,1128
3162.158152414606,1222
3163.8528150422862,1213
3165.5471959229726,1190
3167.2412953759303,1210
3168.9351137204976,1177
3170.628651276098,1153
3172.3219083622307,1169
3174.014885298474,1193
3175.707582404485,1194
3177.4000000000005,1192
3179.092138404835,1182
3180.7839979388846,1179
3182.47557892212,1231
3184.166881674594,1210
3185.8579065164386,1165
3187.5486537678626,1154
3189.2391237491547,1139
3190.9293167806827,1197
3192.6192331828934,1189
3194.3088732763117,1217
3195.998237381542,1179
3197.687325819268,1173
3199.376138910251,1215
3201.064676975334,1178
3202.7529403354347,1136
3204.4409293115523,1188
3206.1286442247647,1202
3207.816085396229,1142
3209.5032531471825,1175
3211.190147798936,1154
3212.8767696728846,1160
3214.5631190905015,1130
3216.2491963733373,1155
3217.9350018430214,1157
3219.6205358212637,1127
3221.305798629851,1117
3222.990790590651,1148
3224.6755120256103,1119
3226.359963256751,1147
3228.0441446061795,1136
3229.7280563960758,1144
3231.411698948703,1170
3233.0950725863995,1094
3234.778177631587,1193
3236.461014406761,1133
3238.1435832345005,1144
3239.8258844374595,1174
3241.507918338374,1140
3243.1896852600576,1183
3244.8711855254023,1170
3246.552419457381,1192
3248.233387379042,1174
3249.914089613516,1162
3251.59452648401,1180
3253.274698313813,1224
3254.95460542629,1179
3256.6342481448855,1116
3258.313626793125,1095
3259.9927416946084,1178
3261.6715931730196,1165
3263.3501815521176,1156
3265.0285071557437,1177
3266.706570307815,1157
3268.3843713323286,1144
3270.0619105533615,1116
3271.739188295068,1124
3273.4162048816834,1148
3275.0929606375184,1193
3276.769455886966,1177
3278.445690954498,1182
3280.1216661646613,1151
3281.797381842087,1162
3283.4728383114807,1150
3285.1480358976296,1131
3286.8229749253996,1157
3288.4976557197333,1195
3290.172078605655,1131
3291.846243908266,1138
3293.5201519527463,1123
3295.193803064357,1121
3296.8671975684374,1194
3298.5403357904024,1162
3300.21321805575,1115
3301.8858446900567,1155
3303.558216018975,1187
3305.23033236824,1147
3306.9021940636603,1062
3308.57380143113,1211
3310.2451547966184,1124
3311.916254486174,1133
3313.5871008259246,1125
3315.2576941420766,1160
3316.9280347609147,1126
3318.5981230088046,1132
3320.2679592121895,1153
3321.9375436975924,1115
3323.606876791612,1165
3325.27595882093,1182
3326.944790112305,1127
3328.6133709925753,1155
3330.2817017886573,1173
3331.949782827547,1148
3333.617614436319,1104
3335.2851969421245,1149
3336.952530672199,1159
3338.619615953853,1139
3340.286453114475,1192
3341.9530424815357,1199
3343.619384382583,1256
3345.2854791452437,1129
3346.951327097224,1139
3348.6169285663073,1169
3350.2822838803577,1169
3351.947393367319,1122
3353.61225735521,1147
3355.2768761721345,1177
3356.9412501462693,1176
3358.605379605873,1115
3360.2692648792827,1180
3361.9329062949146,1133
3363.596304181263,1145
