CollectionTime,6/26/2024 2:57:38 PM
ExposureUsed,3
CalibratedSpectrum
-962.7078968117929,1120
-959.9714848408522,1158
-957.2358232597828,1158
-954.5009119013725,1163
-951.7667505983302,1174
-949.0333391832855,1235
-946.3006774887896,1162
-943.5687653473143,1211
-940.837602591253,1179
-938.1071890529199,1214
-935.3775245645503,1209
-932.6486089583007,1179
-929.9204420662485,1254
-927.1930237203925,1247
-924.4663537526524,1191
-921.7404319948689,1181
-919.0152582788041,1193
-916.2908324361409,1292
-913.5671542984834,1200
-910.8442236973568,1260
-908.1220404642074,1258
-905.4006044304027,1183
-902.679915427231,1209
-899.959973285902,1250
-897.2407778375464,1261
-894.5223289132158,1278
-891.8046263438832,1217
-889.0876699604426,1236
-886.3714595937089,1183
-883.6559950744183,1231
-880.9412762332282,1207
-878.2273029007168,1245
-875.5140749073835,1237
-872.8015920836489,1204
-870.0898542598545,1127
-867.3788612662631,1176
-864.6686129330585,1158
-861.9591090903457,1177
-859.2503495681506,1158
-856.5423341964203,1174
-853.8350628050229,1218
-851.1285352237478,1211
-848.4227512823054,1181
-845.7177108103272,1161
-843.0134136373656,1192
-840.3098595928943,1197
-837.6070485063082,1231
-834.9049802069229,1218
-832.2036545239757,1186
-829.5030712866244,1212
-826.8032303239481,1205
-824.1041314649472,1195
-821.4057745385428,1243
-818.7081593735775,1234
-816.0112857988148,1231
-813.3151536429393,1198
-810.6197627345566,1169
-807.9251129021936,1152
-805.2312039742981,1193
-802.5380357792392,1235
-799.8456081453069,1228
-797.1539209007124,1202
-794.462973873588,1193
-791.772766891987,1216
-789.083299783884,1239
-786.3945723771743,1170
-783.7065844996748,1192
-781.0193359791231,1217
-778.3328266431781,1223
-775.6470563194197,1258
-772.9620248353489,1264
-770.2777320183878,1239
-767.5941776958798,1201
-764.9113616950891,1212
-762.2292838432011,1215
-759.5479439673222,1212
-756.8673418944801,1180
-754.1874774516235,1256
-751.5083504656222,1267
-748.8299607632671,1230
-746.15230817127,1211
-743.475392516264,1267
-740.7992136248035,1242
-738.1237713233636,1239
-735.4490654383407,1260
-732.7750957960521,1250
-730.1018622227365,1223
-727.4293645445534,1246
-724.7576025875837,1251
-722.0865761778291,1215
-719.4162851412126,1199
-716.7467293035781,1282
-714.0779084906909,1204
-711.409822528237,1331
-708.7424712418238,1311
-706.0758544569796,1328
-703.4099719991541,1235
-700.7448236937178,1276
-698.0804093659622,1267
-695.4167288411002,1289
-692.7537819442656,1243
-690.0915685005134,1296
-687.4300883348199,1313
-684.7693412720819,1276
-682.1093271371178,1282
-679.4500457546669,1306
-676.7914969493897,1249
-674.1336805458676,1320
-671.4765963686034,1272
-668.8202442420206,1326
-666.1646239904642,1346
-663.5097354382001,1323
-660.8555784094151,1292
-658.2021527282176,1308
-655.5494582186366,1363
-652.8974947046223,1348
-650.2462620100463,1349
-647.5957599587009,1367
-644.9459883742998,1466
-642.2969470804776,1388
-639.6486359007902,1468
-637.0010546587141,1442
-634.3542031776476,1425
-631.7080812809096,1357
-629.0626887917401,1379
-626.4180255333008,1324
-623.7740913286734,1369
-621.1308860008619,1299
-618.4884093727904,1369
-615.8466612673046,1319
-613.2056415071715,1307
-610.5653499150785,1333
-607.9257863136347,1351
-605.28695052537,1348
-602.6488423727357,1384
-600.0114616781036,1374
-597.3748082637674,1403
-594.7388819519412,1369
-592.1036825647604,1350
-589.4692099242818,1413
-586.8354638524829,1405
-584.2024441712624,1344
-581.5701507024403,1393
-578.9385832677575,1445
-576.3077416888759,1460
-573.6776257873787,1414
-571.0482353847704,1390
-568.4195703024757,1451
-565.7916303618415,1488
-563.164415384135,1463
-560.5379251905453,1414
-557.9121596021815,1429
-555.2871184400748,1367
-552.6628015251767,1497
-550.0392086783606,1462
-547.4163397204204,1420
-544.794194472071,1422
-542.1727727539491,1453
-539.5520743866118,1413
-536.9320991905377,1496
-534.3128469861261,1575
-531.6943175936979,1568
-529.0765108334947,1560
-526.4594265256793,1622
-523.8430644903358,1693
-521.2274245474689,1880
-518.612506517005,1985
-515.9983102187913,2009
-513.3848354725959,2243
-510.77208209810846,2306
-508.16004991493924,2221
-505.5487387426199,2387
-502.9381484006032,2633
-500.3282787082628,2682
-497.71912948489364,2727
-495.1107005497117,2930
-492.5029917218539,2709
-489.8960028203786,2611
-487.28973366426493,2502
-484.68418407241325,2242
-482.07935386364494,2092
-479.47524285670266,1943
-476.87185087025,1896
-474.2691777228715,1977
-471.66722323307334,1857
-469.0659872192821,1740
-466.4654694998459,1755
-463.86566989303384,1820
-461.26658821703614,1727
-458.66822428996414,1733
-456.07057792985,1756
-453.4736489546475,1777
-450.877437182231,1711
-448.28194243039627,1725
-445.68716451686,1721
-443.09310325926003,1660
-440.49975847515555,1677
-437.9071299820263,1680
-435.31521759727354,1670
-432.72402113821954,1713
-430.13354042210767,1640
-427.5437752661022,1764
-424.95472548728867,1758
-422.36639090267386,1828
-419.7787713291855,1788
-417.1918665836721,1782
-414.60567648290385,1717
-412.0202008435715,1754
-409.4354394822874,1810
-406.8513922155845,1767
-404.26805885991723,1775
-401.685439231661,1831
-399.103533147112,1819
-396.522340422488,1825
-393.9418608739278,1844
-391.3620943174908,1769
-388.7830405691583,1758
-386.2046994448317,1697
-383.6270707603344,1536
-381.05015433141045,1451
-378.473949973725,1345
-375.8984575028645,1267
-373.32367673433623,1143
-370.74960748356875,1106
-368.1762495659117,1031
-365.60360279663576,950
-363.03166699093265,841
-360.4604419639154,787
-357.8899275306178,671
-355.32012350599507,693
-352.7510297049233,636
-350.1826459421999,630
-347.61497203254316,612
-345.04800779059235,571
-342.4817530309082,549
-339.91620756797226,552
-337.35137121618743,550
-334.7872437898774,569
-332.22382510328725,634
-329.66111497058273,650
-327.09911320585127,645
-324.53781962310075,640
-321.9772340362607,634
-319.4173562591816,651
-316.8581861056348,710
-314.2997233893127,747
-311.7419679238294,758
-309.1849195227194,676
-306.62857799943856,642
-304.0729431673641,603
-301.51801483979375,620
-298.963792829947,628
-296.41027695096386,682
-293.85746701590574,751
-291.3053628377552,735
-288.7539642294155,739
-286.2032710037115,750
-283.65328297338897,742
-281.1039999511146,697
-278.5554217494762,825
-276.007548180983,790
-273.4603790580651,683
-270.9139141930734,647
-268.3681533982807,729
-265.8230964858798,716
-263.27874326798565,761
-260.7350935566336,801
-258.1921471637804,868
-255.6499039013039,913
-253.10836358100266,816
-250.56752601459698,765
-248.02739101372765,845
-245.48795838995704,882
-242.94922795476816,859
-240.41119951956557,795
-237.8738728956746,978
-235.33724789434166,958
-232.80132432673452,973
-230.2661020039418,1067
-227.73158073697357,976
-225.19776033676033,958
-222.66464061415422,1070
-220.1322213799284,1036
-217.60050244477725,966
-215.06948361931552,1017
-212.53916471408013,917
-210.00954553952818,878
-207.48062590603843,924
-204.9524056239104,1054
-202.4248845033651,1095
-199.8980623545441,1055
-197.37193898751036,944
-194.84651421224817,1043
-192.32178783866232,1139
-189.79775967657952,1043
-187.27442953574644,1045
-184.7517972258321,1069
-182.2298625564256,988
-179.7086253370378,1048
-177.18808537710026,1126
-174.66824248596583,1209
-172.14909647290835,1301
-169.6306471471229,1199
-167.11289431772548,1162
-164.59583779375328,1159
-162.07947738416453,1090
-159.5638128978386,1106
-157.04884414357605,1290
-154.53457093009854,1378
-152.02099306604828,1239
-149.50811035998936,1240
-146.99592262040665,1370
-144.48442965570587,1287
-141.97363127421409,1463
-139.46352728417958,1632
-136.95411749377126,1731
-134.44540171107985,1655
-131.93737974411636,1636
-129.43005140081357,1684
-126.92341648902493,1563
-124.41747481652521,1654
-121.91222619101006,1613
-119.40767042009657,1471
-116.90380731132257,1462
-114.40063667214702,1573
-111.8981583099503,1820
-109.3963720320337,1853
-106.89527764561933,1650
-104.39487495785067,1892
-101.89516377579241,1974
-99.39614390642998,1930
-96.89781515667039,2129
-94.40017733334128,2484
-91.90323024319173,2273
-89.40697369289148,2130
-86.91140748903172,1982
-84.41653143812482,2008
-81.92234534660395,2224
-79.42884902082358,2228
-76.93604226705907,2242
-74.4439248915071,2240
-71.95249670028534,1964
-69.46175749943245,2456
-66.97170709490854,2688
-64.48234529259423,3054
-61.99367189829195,3155
-59.50568671772464,3184
-57.01838955653636,3978
-54.53178022029283,3972
-52.045858514480074,3993
-49.560624244506016,4257
-47.07607721569923,4089
-44.59221723330904,4255
-42.10904410250669,4673
-39.62655762838392,5589
-37.14475761595372,6264
-34.66364387015028,6733
-32.18321619582866,7232
-29.70347439776515,8567
-27.224418280657005,11164
-24.74604764912317,14285
-22.26836230770266,19816
-19.7913620608565,30215
-17.315046712966478,42608
-14.83941606833514,49010
-12.36446993118659,65039
-9.89020810566592,65039
-7.416630395839093,65039
-4.94373660569363,65039
-2.471526539137585,65039
-6.821210263296962E-13,65039
2.47084320796705,65039
4.941003281093458,65039
7.410480415786196,65039
9.879274808531363,65039
12.347386655893956,65039
14.814816154518212,65039
17.28156350112681,65039
19.74762889252179,65039
22.21301252558385,65039
24.67771459727237,65039
27.141735304626195,65039
29.605074844762612,42267
32.06773341487792,18032
34.52971121224755,15750
36.99100843422559,15731
39.45162527824516,13749
41.91156194181792,11192
44.370818622535126,12451
46.82939551806646,13555
49.287292826160524,13875
51.74451074464503,13579
54.201049471426245,8948
56.65690920448981,6165
59.112090141899785,5290
61.56659248179983,5379
64.02041642241159,4694
66.4735621620365,4129
68.92602989905402,3175
71.37781983192338,3137
73.82893215918205,4034
76.27936707944684,3736
78.72912479141326,3385
81.17820549385567,3455
83.62660938562783,3826
86.07433666566146,3688
88.5213875329681,3920
90.96776218663751,3287
93.41346082583925,3082
95.85848364982041,2433
98.30283085790859,2266
100.7465026495089,2346
103.18949922410604,2754
105.63182078126385,2398
108.07346752062438,2324
110.51443964190923,2417
112.95473734491827,2094
115.39436082953114,1818
117.83331029570547,2082
120.27158594347827,2342
122.7091879729652,1724
125.1461165843615,1731
127.58237197794062,1812
130.01795435405518,1456
132.4528639131364,1504
134.88710085569494,1928
137.32066538231982,1957
139.75355769367923,1698
142.1857779905207,1785
144.61732647366978,1896
147.04820334403132,1635
149.47840880258934,1539
151.90794305040674,1796
154.33680628862487,2043
156.76499871846443,2019
159.19252054122433,2075
161.61937195828352,2026
164.04555317109896,2164
166.47106438120693,2475
168.89590579022217,3012
171.320077599839,2997
173.7435800118302,3072
176.16641322804742,3274
178.58857745042144,3277
181.01007288096173,3300
183.43089972175687,3510
185.85105817497413,3481
188.27054844285988,3474
190.6893707277394,3534
193.10752523201643,3586
195.5250121581745,3701
197.9418317087751,3688
200.3579840864594,3841
202.7734694939469,3821
205.18828813403627,3893
207.6024402096051,3847
210.01592592360964,3883
212.42874547908548,4063
214.84089907914665,3908
217.2523869269868,3852
219.66320922587727,3974
222.0733661791695,3937
224.48285799029293,3756
226.8916848627572,3915
229.29984700014882,4023
231.7073446061355,3950
234.11417788446204,3941
236.520347038953,4042
238.92585227351185,4302
241.33069379212054,4359
243.73487179884035,4268
246.1383864978112,4045
248.541238093252,3993
250.9434267894609,4179
253.34495279081432,3988
255.74581630176783,3954
258.1460175268563,4493
260.54555667069314,4197
262.9444339379703,4077
265.3426495334594,4031
267.7402036620107,3969
270.1370965285529,3958
272.53332833809407,3758
274.9288992957214,3798
277.32380960660055,3797
279.718059475976,3585
282.1116491091717,3767
284.5045787115897,3830
286.89684848871195,3871
289.2884586460981,3932
291.67940938938807,3716
294.0697009242996,3741
296.4593334566299,3665
298.84830719225477,3718
301.23662233712923,3642
303.6242790972866,3716
306.01127767884,3668
308.39761828798066,3625
310.78330113097934,3650
313.16832641418534,3710
315.5526943440269,3560
317.9364051270112,3435
320.3194589697242,3466
322.70185607883093,3430
325.0835966610754,3366
327.4646809232805,3384
329.8451090723478,3344
332.2248813152577,3286
334.6039978590701,3322
336.9824589109231,3338
339.36026467803447,3350
341.7374153677,3283
344.113911187295,3283
346.48975234427337,3226
348.8649390461686,3227
351.2394715005918,3297
353.61334991523415,3193
355.9865744978655,3195
358.35914545633375,3251
360.73106299856715,3204
363.10232733257146,3245
365.47293866643247,3232
367.84289720831396,3174
370.2122031664593,3229
372.5808567491905,3188
374.9488581649083,3132
377.31620762209275,3117
379.6829053293021,3251
382.0489514951745,3143
384.4143463284262,3116
386.7790900378528,3112
389.14318283232853,3076
391.50662492080653,3140
393.86941651231916,3044
396.23155781597745,3040
398.5930490409713,3099
400.9538903965696,3091
403.3140820921202,3173
405.6736243370498,3051
408.03251734086336,2954
410.3907613131465,3124
412.74835646356166,2987
415.10530300185144,2922
417.4616011378372,3100
419.81725108141893,3149
422.1722530425758,3054
424.5266072313656,2929
426.880313857925,3062
429.2333731324701,2973
431.58578526529516,2999
433.9375504667738,3014
436.2886689473588,3023
438.63914091758113,2931
440.9889665880513,2974
443.33814616945835,2961
445.68667987257015,3099
448.03456790823395,2953
450.3818104873759,2912
452.72840782100013,3012
455.07436012019105,3001
457.41966759611057,3092
459.7643304600007,2976
462.10834892318155,3033
464.4517231970525,3002
466.79445349309174,3035
469.1365400228566,3021
471.4779829979826,2995
473.81878263018564,3093
476.15893913125876,3132
478.4984527130747,3161
480.8373235875855,3184
483.17555196682144,3163
485.5131380628919,3342
487.8500820879857,3455
490.1863842543697,3574
492.52204477439034,3896
494.8570638604725,4198
497.1914417251204,4399
499.52517858091653,4610
501.85827464052306,4491
504.19073011668036,4557
506.5225452222086,4437
508.85372017000566,4463
511.18425517304956,4175
513.514150444396,4427
515.8434061971808,4903
518.1720226446176,5615
520.4999999999999,5908
522.8273384766991,6215
525.1540382881666,6436
527.480099647932,6229
529.8055227696037,5408
532.1303078668694,4202
534.454455153496,3367
536.777964843328,3123
539.1008371502907,3024
541.4230722883866,2924
543.744670471698,2892
546.0656319143858,2808
548.3859568306899,2861
550.7056454349294,2820
553.0246979415016,2806
555.3431145648834,2766
557.6608955196306,2779
559.978041020377,2752
562.2945512818363,2748
564.6104265188006,2868
566.9256669461412,2699
569.2402727788082,2803
571.5542442318302,2737
573.8675815203156,2795
576.1802848594508,2833
578.4923544645015,2747
580.8037905508126,2804
583.114593333807,2781
585.4247630289875,2797
587.7342998519354,2757
590.0432040183106,2766
592.3514757438526,2814
594.6591152443794,2897
596.9661227357875,2869
599.2724984340531,2794
601.578242555231,2834
603.8833553154542,2866
606.1878369309362,2867
608.4916876179676,2940
610.7949075929192,2919
613.0974970722403,2778
615.3994562724587,2813
617.7007854101818,2907
620.0014847020951,2859
622.3015543649641,2787
624.6009946156324,2738
626.8998056710224,2783
629.1979877481361,2786
631.4955410640538,2858
633.7924658359349,2851
636.0887622810175,2818
638.3844306166192,2880
640.6794710601358,2869
642.9738838290426,2913
645.2676691408932,2874
647.5608272133207,2844
649.853358264037,2821
652.1452625108324,2901
654.4365401715764,2854
656.7271914642178,2820
659.0172166067838,2867
661.3066158173809,2876
663.5953893141935,2852
665.8835373154867,2740
668.1710600396028,2836
670.4579577049639,2946
672.7442305300709,2901
675.0298787335033,2972
677.3149025339197,2938
679.599302150058,2858
681.8830778007342,2966
684.1662297048437,2915
686.4487580813608,2909
688.7306631493387,2919
691.0119451279091,2833
693.2926042362834,2916
695.5726406937516,2854
697.8520547196814,2922
700.1308465335215,3014
702.4090163547982,2949
704.6865644031171,2971
706.9634908981619,2941
709.2397960596965,2828
711.5154801075631,2829
713.7905432616823,2867
716.0649857420548,2830
718.3388077687592,2891
720.612009561953,2983
722.8845913418733,2837
725.1565533288352,2909
727.427895743234,2908
729.6986188055427,2945
731.9687227363137,2932
734.238207756178,2984
736.5070740858458,2944
738.7753219461066,2937
741.0429515578281,2891
743.3099631419569,2849
745.5763569195191,2888
747.8421331116193,2889
750.1072919394409,2861
752.3718336242467,2911
754.6357583873777,2892
756.8990664502545,2961
759.1617580343765,2831
761.423833361321,2868
763.6852926527457,2741
765.9461361303862,2913
768.206364016058,2838
770.4659765316536,2896
772.7249738991469,2964
774.9833563405886,2999
777.2411240781092,2972
779.4982773339183,2938
781.7548163303044,2982
784.010741289634,3013
786.2660524343538,3126
788.5207499869881,3050
790.7748341701416,2990
793.0283052064964,3004
795.2811633188143,2968
797.5334087299362,3029
799.7850416627813,2973
802.0360623403484,2970
804.2864709857143,2933
806.5362678220353,3016
808.7854530725468,2979
811.0340269605625,3004
813.2819897094754,2989
815.5293415427581,3010
817.77608268396,3025
820.0222133567116,3063
822.2677337847211,2969
824.5126441917765,2980
826.7569448017433,2877
829.0006358385675,2899
831.2437175262731,2966
833.4861900889629,2862
835.7280537508192,2951
837.9693087361026,2910
840.2099552691533,2929
842.4499935743896,2953
844.689423876309,3010
846.9282463994886,2979
849.1664613685833,2931
851.4040690083276,2940
853.6410695435349,2958
855.877463199097,2926
858.1132501999847,2893
860.3484307712487,2870
862.5830051380175,2911
864.8169735254988,2941
867.0503361589791,2924
869.2830932638243,2977
871.5152450654786,2879
873.7467917894654,2984
875.9777336613873,3067
878.2080709069252,2970
880.4378037518389,2974
882.666932421968,3070
884.8954571432301,3046
887.1233781416219,2982
889.3506956432192,3131
891.5774098741766,2973
893.803521060728,3082
896.0290294291852,3073
898.2539352059397,3042
900.4782386174619,3130
902.7019398903011,3090
904.925039251085,3047
907.147536926521,3056
909.3694331433943,2983
911.59072812857,3004
913.8114221089921,2976
916.0315153116827,2879
918.2510079637437,2928
920.4699002923547,2934
922.6881925247761,2931
924.905884888345,2944
927.1229776104793,2919
929.3394709186747,2887
931.555365040506,2956
933.7706602036275,2916
935.9853566357709,2947
938.1994545647489,2976
940.4129542184515,2929
942.6258558248488,3036
944.8381596119883,2984
947.0498658079974,2875
949.2609746410825,2888
951.4714863395287,2909
953.6814011316998,2862
955.8907192460387,2954
958.0994409110671,2893
960.3075663553858,2868
962.5150958076741,2934
964.7220294966913,2831
966.928367651274,2939
969.1341105003388,2890
971.3392582728806,2917
973.5438111979742,2904
975.747769504772,2862
977.9511334225061,2796
980.153903180487,2814
982.3560790081052,2832
984.5576611348289,2759
986.7586497902058,2751
988.9590452038618,2816
991.158847605503,2837
993.3580572249133,2712
995.5566742919558,2710
997.7546990365728,2733
999.952131688785,2755
1002.1489724786926,2631
1004.3452216364743,2601
1006.5408793923874,2667
1008.7359459767691,2783
1010.9304216200343,2680
1013.1243065526781,2603
1015.3176010052733,2585
1017.510305208472,2559
1019.7024193930064,2620
1021.8939437896848,2510
1024.0848786293977,2560
1026.2752241431122,2563
1028.4649805618747,2569
1030.6541481168115,2541
1032.842727039127,2576
1035.0307175601051,2507
1037.2181199111074,2513
1039.4049343235752,2501
1041.591161029029,2554
1043.7768002590683,2537
1045.9618522453698,2464
1048.1463172196918,2503
1050.3301954138697,2599
1052.513487059818,2465
1054.69619238953,2459
1056.8783116350783,2439
1059.0598450286152,2525
1061.2407928023704,2552
1063.4211551886528,2493
1065.6009324198508,2424
1067.780124728432,2529
1069.9587323469414,2474
1072.1367555080046,2426
1074.314194444325,2504
1076.4910493886855,2555
1078.667320573947,2534
1080.843008233051,2459
1083.0181125990161,2438
1085.1926339049414,2545
1087.3665723840027,2441
1089.5399282694575,2460
1091.7127017946405,2371
1093.8848931929647,2462
1096.0565026979243,2425
1098.2275305430899,2399
1100.3979769621128,2418
1102.567842188722,2334
1104.737126456726,2407
1106.9058300000124,2360
1109.0739530525475,2317
1111.2414958483764,2431
1113.4084586216231,2405
1115.5748416064907,2463
1117.7406450372605,2477
1119.9058691482942,2385
1122.0705141740304,2298
1124.2345803489884,2384
1126.3980679077658,2401
1128.5609770850388,2390
1130.7233081155623,2394
1132.8850612341707,2391
1135.0462366757774,2394
1137.2068346753745,2407
1139.3668554680326,2338
1141.526299288901,2449
1143.68516637321,2456
1145.8434569562655,2419
1148.001171273455,2405
1150.158309560244,2295
1152.3148720521767,2368
1154.470858984876,2346
1156.626270594044,2363
1158.7811071154629,2385
1160.9353687849912,2367
1163.089055838569,2325
1165.242168512213,2468
1167.3947070420209,2379
1169.5466716641677,2386
1171.6980626149075,2359
1173.8488801305748,2404
1175.9991244475814,2347
1178.1487958024186,2334
1180.2978944316555,2347
1182.4464205719428,2288
1184.5943744600072,2295
1186.7417563326567,2335
1188.8885664267755,2342
1191.0348049793297,2357
1193.1804722273619,2295
1195.325568407995,2343
1197.4700937584303,2348
1199.614048515948,2310
1201.7574329179074,2313
1203.900247201746,2412
1206.042491604982,2374
1208.1841663652099,2313
1210.3252717201053,2293
1212.465807907422,2353
1214.6057751649923,2297
1216.7451737307279,2345
1218.8840038426192,2335
1221.0222657387353,2355
1223.1599596572241,2375
1225.2970858363137,2365
1227.4336445143094,2434
1229.5696359295966,2423
1231.705060320639,2310
1233.8399179259786,2314
1235.9742089842384,2346
1238.107933734118,2412
1240.2410924143974,2357
1242.373685263935,2407
1244.5057125216676,2366
1246.6371744266116,2390
1248.7680712178621,2345
1250.898403134593,2364
1253.028170416058,2316
1255.1573733015875,2410
1257.2860120305932,2342
1259.4140868425648,2384
1261.54159797707,2372
1263.6685456737569,2293
1265.7949301723515,2406
1267.9207517126597,2362
1270.046010534565,2341
1272.1707068780306,2336
1274.2948409830983,2364
1276.4184130898889,2312
1278.541423438603,2387
1280.6638722695184,2369
1282.785759822993,2493
1284.9070863394636,2482
1287.0278520594447,2457
1289.1480572235314,2338
1291.2677020723963,2448
1293.3867868467923,2525
1295.5053117875495,2450
1297.623277135579,2476
1299.740683131868,2463
1301.8575300174857,2464
1303.973818033578,2454
1306.0895474213703,2488
1308.2047184221678,2570
1310.3193312773528,2580
1312.4333862283888,2452
1314.5468835168163,2460
1316.659823384255,2414
1318.7722060724045,2476
1320.8840318230418,2452
1322.9953008780249,2485
1325.1060134792888,2518
1327.2161698688478,2585
1329.3257702887959,2547
1331.4348149813054,2460
1333.5433041886276,2516
1335.6512381530933,2447
1337.7586171171101,2539
1339.8654413231675,2457
1341.9717110138317,2484
1344.0774264317488,2430
1346.1825878196432,2455
1348.2871954203192,2434
1350.3912494766587,2494
1352.4947502316231,2449
1354.5976979282532,2432
1356.7000928096686,2400
1358.8019351190665,2489
1360.9032250997243,2467
1363.0039629949988,2469
1365.1041490483235,2516
1367.2037835032133,2357
1369.3028666032606,2444
1371.401398592137,2520
1373.4993797135926,2437
1375.5968102114575,2439
1377.6936903296396,2466
1379.7900203121262,2441
1381.8858004029835,2471
1383.9810308463561,2418
1386.075711886469,2491
1388.1698437676241,2512
1390.2634267342032,2379
1392.356461030667,2491
1394.4489469015557,2479
1396.5408845914872,2405
1398.6322743451592,2495
1400.7231164073469,2484
1402.813411022907,2404
1404.903158436773,2444
1406.9923588939578,2467
1409.0810126395531,2538
1411.1691199187303,2493
1413.2566809767386,2423
1415.343696058907,2473
1417.4301654106425,2509
1419.5160892774315,2475
1421.6014679048399,2400
1423.6863015385125,2456
1425.7705904241707,2537
1427.8543348076178,2589
1429.9375349347342,2546
1432.0201910514802,2538
1434.102303403894,2455
1436.1838722380944,2442
1438.2648978002767,2536
1440.3453803367174,2602
1442.4253200937692,2678
1444.5047173178677,2582
1446.5835722555234,2590
1448.6618851533285,2604
1450.739656257952,2602
1452.8168858161434,2743
1454.8935740747306,2690
1456.96972128062,2675
1459.045327680797,2684
1461.120393522327,2716
1463.1949190523528,2694
1465.2689045180973,2780
1467.3423501668608,2836
1469.415256246024,2813
1471.4876230030463,2854
1473.559450685465,2903
1475.6307395408976,2871
1477.7014898170391,2909
1479.771701761665,2869
1481.8413756226287,3062
1483.9105116478618,3016
1485.9791100853772,2998
1488.0471711832643,3024
1490.1146951896926,3123
1492.1816823529098,3113
1494.2481329212433,3032
1496.3140471430984,3099
1498.3794252669609,3200
1500.4442675413939,3213
1502.5085742150404,3246
1504.572345536622,3260
1506.6355817549388,3272
1508.6982831188702,3278
1510.7604498773744,3302
1512.8220822794883,3310
1514.8831805743293,3456
1516.9437450110909,3411
1519.003775839048,3472
1521.0632733075522,3443
1523.1222376660367,3640
1525.1806691640113,3584
1527.2385680510652,3577
1529.2959345768668,3679
1531.3527689911643,3743
1533.4090715437833,3723
1535.4648424846291,3771
1537.5200820636855,3930
1539.5747905310159,3807
1541.6289681367616,3990
1543.6826151311434,3990
1545.7357317644614,4040
1547.7883182870937,4130
1549.8403749494987,4150
1551.8919020022113,4232
1553.9428996958477,4422
1555.9933682811015,4391
1558.0433080087469,4366
1560.0927191296346,4484
1562.1416018946961,4490
1564.1899565549415,4516
1566.2377833614592,4462
1568.2850825654164,4255
1570.3318544180606,4305
1572.3780991707158,4186
1574.423817074788,4100
1576.4690083817595,3993
1578.5136733431923,3838
1580.5578122107272,3749
1582.601425236085,3577
1584.6445126710646,3498
1586.6870747675434,3417
1588.7291117774776,3278
1590.7706239529034,3272
1592.8116115459347,3151
1594.8520748087658,3015
1596.8920139936686,2897
1598.9314293529933,3038
1600.9703211391711,2882
1603.008689604711,2820
1605.0465350022005,2847
1607.0838575843068,2749
1609.1206576037753,2702
1611.1569353134305,2622
1613.1926909661765,2722
1615.2279248149953,2632
1617.2626371129481,2576
1619.2968281131757,2682
1621.3304980688963,2559
1623.3636472334088,2570
1625.39627586009,2535
1627.428384202396,2543
1629.459972513861,2439
1631.4910410480993,2562
1633.5215900588028,2518
1635.551619799744,2468
1637.5811305247717,2505
1639.6101224878166,2490
1641.6385959428862,2427
1643.6665511440683,2484
1645.693988345528,2440
1647.7209078015112,2479
1649.7473097663405,2466
1651.7731944944203,2446
1653.7985622402307,2373
1655.823413258333,2392
1657.847747803366,2344
1659.8715661300494,2497
1661.8948684931793,2409
1663.9176551476316,2408
1665.9399263483624,2368
1667.9616823504057,2354
1669.982923408873,2340
1672.0036497789574,2360
1674.0238617159293,2324
1676.043559475138,2396
1678.0627433120121,2358
1680.081413482059,2403
1682.0995702408654,2411
1684.117213844096,2334
1686.134344547495,2315
1688.1509626068864,2376
1690.1670682781705,2384
1692.182661817329,2356
1694.1977434804217,2368
1696.2123135235875,2362
1698.226372203043,2288
1700.2399197750851,2349
1702.2529564960905,2409
1704.2654826225112,2366
1706.277498410882,2379
1708.2890041178139,2399
1710.2999999999988,2476
1712.3104863142066,2431
1714.3204633172854,2415
1716.329931266163,2370
1718.3388904178469,2331
1720.3473410294214,2363
1722.3552833580516,2323
1724.3627176609807,2318
1726.3696441955308,2375
1728.3760632191033,2298
1730.3819749891782,2302
1732.3873797633146,2361
1734.3922777991502,2320
1736.3966693544012,2347
1738.4005546868639,2324
1740.4039340544127,2318
1742.406807715001,2341
1744.4091759266616,2345
1746.4110389475054,2280
1748.4123970357223,2342
1750.413250449582,2289
1752.4135994474318,2298
1754.4134442876993,2336
1756.4127852288902,2283
1758.4116225295893,2257
1760.4099564484595,2288
1762.407787244244,2299
1764.405115175764,2341
1766.4019405019203,2340
1768.3982634816916,2317
1770.3940843741357,2266
1772.3894034383907,2258
1774.3842209336717,2253
1776.378537119274,2274
1778.372352254571,2230
1780.3656665990156,2304
1782.3584804121397,2384
1784.3507939535534,2264
1786.3426074829463,2293
1788.3339212600863,2246
1790.3247355448211,2214
1792.3150505970766,2314
1794.3048666768573,2335
1796.2941840442477,2253
1798.2830029594106,2335
1800.2713236825884,2310
1802.2591464741004,2229
1804.2464715943465,2315
1806.2332993038058,2281
1808.2196298630352,2333
1810.2054635326708,2282
1812.190800573428,2348
1814.175641246101,2278
1816.1599858115628,2332
1818.1438345307652,2312
1820.127187664738,2313
1822.1100454745924,2368
1824.092408221516,2297
1826.0742761667766,2208
1828.055649571721,2191
1830.0365286977735,2245
1832.0169138064398,2277
1833.9968051593014,2326
1835.9762030180214,2313
1837.9551076443408,2298
1839.9335193000788,2232
1841.9114382471344,2192
1843.888864747485,2219
1845.8657990631878,2301
1847.842241456378,2278
1849.8181921892697,2264
1851.7936515241558,2230
1853.7686197234098,2219
1855.7430970494815,2242
1857.7170837649014,2299
1859.6905801322787,2323
1861.6635864143004,2323
1863.6361028737338,2310
1865.608129773424,2268
1867.5796673762961,2310
1869.5507159453537,2283
1871.521275743678,2290
1873.4913470344313,2245
1875.4609300808534,2274
1877.4300251462632,2358
1879.3986324940588,2261
1881.366752387717,2198
1883.3343850907936,2336
1885.3015308669228,2358
1887.268189979819,2276
1889.2343626932739,2285
1891.2000492711595,2359
1893.1652499774254,2227
1895.1299650761011,2213
1897.0941948312952,2238
1899.0579395071945,2293
1901.0211993680641,2193
1902.98397467825,2253
1904.9462657021745,2349
1906.9080727043415,2371
1908.869395949332,2255
1910.8302357018065,2295
1912.790592226504,2361
1914.7504657882428,2341
1916.7098566519212,2301
1918.6687650825133,2297
1920.6271913450764,2318
1922.5851357047422,2270
1924.5425984267245,2362
1926.499579776314,2288
1928.4560800188833,2280
1930.4120994198802,2255
1932.367638244833,2286
1934.32269675935,2310
1936.2772752291175,2286
1938.231373919899,2272
1940.1849930975404,2255
1942.1381330279637,2265
1944.0907939771696,2308
1946.0429762112412,2262
1947.9946799963363,2218
1949.9459055986945,2269
1951.896653284633,2267
1953.8469233205478,2255
1955.7967159729142,2375
1957.7460315082863,2314
1959.6948701932974,2191
1961.6432322946594,2285
1963.5911180791632,2237
1965.5385278136787,2316
1967.4854617651545,2335
1969.4319202006182,2253
1971.377903387176,2355
1973.3234115920136,2313
1975.268445082395,2279
1977.2130041256642,2296
1979.1570889892423,2278
1981.1006999406304,2178
1983.04383724741,2268
1984.986501177238,2268
1986.928691997853,2247
1988.8704099770712,2295
1990.811655382789,2251
1992.7524284829801,2268
1994.692729545698,2252
1996.6325588390755,2226
1998.5719166313224,2259
2000.5108031907307,2226
2002.4492187856677,2304
2004.387163684583,2284
2006.3246381560011,2180
2008.2616424685298,2279
2010.1981768908527,2235
2012.1342416917332,2157
2014.069837140014,2232
2016.0049635046162,2328
2017.9396210545406,2231
2019.8738100588666,2329
2021.8075307867502,2293
2023.740783507431,2195
2025.6735684902228,2248
2027.6058860045214,2245
2029.5377363198004,2314
2031.4691197056118,2278
2033.4000364315875,2206
2035.3304867674374,2242
2037.260470982952,2211
2039.189989347998,2186
2041.1190421325232,2290
2043.047629606554,2302
2044.9757520401945,2297
2046.9034097036288,2342
2048.8306028671195,2219
2050.7573318010086,2235
2052.683596775716,2292
2054.609398061742,2283
2056.5347359296647,2218
2058.4596106501403,2311
2060.384022493906,2286
2062.3079717317764,2215
2064.231458634646,2268
2066.1544834734873,2247
2068.077046519352,2219
2069.99914804337,2213
2071.9207883167524,2288
2073.8419676107865,2221
2075.7626861968406,2272
2077.6829443463607,2186
2079.6027423308715,2232
2081.522080421977,2220
2083.440958891362,2209
2085.359378010786,2299
2087.2773380520907,2273
2089.194839287196,2289
2091.111881988101,2204
2093.0284664268825,2187
2094.9445928756973,2217
2096.86026160678,2172
2098.775472892446,2235
2100.690227005088,2265
2102.604524217178,2235
2104.5183648012676,2218
2106.431749029985,2311
2108.34467717604,2258
2110.2571495122206,2302
2112.169166311393,2273
2114.080727846503,2237
2115.9918343905747,2222
2117.902486216711,2143
2119.8126835980956,2229
2121.722426807987,2183
2123.6317161197285,2167
2125.5405518067364,2205
2127.448934142509,2264
2129.356863400624,2230
2131.264339854737,2181
2133.1713637785815,2240
2135.077935445972,2249
2136.9840551308002,2292
2138.889723107037,2293
2140.7949396487334,2293
2142.699705030018,2256
2144.6040195250994,2252
2146.507883408264,2224
2148.4112969538774,2242
2150.3142604363848,2207
2152.2167741303097,2226
2154.1188383102535,2264
2156.0204532508997,2137
2157.9216192270064,2220
2159.822336513414,2195
2161.7226053850413,2201
2163.622426116884,2278
2165.5217989840185,2169
2167.4207242616,2227
2169.319202224862,2264
2171.2172331491165,2247
2173.1148173097563,2203
2175.0119549822507,2250
2176.90864644215,2268
2178.8048919650823,2191
2180.7006918267534,2263
2182.596046302952,2245
2184.4909556695407,2225
2186.3854202024645,2208
2188.279440177746,2280
2190.173015871487,2190
2192.066147559868,2292
2193.958835519149,2221
2195.851080025667,2184
2197.7428813558417,2240
2199.6342397861667,2295
2201.5251555932186,2233
2203.415629053651,2302
2205.3056604441986,2293
2207.19525004167,2324
2209.084398122958,2231
2210.9731049650327,2197
2212.861370844941,2198
2214.749196039812,2267
2216.636580826851,2249
2218.523525483344,2184
2220.410030286655,2263
2222.296095514226,2273
2224.1817214435805,2287
2226.066908352319,2228
2227.951656518121,2192
2229.835966218746,2369
2231.71983773203,2291
2233.6032713358913,2236
2235.486267308324,2186
2237.3688259274036,2203
2239.2509474712824,2203
2241.132632218193,2217
2243.013880446447,2198
2244.8946924344323,2256
2246.7750684606203,2174
2248.6550088035574,2229
2250.534513741871,2223
2252.413583554265,2246
2254.292218519526,2194
2256.170418916517,2268
2258.0481850241786,2238
2259.925517121534,2265
2261.8024154876825,2260
2263.678880401803,2210
2265.5549121431536,2173
2267.430510991071,2226
2269.305677224971,2216
2271.180411124348,2159
2273.0547129687766,2224
2274.9285830379076,2207
2276.8020216114737,2235
2278.6750289692845,2211
2280.5476053912294,2243
2282.4197511572766,2264
2284.2914665474727,2233
2286.162751841943,2123
2288.0336073208937,2262
2289.904033264608,2243
2291.774029953448,2197
2293.6435976678554,2157
2295.5127366883517,2250
2297.381447295534,2244
2299.2497297700825,2250
2301.1175843927526,2205
2302.9850114443825,2244
2304.852011205885,2193
2306.7185839582553,2173
2308.5847299825664,2234
2310.4504495599676,2243
2312.3157429716925,2225
2314.1806104990483,2186
2316.0450524234247,2287
2317.9090690262888,2196
2319.772660589186,2314
2321.635827393742,2271
2323.498569721661,2355
2325.3608878547248,2307
2327.2227820747967,2260
2329.0842526638157,2260
2330.945299903803,2247
2332.805924076857,2280
2334.6661254651535,2271
2336.525904350951,2301
2338.3852610165827,2216
2340.244195744464,2268
2342.102708817088,2299
2343.9608005170253,2356
2345.8184711269287,2300
2347.675720929526,2208
2349.532550207628,2250
2351.38895924412,2260
2353.24494832197,2335
2355.100517724223,2305
2356.955667734004,2274
2358.810398634514,2248
2360.664710709037,2326
2362.5186042409337,2217
2364.3720795136437,2206
2366.225136810686,2258
2368.0777764156583,2237
2369.929998612237,2275
2371.7818036841777,2322
2373.633191915315,2283
2375.484163589562,2314
2377.3347189909114,2339
2379.184858403434,2287
2381.03458211128,2278
2382.8838903986775,2339
2384.732783549936,2372
2386.5812618494406,2295
2388.4293255816588,2223
2390.2769750311327,2348
2392.1242104824883,2308
2393.971032220427,2353
2395.8174405297295,2306
2397.6634356952563,2313
2399.509018001947,2317
2401.3541877348193,2301
2403.1989451789705,2304
2405.043290619576,2283
2406.8872243418905,2323
2408.730746631247,2298
2410.5738577730594,2241
2412.4165580528183,2251
2414.258847756095,2345
2416.100727168537,2371
2417.9421965758734,2304
2419.783256263912,2288
2421.623906518538,2348
2423.4641476257157,2335
2425.303979871491,2341
2427.143403541984,2310
2428.9824189233977,2359
2430.821026302012,2352
2432.6592259641866,2346
2434.497018196361,2318
2436.33440328505,2391
2438.171381516851,2378
2440.00795317844,2256
2441.844118556569,2381
2443.6798779380724,2289
2445.5152316098606,2302
2447.3501798589255,2355
2449.1847229723357,2345
2451.0188612372403,2340
2452.8525949408663,2262
2454.6859243705203,2296
2456.518849813587,2320
2458.3513715575314,2301
2460.183489889895,2389
2462.015205098301,2316
2463.8465174704493,2332
2465.67742729412,2301
2467.5079348571717,2223
2469.338040447542,2291
2471.1677443532476,2303
2472.9970468623833,2268
2474.825948263123,2286
2476.6544488437207,2307
2478.482548892508,2284
2480.310248697896,2340
2482.137548548374,2294
2483.9644487325118,2323
2485.790949538956,2310
2487.617051256433,2393
2489.44275417375,2327
2491.26805857979,2382
2493.0929647635157,2329
2494.917473013971,2291
2496.741583620276,2320
2498.5652968716304,2349
2500.3886130573137,2375
2502.2115324666834,2338
2504.0340553891765,2343
2505.856182114308,2407
2507.6779129316733,2401
2509.499248130945,2395
2511.3201880018764,2384
2513.140732834298,2317
2514.9608829181198,2335
2516.780638543331,2327
2518.6,2312
2520.418967578273,2323
2522.237541568376,2310
2524.0557222606144,2327
2525.8735099453706,2362
2527.6909049131086,2360
2529.507907454368,2313
2531.32451785977,2350
2533.140736420014,2318
2534.9565634258774,2362
2536.771999168218,2376
2538.5870439379714,2361
2540.4016980261526,2382
2542.2159617238544,2417
2544.02983532225,2401
2545.8433191125914,2484
2547.656413386209,2470
2549.4691184345115,2407
2551.2814345489874,2398
2553.093362021204,2450
2554.904901142808,2424
2556.716052205523,2437
2558.526815501153,2371
2560.3371913215824,2451
2562.147179958771,2486
2563.956781704761,2368
2565.7659968516705,2506
2567.5748256916986,2451
2569.3832685171224,2517
2571.1913256202984,2534
2572.9989972936614,2429
2574.806283829725,2473
2576.613185521084,2536
2578.4197026604074,2491
2580.2258355404483,2480
2582.031584454035,2542
2583.836949694077,2497
2585.6419315535613,2496
2587.4465303255533,2529
2589.2507463032002,2469
2591.0545797797245,2543
2592.8580310484303,2603
2594.6611004026995,2567
2596.463788135992,2630
2598.266094541849,2539
2600.0680199138874,2541
2601.869564545807,2634
2603.670728731383,2552
2605.4715127644704,2688
2607.2719169390048,2567
2609.071941548998,2589
2610.8715868885433,2595
2612.670853251811,2702
2614.469740933052,2614
2616.268250226594,2636
2618.0663814268455,2485
2619.864134828292,2604
2621.6615107255006,2503
2623.458509413115,2618
2625.2551311858597,2562
2627.0513763385347,2493
2628.8472451660223,2568
2630.6427379632833,2482
2632.4378550253564,2474
2634.232596647359,2493
2636.026963124488,2486
2637.8209547520187,2532
2639.6145718253065,2620
2641.407814639785,2495
2643.200683490966,2465
2644.9931786744414,2461
2646.7853004858807,2419
2648.577049221034,2514
2650.3684251757277,2470
2652.1594286458712,2565
2653.9500599274484,2484
2655.740319316525,2417
2657.5302071092437,2433
2659.3197236018286,2439
2661.10886909058,2501
2662.8976438718782,2481
2664.686048242183,2364
2666.4740824980327,2425
2668.2617469360443,2338
2670.0490418529134,2356
2671.8359675454153,2455
2673.622524310403,2351
2675.408712444811,2363
2677.1945322456495,2395
2678.979984010009,2392
2680.76506803506,2354
2682.5497846180497,2402
2684.334134056306,2400
2686.1181166472343,2448
2687.9017326883213,2362
2689.6849824771293,2373
2691.4678663113013,2396
2693.2503844885596,2378
2695.032537306705,2342
2696.8143250636167,2362
2698.5957480572542,2353
2700.3768065856534,2315
2702.1575009469316,2324
2703.937831439283,2355
2705.717798360982,2294
2707.4974020103837,2392
2709.276642685917,2332
2711.055520686095,2370
2712.834036309506,2313
2714.612189854819,2332
2716.389981620782,2324
2718.1674119062204,2367
2719.944481010041,2267
2721.721189231226,2271
2723.4975368688415,2287
2725.273524222027,2204
2727.0491515900053,2317
2728.824419272075,2280
2730.5993275676146,2306
2732.3738767760838,2363
2734.148067197016,2302
2735.921899130031,2297
2737.6953728748194,2274
2739.468488731156,2281
2741.2412469988926,2274
2743.0136479779617,2278
2744.785691968372,2319
2746.5573792702116,2238
2748.3287101836504,2242
2750.099685008934,2250
2751.870304046388,2199
2753.640567596418,2271
2755.4104759595057,2315
2757.1800294362156,2233
2758.949228327187,2255
2760.7180729331412,2355
2762.486563554877,2326
2764.254700493272,2311
2766.022484049284,2242
2767.789914523947,2253
2769.5569922183786,2275
2771.3237174337705,2260
2773.090090471394,2190
2774.8561116326036,2225
2776.6217812188274,2307
2778.3870995315756,2299
2780.1520668724356,2321
2781.9166835430747,2279
2783.6809498452394,2326
2785.444866080754,2262
2787.2084325515225,2330
2788.971649559527,2265
2790.73451740683,2344
2792.4970363955713,2273
2794.2592068279705,2311
2796.0210290063264,2257
2797.7825032330147,2289
2799.543629810493,2277
2801.304409041296,2271
2803.0648412280366,2277
2804.8249266734088,2234
2806.5846656801846,2203
2808.344058551212,2257
2810.1031055894246,2254
2811.8618070978273,2303
2813.6201633795085,2296
2815.378174737636,2334
2817.1358414754536,2313
2818.893163896285,2283
2820.6501423035334,2228
2822.4067770006814,2299
2824.1630682912883,2341
2825.9190164789957,2297
2827.6746218675207,2284
2829.429884760661,2277
2831.184805462294,2277
2832.9393842763743,2236
2834.693621506936,2347
2836.4475174580916,2344
2838.201072434034,2237
2839.954286739034,2282
2841.707160677441,2218
2843.459694553685,2259
2845.2118886722724,2258
2846.96374333779,2245
2848.7152588549034,2330
2850.4664355283567,2266
2852.217273662973,2262
2853.9677735636546,2266
2855.7179355353833,2324
2857.4677598832186,2232
2859.217246912299,2365
2860.9663969278427,2322
2862.715210235146,2225
2864.4636871395846,2256
2866.211827946614,2327
2867.9596329617652,2291
2869.7071024906536,2280
2871.4542368389684,2275
2873.20103631248,2295
2874.947501217038,2251
2876.6936318585695,2361
2878.4394285430812,2222
2880.1848915766604,2307
2881.9300212654707,2282
2883.6748179157553,2385
2885.4192818338374,2275
2887.1634133261173,2311
2888.907212699077,2277
2890.6506802592744,2267
2892.393816313348,2246
2894.1366211680142,2329
2895.8790951300693,2299
2897.621238506388,2258
2899.363051603925,2262
2901.1045347297118,2258
2902.8456881908596,2321
2904.58651229456,2284
2906.327007348081,2305
2908.067173658772,2281
2909.8070115340597,2258
2911.5465212814497,2274
2913.285703208527,2247
2915.0245576229563,2286
2916.7630848324807,2298
2918.5012851449196,2300
2920.2391588681758,2275
2921.976706310227,2321
2923.7139277791334,2237
2925.4508235830313,2221
2927.187394030137,2253
2928.923639428745,2287
2930.6595600872306,2239
2932.395156314046,2354
2934.1304284177218,2278
2935.8653767068713,2349
2937.6000014901815,2448
2939.3343030764227,2327
2941.068281774442,2338
2942.8019378931644,2333
2944.5352717415976,2323
2946.2682836288236,2314
2948.0009738640065,2293
2949.7333427563885,2261
2951.465390615289,2272
2953.1971177501086,2347
2954.9285244703265,2299
2956.6596110855,2239
2958.3903779052657,2264
2960.1208252393385,2230
2961.8509533975125,2248
2963.5807626896617,2289
2965.3102534257378,2203
2967.0394259157715,2229
2968.768280469873,2273
2970.496817398232,2335
2972.2250370111146,2270
2973.952939618869,2214
2975.6805255319196,2298
2977.4077950607707,2301
2979.134748516006,2262
2980.861386208289,2324
2982.587708448359,2257
2984.313715547037,2293
2986.039407815222,2276
2987.764785563891,2364
2989.489849104102,2389
2991.2145987469908,2274
2992.9390348037705,2288
2994.6631575857346,2247
2996.3869674042576,2297
2998.1104645707887,2328
2999.83364939686,2274
3001.5565221940783,2347
3003.2790832741334,2310
3005.0013329487924,2323
3006.7232715298996,2272
3008.4448993293804,2237
3010.166216659239,2279
3011.887223831558,2235
3013.607921158498,2240
3015.3283089522993,2183
3017.0483875252826,2252
3018.7681571898443,2265
3020.4876182584626,2219
3022.2067710436927,2271
3023.9256158581707,2340
3025.644153014609,2211
3027.362382825801,2260
3029.0803056046193,2304
3030.797921664012,2212
3032.5152313170106,2319
3034.2322348767225,2246
3035.9489326563353,2256
3037.665324969115,2231
3039.3814121284063,2336
3041.097194447633,2276
3042.812672240299,2211
3044.5278458199855,2310
3046.2427155003525,2253
3047.9572815951406,2275
3049.671544418167,2327
3051.38550428333,2314
3053.0991615046073,2288
3054.812516396051,2298
3056.5255692717974,2261
3058.2383204460575,2303
3059.9507702331257,2297
3061.662918947372,2275
3063.3747669032446,2315
3065.0863144152736,2417
3066.7975617980674,2306
3068.508509366309,2204
3070.219157434767,2307
3071.9295063182844,2271
3073.639556331785,2255
3075.3493077902704,2375
3077.058761008821,2249
3078.7679163025964,2260
3080.476773986837,2240
3082.1853343768594,2294
3083.89359778806,2327
3085.6015645359153,2296
3087.3092349359786,2308
3089.016609303884,2220
3090.7236879553434,2210
3092.4304712061476,2281
3094.136959372166,2261
3095.843152769349,2272
3097.5490517137237,2250
3099.2546565213966,2250
3100.959967508554,2291
3102.66498499146,2269
3104.3697092864577,2197
3106.0741407099695,2219
3107.778279578498,2356
3109.482126208622,2330
3111.1856809170004,2349
3112.8889440203716,2276
3114.5919158355528,2304
3116.294596679439,2331
3117.996986869006,2262
3119.6990867213062,2338
3121.4008965534726,2303
3123.102416682717,2219
3124.803647426329,2311
3126.5045891016784,2319
3128.205242026213,2380
3129.90560651746,2322
3131.605682893025,2391
3133.3054714705922,2319
3135.0049725679282,2277
3136.7041865028714,2318
3138.4031135933465,2326
3140.101754157353,2303
3141.800108512971,2251
3143.498176978357,2279
3145.1959598717494,2234
3146.8934575114636,2355
3148.5906702158954,2281
3150.2875983035183,2292
3151.9842420928853,2255
3153.680601902627,2195
3155.376678051456,2364
3157.07247085816,2278
3158.767980641609,2252
3160.463207720748,2283
3162.158152414606,2222
3163.8528150422862,2313
3165.5471959229726,2260
3167.2412953759303,2299
3168.9351137204976,2220
3170.628651276098,2293
3172.3219083622307,2288
3174.014885298474,2273
3175.707582404485,2346
3177.4000000000005,2325
3179.092138404835,2243
3180.7839979388846,2258
3182.47557892212,2283
3184.166881674594,2318
3185.8579065164386,2288
3187.5486537678626,2281
3189.2391237491547,2323
3190.9293167806827,2331
3192.6192331828934,2345
3194.3088732763117,2306
3195.998237381542,2371
3197.687325819268,2280
3199.376138910251,2232
3201.064676975334,2294
3202.7529403354347,2274
3204.4409293115523,2329
3206.1286442247647,2284
3207.816085396229,2251
3209.5032531471825,2289
3211.190147798936,2264
3212.8767696728846,2228
3214.5631190905015,2326
3216.2491963733373,2257
3217.9350018430214,2182
3219.6205358212637,2182
3221.305798629851,2252
3222.990790590651,2196
3224.6755120256103,2275
3226.359963256751,2243
3228.0441446061795,2253
3229.7280563960758,2180
3231.411698948703,2293
3233.0950725863995,2239
3234.778177631587,2219
3236.461014406761,2364
3238.1435832345005,2264
3239.8258844374595,2268
3241.507918338374,2253
3243.1896852600576,2282
3244.8711855254023,2289
3246.552419457381,2347
3248.233387379042,2263
3249.914089613516,2265
3251.59452648401,2231
3253.274698313813,2253
3254.95460542629,2204
3256.6342481448855,2224
3258.313626793125,2325
3259.9927416946084,2235
3261.6715931730196,2213
3263.3501815521176,2163
3265.0285071557437,2195
3266.706570307815,2304
3268.3843713323286,2202
3270.0619105533615,2223
3271.739188295068,2309
3273.4162048816834,2312
3275.0929606375184,2270
3276.769455886966,2251
3278.445690954498,2246
3280.1216661646613,2270
3281.797381842087,2351
3283.4728383114807,2288
3285.1480358976296,2288
3286.8229749253996,2225
3288.4976557197333,2242
3290.172078605655,2333
3291.846243908266,2198
3293.5201519527463,2249
3295.193803064357,2254
3296.8671975684374,2273
3298.5403357904024,2297
3300.21321805575,2161
3301.8858446900567,2248
3303.558216018975,2272
3305.23033236824,2291
3306.9021940636603,2251
3308.57380143113,2207
3310.2451547966184,2205
3311.916254486174,2269
3313.5871008259246,2208
3315.2576941420766,2273
3316.9280347609147,2207
3318.5981230088046,2179
3320.2679592121895,2227
3321.9375436975924,2191
3323.606876791612,2298
3325.27595882093,2161
3326.944790112305,2189
3328.6133709925753,2206
3330.2817017886573,2267
3331.949782827547,2208
3333.617614436319,2151
3335.2851969421245,2273
3336.952530672199,2276
3338.619615953853,2286
3340.286453114475,2152
3341.9530424815357,2253
3343.619384382583,2300
3345.2854791452437,2209
3346.951327097224,2294
3348.6169285663073,2217
3350.2822838803577,2297
3351.947393367319,2305
3353.61225735521,2283
3355.2768761721345,2233
3356.9412501462693,2225
3358.605379605873,2198
3360.2692648792827,2271
3361.9329062949146,2213
3363.596304181263,2200
