CollectionTime,6/26/2024 2:56:36 PM
ExposureUsed,3
CalibratedSpectrum
-962.7078968117929,673
-959.9714848408522,692
-957.2358232597828,668
-954.5009119013725,718
-951.7667505983302,676
-949.0333391832855,715
-946.3006774887896,714
-943.5687653473143,717
-940.837602591253,723
-938.1071890529199,729
-935.3775245645503,715
-932.6486089583007,751
-929.9204420662485,789
-927.1930237203925,724
-924.4663537526524,702
-921.7404319948689,732
-919.0152582788041,759
-916.2908324361409,754
-913.5671542984834,770
-910.8442236973568,751
-908.1220404642074,797
-905.4006044304027,765
-902.679915427231,741
-899.959973285902,739
-897.2407778375464,757
-894.5223289132158,733
-891.8046263438832,750
-889.0876699604426,718
-886.3714595937089,710
-883.6559950744183,732
-880.9412762332282,742
-878.2273029007168,705
-875.5140749073835,679
-872.8015920836489,727
-870.0898542598545,715
-867.3788612662631,682
-864.6686129330585,687
-861.9591090903457,672
-859.2503495681506,683
-856.5423341964203,718
-853.8350628050229,691
-851.1285352237478,678
-848.4227512823054,686
-845.7177108103272,703
-843.0134136373656,709
-840.3098595928943,700
-837.6070485063082,732
-834.9049802069229,730
-832.2036545239757,701
-829.5030712866244,693
-826.8032303239481,709
-824.1041314649472,711
-821.4057745385428,743
-818.7081593735775,696
-816.0112857988148,715
-813.3151536429393,732
-810.6197627345566,677
-807.9251129021936,693
-805.2312039742981,697
-802.5380357792392,678
-799.8456081453069,743
-797.1539209007124,703
-794.462973873588,699
-791.772766891987,685
-789.083299783884,717
-786.3945723771743,711
-783.7065844996748,693
-781.0193359791231,675
-778.3328266431781,722
-775.6470563194197,745
-772.9620248353489,740
-770.2777320183878,723
-767.5941776958798,703
-764.9113616950891,721
-762.2292838432011,692
-759.5479439673222,677
-756.8673418944801,672
-754.1874774516235,698
-751.5083504656222,715
-748.8299607632671,703
-746.15230817127,718
-743.475392516264,733
-740.7992136248035,734
-738.1237713233636,709
-735.4490654383407,717
-732.7750957960521,734
-730.1018622227365,723
-727.4293645445534,696
-724.7576025875837,734
-722.0865761778291,734
-719.4162851412126,751
-716.7467293035781,740
-714.0779084906909,747
-711.409822528237,758
-708.7424712418238,743
-706.0758544569796,719
-703.4099719991541,740
-700.7448236937178,767
-698.0804093659622,756
-695.4167288411002,764
-692.7537819442656,749
-690.0915685005134,741
-687.4300883348199,788
-684.7693412720819,804
-682.1093271371178,789
-679.4500457546669,748
-676.7914969493897,748
-674.1336805458676,785
-671.4765963686034,763
-668.8202442420206,769
-666.1646239904642,823
-663.5097354382001,843
-660.8555784094151,774
-658.2021527282176,818
-655.5494582186366,852
-652.8974947046223,844
-650.2462620100463,808
-647.5957599587009,827
-644.9459883742998,826
-642.2969470804776,858
-639.6486359007902,837
-637.0010546587141,846
-634.3542031776476,865
-631.7080812809096,824
-629.0626887917401,801
-626.4180255333008,794
-623.7740913286734,800
-621.1308860008619,806
-618.4884093727904,815
-615.8466612673046,767
-613.2056415071715,760
-610.5653499150785,832
-607.9257863136347,825
-605.28695052537,848
-602.6488423727357,799
-600.0114616781036,829
-597.3748082637674,858
-594.7388819519412,859
-592.1036825647604,809
-589.4692099242818,853
-586.8354638524829,866
-584.2024441712624,869
-581.5701507024403,884
-578.9385832677575,860
-576.3077416888759,909
-573.6776257873787,834
-571.0482353847704,845
-568.4195703024757,860
-565.7916303618415,897
-563.164415384135,881
-560.5379251905453,878
-557.9121596021815,858
-555.2871184400748,880
-552.6628015251767,883
-550.0392086783606,881
-547.4163397204204,867
-544.794194472071,846
-542.1727727539491,904
-539.5520743866118,923
-536.9320991905377,909
-534.3128469861261,957
-531.6943175936979,920
-529.0765108334947,937
-526.4594265256793,994
-523.8430644903358,1191
-521.2274245474689,1333
-518.612506517005,1393
-515.9983102187913,1529
-513.3848354725959,1612
-510.77208209810846,1697
-508.16004991493924,1664
-505.5487387426199,1826
-502.9381484006032,1975
-500.3282787082628,2112
-497.71912948489364,2273
-495.1107005497117,2293
-492.5029917218539,2180
-489.8960028203786,2136
-487.28973366426493,1891
-484.68418407241325,1702
-482.07935386364494,1526
-479.47524285670266,1346
-476.87185087025,1351
-474.2691777228715,1402
-471.66722323307334,1261
-469.0659872192821,1185
-466.4654694998459,1214
-463.86566989303384,1140
-461.26658821703614,1145
-458.66822428996414,1132
-456.07057792985,1123
-453.4736489546475,1169
-450.877437182231,1122
-448.28194243039627,1104
-445.68716451686,1085
-443.09310325926003,1077
-440.49975847515555,1004
-437.9071299820263,997
-435.31521759727354,1075
-432.72402113821954,1075
-430.13354042210767,1126
-427.5437752661022,1160
-424.95472548728867,1221
-422.36639090267386,1191
-419.7787713291855,1152
-417.1918665836721,1146
-414.60567648290385,1206
-412.0202008435715,1221
-409.4354394822874,1206
-406.8513922155845,1175
-404.26805885991723,1208
-401.685439231661,1207
-399.103533147112,1224
-396.522340422488,1200
-393.9418608739278,1196
-391.3620943174908,1246
-388.7830405691583,1218
-386.2046994448317,1182
-383.6270707603344,1090
-381.05015433141045,1028
-378.473949973725,917
-375.8984575028645,898
-373.32367673433623,834
-370.74960748356875,798
-368.1762495659117,771
-365.60360279663576,743
-363.03166699093265,670
-360.4604419639154,650
-357.8899275306178,597
-355.32012350599507,600
-352.7510297049233,604
-350.1826459421999,577
-347.61497203254316,594
-345.04800779059235,556
-342.4817530309082,575
-339.91620756797226,549
-337.35137121618743,530
-334.7872437898774,516
-332.22382510328725,606
-329.66111497058273,623
-327.09911320585127,634
-324.53781962310075,632
-321.9772340362607,604
-319.4173562591816,673
-316.8581861056348,741
-314.2997233893127,763
-311.7419679238294,738
-309.1849195227194,687
-306.62857799943856,649
-304.0729431673641,569
-301.51801483979375,574
-298.963792829947,609
-296.41027695096386,697
-293.85746701590574,709
-291.3053628377552,754
-288.7539642294155,721
-286.2032710037115,738
-283.65328297338897,727
-281.1039999511146,776
-278.5554217494762,783
-276.007548180983,730
-273.4603790580651,694
-270.9139141930734,655
-268.3681533982807,681
-265.8230964858798,734
-263.27874326798565,729
-260.7350935566336,769
-258.1921471637804,799
-255.6499039013039,886
-253.10836358100266,815
-250.56752601459698,762
-248.02739101372765,849
-245.48795838995704,840
-242.94922795476816,807
-240.41119951956557,756
-237.8738728956746,970
-235.33724789434166,917
-232.80132432673452,980
-230.2661020039418,1074
-227.73158073697357,1039
-225.19776033676033,967
-222.66464061415422,1063
-220.1322213799284,950
-217.60050244477725,981
-215.06948361931552,987
-212.53916471408013,936
-210.00954553952818,860
-207.48062590603843,896
-204.9524056239104,1031
-202.4248845033651,1132
-199.8980623545441,1079
-197.37193898751036,939
-194.84651421224817,1044
-192.32178783866232,1057
-189.79775967657952,1084
-187.27442953574644,1046
-184.7517972258321,1005
-182.2298625564256,921
-179.7086253370378,1036
-177.18808537710026,1146
-174.66824248596583,1140
-172.14909647290835,1228
-169.6306471471229,1179
-167.11289431772548,1082
-164.59583779375328,1077
-162.07947738416453,1045
-159.5638128978386,1067
-157.04884414357605,1191
-154.53457093009854,1294
-152.02099306604828,1149
-149.50811035998936,1252
-146.99592262040665,1306
-144.48442965570587,1239
-141.97363127421409,1528
-139.46352728417958,1573
-136.95411749377126,1577
-134.44540171107985,1715
-131.93737974411636,1613
-129.43005140081357,1558
-126.92341648902493,1531
-124.41747481652521,1598
-121.91222619101006,1616
-119.40767042009657,1414
-116.90380731132257,1398
-114.40063667214702,1594
-111.8981583099503,1876
-109.3963720320337,1811
-106.89527764561933,1624
-104.39487495785067,1873
-101.89516377579241,1947
-99.39614390642998,1951
-96.89781515667039,2156
-94.40017733334128,2277
-91.90323024319173,2081
-89.40697369289148,2127
-86.91140748903172,1889
-84.41653143812482,1983
-81.92234534660395,2066
-79.42884902082358,2055
-76.93604226705907,2113
-74.4439248915071,2167
-71.95249670028534,1975
-69.46175749943245,2355
-66.97170709490854,2426
-64.48234529259423,2920
-61.99367189829195,3098
-59.50568671772464,3237
-57.01838955653636,3843
-54.53178022029283,3681
-52.045858514480074,4009
-49.560624244506016,4416
-47.07607721569923,4093
-44.59221723330904,4210
-42.10904410250669,4584
-39.62655762838392,5673
-37.14475761595372,6040
-34.66364387015028,6394
-32.18321619582866,7163
-29.70347439776515,9071
-27.224418280657005,11238
-24.74604764912317,14311
-22.26836230770266,19129
-19.7913620608565,28727
-17.315046712966478,38408
-14.83941606833514,42004
-12.36446993118659,65040
-9.89020810566592,65040
-7.416630395839093,65040
-4.94373660569363,65040
-2.471526539137585,65040
-6.821210263296962E-13,65040
2.47084320796705,65040
4.941003281093458,65040
7.410480415786196,65040
9.879274808531363,65040
12.347386655893956,65040
14.814816154518212,65040
17.28156350112681,65040
19.74762889252179,65040
22.21301252558385,65040
24.67771459727237,65040
27.141735304626195,65040
29.605074844762612,39319
32.06773341487792,16933
34.52971121224755,13530
36.99100843422559,13892
39.45162527824516,12159
41.91156194181792,10955
44.370818622535126,14184
46.82939551806646,16776
49.287292826160524,14946
51.74451074464503,12408
54.201049471426245,7047
56.65690920448981,4843
59.112090141899785,4854
61.56659248179983,5245
64.02041642241159,4827
66.4735621620365,4345
68.92602989905402,3062
71.37781983192338,3301
73.82893215918205,4240
76.27936707944684,3531
78.72912479141326,3162
81.17820549385567,3233
83.62660938562783,3768
86.07433666566146,3670
88.5213875329681,3785
90.96776218663751,3256
93.41346082583925,2999
95.85848364982041,2370
98.30283085790859,2132
100.7465026495089,2225
103.18949922410604,2627
105.63182078126385,2192
108.07346752062438,2236
110.51443964190923,2398
112.95473734491827,2149
115.39436082953114,1780
117.83331029570547,1941
120.27158594347827,2342
122.7091879729652,1686
125.1461165843615,1800
127.58237197794062,1681
130.01795435405518,1487
132.4528639131364,1525
134.88710085569494,2068
137.32066538231982,2043
139.75355769367923,1688
142.1857779905207,1719
144.61732647366978,1736
147.04820334403132,1513
149.47840880258934,1471
151.90794305040674,1758
154.33680628862487,1907
156.76499871846443,1807
159.19252054122433,1937
161.61937195828352,1900
164.04555317109896,1957
166.47106438120693,2390
168.89590579022217,2704
171.320077599839,2684
173.7435800118302,2707
176.16641322804742,2754
178.58857745042144,2888
181.01007288096173,2940
183.43089972175687,3035
185.85105817497413,2895
188.27054844285988,2888
190.6893707277394,2861
193.10752523201643,2948
195.5250121581745,2936
197.9418317087751,3076
200.3579840864594,3069
202.7734694939469,3158
205.18828813403627,3286
207.6024402096051,3192
210.01592592360964,3177
212.42874547908548,3365
214.84089907914665,3201
217.2523869269868,3229
219.66320922587727,3140
222.0733661791695,3263
224.48285799029293,3120
226.8916848627572,3138
229.29984700014882,3331
231.7073446061355,3173
234.11417788446204,3141
236.520347038953,3178
238.92585227351185,3460
241.33069379212054,3564
243.73487179884035,3508
246.1383864978112,3330
248.541238093252,3324
250.9434267894609,3264
253.34495279081432,3320
255.74581630176783,3313
258.1460175268563,3706
260.54555667069314,3431
262.9444339379703,3283
265.3426495334594,3194
267.7402036620107,3285
270.1370965285529,3219
272.53332833809407,3064
274.9288992957214,3135
277.32380960660055,3071
279.718059475976,2935
282.1116491091717,3012
284.5045787115897,3168
286.89684848871195,3097
289.2884586460981,3036
291.67940938938807,3056
294.0697009242996,2952
296.4593334566299,2873
298.84830719225477,2965
301.23662233712923,2915
303.6242790972866,2876
306.01127767884,2953
308.39761828798066,2897
310.78330113097934,2834
313.16832641418534,2804
315.5526943440269,2758
317.9364051270112,2805
320.3194589697242,2669
322.70185607883093,2713
325.0835966610754,2640
327.4646809232805,2578
329.8451090723478,2650
332.2248813152577,2623
334.6039978590701,2554
336.9824589109231,2627
339.36026467803447,2631
341.7374153677,2596
344.113911187295,2544
346.48975234427337,2516
348.8649390461686,2489
351.2394715005918,2497
353.61334991523415,2499
355.9865744978655,2474
358.35914545633375,2396
360.73106299856715,2408
363.10232733257146,2491
365.47293866643247,2337
367.84289720831396,2364
370.2122031664593,2374
372.5808567491905,2359
374.9488581649083,2422
377.31620762209275,2532
379.6829053293021,2455
382.0489514951745,2375
384.4143463284262,2363
386.7790900378528,2294
389.14318283232853,2304
391.50662492080653,2236
393.86941651231916,2302
396.23155781597745,2316
398.5930490409713,2364
400.9538903965696,2366
403.3140820921202,2283
405.6736243370498,2125
408.03251734086336,2198
410.3907613131465,2181
412.74835646356166,2263
415.10530300185144,2348
417.4616011378372,2218
419.81725108141893,2205
422.1722530425758,2242
424.5266072313656,2240
426.880313857925,2223
429.2333731324701,2260
431.58578526529516,2330
433.9375504667738,2204
436.2886689473588,2205
438.63914091758113,2143
440.9889665880513,2146
443.33814616945835,2183
445.68667987257015,2181
448.03456790823395,2107
450.3818104873759,2131
452.72840782100013,2116
455.07436012019105,2148
457.41966759611057,2157
459.7643304600007,2182
462.10834892318155,2124
464.4517231970525,2294
466.79445349309174,2269
469.1365400228566,2227
471.4779829979826,2272
473.81878263018564,2267
476.15893913125876,2236
478.4984527130747,2252
480.8373235875855,2395
483.17555196682144,2380
485.5131380628919,2535
487.8500820879857,2614
490.1863842543697,2781
492.52204477439034,3173
494.8570638604725,3367
497.1914417251204,3540
499.52517858091653,3800
501.85827464052306,3952
504.19073011668036,3971
506.5225452222086,3766
508.85372017000566,3633
511.18425517304956,3533
513.514150444396,3522
515.8434061971808,4112
518.1720226446176,4791
520.4999999999999,5194
522.8273384766991,5394
525.1540382881666,5612
527.480099647932,5499
529.8055227696037,4678
532.1303078668694,3363
534.454455153496,2599
536.777964843328,2258
539.1008371502907,2216
541.4230722883866,2143
543.744670471698,2139
546.0656319143858,2026
548.3859568306899,2097
550.7056454349294,1977
553.0246979415016,2003
555.3431145648834,1981
557.6608955196306,1951
559.978041020377,1959
562.2945512818363,1941
564.6104265188006,1971
566.9256669461412,1932
569.2402727788082,1906
571.5542442318302,1949
573.8675815203156,1933
576.1802848594508,1911
578.4923544645015,1946
580.8037905508126,1975
583.114593333807,1981
585.4247630289875,1946
587.7342998519354,1911
590.0432040183106,1969
592.3514757438526,1927
594.6591152443794,1939
596.9661227357875,1926
599.2724984340531,1953
601.578242555231,2008
603.8833553154542,1992
606.1878369309362,2087
608.4916876179676,2103
610.7949075929192,2055
613.0974970722403,1998
615.3994562724587,2079
617.7007854101818,2014
620.0014847020951,1927
622.3015543649641,1910
624.6009946156324,1995
626.8998056710224,1898
629.1979877481361,1971
631.4955410640538,1958
633.7924658359349,1992
636.0887622810175,2050
638.3844306166192,2070
640.6794710601358,2047
642.9738838290426,2033
645.2676691408932,1955
647.5608272133207,2002
649.853358264037,2003
652.1452625108324,1967
654.4365401715764,1964
656.7271914642178,1956
659.0172166067838,2046
661.3066158173809,2056
663.5953893141935,1976
665.8835373154867,1999
668.1710600396028,2022
670.4579577049639,2049
672.7442305300709,1936
675.0298787335033,2026
677.3149025339197,2000
679.599302150058,2047
681.8830778007342,2020
684.1662297048437,2000
686.4487580813608,2029
688.7306631493387,2000
691.0119451279091,1966
693.2926042362834,1988
695.5726406937516,1991
697.8520547196814,2043
700.1308465335215,2006
702.4090163547982,1954
704.6865644031171,2024
706.9634908981619,1991
709.2397960596965,2072
711.5154801075631,2052
713.7905432616823,1943
716.0649857420548,1951
718.3388077687592,1954
720.612009561953,1987
722.8845913418733,2011
725.1565533288352,1984
727.427895743234,2016
729.6986188055427,2075
731.9687227363137,2024
734.238207756178,2012
736.5070740858458,1923
738.7753219461066,1979
741.0429515578281,1913
743.3099631419569,1914
745.5763569195191,1976
747.8421331116193,1994
750.1072919394409,1998
752.3718336242467,2046
754.6357583873777,2011
756.8990664502545,1971
759.1617580343765,2002
761.423833361321,2034
763.6852926527457,2038
765.9461361303862,1964
768.206364016058,1998
770.4659765316536,1999
772.7249738991469,1973
774.9833563405886,2021
777.2411240781092,2007
779.4982773339183,2137
781.7548163303044,2058
784.010741289634,2109
786.2660524343538,2109
788.5207499869881,2016
790.7748341701416,2094
793.0283052064964,2029
795.2811633188143,1975
797.5334087299362,2047
799.7850416627813,2053
802.0360623403484,2122
804.2864709857143,2073
806.5362678220353,2004
808.7854530725468,2076
811.0340269605625,1952
813.2819897094754,1999
815.5293415427581,2087
817.77608268396,2075
820.0222133567116,2019
822.2677337847211,2020
824.5126441917765,1990
826.7569448017433,2068
829.0006358385675,2069
831.2437175262731,2029
833.4861900889629,2084
835.7280537508192,2077
837.9693087361026,2065
840.2099552691533,2063
842.4499935743896,2015
844.689423876309,1962
846.9282463994886,2008
849.1664613685833,1988
851.4040690083276,2024
853.6410695435349,2034
855.877463199097,2015
858.1132501999847,2060
860.3484307712487,2012
862.5830051380175,2066
864.8169735254988,2077
867.0503361589791,2101
869.2830932638243,2054
871.5152450654786,2082
873.7467917894654,2139
875.9777336613873,2111
878.2080709069252,2057
880.4378037518389,2008
882.666932421968,2061
884.8954571432301,2036
887.1233781416219,2169
889.3506956432192,2195
891.5774098741766,2053
893.803521060728,2131
896.0290294291852,2131
898.2539352059397,2133
900.4782386174619,2147
902.7019398903011,2159
904.925039251085,2205
907.147536926521,2124
909.3694331433943,2123
911.59072812857,2058
913.8114221089921,1985
916.0315153116827,2056
918.2510079637437,2052
920.4699002923547,2047
922.6881925247761,2062
924.905884888345,2078
927.1229776104793,2042
929.3394709186747,2067
931.555365040506,2042
933.7706602036275,1988
935.9853566357709,2040
938.1994545647489,2016
940.4129542184515,2046
942.6258558248488,2025
944.8381596119883,2081
947.0498658079974,2054
949.2609746410825,2007
951.4714863395287,2020
953.6814011316998,1968
955.8907192460387,1967
958.0994409110671,1984
960.3075663553858,1937
962.5150958076741,1966
964.7220294966913,2018
966.928367651274,1979
969.1341105003388,1953
971.3392582728806,1911
973.5438111979742,1968
975.747769504772,1922
977.9511334225061,1929
980.153903180487,1927
982.3560790081052,1985
984.5576611348289,1908
986.7586497902058,1913
988.9590452038618,1952
991.158847605503,1883
993.3580572249133,1809
995.5566742919558,1849
997.7546990365728,1787
999.952131688785,1781
1002.1489724786926,1764
1004.3452216364743,1808
1006.5408793923874,1721
1008.7359459767691,1759
1010.9304216200343,1728
1013.1243065526781,1739
1015.3176010052733,1683
1017.510305208472,1668
1019.7024193930064,1656
1021.8939437896848,1643
1024.0848786293977,1615
1026.2752241431122,1689
1028.4649805618747,1647
1030.6541481168115,1662
1032.842727039127,1685
1035.0307175601051,1631
1037.2181199111074,1604
1039.4049343235752,1579
1041.591161029029,1575
1043.7768002590683,1598
1045.9618522453698,1642
1048.1463172196918,1586
1050.3301954138697,1607
1052.513487059818,1575
1054.69619238953,1609
1056.8783116350783,1626
1059.0598450286152,1590
1061.2407928023704,1562
1063.4211551886528,1660
1065.6009324198508,1556
1067.780124728432,1581
1069.9587323469414,1570
1072.1367555080046,1540
1074.314194444325,1544
1076.4910493886855,1626
1078.667320573947,1613
1080.843008233051,1558
1083.0181125990161,1532
1085.1926339049414,1542
1087.3665723840027,1596
1089.5399282694575,1561
1091.7127017946405,1506
1093.8848931929647,1598
1096.0565026979243,1516
1098.2275305430899,1480
1100.3979769621128,1520
1102.567842188722,1449
1104.737126456726,1499
1106.9058300000124,1526
1109.0739530525475,1515
1111.2414958483764,1468
1113.4084586216231,1549
1115.5748416064907,1486
1117.7406450372605,1560
1119.9058691482942,1487
1122.0705141740304,1476
1124.2345803489884,1470
1126.3980679077658,1485
1128.5609770850388,1576
1130.7233081155623,1433
1132.8850612341707,1527
1135.0462366757774,1424
1137.2068346753745,1464
1139.3668554680326,1472
1141.526299288901,1473
1143.68516637321,1453
1145.8434569562655,1461
1148.001171273455,1492
1150.158309560244,1471
1152.3148720521767,1430
1154.470858984876,1408
1156.626270594044,1377
1158.7811071154629,1452
1160.9353687849912,1393
1163.089055838569,1436
1165.242168512213,1401
1167.3947070420209,1469
1169.5466716641677,1394
1171.6980626149075,1420
1173.8488801305748,1412
1175.9991244475814,1412
1178.1487958024186,1455
1180.2978944316555,1418
1182.4464205719428,1451
1184.5943744600072,1505
1186.7417563326567,1412
1188.8885664267755,1413
1191.0348049793297,1411
1193.1804722273619,1379
1195.325568407995,1467
1197.4700937584303,1496
1199.614048515948,1438
1201.7574329179074,1441
1203.900247201746,1405
1206.042491604982,1386
1208.1841663652099,1416
1210.3252717201053,1501
1212.465807907422,1453
1214.6057751649923,1419
1216.7451737307279,1437
1218.8840038426192,1470
1221.0222657387353,1487
1223.1599596572241,1431
1225.2970858363137,1440
1227.4336445143094,1470
1229.5696359295966,1416
1231.705060320639,1503
1233.8399179259786,1485
1235.9742089842384,1530
1238.107933734118,1499
1240.2410924143974,1489
1242.373685263935,1406
1244.5057125216676,1466
1246.6371744266116,1498
1248.7680712178621,1474
1250.898403134593,1455
1253.028170416058,1484
1255.1573733015875,1442
1257.2860120305932,1451
1259.4140868425648,1472
1261.54159797707,1512
1263.6685456737569,1410
1265.7949301723515,1421
1267.9207517126597,1480
1270.046010534565,1504
1272.1707068780306,1517
1274.2948409830983,1473
1276.4184130898889,1525
1278.541423438603,1522
1280.6638722695184,1490
1282.785759822993,1446
1284.9070863394636,1529
1287.0278520594447,1519
1289.1480572235314,1508
1291.2677020723963,1559
1293.3867868467923,1548
1295.5053117875495,1542
1297.623277135579,1540
1299.740683131868,1582
1301.8575300174857,1563
1303.973818033578,1612
1306.0895474213703,1559
1308.2047184221678,1623
1310.3193312773528,1579
1312.4333862283888,1580
1314.5468835168163,1593
1316.659823384255,1580
1318.7722060724045,1546
1320.8840318230418,1608
1322.9953008780249,1580
1325.1060134792888,1637
1327.2161698688478,1627
1329.3257702887959,1666
1331.4348149813054,1636
1333.5433041886276,1631
1335.6512381530933,1573
1337.7586171171101,1592
1339.8654413231675,1559
1341.9717110138317,1550
1344.0774264317488,1546
1346.1825878196432,1523
1348.2871954203192,1544
1350.3912494766587,1603
1352.4947502316231,1574
1354.5976979282532,1593
1356.7000928096686,1591
1358.8019351190665,1476
1360.9032250997243,1570
1363.0039629949988,1592
1365.1041490483235,1602
1367.2037835032133,1613
1369.3028666032606,1596
1371.401398592137,1566
1373.4993797135926,1636
1375.5968102114575,1545
1377.6936903296396,1557
1379.7900203121262,1521
1381.8858004029835,1596
1383.9810308463561,1559
1386.075711886469,1585
1388.1698437676241,1583
1390.2634267342032,1608
1392.356461030667,1599
1394.4489469015557,1611
1396.5408845914872,1600
1398.6322743451592,1632
1400.7231164073469,1610
1402.813411022907,1597
1404.903158436773,1604
1406.9923588939578,1604
1409.0810126395531,1660
1411.1691199187303,1660
1413.2566809767386,1571
1415.343696058907,1567
1417.4301654106425,1617
1419.5160892774315,1627
1421.6014679048399,1604
1423.6863015385125,1625
1425.7705904241707,1638
1427.8543348076178,1644
1429.9375349347342,1615
1432.0201910514802,1631
1434.102303403894,1620
1436.1838722380944,1714
1438.2648978002767,1653
1440.3453803367174,1683
1442.4253200937692,1701
1444.5047173178677,1700
1446.5835722555234,1836
1448.6618851533285,1804
1450.739656257952,1750
1452.8168858161434,1812
1454.8935740747306,1848
1456.96972128062,1809
1459.045327680797,1857
1461.120393522327,1792
1463.1949190523528,1805
1465.2689045180973,1910
1467.3423501668608,1906
1469.415256246024,1929
1471.4876230030463,1981
1473.559450685465,1930
1475.6307395408976,1945
1477.7014898170391,2045
1479.771701761665,2003
1481.8413756226287,2071
1483.9105116478618,2054
1485.9791100853772,2129
1488.0471711832643,2167
1490.1146951896926,2152
1492.1816823529098,2252
1494.2481329212433,2187
1496.3140471430984,2175
1498.3794252669609,2243
1500.4442675413939,2251
1502.5085742150404,2347
1504.572345536622,2351
1506.6355817549388,2405
1508.6982831188702,2491
1510.7604498773744,2408
1512.8220822794883,2409
1514.8831805743293,2437
1516.9437450110909,2487
1519.003775839048,2531
1521.0632733075522,2696
1523.1222376660367,2575
1525.1806691640113,2657
1527.2385680510652,2680
1529.2959345768668,2768
1531.3527689911643,2835
1533.4090715437833,2870
1535.4648424846291,3006
1537.5200820636855,2905
1539.5747905310159,3031
1541.6289681367616,3049
1543.6826151311434,3241
1545.7357317644614,3074
1547.7883182870937,3183
1549.8403749494987,3211
1551.8919020022113,3250
1553.9428996958477,3402
1555.9933682811015,3464
1558.0433080087469,3604
1560.0927191296346,3599
1562.1416018946961,3662
1564.1899565549415,3608
1566.2377833614592,3681
1568.2850825654164,3545
1570.3318544180606,3554
1572.3780991707158,3308
1574.423817074788,3241
1576.4690083817595,3174
1578.5136733431923,3004
1580.5578122107272,2999
1582.601425236085,2752
1584.6445126710646,2641
1586.6870747675434,2575
1588.7291117774776,2426
1590.7706239529034,2318
1592.8116115459347,2266
1594.8520748087658,2047
1596.8920139936686,2080
1598.9314293529933,2023
1600.9703211391711,2010
1603.008689604711,1974
1605.0465350022005,1843
1607.0838575843068,1822
1609.1206576037753,1830
1611.1569353134305,1829
1613.1926909661765,1793
1615.2279248149953,1732
1617.2626371129481,1741
1619.2968281131757,1639
1621.3304980688963,1693
1623.3636472334088,1670
1625.39627586009,1638
1627.428384202396,1647
1629.459972513861,1630
1631.4910410480993,1579
1633.5215900588028,1659
1635.551619799744,1641
1637.5811305247717,1563
1639.6101224878166,1607
1641.6385959428862,1607
1643.6665511440683,1582
1645.693988345528,1529
1647.7209078015112,1548
1649.7473097663405,1546
1651.7731944944203,1580
1653.7985622402307,1514
1655.823413258333,1556
1657.847747803366,1511
1659.8715661300494,1514
1661.8948684931793,1478
1663.9176551476316,1533
1665.9399263483624,1495
1667.9616823504057,1510
1669.982923408873,1502
1672.0036497789574,1490
1674.0238617159293,1527
1676.043559475138,1482
1678.0627433120121,1490
1680.081413482059,1503
1682.0995702408654,1480
1684.117213844096,1417
1686.134344547495,1475
1688.1509626068864,1462
1690.1670682781705,1462
1692.182661817329,1469
1694.1977434804217,1490
1696.2123135235875,1510
1698.226372203043,1440
1700.2399197750851,1501
1702.2529564960905,1459
1704.2654826225112,1466
1706.277498410882,1521
1708.2890041178139,1498
1710.2999999999988,1516
1712.3104863142066,1523
1714.3204633172854,1533
1716.329931266163,1418
1718.3388904178469,1494
1720.3473410294214,1501
1722.3552833580516,1491
1724.3627176609807,1535
1726.3696441955308,1472
1728.3760632191033,1501
1730.3819749891782,1475
1732.3873797633146,1496
1734.3922777991502,1499
1736.3966693544012,1464
1738.4005546868639,1456
1740.4039340544127,1444
1742.406807715001,1453
1744.4091759266616,1415
1746.4110389475054,1504
1748.4123970357223,1416
1750.413250449582,1476
1752.4135994474318,1426
1754.4134442876993,1421
1756.4127852288902,1415
1758.4116225295893,1422
1760.4099564484595,1483
1762.407787244244,1405
1764.405115175764,1411
1766.4019405019203,1420
1768.3982634816916,1363
1770.3940843741357,1436
1772.3894034383907,1444
1774.3842209336717,1399
1776.378537119274,1394
1778.372352254571,1421
1780.3656665990156,1364
1782.3584804121397,1416
1784.3507939535534,1376
1786.3426074829463,1393
1788.3339212600863,1395
1790.3247355448211,1365
1792.3150505970766,1448
1794.3048666768573,1353
1796.2941840442477,1389
1798.2830029594106,1350
1800.2713236825884,1392
1802.2591464741004,1423
1804.2464715943465,1361
1806.2332993038058,1382
1808.2196298630352,1388
1810.2054635326708,1378
1812.190800573428,1345
1814.175641246101,1378
1816.1599858115628,1360
1818.1438345307652,1353
1820.127187664738,1368
1822.1100454745924,1376
1824.092408221516,1360
1826.0742761667766,1368
1828.055649571721,1378
1830.0365286977735,1336
1832.0169138064398,1395
1833.9968051593014,1399
1835.9762030180214,1355
1837.9551076443408,1359
1839.9335193000788,1371
1841.9114382471344,1355
1843.888864747485,1385
1845.8657990631878,1390
1847.842241456378,1446
1849.8181921892697,1424
1851.7936515241558,1417
1853.7686197234098,1367
1855.7430970494815,1317
1857.7170837649014,1389
1859.6905801322787,1357
1861.6635864143004,1325
1863.6361028737338,1341
1865.608129773424,1361
1867.5796673762961,1331
1869.5507159453537,1404
1871.521275743678,1412
1873.4913470344313,1347
1875.4609300808534,1379
1877.4300251462632,1329
1879.3986324940588,1374
1881.366752387717,1422
1883.3343850907936,1412
1885.3015308669228,1380
1887.268189979819,1433
1889.2343626932739,1410
1891.2000492711595,1365
1893.1652499774254,1409
1895.1299650761011,1368
1897.0941948312952,1377
1899.0579395071945,1458
1901.0211993680641,1419
1902.98397467825,1412
1904.9462657021745,1397
1906.9080727043415,1403
1908.869395949332,1421
1910.8302357018065,1381
1912.790592226504,1414
1914.7504657882428,1364
1916.7098566519212,1419
1918.6687650825133,1354
1920.6271913450764,1380
1922.5851357047422,1390
1924.5425984267245,1405
1926.499579776314,1390
1928.4560800188833,1427
1930.4120994198802,1370
1932.367638244833,1384
1934.32269675935,1389
1936.2772752291175,1411
1938.231373919899,1407
1940.1849930975404,1374
1942.1381330279637,1396
1944.0907939771696,1324
1946.0429762112412,1439
1947.9946799963363,1455
1949.9459055986945,1375
1951.896653284633,1365
1953.8469233205478,1392
1955.7967159729142,1397
1957.7460315082863,1348
1959.6948701932974,1370
1961.6432322946594,1399
1963.5911180791632,1401
1965.5385278136787,1355
1967.4854617651545,1405
1969.4319202006182,1340
1971.377903387176,1416
1973.3234115920136,1410
1975.268445082395,1468
1977.2130041256642,1390
1979.1570889892423,1353
1981.1006999406304,1373
1983.04383724741,1341
1984.986501177238,1395
1986.928691997853,1404
1988.8704099770712,1410
1990.811655382789,1327
1992.7524284829801,1386
1994.692729545698,1388
1996.6325588390755,1322
1998.5719166313224,1479
2000.5108031907307,1390
2002.4492187856677,1359
2004.387163684583,1351
2006.3246381560011,1411
2008.2616424685298,1339
2010.1981768908527,1382
2012.1342416917332,1348
2014.069837140014,1370
2016.0049635046162,1380
2017.9396210545406,1417
2019.8738100588666,1358
2021.8075307867502,1375
2023.740783507431,1415
2025.6735684902228,1362
2027.6058860045214,1346
2029.5377363198004,1381
2031.4691197056118,1342
2033.4000364315875,1363
2035.3304867674374,1378
2037.260470982952,1340
2039.189989347998,1391
2041.1190421325232,1353
2043.047629606554,1380
2044.9757520401945,1379
2046.9034097036288,1347
2048.8306028671195,1376
2050.7573318010086,1340
2052.683596775716,1402
2054.609398061742,1322
2056.5347359296647,1333
2058.4596106501403,1378
2060.384022493906,1352
2062.3079717317764,1345
2064.231458634646,1355
2066.1544834734873,1372
2068.077046519352,1360
2069.99914804337,1345
2071.9207883167524,1389
2073.8419676107865,1358
2075.7626861968406,1378
2077.6829443463607,1361
2079.6027423308715,1439
2081.522080421977,1393
2083.440958891362,1370
2085.359378010786,1417
2087.2773380520907,1355
2089.194839287196,1330
2091.111881988101,1407
2093.0284664268825,1284
2094.9445928756973,1395
2096.86026160678,1418
2098.775472892446,1420
2100.690227005088,1334
2102.604524217178,1349
2104.5183648012676,1361
2106.431749029985,1336
2108.34467717604,1403
2110.2571495122206,1414
2112.169166311393,1353
2114.080727846503,1342
2115.9918343905747,1371
2117.902486216711,1400
2119.8126835980956,1389
2121.722426807987,1385
2123.6317161197285,1411
2125.5405518067364,1359
2127.448934142509,1344
2129.356863400624,1407
2131.264339854737,1382
2133.1713637785815,1318
2135.077935445972,1358
2136.9840551308002,1354
2138.889723107037,1336
2140.7949396487334,1354
2142.699705030018,1352
2144.6040195250994,1390
2146.507883408264,1405
2148.4112969538774,1322
2150.3142604363848,1342
2152.2167741303097,1386
2154.1188383102535,1380
2156.0204532508997,1398
2157.9216192270064,1382
2159.822336513414,1459
2161.7226053850413,1450
2163.622426116884,1388
2165.5217989840185,1358
2167.4207242616,1360
2169.319202224862,1373
2171.2172331491165,1362
2173.1148173097563,1326
2175.0119549822507,1352
2176.90864644215,1328
2178.8048919650823,1366
2180.7006918267534,1336
2182.596046302952,1369
2184.4909556695407,1370
2186.3854202024645,1369
2188.279440177746,1325
2190.173015871487,1335
2192.066147559868,1351
2193.958835519149,1365
2195.851080025667,1399
2197.7428813558417,1376
2199.6342397861667,1395
2201.5251555932186,1333
2203.415629053651,1379
2205.3056604441986,1403
2207.19525004167,1327
2209.084398122958,1368
2210.9731049650327,1399
2212.861370844941,1429
2214.749196039812,1342
2216.636580826851,1356
2218.523525483344,1357
2220.410030286655,1427
2222.296095514226,1384
2224.1817214435805,1382
2226.066908352319,1345
2227.951656518121,1357
2229.835966218746,1396
2231.71983773203,1391
2233.6032713358913,1405
2235.486267308324,1348
2237.3688259274036,1326
2239.2509474712824,1339
2241.132632218193,1377
2243.013880446447,1354
2244.8946924344323,1406
2246.7750684606203,1346
2248.6550088035574,1348
2250.534513741871,1413
2252.413583554265,1340
2254.292218519526,1361
2256.170418916517,1377
2258.0481850241786,1381
2259.925517121534,1369
2261.8024154876825,1368
2263.678880401803,1365
2265.5549121431536,1333
2267.430510991071,1340
2269.305677224971,1294
2271.180411124348,1400
2273.0547129687766,1402
2274.9285830379076,1460
2276.8020216114737,1414
2278.6750289692845,1368
2280.5476053912294,1362
2282.4197511572766,1396
2284.2914665474727,1363
2286.162751841943,1431
2288.0336073208937,1375
2289.904033264608,1382
2291.774029953448,1376
2293.6435976678554,1337
2295.5127366883517,1378
2297.381447295534,1375
2299.2497297700825,1419
2301.1175843927526,1369
2302.9850114443825,1414
2304.852011205885,1359
2306.7185839582553,1353
2308.5847299825664,1415
2310.4504495599676,1406
2312.3157429716925,1396
2314.1806104990483,1442
2316.0450524234247,1400
2317.9090690262888,1384
2319.772660589186,1364
2321.635827393742,1399
2323.498569721661,1427
2325.3608878547248,1363
2327.2227820747967,1416
2329.0842526638157,1417
2330.945299903803,1418
2332.805924076857,1427
2334.6661254651535,1383
2336.525904350951,1413
2338.3852610165827,1379
2340.244195744464,1374
2342.102708817088,1420
2343.9608005170253,1407
2345.8184711269287,1332
2347.675720929526,1391
2349.532550207628,1380
2351.38895924412,1425
2353.24494832197,1408
2355.100517724223,1405
2356.955667734004,1442
2358.810398634514,1434
2360.664710709037,1382
2362.5186042409337,1420
2364.3720795136437,1392
2366.225136810686,1421
2368.0777764156583,1407
2369.929998612237,1447
2371.7818036841777,1442
2373.633191915315,1359
2375.484163589562,1389
2377.3347189909114,1490
2379.184858403434,1388
2381.03458211128,1418
2382.8838903986775,1385
2384.732783549936,1393
2386.5812618494406,1391
2388.4293255816588,1411
2390.2769750311327,1412
2392.1242104824883,1369
2393.971032220427,1379
2395.8174405297295,1401
2397.6634356952563,1473
2399.509018001947,1413
2401.3541877348193,1403
2403.1989451789705,1430
2405.043290619576,1394
2406.8872243418905,1401
2408.730746631247,1406
2410.5738577730594,1467
2412.4165580528183,1426
2414.258847756095,1458
2416.100727168537,1451
2417.9421965758734,1412
2419.783256263912,1431
2421.623906518538,1415
2423.4641476257157,1469
2425.303979871491,1454
2427.143403541984,1478
2428.9824189233977,1462
2430.821026302012,1453
2432.6592259641866,1444
2434.497018196361,1455
2436.33440328505,1449
2438.171381516851,1388
2440.00795317844,1457
2441.844118556569,1491
2443.6798779380724,1460
2445.5152316098606,1430
2447.3501798589255,1437
2449.1847229723357,1421
2451.0188612372403,1464
2452.8525949408663,1427
2454.6859243705203,1438
2456.518849813587,1461
2458.3513715575314,1446
2460.183489889895,1427
2462.015205098301,1474
2463.8465174704493,1452
2465.67742729412,1392
2467.5079348571717,1443
2469.338040447542,1428
2471.1677443532476,1428
2472.9970468623833,1423
2474.825948263123,1357
2476.6544488437207,1409
2478.482548892508,1459
2480.310248697896,1488
2482.137548548374,1420
2483.9644487325118,1465
2485.790949538956,1503
2487.617051256433,1468
2489.44275417375,1426
2491.26805857979,1500
2493.0929647635157,1474
2494.917473013971,1452
2496.741583620276,1434
2498.5652968716304,1456
2500.3886130573137,1448
2502.2115324666834,1516
2504.0340553891765,1436
2505.856182114308,1466
2507.6779129316733,1571
2509.499248130945,1468
2511.3201880018764,1468
2513.140732834298,1449
2514.9608829181198,1462
2516.780638543331,1524
2518.6,1473
2520.418967578273,1423
2522.237541568376,1442
2524.0557222606144,1471
2525.8735099453706,1507
2527.6909049131086,1478
2529.507907454368,1501
2531.32451785977,1494
2533.140736420014,1464
2534.9565634258774,1468
2536.771999168218,1483
2538.5870439379714,1492
2540.4016980261526,1506
2542.2159617238544,1544
2544.02983532225,1556
2545.8433191125914,1577
2547.656413386209,1532
2549.4691184345115,1542
2551.2814345489874,1544
2553.093362021204,1602
2554.904901142808,1588
2556.716052205523,1518
2558.526815501153,1555
2560.3371913215824,1607
2562.147179958771,1615
2563.956781704761,1551
2565.7659968516705,1599
2567.5748256916986,1601
2569.3832685171224,1621
2571.1913256202984,1626
2572.9989972936614,1596
2574.806283829725,1593
2576.613185521084,1648
2578.4197026604074,1615
2580.2258355404483,1604
2582.031584454035,1639
2583.836949694077,1689
2585.6419315535613,1669
2587.4465303255533,1628
2589.2507463032002,1697
2591.0545797797245,1649
2592.8580310484303,1696
2594.6611004026995,1705
2596.463788135992,1668
2598.266094541849,1729
2600.0680199138874,1692
2601.869564545807,1629
2603.670728731383,1692
2605.4715127644704,1718
2607.2719169390048,1699
2609.071941548998,1725
2610.8715868885433,1768
2612.670853251811,1719
2614.469740933052,1709
2616.268250226594,1728
2618.0663814268455,1661
2619.864134828292,1628
2621.6615107255006,1659
2623.458509413115,1710
2625.2551311858597,1650
2627.0513763385347,1681
2628.8472451660223,1650
2630.6427379632833,1644
2632.4378550253564,1724
2634.232596647359,1639
2636.026963124488,1707
2637.8209547520187,1624
2639.6145718253065,1597
2641.407814639785,1676
2643.200683490966,1621
2644.9931786744414,1651
2646.7853004858807,1602
2648.577049221034,1601
2650.3684251757277,1541
2652.1594286458712,1574
2653.9500599274484,1633
2655.740319316525,1562
2657.5302071092437,1576
2659.3197236018286,1503
2661.10886909058,1560
2662.8976438718782,1502
2664.686048242183,1533
2666.4740824980327,1556
2668.2617469360443,1527
2670.0490418529134,1460
2671.8359675454153,1490
2673.622524310403,1546
2675.408712444811,1475
2677.1945322456495,1456
2678.979984010009,1460
2680.76506803506,1491
2682.5497846180497,1476
2684.334134056306,1463
2686.1181166472343,1497
2687.9017326883213,1482
2689.6849824771293,1465
2691.4678663113013,1483
2693.2503844885596,1497
2695.032537306705,1444
2696.8143250636167,1459
2698.5957480572542,1468
2700.3768065856534,1428
2702.1575009469316,1389
2703.937831439283,1418
2705.717798360982,1404
2707.4974020103837,1430
2709.276642685917,1408
2711.055520686095,1448
2712.834036309506,1463
2714.612189854819,1448
2716.389981620782,1438
2718.1674119062204,1446
2719.944481010041,1431
2721.721189231226,1431
2723.4975368688415,1404
2725.273524222027,1409
2727.0491515900053,1417
2728.824419272075,1443
2730.5993275676146,1407
2732.3738767760838,1362
2734.148067197016,1406
2735.921899130031,1372
2737.6953728748194,1363
2739.468488731156,1443
2741.2412469988926,1391
2743.0136479779617,1330
2744.785691968372,1405
2746.5573792702116,1384
2748.3287101836504,1402
2750.099685008934,1342
2751.870304046388,1324
2753.640567596418,1399
2755.4104759595057,1422
2757.1800294362156,1348
2758.949228327187,1447
2760.7180729331412,1368
2762.486563554877,1407
2764.254700493272,1393
2766.022484049284,1399
2767.789914523947,1359
2769.5569922183786,1366
2771.3237174337705,1362
2773.090090471394,1349
2774.8561116326036,1390
2776.6217812188274,1388
2778.3870995315756,1369
2780.1520668724356,1369
2781.9166835430747,1381
2783.6809498452394,1405
2785.444866080754,1405
2787.2084325515225,1377
2788.971649559527,1373
2790.73451740683,1416
2792.4970363955713,1327
2794.2592068279705,1436
2796.0210290063264,1385
2797.7825032330147,1397
2799.543629810493,1427
2801.304409041296,1398
2803.0648412280366,1350
2804.8249266734088,1407
2806.5846656801846,1406
2808.344058551212,1382
2810.1031055894246,1355
2811.8618070978273,1387
2813.6201633795085,1381
2815.378174737636,1390
2817.1358414754536,1411
2818.893163896285,1316
2820.6501423035334,1362
2822.4067770006814,1401
2824.1630682912883,1374
2825.9190164789957,1391
2827.6746218675207,1397
2829.429884760661,1397
2831.184805462294,1382
2832.9393842763743,1373
2834.693621506936,1384
2836.4475174580916,1407
2838.201072434034,1378
2839.954286739034,1336
2841.707160677441,1343
2843.459694553685,1383
2845.2118886722724,1370
2846.96374333779,1389
2848.7152588549034,1399
2850.4664355283567,1338
2852.217273662973,1358
2853.9677735636546,1423
2855.7179355353833,1412
2857.4677598832186,1380
2859.217246912299,1419
2860.9663969278427,1338
2862.715210235146,1342
2864.4636871395846,1389
2866.211827946614,1381
2867.9596329617652,1378
2869.7071024906536,1380
2871.4542368389684,1370
2873.20103631248,1396
2874.947501217038,1426
2876.6936318585695,1361
2878.4394285430812,1306
2880.1848915766604,1368
2881.9300212654707,1415
2883.6748179157553,1358
2885.4192818338374,1361
2887.1634133261173,1384
2888.907212699077,1407
2890.6506802592744,1384
2892.393816313348,1319
2894.1366211680142,1457
2895.8790951300693,1366
2897.621238506388,1372
2899.363051603925,1353
2901.1045347297118,1338
2902.8456881908596,1405
2904.58651229456,1415
2906.327007348081,1382
2908.067173658772,1380
2909.8070115340597,1350
2911.5465212814497,1369
2913.285703208527,1353
2915.0245576229563,1364
2916.7630848324807,1329
2918.5012851449196,1351
2920.2391588681758,1362
2921.976706310227,1358
2923.7139277791334,1390
2925.4508235830313,1385
2927.187394030137,1358
2928.923639428745,1352
2930.6595600872306,1331
2932.395156314046,1439
2934.1304284177218,1352
2935.8653767068713,1359
2937.6000014901815,1414
2939.3343030764227,1424
2941.068281774442,1398
2942.8019378931644,1425
2944.5352717415976,1385
2946.2682836288236,1388
2948.0009738640065,1415
2949.7333427563885,1384
2951.465390615289,1419
2953.1971177501086,1361
2954.9285244703265,1372
2956.6596110855,1445
2958.3903779052657,1360
2960.1208252393385,1368
2961.8509533975125,1365
2963.5807626896617,1378
2965.3102534257378,1352
2967.0394259157715,1320
2968.768280469873,1363
2970.496817398232,1309
2972.2250370111146,1390
2973.952939618869,1389
2975.6805255319196,1406
2977.4077950607707,1411
2979.134748516006,1381
2980.861386208289,1391
2982.587708448359,1349
2984.313715547037,1402
2986.039407815222,1361
2987.764785563891,1398
2989.489849104102,1322
2991.2145987469908,1367
2992.9390348037705,1378
2994.6631575857346,1366
2996.3869674042576,1337
2998.1104645707887,1353
2999.83364939686,1332
3001.5565221940783,1321
3003.2790832741334,1375
3005.0013329487924,1401
3006.7232715298996,1354
3008.4448993293804,1383
3010.166216659239,1329
3011.887223831558,1394
3013.607921158498,1318
3015.3283089522993,1348
3017.0483875252826,1360
3018.7681571898443,1399
3020.4876182584626,1333
3022.2067710436927,1397
3023.9256158581707,1365
3025.644153014609,1383
3027.362382825801,1326
3029.0803056046193,1346
3030.797921664012,1326
3032.5152313170106,1401
3034.2322348767225,1317
3035.9489326563353,1350
3037.665324969115,1335
3039.3814121284063,1308
3041.097194447633,1377
3042.812672240299,1377
3044.5278458199855,1419
3046.2427155003525,1392
3047.9572815951406,1355
3049.671544418167,1333
3051.38550428333,1390
3053.0991615046073,1349
3054.812516396051,1376
3056.5255692717974,1359
3058.2383204460575,1339
3059.9507702331257,1351
3061.662918947372,1348
3063.3747669032446,1352
3065.0863144152736,1380
3066.7975617980674,1313
3068.508509366309,1378
3070.219157434767,1358
3071.9295063182844,1365
3073.639556331785,1357
3075.3493077902704,1331
3077.058761008821,1316
3078.7679163025964,1326
3080.476773986837,1348
3082.1853343768594,1342
3083.89359778806,1326
3085.6015645359153,1401
3087.3092349359786,1394
3089.016609303884,1376
3090.7236879553434,1369
3092.4304712061476,1357
3094.136959372166,1392
3095.843152769349,1360
3097.5490517137237,1368
3099.2546565213966,1344
3100.959967508554,1386
3102.66498499146,1336
3104.3697092864577,1385
3106.0741407099695,1339
3107.778279578498,1382
3109.482126208622,1355
3111.1856809170004,1368
3112.8889440203716,1367
3114.5919158355528,1344
3116.294596679439,1311
3117.996986869006,1354
3119.6990867213062,1380
3121.4008965534726,1370
3123.102416682717,1423
3124.803647426329,1357
3126.5045891016784,1381
3128.205242026213,1377
3129.90560651746,1419
3131.605682893025,1345
3133.3054714705922,1438
3135.0049725679282,1435
3136.7041865028714,1402
3138.4031135933465,1420
3140.101754157353,1395
3141.800108512971,1354
3143.498176978357,1402
3145.1959598717494,1444
3146.8934575114636,1357
3148.5906702158954,1306
3150.2875983035183,1329
3151.9842420928853,1308
3153.680601902627,1326
3155.376678051456,1403
3157.07247085816,1311
3158.767980641609,1344
3160.463207720748,1324
3162.158152414606,1352
3163.8528150422862,1414
3165.5471959229726,1350
3167.2412953759303,1359
3168.9351137204976,1354
3170.628651276098,1344
3172.3219083622307,1356
3174.014885298474,1351
3175.707582404485,1397
3177.4000000000005,1409
3179.092138404835,1384
3180.7839979388846,1358
3182.47557892212,1373
3184.166881674594,1384
3185.8579065164386,1354
3187.5486537678626,1354
3189.2391237491547,1348
3190.9293167806827,1323
3192.6192331828934,1339
3194.3088732763117,1398
3195.998237381542,1349
3197.687325819268,1384
3199.376138910251,1369
3201.064676975334,1358
3202.7529403354347,1385
3204.4409293115523,1323
3206.1286442247647,1367
3207.816085396229,1323
3209.5032531471825,1290
3211.190147798936,1352
3212.8767696728846,1348
3214.5631190905015,1323
3216.2491963733373,1376
3217.9350018430214,1308
3219.6205358212637,1293
3221.305798629851,1394
3222.990790590651,1352
3224.6755120256103,1304
3226.359963256751,1334
3228.0441446061795,1354
3229.7280563960758,1353
3231.411698948703,1344
3233.0950725863995,1320
3234.778177631587,1345
3236.461014406761,1276
3238.1435832345005,1344
3239.8258844374595,1321
3241.507918338374,1322
3243.1896852600576,1392
3244.8711855254023,1310
3246.552419457381,1340
3248.233387379042,1347
3249.914089613516,1316
3251.59452648401,1350
3253.274698313813,1368
3254.95460542629,1391
3256.6342481448855,1317
3258.313626793125,1309
3259.9927416946084,1341
3261.6715931730196,1322
3263.3501815521176,1327
3265.0285071557437,1271
3266.706570307815,1298
3268.3843713323286,1341
3270.0619105533615,1320
3271.739188295068,1315
3273.4162048816834,1325
3275.0929606375184,1356
3276.769455886966,1347
3278.445690954498,1340
3280.1216661646613,1300
3281.797381842087,1353
3283.4728383114807,1342
3285.1480358976296,1349
3286.8229749253996,1399
3288.4976557197333,1392
3290.172078605655,1311
3291.846243908266,1311
3293.5201519527463,1331
3295.193803064357,1321
3296.8671975684374,1358
3298.5403357904024,1386
3300.21321805575,1311
3301.8858446900567,1322
3303.558216018975,1320
3305.23033236824,1325
3306.9021940636603,1307
3308.57380143113,1354
3310.2451547966184,1297
3311.916254486174,1241
3313.5871008259246,1311
3315.2576941420766,1367
3316.9280347609147,1369
3318.5981230088046,1372
3320.2679592121895,1303
3321.9375436975924,1368
3323.606876791612,1359
3325.27595882093,1313
3326.944790112305,1298
3328.6133709925753,1325
3330.2817017886573,1301
3331.949782827547,1367
3333.617614436319,1324
3335.2851969421245,1335
3336.952530672199,1380
3338.619615953853,1273
3340.286453114475,1376
3341.9530424815357,1343
3343.619384382583,1328
3345.2854791452437,1322
3346.951327097224,1319
3348.6169285663073,1349
3350.2822838803577,1366
3351.947393367319,1386
3353.61225735521,1374
3355.2768761721345,1340
3356.9412501462693,1268
3358.605379605873,1347
3360.2692648792827,1324
3361.9329062949146,1378
3363.596304181263,1340
