CollectionTime,6/26/2024 2:56:52 PM
ExposureUsed,3
CalibratedSpectrum
-962.7078968117929,678
-959.9714848408522,701
-957.2358232597828,671
-954.5009119013725,681
-951.7667505983302,703
-949.0333391832855,700
-946.3006774887896,730
-943.5687653473143,739
-940.837602591253,732
-938.1071890529199,731
-935.3775245645503,695
-932.6486089583007,746
-929.9204420662485,756
-927.1930237203925,713
-924.4663537526524,722
-921.7404319948689,723
-919.0152582788041,680
-916.2908324361409,767
-913.5671542984834,808
-910.8442236973568,806
-908.1220404642074,804
-905.4006044304027,718
-902.679915427231,786
-899.959973285902,730
-897.2407778375464,734
-894.5223289132158,737
-891.8046263438832,748
-889.0876699604426,699
-886.3714595937089,746
-883.6559950744183,692
-880.9412762332282,702
-878.2273029007168,671
-875.5140749073835,699
-872.8015920836489,687
-870.0898542598545,674
-867.3788612662631,671
-864.6686129330585,665
-861.9591090903457,647
-859.2503495681506,655
-856.5423341964203,654
-853.8350628050229,703
-851.1285352237478,718
-848.4227512823054,690
-845.7177108103272,695
-843.0134136373656,701
-840.3098595928943,688
-837.6070485063082,711
-834.9049802069229,724
-832.2036545239757,712
-829.5030712866244,703
-826.8032303239481,682
-824.1041314649472,685
-821.4057745385428,716
-818.7081593735775,688
-816.0112857988148,707
-813.3151536429393,647
-810.6197627345566,674
-807.9251129021936,668
-805.2312039742981,683
-802.5380357792392,656
-799.8456081453069,695
-797.1539209007124,701
-794.462973873588,657
-791.772766891987,671
-789.083299783884,676
-786.3945723771743,674
-783.7065844996748,709
-781.0193359791231,685
-778.3328266431781,706
-775.6470563194197,730
-772.9620248353489,732
-770.2777320183878,675
-767.5941776958798,721
-764.9113616950891,753
-762.2292838432011,753
-759.5479439673222,709
-756.8673418944801,692
-754.1874774516235,746
-751.5083504656222,679
-748.8299607632671,738
-746.15230817127,698
-743.475392516264,728
-740.7992136248035,725
-738.1237713233636,762
-735.4490654383407,705
-732.7750957960521,767
-730.1018622227365,700
-727.4293645445534,710
-724.7576025875837,753
-722.0865761778291,734
-719.4162851412126,733
-716.7467293035781,720
-714.0779084906909,731
-711.409822528237,737
-708.7424712418238,735
-706.0758544569796,761
-703.4099719991541,763
-700.7448236937178,783
-698.0804093659622,744
-695.4167288411002,747
-692.7537819442656,708
-690.0915685005134,795
-687.4300883348199,770
-684.7693412720819,733
-682.1093271371178,731
-679.4500457546669,769
-676.7914969493897,755
-674.1336805458676,798
-671.4765963686034,807
-668.8202442420206,746
-666.1646239904642,820
-663.5097354382001,818
-660.8555784094151,795
-658.2021527282176,819
-655.5494582186366,799
-652.8974947046223,832
-650.2462620100463,854
-647.5957599587009,857
-644.9459883742998,802
-642.2969470804776,856
-639.6486359007902,877
-637.0010546587141,826
-634.3542031776476,800
-631.7080812809096,795
-629.0626887917401,816
-626.4180255333008,765
-623.7740913286734,762
-621.1308860008619,857
-618.4884093727904,795
-615.8466612673046,784
-613.2056415071715,813
-610.5653499150785,807
-607.9257863136347,807
-605.28695052537,843
-602.6488423727357,781
-600.0114616781036,801
-597.3748082637674,855
-594.7388819519412,854
-592.1036825647604,828
-589.4692099242818,844
-586.8354638524829,827
-584.2024441712624,846
-581.5701507024403,832
-578.9385832677575,825
-576.3077416888759,828
-573.6776257873787,870
-571.0482353847704,816
-568.4195703024757,870
-565.7916303618415,832
-563.164415384135,865
-560.5379251905453,830
-557.9121596021815,823
-555.2871184400748,852
-552.6628015251767,837
-550.0392086783606,871
-547.4163397204204,878
-544.794194472071,853
-542.1727727539491,863
-539.5520743866118,884
-536.9320991905377,915
-534.3128469861261,939
-531.6943175936979,938
-529.0765108334947,1003
-526.4594265256793,1057
-523.8430644903358,1157
-521.2274245474689,1333
-518.612506517005,1445
-515.9983102187913,1499
-513.3848354725959,1516
-510.77208209810846,1705
-508.16004991493924,1702
-505.5487387426199,1836
-502.9381484006032,1929
-500.3282787082628,2039
-497.71912948489364,2176
-495.1107005497117,2157
-492.5029917218539,2108
-489.8960028203786,2005
-487.28973366426493,1886
-484.68418407241325,1618
-482.07935386364494,1418
-479.47524285670266,1379
-476.87185087025,1287
-474.2691777228715,1298
-471.66722323307334,1228
-469.0659872192821,1163
-466.4654694998459,1106
-463.86566989303384,1128
-461.26658821703614,1127
-458.66822428996414,1103
-456.07057792985,1088
-453.4736489546475,1065
-450.877437182231,1052
-448.28194243039627,1056
-445.68716451686,1069
-443.09310325926003,1076
-440.49975847515555,1011
-437.9071299820263,1028
-435.31521759727354,1038
-432.72402113821954,1023
-430.13354042210767,1019
-427.5437752661022,1083
-424.95472548728867,1107
-422.36639090267386,1153
-419.7787713291855,1216
-417.1918665836721,1172
-414.60567648290385,1116
-412.0202008435715,1118
-409.4354394822874,1124
-406.8513922155845,1122
-404.26805885991723,1106
-401.685439231661,1142
-399.103533147112,1172
-396.522340422488,1147
-393.9418608739278,1213
-391.3620943174908,1139
-388.7830405691583,1157
-386.2046994448317,1137
-383.6270707603344,1064
-381.05015433141045,1024
-378.473949973725,947
-375.8984575028645,915
-373.32367673433623,802
-370.74960748356875,786
-368.1762495659117,707
-365.60360279663576,686
-363.03166699093265,644
-360.4604419639154,655
-357.8899275306178,612
-355.32012350599507,570
-352.7510297049233,555
-350.1826459421999,562
-347.61497203254316,587
-345.04800779059235,573
-342.4817530309082,571
-339.91620756797226,558
-337.35137121618743,550
-334.7872437898774,563
-332.22382510328725,600
-329.66111497058273,574
-327.09911320585127,573
-324.53781962310075,558
-321.9772340362607,523
-319.4173562591816,613
-316.8581861056348,622
-314.2997233893127,630
-311.7419679238294,657
-309.1849195227194,610
-306.62857799943856,577
-304.0729431673641,566
-301.51801483979375,555
-298.963792829947,567
-296.41027695096386,588
-293.85746701590574,574
-291.3053628377552,607
-288.7539642294155,657
-286.2032710037115,666
-283.65328297338897,681
-281.1039999511146,653
-278.5554217494762,774
-276.007548180983,705
-273.4603790580651,688
-270.9139141930734,627
-268.3681533982807,710
-265.8230964858798,642
-263.27874326798565,665
-260.7350935566336,720
-258.1921471637804,751
-255.6499039013039,871
-253.10836358100266,766
-250.56752601459698,773
-248.02739101372765,834
-245.48795838995704,829
-242.94922795476816,809
-240.41119951956557,731
-237.8738728956746,835
-235.33724789434166,909
-232.80132432673452,980
-230.2661020039418,1092
-227.73158073697357,1115
-225.19776033676033,878
-222.66464061415422,792
-220.1322213799284,799
-217.60050244477725,841
-215.06948361931552,867
-212.53916471408013,869
-210.00954553952818,888
-207.48062590603843,974
-204.9524056239104,963
-202.4248845033651,792
-199.8980623545441,810
-197.37193898751036,859
-194.84651421224817,951
-192.32178783866232,951
-189.79775967657952,963
-187.27442953574644,947
-184.7517972258321,1044
-182.2298625564256,933
-179.7086253370378,1051
-177.18808537710026,1101
-174.66824248596583,1194
-172.14909647290835,1282
-169.6306471471229,1204
-167.11289431772548,1074
-164.59583779375328,1127
-162.07947738416453,1068
-159.5638128978386,1182
-157.04884414357605,1346
-154.53457093009854,1442
-152.02099306604828,1175
-149.50811035998936,1257
-146.99592262040665,1315
-144.48442965570587,1271
-141.97363127421409,1177
-139.46352728417958,1256
-136.95411749377126,1310
-134.44540171107985,1451
-131.93737974411636,1435
-129.43005140081357,1440
-126.92341648902493,1489
-124.41747481652521,1519
-121.91222619101006,1349
-119.40767042009657,1276
-116.90380731132257,1303
-114.40063667214702,1495
-111.8981583099503,1787
-109.3963720320337,1764
-106.89527764561933,1500
-104.39487495785067,1534
-101.89516377579241,1620
-99.39614390642998,1707
-96.89781515667039,1666
-94.40017733334128,2040
-91.90323024319173,2051
-89.40697369289148,2045
-86.91140748903172,1775
-84.41653143812482,1845
-81.92234534660395,2078
-79.42884902082358,2251
-76.93604226705907,2053
-74.4439248915071,1940
-71.95249670028534,2078
-69.46175749943245,2293
-66.97170709490854,2393
-64.48234529259423,2660
-61.99367189829195,2663
-59.50568671772464,2782
-57.01838955653636,3440
-54.53178022029283,3184
-52.045858514480074,3149
-49.560624244506016,3544
-47.07607721569923,3596
-44.59221723330904,3729
-42.10904410250669,3478
-39.62655762838392,4023
-37.14475761595372,4658
-34.66364387015028,4976
-32.18321619582866,5651
-29.70347439776515,6960
-27.224418280657005,9223
-24.74604764912317,12359
-22.26836230770266,17435
-19.7913620608565,30457
-17.315046712966478,46651
-14.83941606833514,54474
-12.36446993118659,65039
-9.89020810566592,65039
-7.416630395839093,65039
-4.94373660569363,65039
-2.471526539137585,65039
-6.821210263296962E-13,65039
2.47084320796705,65039
4.941003281093458,65039
7.410480415786196,65039
9.879274808531363,65039
12.347386655893956,65039
14.814816154518212,65039
17.28156350112681,65039
19.74762889252179,65039
22.21301252558385,65039
24.67771459727237,65039
27.141735304626195,65039
29.605074844762612,37286
32.06773341487792,14318
34.52971121224755,9504
36.99100843422559,10437
39.45162527824516,11534
41.91156194181792,11789
44.370818622535126,13374
46.82939551806646,13992
49.287292826160524,12698
51.74451074464503,10883
54.201049471426245,6849
56.65690920448981,4314
59.112090141899785,3960
61.56659248179983,3750
64.02041642241159,3318
66.4735621620365,3054
68.92602989905402,2439
71.37781983192338,2396
73.82893215918205,2949
76.27936707944684,2850
78.72912479141326,3050
81.17820549385567,3063
83.62660938562783,3353
86.07433666566146,3190
88.5213875329681,3333
90.96776218663751,2921
93.41346082583925,3040
95.85848364982041,2989
98.30283085790859,2134
100.7465026495089,2172
103.18949922410604,2233
105.63182078126385,1897
108.07346752062438,1928
110.51443964190923,2378
112.95473734491827,1939
115.39436082953114,1771
117.83331029570547,1880
120.27158594347827,2276
122.7091879729652,1733
125.1461165843615,1508
127.58237197794062,1420
130.01795435405518,1259
132.4528639131364,1310
134.88710085569494,1711
137.32066538231982,1668
139.75355769367923,1554
142.1857779905207,1618
144.61732647366978,1463
147.04820334403132,1449
149.47840880258934,1425
151.90794305040674,1650
154.33680628862487,1633
156.76499871846443,1660
159.19252054122433,1813
161.61937195828352,1897
164.04555317109896,1839
166.47106438120693,2185
168.89590579022217,2454
171.320077599839,2600
173.7435800118302,2515
176.16641322804742,2569
178.58857745042144,2682
181.01007288096173,2958
183.43089972175687,2900
185.85105817497413,2866
188.27054844285988,2916
190.6893707277394,3065
193.10752523201643,2979
195.5250121581745,3093
197.9418317087751,3245
200.3579840864594,3218
202.7734694939469,3122
205.18828813403627,3130
207.6024402096051,3113
210.01592592360964,3134
212.42874547908548,3047
214.84089907914665,2929
217.2523869269868,2860
219.66320922587727,3017
222.0733661791695,3048
224.48285799029293,2997
226.8916848627572,2969
229.29984700014882,3155
231.7073446061355,3070
234.11417788446204,3083
236.520347038953,3235
238.92585227351185,3302
241.33069379212054,3373
243.73487179884035,3453
246.1383864978112,3351
248.541238093252,3208
250.9434267894609,3229
253.34495279081432,3313
255.74581630176783,3304
258.1460175268563,3344
260.54555667069314,3287
262.9444339379703,3226
265.3426495334594,3209
267.7402036620107,3172
270.1370965285529,3128
272.53332833809407,3055
274.9288992957214,2930
277.32380960660055,2929
279.718059475976,2954
282.1116491091717,2883
284.5045787115897,2973
286.89684848871195,2992
289.2884586460981,2974
291.67940938938807,2979
294.0697009242996,2904
296.4593334566299,2926
298.84830719225477,2893
301.23662233712923,2783
303.6242790972866,2856
306.01127767884,2837
308.39761828798066,2778
310.78330113097934,2840
313.16832641418534,2671
315.5526943440269,2653
317.9364051270112,2673
320.3194589697242,2571
322.70185607883093,2504
325.0835966610754,2647
327.4646809232805,2603
329.8451090723478,2622
332.2248813152577,2540
334.6039978590701,2567
336.9824589109231,2512
339.36026467803447,2488
341.7374153677,2595
344.113911187295,2388
346.48975234427337,2469
348.8649390461686,2391
351.2394715005918,2348
353.61334991523415,2396
355.9865744978655,2410
358.35914545633375,2401
360.73106299856715,2446
363.10232733257146,2367
365.47293866643247,2310
367.84289720831396,2325
370.2122031664593,2296
372.5808567491905,2299
374.9488581649083,2333
377.31620762209275,2297
379.6829053293021,2272
382.0489514951745,2292
384.4143463284262,2275
386.7790900378528,2311
389.14318283232853,2228
391.50662492080653,2285
393.86941651231916,2256
396.23155781597745,2247
398.5930490409713,2268
400.9538903965696,2234
403.3140820921202,2142
405.6736243370498,2248
408.03251734086336,2151
410.3907613131465,2189
412.74835646356166,2186
415.10530300185144,2098
417.4616011378372,2173
419.81725108141893,2224
422.1722530425758,2235
424.5266072313656,2160
426.880313857925,2241
429.2333731324701,2267
431.58578526529516,2074
433.9375504667738,2125
436.2886689473588,2152
438.63914091758113,2112
440.9889665880513,2096
443.33814616945835,2150
445.68667987257015,2109
448.03456790823395,2158
450.3818104873759,2123
452.72840782100013,2125
455.07436012019105,2076
457.41966759611057,2140
459.7643304600007,2135
462.10834892318155,2172
464.4517231970525,2132
466.79445349309174,2142
469.1365400228566,2135
471.4779829979826,2169
473.81878263018564,2193
476.15893913125876,2183
478.4984527130747,2245
480.8373235875855,2302
483.17555196682144,2274
485.5131380628919,2370
487.8500820879857,2558
490.1863842543697,2752
492.52204477439034,2828
494.8570638604725,3258
497.1914417251204,3533
499.52517858091653,3747
501.85827464052306,3856
504.19073011668036,3775
506.5225452222086,3696
508.85372017000566,3557
511.18425517304956,3498
513.514150444396,3495
515.8434061971808,4059
518.1720226446176,4625
520.4999999999999,5022
522.8273384766991,5351
525.1540382881666,5412
527.480099647932,5373
529.8055227696037,4548
532.1303078668694,3315
534.454455153496,2563
536.777964843328,2258
539.1008371502907,2136
541.4230722883866,2054
543.744670471698,1959
546.0656319143858,2068
548.3859568306899,1989
550.7056454349294,1980
553.0246979415016,1927
555.3431145648834,1939
557.6608955196306,1871
559.978041020377,1946
562.2945512818363,1797
564.6104265188006,1880
566.9256669461412,1894
569.2402727788082,1936
571.5542442318302,1911
573.8675815203156,1907
576.1802848594508,1870
578.4923544645015,1911
580.8037905508126,1884
583.114593333807,1793
585.4247630289875,1923
587.7342998519354,1898
590.0432040183106,1893
592.3514757438526,1896
594.6591152443794,1865
596.9661227357875,1885
599.2724984340531,1874
601.578242555231,1911
603.8833553154542,1910
606.1878369309362,1964
608.4916876179676,1973
610.7949075929192,1937
613.0974970722403,1904
615.3994562724587,1916
617.7007854101818,1891
620.0014847020951,1913
622.3015543649641,1849
624.6009946156324,1926
626.8998056710224,1917
629.1979877481361,1963
631.4955410640538,1937
633.7924658359349,1959
636.0887622810175,1961
638.3844306166192,1859
640.6794710601358,1948
642.9738838290426,1928
645.2676691408932,1919
647.5608272133207,1952
649.853358264037,1870
652.1452625108324,1966
654.4365401715764,1861
656.7271914642178,1948
659.0172166067838,1953
661.3066158173809,2013
663.5953893141935,1933
665.8835373154867,1933
668.1710600396028,1971
670.4579577049639,1978
672.7442305300709,1997
675.0298787335033,1909
677.3149025339197,1974
679.599302150058,2050
681.8830778007342,1998
684.1662297048437,1946
686.4487580813608,1966
688.7306631493387,1954
691.0119451279091,1979
693.2926042362834,1976
695.5726406937516,1993
697.8520547196814,2030
700.1308465335215,1970
702.4090163547982,2006
704.6865644031171,1877
706.9634908981619,1928
709.2397960596965,1949
711.5154801075631,2019
713.7905432616823,2034
716.0649857420548,1934
718.3388077687592,1904
720.612009561953,1910
722.8845913418733,1948
725.1565533288352,1993
727.427895743234,1963
729.6986188055427,1929
731.9687227363137,2003
734.238207756178,1897
736.5070740858458,1928
738.7753219461066,1958
741.0429515578281,1973
743.3099631419569,1954
745.5763569195191,2004
747.8421331116193,1998
750.1072919394409,2007
752.3718336242467,2032
754.6357583873777,1985
756.8990664502545,1966
759.1617580343765,2030
761.423833361321,1964
763.6852926527457,1933
765.9461361303862,1975
768.206364016058,1881
770.4659765316536,1914
772.7249738991469,2045
774.9833563405886,1950
777.2411240781092,2033
779.4982773339183,1976
781.7548163303044,1962
784.010741289634,1984
786.2660524343538,2083
788.5207499869881,2039
790.7748341701416,2079
793.0283052064964,2008
795.2811633188143,2018
797.5334087299362,2013
799.7850416627813,2077
802.0360623403484,2009
804.2864709857143,1974
806.5362678220353,2020
808.7854530725468,2003
811.0340269605625,1974
813.2819897094754,1967
815.5293415427581,2004
817.77608268396,2008
820.0222133567116,2070
822.2677337847211,1973
824.5126441917765,2020
826.7569448017433,1978
829.0006358385675,2050
831.2437175262731,1973
833.4861900889629,2085
835.7280537508192,1968
837.9693087361026,2027
840.2099552691533,2051
842.4499935743896,2042
844.689423876309,1996
846.9282463994886,1943
849.1664613685833,2036
851.4040690083276,1975
853.6410695435349,1999
855.877463199097,1989
858.1132501999847,2008
860.3484307712487,2037
862.5830051380175,2017
864.8169735254988,2016
867.0503361589791,2005
869.2830932638243,1995
871.5152450654786,2090
873.7467917894654,2099
875.9777336613873,2071
878.2080709069252,2014
880.4378037518389,2074
882.666932421968,2041
884.8954571432301,2039
887.1233781416219,2036
889.3506956432192,2064
891.5774098741766,2030
893.803521060728,2019
896.0290294291852,2063
898.2539352059397,2098
900.4782386174619,2147
902.7019398903011,2096
904.925039251085,2024
907.147536926521,2112
909.3694331433943,2087
911.59072812857,1992
913.8114221089921,1988
916.0315153116827,2056
918.2510079637437,2076
920.4699002923547,2008
922.6881925247761,2009
924.905884888345,2010
927.1229776104793,1971
929.3394709186747,1991
931.555365040506,2015
933.7706602036275,2012
935.9853566357709,2047
938.1994545647489,1983
940.4129542184515,1992
942.6258558248488,1972
944.8381596119883,2029
947.0498658079974,2037
949.2609746410825,1980
951.4714863395287,2031
953.6814011316998,1930
955.8907192460387,1912
958.0994409110671,2004
960.3075663553858,1923
962.5150958076741,1972
964.7220294966913,1883
966.928367651274,1947
969.1341105003388,1930
971.3392582728806,1918
973.5438111979742,1921
975.747769504772,1900
977.9511334225061,1941
980.153903180487,1839
982.3560790081052,1951
984.5576611348289,1937
986.7586497902058,1872
988.9590452038618,1877
991.158847605503,1838
993.3580572249133,1770
995.5566742919558,1787
997.7546990365728,1718
999.952131688785,1719
1002.1489724786926,1661
1004.3452216364743,1738
1006.5408793923874,1690
1008.7359459767691,1694
1010.9304216200343,1735
1013.1243065526781,1667
1015.3176010052733,1672
1017.510305208472,1721
1019.7024193930064,1628
1021.8939437896848,1612
1024.0848786293977,1584
1026.2752241431122,1664
1028.4649805618747,1617
1030.6541481168115,1650
1032.842727039127,1545
1035.0307175601051,1620
1037.2181199111074,1595
1039.4049343235752,1603
1041.591161029029,1586
1043.7768002590683,1553
1045.9618522453698,1598
1048.1463172196918,1554
1050.3301954138697,1577
1052.513487059818,1512
1054.69619238953,1575
1056.8783116350783,1574
1059.0598450286152,1502
1061.2407928023704,1584
1063.4211551886528,1584
1065.6009324198508,1557
1067.780124728432,1597
1069.9587323469414,1553
1072.1367555080046,1600
1074.314194444325,1579
1076.4910493886855,1508
1078.667320573947,1539
1080.843008233051,1557
1083.0181125990161,1496
1085.1926339049414,1506
1087.3665723840027,1535
1089.5399282694575,1477
1091.7127017946405,1494
1093.8848931929647,1486
1096.0565026979243,1478
1098.2275305430899,1470
1100.3979769621128,1470
1102.567842188722,1495
1104.737126456726,1469
1106.9058300000124,1451
1109.0739530525475,1479
1111.2414958483764,1515
1113.4084586216231,1464
1115.5748416064907,1485
1117.7406450372605,1512
1119.9058691482942,1492
1122.0705141740304,1522
1124.2345803489884,1493
1126.3980679077658,1449
1128.5609770850388,1412
1130.7233081155623,1472
1132.8850612341707,1485
1135.0462366757774,1442
1137.2068346753745,1417
1139.3668554680326,1409
1141.526299288901,1485
1143.68516637321,1432
1145.8434569562655,1422
1148.001171273455,1421
1150.158309560244,1381
1152.3148720521767,1493
1154.470858984876,1463
1156.626270594044,1439
1158.7811071154629,1424
1160.9353687849912,1412
1163.089055838569,1461
1165.242168512213,1490
1167.3947070420209,1428
1169.5466716641677,1408
1171.6980626149075,1434
1173.8488801305748,1390
1175.9991244475814,1386
1178.1487958024186,1407
1180.2978944316555,1479
1182.4464205719428,1397
1184.5943744600072,1467
1186.7417563326567,1424
1188.8885664267755,1407
1191.0348049793297,1396
1193.1804722273619,1389
1195.325568407995,1379
1197.4700937584303,1402
1199.614048515948,1447
1201.7574329179074,1472
1203.900247201746,1403
1206.042491604982,1418
1208.1841663652099,1386
1210.3252717201053,1430
1212.465807907422,1366
1214.6057751649923,1395
1216.7451737307279,1377
1218.8840038426192,1408
1221.0222657387353,1474
1223.1599596572241,1436
1225.2970858363137,1438
1227.4336445143094,1458
1229.5696359295966,1437
1231.705060320639,1417
1233.8399179259786,1383
1235.9742089842384,1440
1238.107933734118,1424
1240.2410924143974,1483
1242.373685263935,1332
1244.5057125216676,1429
1246.6371744266116,1485
1248.7680712178621,1442
1250.898403134593,1445
1253.028170416058,1413
1255.1573733015875,1443
1257.2860120305932,1474
1259.4140868425648,1483
1261.54159797707,1485
1263.6685456737569,1442
1265.7949301723515,1470
1267.9207517126597,1501
1270.046010534565,1447
1272.1707068780306,1481
1274.2948409830983,1489
1276.4184130898889,1542
1278.541423438603,1459
1280.6638722695184,1482
1282.785759822993,1530
1284.9070863394636,1559
1287.0278520594447,1497
1289.1480572235314,1523
1291.2677020723963,1488
1293.3867868467923,1486
1295.5053117875495,1525
1297.623277135579,1509
1299.740683131868,1562
1301.8575300174857,1612
1303.973818033578,1561
1306.0895474213703,1583
1308.2047184221678,1560
1310.3193312773528,1614
1312.4333862283888,1606
1314.5468835168163,1577
1316.659823384255,1544
1318.7722060724045,1552
1320.8840318230418,1546
1322.9953008780249,1567
1325.1060134792888,1614
1327.2161698688478,1617
1329.3257702887959,1588
1331.4348149813054,1592
1333.5433041886276,1556
1335.6512381530933,1579
1337.7586171171101,1578
1339.8654413231675,1606
1341.9717110138317,1512
1344.0774264317488,1530
1346.1825878196432,1546
1348.2871954203192,1567
1350.3912494766587,1609
1352.4947502316231,1542
1354.5976979282532,1584
1356.7000928096686,1545
1358.8019351190665,1564
1360.9032250997243,1544
1363.0039629949988,1556
1365.1041490483235,1595
1367.2037835032133,1555
1369.3028666032606,1540
1371.401398592137,1568
1373.4993797135926,1490
1375.5968102114575,1552
1377.6936903296396,1559
1379.7900203121262,1563
1381.8858004029835,1532
1383.9810308463561,1515
1386.075711886469,1510
1388.1698437676241,1538
1390.2634267342032,1539
1392.356461030667,1543
1394.4489469015557,1545
1396.5408845914872,1665
1398.6322743451592,1560
1400.7231164073469,1554
1402.813411022907,1643
1404.903158436773,1488
1406.9923588939578,1604
1409.0810126395531,1619
1411.1691199187303,1512
1413.2566809767386,1658
1415.343696058907,1508
1417.4301654106425,1588
1419.5160892774315,1561
1421.6014679048399,1566
1423.6863015385125,1588
1425.7705904241707,1641
1427.8543348076178,1616
1429.9375349347342,1629
1432.0201910514802,1626
1434.102303403894,1657
1436.1838722380944,1675
1438.2648978002767,1629
1440.3453803367174,1652
1442.4253200937692,1677
1444.5047173178677,1700
1446.5835722555234,1695
1448.6618851533285,1785
1450.739656257952,1770
1452.8168858161434,1731
1454.8935740747306,1724
1456.96972128062,1835
1459.045327680797,1824
1461.120393522327,1792
1463.1949190523528,1808
1465.2689045180973,1907
1467.3423501668608,1845
1469.415256246024,1940
1471.4876230030463,1983
1473.559450685465,2046
1475.6307395408976,1962
1477.7014898170391,1969
1479.771701761665,2013
1481.8413756226287,2092
1483.9105116478618,2079
1485.9791100853772,2123
1488.0471711832643,2163
1490.1146951896926,2114
1492.1816823529098,2222
1494.2481329212433,2238
1496.3140471430984,2221
1498.3794252669609,2314
1500.4442675413939,2260
1502.5085742150404,2334
1504.572345536622,2324
1506.6355817549388,2319
1508.6982831188702,2312
1510.7604498773744,2381
1512.8220822794883,2497
1514.8831805743293,2456
1516.9437450110909,2498
1519.003775839048,2495
1521.0632733075522,2600
1523.1222376660367,2625
1525.1806691640113,2668
1527.2385680510652,2699
1529.2959345768668,2843
1531.3527689911643,2802
1533.4090715437833,2864
1535.4648424846291,2895
1537.5200820636855,2986
1539.5747905310159,3000
1541.6289681367616,2995
1543.6826151311434,3023
1545.7357317644614,3116
1547.7883182870937,3157
1549.8403749494987,3237
1551.8919020022113,3199
1553.9428996958477,3344
1555.9933682811015,3400
1558.0433080087469,3514
1560.0927191296346,3560
1562.1416018946961,3682
1564.1899565549415,3729
1566.2377833614592,3617
1568.2850825654164,3600
1570.3318544180606,3473
1572.3780991707158,3416
1574.423817074788,3294
1576.4690083817595,3191
1578.5136733431923,3157
1580.5578122107272,2913
1582.601425236085,2788
1584.6445126710646,2702
1586.6870747675434,2596
1588.7291117774776,2481
1590.7706239529034,2318
1592.8116115459347,2208
1594.8520748087658,2154
1596.8920139936686,2029
1598.9314293529933,2003
1600.9703211391711,1929
1603.008689604711,1997
1605.0465350022005,1980
1607.0838575843068,1883
1609.1206576037753,1813
1611.1569353134305,1760
1613.1926909661765,1696
1615.2279248149953,1733
1617.2626371129481,1680
1619.2968281131757,1681
1621.3304980688963,1629
1623.3636472334088,1661
1625.39627586009,1639
1627.428384202396,1688
1629.459972513861,1584
1631.4910410480993,1567
1633.5215900588028,1574
1635.551619799744,1554
1637.5811305247717,1575
1639.6101224878166,1457
1641.6385959428862,1565
1643.6665511440683,1544
1645.693988345528,1535
1647.7209078015112,1624
1649.7473097663405,1520
1651.7731944944203,1532
1653.7985622402307,1535
1655.823413258333,1542
1657.847747803366,1547
1659.8715661300494,1470
1661.8948684931793,1486
1663.9176551476316,1454
1665.9399263483624,1516
1667.9616823504057,1517
1669.982923408873,1482
1672.0036497789574,1451
1674.0238617159293,1479
1676.043559475138,1463
1678.0627433120121,1473
1680.081413482059,1478
1682.0995702408654,1480
1684.117213844096,1484
1686.134344547495,1475
1688.1509626068864,1451
1690.1670682781705,1445
1692.182661817329,1480
1694.1977434804217,1473
1696.2123135235875,1485
1698.226372203043,1451
1700.2399197750851,1441
1702.2529564960905,1453
1704.2654826225112,1390
1706.277498410882,1425
1708.2890041178139,1504
1710.2999999999988,1519
1712.3104863142066,1493
1714.3204633172854,1483
1716.329931266163,1474
1718.3388904178469,1469
1720.3473410294214,1457
1722.3552833580516,1497
1724.3627176609807,1442
1726.3696441955308,1463
1728.3760632191033,1501
1730.3819749891782,1433
1732.3873797633146,1459
1734.3922777991502,1436
1736.3966693544012,1438
1738.4005546868639,1434
1740.4039340544127,1415
1742.406807715001,1422
1744.4091759266616,1408
1746.4110389475054,1383
1748.4123970357223,1328
1750.413250449582,1415
1752.4135994474318,1448
1754.4134442876993,1387
1756.4127852288902,1434
1758.4116225295893,1354
1760.4099564484595,1404
1762.407787244244,1453
1764.405115175764,1386
1766.4019405019203,1427
1768.3982634816916,1379
1770.3940843741357,1399
1772.3894034383907,1397
1774.3842209336717,1311
1776.378537119274,1367
1778.372352254571,1387
1780.3656665990156,1352
1782.3584804121397,1372
1784.3507939535534,1384
1786.3426074829463,1407
1788.3339212600863,1372
1790.3247355448211,1395
1792.3150505970766,1359
1794.3048666768573,1373
1796.2941840442477,1326
1798.2830029594106,1366
1800.2713236825884,1380
1802.2591464741004,1375
1804.2464715943465,1310
1806.2332993038058,1357
1808.2196298630352,1357
1810.2054635326708,1376
1812.190800573428,1401
1814.175641246101,1360
1816.1599858115628,1308
1818.1438345307652,1381
1820.127187664738,1377
1822.1100454745924,1330
1824.092408221516,1363
1826.0742761667766,1387
1828.055649571721,1315
1830.0365286977735,1381
1832.0169138064398,1347
1833.9968051593014,1348
1835.9762030180214,1337
1837.9551076443408,1351
1839.9335193000788,1342
1841.9114382471344,1386
1843.888864747485,1398
1845.8657990631878,1344
1847.842241456378,1363
1849.8181921892697,1308
1851.7936515241558,1385
1853.7686197234098,1331
1855.7430970494815,1373
1857.7170837649014,1395
1859.6905801322787,1362
1861.6635864143004,1364
1863.6361028737338,1366
1865.608129773424,1393
1867.5796673762961,1366
1869.5507159453537,1308
1871.521275743678,1353
1873.4913470344313,1403
1875.4609300808534,1371
1877.4300251462632,1342
1879.3986324940588,1302
1881.366752387717,1354
1883.3343850907936,1396
1885.3015308669228,1379
1887.268189979819,1308
1889.2343626932739,1326
1891.2000492711595,1334
1893.1652499774254,1404
1895.1299650761011,1381
1897.0941948312952,1380
1899.0579395071945,1363
1901.0211993680641,1373
1902.98397467825,1395
1904.9462657021745,1378
1906.9080727043415,1415
1908.869395949332,1326
1910.8302357018065,1349
1912.790592226504,1388
1914.7504657882428,1361
1916.7098566519212,1338
1918.6687650825133,1355
1920.6271913450764,1335
1922.5851357047422,1413
1924.5425984267245,1346
1926.499579776314,1389
1928.4560800188833,1363
1930.4120994198802,1372
1932.367638244833,1293
1934.32269675935,1321
1936.2772752291175,1388
1938.231373919899,1391
1940.1849930975404,1350
1942.1381330279637,1375
1944.0907939771696,1386
1946.0429762112412,1363
1947.9946799963363,1391
1949.9459055986945,1396
1951.896653284633,1371
1953.8469233205478,1404
1955.7967159729142,1337
1957.7460315082863,1363
1959.6948701932974,1351
1961.6432322946594,1413
1963.5911180791632,1347
1965.5385278136787,1355
1967.4854617651545,1384
1969.4319202006182,1384
1971.377903387176,1325
1973.3234115920136,1346
1975.268445082395,1368
1977.2130041256642,1315
1979.1570889892423,1408
1981.1006999406304,1383
1983.04383724741,1390
1984.986501177238,1308
1986.928691997853,1418
1988.8704099770712,1331
1990.811655382789,1335
1992.7524284829801,1299
1994.692729545698,1372
1996.6325588390755,1300
1998.5719166313224,1356
2000.5108031907307,1327
2002.4492187856677,1348
2004.387163684583,1294
2006.3246381560011,1335
2008.2616424685298,1326
2010.1981768908527,1367
2012.1342416917332,1347
2014.069837140014,1339
2016.0049635046162,1320
2017.9396210545406,1319
2019.8738100588666,1337
2021.8075307867502,1319
2023.740783507431,1339
2025.6735684902228,1336
2027.6058860045214,1336
2029.5377363198004,1305
2031.4691197056118,1322
2033.4000364315875,1266
2035.3304867674374,1370
2037.260470982952,1376
2039.189989347998,1316
2041.1190421325232,1328
2043.047629606554,1328
2044.9757520401945,1305
2046.9034097036288,1309
2048.8306028671195,1299
2050.7573318010086,1327
2052.683596775716,1308
2054.609398061742,1337
2056.5347359296647,1348
2058.4596106501403,1302
2060.384022493906,1304
2062.3079717317764,1348
2064.231458634646,1365
2066.1544834734873,1308
2068.077046519352,1329
2069.99914804337,1303
2071.9207883167524,1348
2073.8419676107865,1347
2075.7626861968406,1309
2077.6829443463607,1319
2079.6027423308715,1323
2081.522080421977,1317
2083.440958891362,1277
2085.359378010786,1401
2087.2773380520907,1355
2089.194839287196,1380
2091.111881988101,1351
2093.0284664268825,1351
2094.9445928756973,1375
2096.86026160678,1301
2098.775472892446,1348
2100.690227005088,1394
2102.604524217178,1361
2104.5183648012676,1324
2106.431749029985,1300
2108.34467717604,1315
2110.2571495122206,1293
2112.169166311393,1344
2114.080727846503,1363
2115.9918343905747,1362
2117.902486216711,1403
2119.8126835980956,1387
2121.722426807987,1324
2123.6317161197285,1311
2125.5405518067364,1343
2127.448934142509,1314
2129.356863400624,1367
2131.264339854737,1340
2133.1713637785815,1345
2135.077935445972,1319
2136.9840551308002,1352
2138.889723107037,1307
2140.7949396487334,1343
2142.699705030018,1332
2144.6040195250994,1421
2146.507883408264,1325
2148.4112969538774,1344
2150.3142604363848,1322
2152.2167741303097,1335
2154.1188383102535,1408
2156.0204532508997,1378
2157.9216192270064,1387
2159.822336513414,1353
2161.7226053850413,1299
2163.622426116884,1290
2165.5217989840185,1327
2167.4207242616,1363
2169.319202224862,1363
2171.2172331491165,1364
2173.1148173097563,1352
2175.0119549822507,1307
2176.90864644215,1328
2178.8048919650823,1306
2180.7006918267534,1385
2182.596046302952,1281
2184.4909556695407,1326
2186.3854202024645,1272
2188.279440177746,1348
2190.173015871487,1310
2192.066147559868,1309
2193.958835519149,1367
2195.851080025667,1352
2197.7428813558417,1354
2199.6342397861667,1342
2201.5251555932186,1341
2203.415629053651,1353
2205.3056604441986,1336
2207.19525004167,1390
2209.084398122958,1347
2210.9731049650327,1347
2212.861370844941,1347
2214.749196039812,1297
2216.636580826851,1351
2218.523525483344,1330
2220.410030286655,1344
2222.296095514226,1369
2224.1817214435805,1323
2226.066908352319,1353
2227.951656518121,1303
2229.835966218746,1362
2231.71983773203,1299
2233.6032713358913,1324
2235.486267308324,1354
2237.3688259274036,1323
2239.2509474712824,1319
2241.132632218193,1309
2243.013880446447,1347
2244.8946924344323,1297
2246.7750684606203,1309
2248.6550088035574,1356
2250.534513741871,1384
2252.413583554265,1317
2254.292218519526,1376
2256.170418916517,1360
2258.0481850241786,1382
2259.925517121534,1321
2261.8024154876825,1339
2263.678880401803,1365
2265.5549121431536,1349
2267.430510991071,1291
2269.305677224971,1329
2271.180411124348,1267
2273.0547129687766,1327
2274.9285830379076,1330
2276.8020216114737,1340
2278.6750289692845,1375
2280.5476053912294,1353
2282.4197511572766,1344
2284.2914665474727,1343
2286.162751841943,1295
2288.0336073208937,1298
2289.904033264608,1312
2291.774029953448,1331
2293.6435976678554,1318
2295.5127366883517,1378
2297.381447295534,1303
2299.2497297700825,1356
2301.1175843927526,1304
2302.9850114443825,1360
2304.852011205885,1360
2306.7185839582553,1357
2308.5847299825664,1370
2310.4504495599676,1313
2312.3157429716925,1343
2314.1806104990483,1339
2316.0450524234247,1377
2317.9090690262888,1343
2319.772660589186,1342
2321.635827393742,1367
2323.498569721661,1344
2325.3608878547248,1315
2327.2227820747967,1368
2329.0842526638157,1350
2330.945299903803,1380
2332.805924076857,1372
2334.6661254651535,1338
2336.525904350951,1281
2338.3852610165827,1352
2340.244195744464,1354
2342.102708817088,1369
2343.9608005170253,1315
2345.8184711269287,1299
2347.675720929526,1369
2349.532550207628,1354
2351.38895924412,1355
2353.24494832197,1361
2355.100517724223,1317
2356.955667734004,1365
2358.810398634514,1373
2360.664710709037,1395
2362.5186042409337,1352
2364.3720795136437,1457
2366.225136810686,1385
2368.0777764156583,1396
2369.929998612237,1374
2371.7818036841777,1376
2373.633191915315,1348
2375.484163589562,1380
2377.3347189909114,1351
2379.184858403434,1369
2381.03458211128,1374
2382.8838903986775,1359
2384.732783549936,1365
2386.5812618494406,1383
2388.4293255816588,1428
2390.2769750311327,1381
2392.1242104824883,1356
2393.971032220427,1367
2395.8174405297295,1371
2397.6634356952563,1353
2399.509018001947,1426
2401.3541877348193,1419
2403.1989451789705,1382
2405.043290619576,1434
2406.8872243418905,1393
2408.730746631247,1404
2410.5738577730594,1387
2412.4165580528183,1366
2414.258847756095,1414
2416.100727168537,1378
2417.9421965758734,1397
2419.783256263912,1448
2421.623906518538,1352
2423.4641476257157,1389
2425.303979871491,1423
2427.143403541984,1438
2428.9824189233977,1436
2430.821026302012,1405
2432.6592259641866,1462
2434.497018196361,1378
2436.33440328505,1392
2438.171381516851,1430
2440.00795317844,1433
2441.844118556569,1458
2443.6798779380724,1383
2445.5152316098606,1394
2447.3501798589255,1442
2449.1847229723357,1453
2451.0188612372403,1471
2452.8525949408663,1425
2454.6859243705203,1385
2456.518849813587,1376
2458.3513715575314,1382
2460.183489889895,1451
2462.015205098301,1399
2463.8465174704493,1466
2465.67742729412,1380
2467.5079348571717,1418
2469.338040447542,1404
2471.1677443532476,1433
2472.9970468623833,1398
2474.825948263123,1383
2476.6544488437207,1428
2478.482548892508,1420
2480.310248697896,1403
2482.137548548374,1357
2483.9644487325118,1364
2485.790949538956,1392
2487.617051256433,1415
2489.44275417375,1412
2491.26805857979,1392
2493.0929647635157,1381
2494.917473013971,1398
2496.741583620276,1369
2498.5652968716304,1416
2500.3886130573137,1475
2502.2115324666834,1448
2504.0340553891765,1415
2505.856182114308,1441
2507.6779129316733,1404
2509.499248130945,1436
2511.3201880018764,1441
2513.140732834298,1449
2514.9608829181198,1503
2516.780638543331,1459
2518.6,1421
2520.418967578273,1460
2522.237541568376,1467
2524.0557222606144,1463
2525.8735099453706,1435
2527.6909049131086,1449
2529.507907454368,1467
2531.32451785977,1469
2533.140736420014,1439
2534.9565634258774,1486
2536.771999168218,1487
2538.5870439379714,1556
2540.4016980261526,1465
2542.2159617238544,1463
2544.02983532225,1458
2545.8433191125914,1438
2547.656413386209,1527
2549.4691184345115,1505
2551.2814345489874,1539
2553.093362021204,1500
2554.904901142808,1530
2556.716052205523,1491
2558.526815501153,1565
2560.3371913215824,1581
2562.147179958771,1564
2563.956781704761,1580
2565.7659968516705,1551
2567.5748256916986,1571
2569.3832685171224,1617
2571.1913256202984,1557
2572.9989972936614,1626
2574.806283829725,1590
2576.613185521084,1589
2578.4197026604074,1581
2580.2258355404483,1540
2582.031584454035,1626
2583.836949694077,1596
2585.6419315535613,1634
2587.4465303255533,1628
2589.2507463032002,1593
2591.0545797797245,1672
2592.8580310484303,1666
2594.6611004026995,1639
2596.463788135992,1664
2598.266094541849,1694
2600.0680199138874,1555
2601.869564545807,1603
2603.670728731383,1628
2605.4715127644704,1657
2607.2719169390048,1697
2609.071941548998,1686
2610.8715868885433,1698
2612.670853251811,1644
2614.469740933052,1736
2616.268250226594,1713
2618.0663814268455,1684
2619.864134828292,1711
2621.6615107255006,1667
2623.458509413115,1657
2625.2551311858597,1739
2627.0513763385347,1638
2628.8472451660223,1594
2630.6427379632833,1685
2632.4378550253564,1654
2634.232596647359,1675
2636.026963124488,1657
2637.8209547520187,1627
2639.6145718253065,1616
2641.407814639785,1636
2643.200683490966,1614
2644.9931786744414,1567
2646.7853004858807,1544
2648.577049221034,1602
2650.3684251757277,1612
2652.1594286458712,1556
2653.9500599274484,1550
2655.740319316525,1487
2657.5302071092437,1541
2659.3197236018286,1510
2661.10886909058,1528
2662.8976438718782,1552
2664.686048242183,1491
2666.4740824980327,1519
2668.2617469360443,1482
2670.0490418529134,1473
2671.8359675454153,1472
2673.622524310403,1488
2675.408712444811,1451
2677.1945322456495,1487
2678.979984010009,1440
2680.76506803506,1438
2682.5497846180497,1464
2684.334134056306,1477
2686.1181166472343,1408
2687.9017326883213,1464
2689.6849824771293,1510
2691.4678663113013,1387
2693.2503844885596,1431
2695.032537306705,1398
2696.8143250636167,1487
2698.5957480572542,1427
2700.3768065856534,1410
2702.1575009469316,1407
2703.937831439283,1399
2705.717798360982,1402
2707.4974020103837,1400
2709.276642685917,1398
2711.055520686095,1394
2712.834036309506,1401
2714.612189854819,1363
2716.389981620782,1373
2718.1674119062204,1395
2719.944481010041,1398
2721.721189231226,1296
2723.4975368688415,1331
2725.273524222027,1317
2727.0491515900053,1404
2728.824419272075,1316
2730.5993275676146,1359
2732.3738767760838,1329
2734.148067197016,1352
2735.921899130031,1406
2737.6953728748194,1486
2739.468488731156,1336
2741.2412469988926,1352
2743.0136479779617,1325
2744.785691968372,1309
2746.5573792702116,1382
2748.3287101836504,1330
2750.099685008934,1335
2751.870304046388,1372
2753.640567596418,1321
2755.4104759595057,1443
2757.1800294362156,1344
2758.949228327187,1358
2760.7180729331412,1342
2762.486563554877,1318
2764.254700493272,1309
2766.022484049284,1382
2767.789914523947,1319
2769.5569922183786,1321
2771.3237174337705,1354
2773.090090471394,1319
2774.8561116326036,1339
2776.6217812188274,1353
2778.3870995315756,1302
2780.1520668724356,1382
2781.9166835430747,1351
2783.6809498452394,1304
2785.444866080754,1348
2787.2084325515225,1419
2788.971649559527,1357
2790.73451740683,1356
2792.4970363955713,1321
2794.2592068279705,1313
2796.0210290063264,1293
2797.7825032330147,1343
2799.543629810493,1338
2801.304409041296,1331
2803.0648412280366,1331
2804.8249266734088,1343
2806.5846656801846,1284
2808.344058551212,1307
2810.1031055894246,1311
2811.8618070978273,1333
2813.6201633795085,1326
2815.378174737636,1321
2817.1358414754536,1356
2818.893163896285,1323
2820.6501423035334,1355
2822.4067770006814,1374
2824.1630682912883,1303
2825.9190164789957,1338
2827.6746218675207,1331
2829.429884760661,1333
2831.184805462294,1321
2832.9393842763743,1369
2834.693621506936,1397
2836.4475174580916,1318
2838.201072434034,1321
2839.954286739034,1288
2841.707160677441,1387
2843.459694553685,1341
2845.2118886722724,1375
2846.96374333779,1344
2848.7152588549034,1362
2850.4664355283567,1435
2852.217273662973,1315
2853.9677735636546,1348
2855.7179355353833,1335
2857.4677598832186,1350
2859.217246912299,1319
2860.9663969278427,1323
2862.715210235146,1341
2864.4636871395846,1324
2866.211827946614,1354
2867.9596329617652,1343
2869.7071024906536,1394
2871.4542368389684,1355
2873.20103631248,1362
2874.947501217038,1346
2876.6936318585695,1297
2878.4394285430812,1370
2880.1848915766604,1379
2881.9300212654707,1329
2883.6748179157553,1383
2885.4192818338374,1304
2887.1634133261173,1313
2888.907212699077,1398
2890.6506802592744,1361
2892.393816313348,1320
2894.1366211680142,1326
2895.8790951300693,1338
2897.621238506388,1321
2899.363051603925,1328
2901.1045347297118,1343
2902.8456881908596,1358
2904.58651229456,1360
2906.327007348081,1370
2908.067173658772,1343
2909.8070115340597,1288
2911.5465212814497,1317
2913.285703208527,1285
2915.0245576229563,1361
2916.7630848324807,1303
2918.5012851449196,1321
2920.2391588681758,1271
2921.976706310227,1306
2923.7139277791334,1354
2925.4508235830313,1355
2927.187394030137,1338
2928.923639428745,1337
2930.6595600872306,1335
2932.395156314046,1315
2934.1304284177218,1369
2935.8653767068713,1374
2937.6000014901815,1319
2939.3343030764227,1316
2941.068281774442,1342
2942.8019378931644,1372
2944.5352717415976,1405
2946.2682836288236,1350
2948.0009738640065,1335
2949.7333427563885,1332
2951.465390615289,1359
2953.1971177501086,1329
2954.9285244703265,1306
2956.6596110855,1325
2958.3903779052657,1282
2960.1208252393385,1333
2961.8509533975125,1298
2963.5807626896617,1306
2965.3102534257378,1354
2967.0394259157715,1300
2968.768280469873,1326
2970.496817398232,1323
2972.2250370111146,1344
2973.952939618869,1309
2975.6805255319196,1363
2977.4077950607707,1347
2979.134748516006,1311
2980.861386208289,1297
2982.587708448359,1337
2984.313715547037,1328
2986.039407815222,1344
2987.764785563891,1344
2989.489849104102,1363
2991.2145987469908,1372
2992.9390348037705,1312
2994.6631575857346,1329
2996.3869674042576,1274
2998.1104645707887,1317
2999.83364939686,1310
3001.5565221940783,1316
3003.2790832741334,1289
3005.0013329487924,1344
3006.7232715298996,1284
3008.4448993293804,1312
3010.166216659239,1287
3011.887223831558,1324
3013.607921158498,1268
3015.3283089522993,1257
3017.0483875252826,1280
3018.7681571898443,1319
3020.4876182584626,1308
3022.2067710436927,1281
3023.9256158581707,1313
3025.644153014609,1355
3027.362382825801,1311
3029.0803056046193,1318
3030.797921664012,1291
3032.5152313170106,1302
3034.2322348767225,1324
3035.9489326563353,1280
3037.665324969115,1391
3039.3814121284063,1343
3041.097194447633,1334
3042.812672240299,1372
3044.5278458199855,1343
3046.2427155003525,1334
3047.9572815951406,1286
3049.671544418167,1308
3051.38550428333,1297
3053.0991615046073,1296
3054.812516396051,1302
3056.5255692717974,1288
3058.2383204460575,1331
3059.9507702331257,1320
3061.662918947372,1272
3063.3747669032446,1320
3065.0863144152736,1286
3066.7975617980674,1307
3068.508509366309,1325
3070.219157434767,1351
3071.9295063182844,1309
3073.639556331785,1348
3075.3493077902704,1294
3077.058761008821,1408
3078.7679163025964,1339
3080.476773986837,1390
3082.1853343768594,1278
3083.89359778806,1300
3085.6015645359153,1368
3087.3092349359786,1323
3089.016609303884,1370
3090.7236879553434,1379
3092.4304712061476,1318
3094.136959372166,1306
3095.843152769349,1315
3097.5490517137237,1334
3099.2546565213966,1375
3100.959967508554,1376
3102.66498499146,1391
3104.3697092864577,1323
3106.0741407099695,1321
3107.778279578498,1311
3109.482126208622,1313
3111.1856809170004,1319
3112.8889440203716,1380
3114.5919158355528,1378
3116.294596679439,1348
3117.996986869006,1387
3119.6990867213062,1319
3121.4008965534726,1333
3123.102416682717,1341
3124.803647426329,1445
3126.5045891016784,1317
3128.205242026213,1320
3129.90560651746,1361
3131.605682893025,1369
3133.3054714705922,1322
3135.0049725679282,1353
3136.7041865028714,1412
3138.4031135933465,1355
3140.101754157353,1351
3141.800108512971,1329
3143.498176978357,1381
3145.1959598717494,1312
3146.8934575114636,1330
3148.5906702158954,1343
3150.2875983035183,1369
3151.9842420928853,1315
3153.680601902627,1379
3155.376678051456,1338
3157.07247085816,1297
3158.767980641609,1370
3160.463207720748,1331
3162.158152414606,1267
3163.8528150422862,1296
3165.5471959229726,1319
3167.2412953759303,1353
3168.9351137204976,1286
3170.628651276098,1284
3172.3219083622307,1336
3174.014885298474,1399
3175.707582404485,1325
3177.4000000000005,1340
3179.092138404835,1367
3180.7839979388846,1317
3182.47557892212,1340
3184.166881674594,1357
3185.8579065164386,1378
3187.5486537678626,1378
3189.2391237491547,1378
3190.9293167806827,1292
3192.6192331828934,1231
3194.3088732763117,1275
3195.998237381542,1275
3197.687325819268,1265
3199.376138910251,1370
3201.064676975334,1286
3202.7529403354347,1337
3204.4409293115523,1280
3206.1286442247647,1319
3207.816085396229,1303
3209.5032531471825,1287
3211.190147798936,1271
3212.8767696728846,1256
3214.5631190905015,1245
3216.2491963733373,1269
3217.9350018430214,1325
3219.6205358212637,1274
3221.305798629851,1323
3222.990790590651,1307
3224.6755120256103,1270
3226.359963256751,1268
3228.0441446061795,1265
3229.7280563960758,1287
3231.411698948703,1318
3233.0950725863995,1278
3234.778177631587,1342
3236.461014406761,1245
3238.1435832345005,1313
3239.8258844374595,1345
3241.507918338374,1336
3243.1896852600576,1316
3244.8711855254023,1310
3246.552419457381,1267
3248.233387379042,1313
3249.914089613516,1351
3251.59452648401,1304
3253.274698313813,1304
3254.95460542629,1304
3256.6342481448855,1283
3258.313626793125,1366
3259.9927416946084,1344
3261.6715931730196,1260
3263.3501815521176,1286
3265.0285071557437,1266
3266.706570307815,1267
3268.3843713323286,1268
3270.0619105533615,1291
3271.739188295068,1338
3273.4162048816834,1250
3275.0929606375184,1269
3276.769455886966,1304
3278.445690954498,1302
3280.1216661646613,1287
3281.797381842087,1337
3283.4728383114807,1283
3285.1480358976296,1265
3286.8229749253996,1296
3288.4976557197333,1285
3290.172078605655,1313
3291.846243908266,1320
3293.5201519527463,1313
3295.193803064357,1281
3296.8671975684374,1260
3298.5403357904024,1318
3300.21321805575,1348
3301.8858446900567,1273
3303.558216018975,1304
3305.23033236824,1341
3306.9021940636603,1314
3308.57380143113,1334
3310.2451547966184,1284
3311.916254486174,1280
3313.5871008259246,1316
3315.2576941420766,1274
3316.9280347609147,1312
3318.5981230088046,1299
3320.2679592121895,1302
3321.9375436975924,1288
3323.606876791612,1267
3325.27595882093,1329
3326.944790112305,1275
3328.6133709925753,1303
3330.2817017886573,1329
3331.949782827547,1282
3333.617614436319,1284
3335.2851969421245,1319
3336.952530672199,1303
3338.619615953853,1331
3340.286453114475,1291
3341.9530424815357,1322
3343.619384382583,1328
3345.2854791452437,1319
3346.951327097224,1296
3348.6169285663073,1317
3350.2822838803577,1352
3351.947393367319,1264
3353.61225735521,1322
3355.2768761721345,1313
3356.9412501462693,1256
3358.605379605873,1229
3360.2692648792827,1335
3361.9329062949146,1306
3363.596304181263,1309
