CollectionTime,6/26/2024 2:57:15 PM
ExposureUsed,3
CalibratedSpectrum
-962.7078968117929,650
-959.9714848408522,684
-957.2358232597828,646
-954.5009119013725,677
-951.7667505983302,683
-949.0333391832855,687
-946.3006774887896,690
-943.5687653473143,720
-940.837602591253,707
-938.1071890529199,703
-935.3775245645503,712
-932.6486089583007,738
-929.9204420662485,749
-927.1930237203925,721
-924.4663537526524,699
-921.7404319948689,725
-919.0152582788041,731
-916.2908324361409,730
-913.5671542984834,782
-910.8442236973568,723
-908.1220404642074,703
-905.4006044304027,720
-902.679915427231,731
-899.959973285902,755
-897.2407778375464,735
-894.5223289132158,714
-891.8046263438832,712
-889.0876699604426,709
-886.3714595937089,694
-883.6559950744183,697
-880.9412762332282,692
-878.2273029007168,682
-875.5140749073835,697
-872.8015920836489,692
-870.0898542598545,653
-867.3788612662631,683
-864.6686129330585,696
-861.9591090903457,660
-859.2503495681506,630
-856.5423341964203,688
-853.8350628050229,698
-851.1285352237478,688
-848.4227512823054,675
-845.7177108103272,691
-843.0134136373656,707
-840.3098595928943,695
-837.6070485063082,691
-834.9049802069229,705
-832.2036545239757,714
-829.5030712866244,707
-826.8032303239481,688
-824.1041314649472,683
-821.4057745385428,697
-818.7081593735775,691
-816.0112857988148,666
-813.3151536429393,677
-810.6197627345566,661
-807.9251129021936,665
-805.2312039742981,661
-802.5380357792392,698
-799.8456081453069,653
-797.1539209007124,686
-794.462973873588,703
-791.772766891987,672
-789.083299783884,705
-786.3945723771743,677
-783.7065844996748,646
-781.0193359791231,669
-778.3328266431781,700
-775.6470563194197,715
-772.9620248353489,723
-770.2777320183878,658
-767.5941776958798,718
-764.9113616950891,724
-762.2292838432011,717
-759.5479439673222,706
-756.8673418944801,707
-754.1874774516235,667
-751.5083504656222,674
-748.8299607632671,699
-746.15230817127,687
-743.475392516264,699
-740.7992136248035,705
-738.1237713233636,668
-735.4490654383407,703
-732.7750957960521,732
-730.1018622227365,748
-727.4293645445534,716
-724.7576025875837,735
-722.0865761778291,697
-719.4162851412126,752
-716.7467293035781,705
-714.0779084906909,780
-711.409822528237,802
-708.7424712418238,752
-706.0758544569796,742
-703.4099719991541,744
-700.7448236937178,794
-698.0804093659622,819
-695.4167288411002,765
-692.7537819442656,735
-690.0915685005134,772
-687.4300883348199,752
-684.7693412720819,768
-682.1093271371178,710
-679.4500457546669,745
-676.7914969493897,781
-674.1336805458676,759
-671.4765963686034,745
-668.8202442420206,766
-666.1646239904642,806
-663.5097354382001,755
-660.8555784094151,767
-658.2021527282176,750
-655.5494582186366,782
-652.8974947046223,817
-650.2462620100463,807
-647.5957599587009,782
-644.9459883742998,838
-642.2969470804776,818
-639.6486359007902,797
-637.0010546587141,809
-634.3542031776476,819
-631.7080812809096,833
-629.0626887917401,805
-626.4180255333008,803
-623.7740913286734,786
-621.1308860008619,819
-618.4884093727904,792
-615.8466612673046,773
-613.2056415071715,786
-610.5653499150785,831
-607.9257863136347,820
-605.28695052537,811
-602.6488423727357,816
-600.0114616781036,772
-597.3748082637674,829
-594.7388819519412,827
-592.1036825647604,865
-589.4692099242818,814
-586.8354638524829,780
-584.2024441712624,802
-581.5701507024403,813
-578.9385832677575,865
-576.3077416888759,841
-573.6776257873787,805
-571.0482353847704,755
-568.4195703024757,834
-565.7916303618415,872
-563.164415384135,874
-560.5379251905453,821
-557.9121596021815,794
-555.2871184400748,860
-552.6628015251767,859
-550.0392086783606,845
-547.4163397204204,827
-544.794194472071,844
-542.1727727539491,854
-539.5520743866118,891
-536.9320991905377,880
-534.3128469861261,927
-531.6943175936979,942
-529.0765108334947,926
-526.4594265256793,1025
-523.8430644903358,1164
-521.2274245474689,1223
-518.612506517005,1447
-515.9983102187913,1515
-513.3848354725959,1594
-510.77208209810846,1681
-508.16004991493924,1719
-505.5487387426199,1848
-502.9381484006032,1982
-500.3282787082628,2095
-497.71912948489364,2206
-495.1107005497117,2235
-492.5029917218539,2099
-489.8960028203786,2014
-487.28973366426493,1843
-484.68418407241325,1597
-482.07935386364494,1405
-479.47524285670266,1303
-476.87185087025,1196
-474.2691777228715,1263
-471.66722323307334,1226
-469.0659872192821,1174
-466.4654694998459,1152
-463.86566989303384,1118
-461.26658821703614,1080
-458.66822428996414,1077
-456.07057792985,1108
-453.4736489546475,1091
-450.877437182231,1072
-448.28194243039627,1060
-445.68716451686,1047
-443.09310325926003,1081
-440.49975847515555,1026
-437.9071299820263,1051
-435.31521759727354,1042
-432.72402113821954,1046
-430.13354042210767,1104
-427.5437752661022,1132
-424.95472548728867,1140
-422.36639090267386,1155
-419.7787713291855,1183
-417.1918665836721,1192
-414.60567648290385,1117
-412.0202008435715,1169
-409.4354394822874,1177
-406.8513922155845,1126
-404.26805885991723,1201
-401.685439231661,1168
-399.103533147112,1166
-396.522340422488,1108
-393.9418608739278,1219
-391.3620943174908,1148
-388.7830405691583,1171
-386.2046994448317,1180
-383.6270707603344,1033
-381.05015433141045,1014
-378.473949973725,936
-375.8984575028645,880
-373.32367673433623,819
-370.74960748356875,794
-368.1762495659117,723
-365.60360279663576,662
-363.03166699093265,673
-360.4604419639154,662
-357.8899275306178,581
-355.32012350599507,564
-352.7510297049233,571
-350.1826459421999,557
-347.61497203254316,603
-345.04800779059235,566
-342.4817530309082,536
-339.91620756797226,527
-337.35137121618743,519
-334.7872437898774,531
-332.22382510328725,550
-329.66111497058273,570
-327.09911320585127,557
-324.53781962310075,577
-321.9772340362607,592
-319.4173562591816,683
-316.8581861056348,740
-314.2997233893127,733
-311.7419679238294,741
-309.1849195227194,698
-306.62857799943856,639
-304.0729431673641,547
-301.51801483979375,533
-298.963792829947,582
-296.41027695096386,626
-293.85746701590574,698
-291.3053628377552,705
-288.7539642294155,658
-286.2032710037115,668
-283.65328297338897,707
-281.1039999511146,773
-278.5554217494762,793
-276.007548180983,706
-273.4603790580651,681
-270.9139141930734,649
-268.3681533982807,666
-265.8230964858798,701
-263.27874326798565,622
-260.7350935566336,668
-258.1921471637804,730
-255.6499039013039,776
-253.10836358100266,752
-250.56752601459698,748
-248.02739101372765,766
-245.48795838995704,818
-242.94922795476816,801
-240.41119951956557,745
-237.8738728956746,953
-235.33724789434166,939
-232.80132432673452,877
-230.2661020039418,1125
-227.73158073697357,997
-225.19776033676033,903
-222.66464061415422,947
-220.1322213799284,912
-217.60050244477725,873
-215.06948361931552,905
-212.53916471408013,855
-210.00954553952818,841
-207.48062590603843,856
-204.9524056239104,876
-202.4248845033651,938
-199.8980623545441,1107
-197.37193898751036,984
-194.84651421224817,894
-192.32178783866232,909
-189.79775967657952,934
-187.27442953574644,908
-184.7517972258321,908
-182.2298625564256,867
-179.7086253370378,961
-177.18808537710026,1059
-174.66824248596583,1058
-172.14909647290835,1103
-169.6306471471229,1070
-167.11289431772548,1007
-164.59583779375328,1031
-162.07947738416453,1123
-159.5638128978386,1136
-157.04884414357605,1219
-154.53457093009854,1217
-152.02099306604828,1111
-149.50811035998936,1196
-146.99592262040665,1188
-144.48442965570587,1198
-141.97363127421409,1296
-139.46352728417958,1530
-136.95411749377126,1641
-134.44540171107985,1747
-131.93737974411636,1568
-129.43005140081357,1415
-126.92341648902493,1519
-124.41747481652521,1513
-121.91222619101006,1539
-119.40767042009657,1396
-116.90380731132257,1299
-114.40063667214702,1548
-111.8981583099503,1955
-109.3963720320337,1750
-106.89527764561933,1452
-104.39487495785067,1627
-101.89516377579241,1837
-99.39614390642998,1767
-96.89781515667039,1813
-94.40017733334128,2084
-91.90323024319173,1958
-89.40697369289148,1873
-86.91140748903172,1734
-84.41653143812482,1829
-81.92234534660395,2058
-79.42884902082358,2007
-76.93604226705907,1893
-74.4439248915071,2019
-71.95249670028534,2054
-69.46175749943245,2180
-66.97170709490854,2529
-64.48234529259423,2931
-61.99367189829195,2961
-59.50568671772464,3004
-57.01838955653636,3360
-54.53178022029283,3246
-52.045858514480074,3569
-49.560624244506016,4013
-47.07607721569923,3851
-44.59221723330904,3803
-42.10904410250669,3908
-39.62655762838392,5128
-37.14475761595372,5527
-34.66364387015028,5950
-32.18321619582866,6753
-29.70347439776515,7600
-27.224418280657005,9291
-24.74604764912317,11755
-22.26836230770266,16091
-19.7913620608565,26309
-17.315046712966478,40765
-14.83941606833514,45325
-12.36446993118659,65039
-9.89020810566592,65039
-7.416630395839093,65039
-4.94373660569363,65039
-2.471526539137585,65039
-6.821210263296962E-13,65039
2.47084320796705,65039
4.941003281093458,65039
7.410480415786196,65039
9.879274808531363,65039
12.347386655893956,65039
14.814816154518212,65039
17.28156350112681,65039
19.74762889252179,65039
22.21301252558385,65039
24.67771459727237,65039
27.141735304626195,65039
29.605074844762612,39674
32.06773341487792,14743
34.52971121224755,10852
36.99100843422559,11814
39.45162527824516,12865
41.91156194181792,12035
44.370818622535126,13260
46.82939551806646,14590
49.287292826160524,13157
51.74451074464503,11559
54.201049471426245,6941
56.65690920448981,4257
59.112090141899785,3861
61.56659248179983,4332
64.02041642241159,3989
66.4735621620365,3779
68.92602989905402,2891
71.37781983192338,2755
73.82893215918205,3440
76.27936707944684,3095
78.72912479141326,2955
81.17820549385567,2776
83.62660938562783,3524
86.07433666566146,3476
88.5213875329681,3502
90.96776218663751,3211
93.41346082583925,3416
95.85848364982041,3001
98.30283085790859,2172
100.7465026495089,2361
103.18949922410604,2636
105.63182078126385,2005
108.07346752062438,2356
110.51443964190923,2469
112.95473734491827,1891
115.39436082953114,1704
117.83331029570547,1879
120.27158594347827,2316
122.7091879729652,1611
125.1461165843615,1521
127.58237197794062,1636
130.01795435405518,1496
132.4528639131364,1513
134.88710085569494,1732
137.32066538231982,1868
139.75355769367923,1591
142.1857779905207,1416
144.61732647366978,1454
147.04820334403132,1498
149.47840880258934,1407
151.90794305040674,1580
154.33680628862487,1631
156.76499871846443,1720
159.19252054122433,1779
161.61937195828352,1918
164.04555317109896,2016
166.47106438120693,2098
168.89590579022217,2516
171.320077599839,2642
173.7435800118302,2502
176.16641322804742,2622
178.58857745042144,2759
181.01007288096173,2894
183.43089972175687,2856
185.85105817497413,2857
188.27054844285988,2816
190.6893707277394,2801
193.10752523201643,2939
195.5250121581745,3072
197.9418317087751,3081
200.3579840864594,3003
202.7734694939469,3131
205.18828813403627,3152
207.6024402096051,3035
210.01592592360964,3007
212.42874547908548,3159
214.84089907914665,2997
217.2523869269868,3018
219.66320922587727,3065
222.0733661791695,2987
224.48285799029293,2939
226.8916848627572,3076
229.29984700014882,3100
231.7073446061355,3114
234.11417788446204,3087
236.520347038953,3150
238.92585227351185,3525
241.33069379212054,3560
243.73487179884035,3501
246.1383864978112,3200
248.541238093252,3269
250.9434267894609,3298
253.34495279081432,3243
255.74581630176783,3253
258.1460175268563,3352
260.54555667069314,3282
262.9444339379703,3221
265.3426495334594,3184
267.7402036620107,3205
270.1370965285529,3144
272.53332833809407,2936
274.9288992957214,2935
277.32380960660055,2930
279.718059475976,2922
282.1116491091717,2955
284.5045787115897,2942
286.89684848871195,2963
289.2884586460981,3026
291.67940938938807,3001
294.0697009242996,2865
296.4593334566299,2807
298.84830719225477,2794
301.23662233712923,2857
303.6242790972866,2824
306.01127767884,2772
308.39761828798066,2790
310.78330113097934,2688
313.16832641418534,2731
315.5526943440269,2752
317.9364051270112,2733
320.3194589697242,2615
322.70185607883093,2597
325.0835966610754,2575
327.4646809232805,2507
329.8451090723478,2540
332.2248813152577,2673
334.6039978590701,2534
336.9824589109231,2574
339.36026467803447,2504
341.7374153677,2437
344.113911187295,2345
346.48975234427337,2343
348.8649390461686,2373
351.2394715005918,2452
353.61334991523415,2390
355.9865744978655,2378
358.35914545633375,2357
360.73106299856715,2311
363.10232733257146,2359
365.47293866643247,2430
367.84289720831396,2338
370.2122031664593,2353
372.5808567491905,2289
374.9488581649083,2317
377.31620762209275,2364
379.6829053293021,2376
382.0489514951745,2278
384.4143463284262,2355
386.7790900378528,2281
389.14318283232853,2261
391.50662492080653,2207
393.86941651231916,2227
396.23155781597745,2231
398.5930490409713,2199
400.9538903965696,2226
403.3140820921202,2087
405.6736243370498,2166
408.03251734086336,2141
410.3907613131465,2143
412.74835646356166,2119
415.10530300185144,2148
417.4616011378372,2194
419.81725108141893,2182
422.1722530425758,2168
424.5266072313656,2099
426.880313857925,2205
429.2333731324701,2150
431.58578526529516,2106
433.9375504667738,2091
436.2886689473588,2130
438.63914091758113,2093
440.9889665880513,2084
443.33814616945835,2119
445.68667987257015,2119
448.03456790823395,2051
450.3818104873759,2105
452.72840782100013,2136
455.07436012019105,2065
457.41966759611057,2028
459.7643304600007,2050
462.10834892318155,2085
464.4517231970525,2170
466.79445349309174,2157
469.1365400228566,2138
471.4779829979826,2235
473.81878263018564,2225
476.15893913125876,2151
478.4984527130747,2155
480.8373235875855,2207
483.17555196682144,2332
485.5131380628919,2446
487.8500820879857,2537
490.1863842543697,2653
492.52204477439034,2950
494.8570638604725,3092
497.1914417251204,3338
499.52517858091653,3625
501.85827464052306,3746
504.19073011668036,3844
506.5225452222086,3745
508.85372017000566,3595
511.18425517304956,3442
513.514150444396,3594
515.8434061971808,4088
518.1720226446176,4771
520.4999999999999,5054
522.8273384766991,5159
525.1540382881666,5415
527.480099647932,5260
529.8055227696037,4420
532.1303078668694,3209
534.454455153496,2487
536.777964843328,2182
539.1008371502907,2118
541.4230722883866,2047
543.744670471698,1978
546.0656319143858,1983
548.3859568306899,1929
550.7056454349294,1979
553.0246979415016,1930
555.3431145648834,1871
557.6608955196306,1862
559.978041020377,1909
562.2945512818363,1840
564.6104265188006,1864
566.9256669461412,1835
569.2402727788082,1873
571.5542442318302,1896
573.8675815203156,1842
576.1802848594508,1931
578.4923544645015,1833
580.8037905508126,1886
583.114593333807,1921
585.4247630289875,1910
587.7342998519354,1819
590.0432040183106,1801
592.3514757438526,1804
594.6591152443794,1829
596.9661227357875,1901
599.2724984340531,1851
601.578242555231,1901
603.8833553154542,1979
606.1878369309362,1900
608.4916876179676,2010
610.7949075929192,2011
613.0974970722403,1898
615.3994562724587,1941
617.7007854101818,1969
620.0014847020951,1929
622.3015543649641,1884
624.6009946156324,1929
626.8998056710224,1839
629.1979877481361,1914
631.4955410640538,1878
633.7924658359349,1911
636.0887622810175,1893
638.3844306166192,1938
640.6794710601358,1927
642.9738838290426,1910
645.2676691408932,1957
647.5608272133207,1923
649.853358264037,1891
652.1452625108324,1908
654.4365401715764,1941
656.7271914642178,2003
659.0172166067838,1933
661.3066158173809,1925
663.5953893141935,1931
665.8835373154867,1933
668.1710600396028,1907
670.4579577049639,1927
672.7442305300709,1988
675.0298787335033,1930
677.3149025339197,1976
679.599302150058,1876
681.8830778007342,1954
684.1662297048437,1996
686.4487580813608,1975
688.7306631493387,1951
691.0119451279091,1898
693.2926042362834,1996
695.5726406937516,1936
697.8520547196814,1988
700.1308465335215,1912
702.4090163547982,1953
704.6865644031171,1963
706.9634908981619,1977
709.2397960596965,1931
711.5154801075631,1962
713.7905432616823,1944
716.0649857420548,1954
718.3388077687592,1949
720.612009561953,1925
722.8845913418733,1877
725.1565533288352,1834
727.427895743234,1935
729.6986188055427,2000
731.9687227363137,1979
734.238207756178,1906
736.5070740858458,1990
738.7753219461066,2000
741.0429515578281,1955
743.3099631419569,1965
745.5763569195191,1964
747.8421331116193,2013
750.1072919394409,1949
752.3718336242467,1887
754.6357583873777,1943
756.8990664502545,1941
759.1617580343765,1950
761.423833361321,1941
763.6852926527457,1882
765.9461361303862,1934
768.206364016058,1930
770.4659765316536,1971
772.7249738991469,1954
774.9833563405886,1977
777.2411240781092,1946
779.4982773339183,1977
781.7548163303044,2033
784.010741289634,2064
786.2660524343538,2050
788.5207499869881,1939
790.7748341701416,1982
793.0283052064964,1948
795.2811633188143,1934
797.5334087299362,1993
799.7850416627813,1903
802.0360623403484,2002
804.2864709857143,2021
806.5362678220353,1996
808.7854530725468,1965
811.0340269605625,1975
813.2819897094754,2005
815.5293415427581,1983
817.77608268396,2021
820.0222133567116,1970
822.2677337847211,1962
824.5126441917765,1991
826.7569448017433,1959
829.0006358385675,2052
831.2437175262731,2017
833.4861900889629,1982
835.7280537508192,2013
837.9693087361026,2036
840.2099552691533,2026
842.4499935743896,2033
844.689423876309,1951
846.9282463994886,1969
849.1664613685833,1931
851.4040690083276,1908
853.6410695435349,1923
855.877463199097,1950
858.1132501999847,1921
860.3484307712487,1960
862.5830051380175,1919
864.8169735254988,1937
867.0503361589791,2020
869.2830932638243,2009
871.5152450654786,1977
873.7467917894654,1959
875.9777336613873,2012
878.2080709069252,1998
880.4378037518389,2009
882.666932421968,2063
884.8954571432301,2098
887.1233781416219,2071
889.3506956432192,2111
891.5774098741766,2083
893.803521060728,2032
896.0290294291852,2078
898.2539352059397,2037
900.4782386174619,2038
902.7019398903011,2051
904.925039251085,2066
907.147536926521,2056
909.3694331433943,1976
911.59072812857,2012
913.8114221089921,2097
916.0315153116827,1974
918.2510079637437,1968
920.4699002923547,1981
922.6881925247761,2005
924.905884888345,2084
927.1229776104793,2083
929.3394709186747,1964
931.555365040506,2017
933.7706602036275,1961
935.9853566357709,1980
938.1994545647489,1980
940.4129542184515,1897
942.6258558248488,1999
944.8381596119883,1934
947.0498658079974,1975
949.2609746410825,1979
951.4714863395287,1993
953.6814011316998,1964
955.8907192460387,1972
958.0994409110671,1950
960.3075663553858,1954
962.5150958076741,2016
964.7220294966913,1948
966.928367651274,1908
969.1341105003388,1889
971.3392582728806,1904
973.5438111979742,1983
975.747769504772,1883
977.9511334225061,1905
980.153903180487,1877
982.3560790081052,1921
984.5576611348289,1807
986.7586497902058,1886
988.9590452038618,1839
991.158847605503,1861
993.3580572249133,1791
995.5566742919558,1813
997.7546990365728,1743
999.952131688785,1710
1002.1489724786926,1754
1004.3452216364743,1706
1006.5408793923874,1687
1008.7359459767691,1775
1010.9304216200343,1726
1013.1243065526781,1584
1015.3176010052733,1681
1017.510305208472,1630
1019.7024193930064,1660
1021.8939437896848,1610
1024.0848786293977,1593
1026.2752241431122,1620
1028.4649805618747,1575
1030.6541481168115,1610
1032.842727039127,1600
1035.0307175601051,1614
1037.2181199111074,1607
1039.4049343235752,1578
1041.591161029029,1549
1043.7768002590683,1571
1045.9618522453698,1623
1048.1463172196918,1580
1050.3301954138697,1597
1052.513487059818,1536
1054.69619238953,1576
1056.8783116350783,1496
1059.0598450286152,1491
1061.2407928023704,1563
1063.4211551886528,1598
1065.6009324198508,1545
1067.780124728432,1551
1069.9587323469414,1564
1072.1367555080046,1577
1074.314194444325,1541
1076.4910493886855,1505
1078.667320573947,1569
1080.843008233051,1478
1083.0181125990161,1561
1085.1926339049414,1463
1087.3665723840027,1538
1089.5399282694575,1443
1091.7127017946405,1467
1093.8848931929647,1501
1096.0565026979243,1476
1098.2275305430899,1507
1100.3979769621128,1436
1102.567842188722,1464
1104.737126456726,1419
1106.9058300000124,1422
1109.0739530525475,1474
1111.2414958483764,1489
1113.4084586216231,1465
1115.5748416064907,1432
1117.7406450372605,1459
1119.9058691482942,1475
1122.0705141740304,1417
1124.2345803489884,1473
1126.3980679077658,1475
1128.5609770850388,1404
1130.7233081155623,1440
1132.8850612341707,1373
1135.0462366757774,1409
1137.2068346753745,1421
1139.3668554680326,1451
1141.526299288901,1423
1143.68516637321,1423
1145.8434569562655,1437
1148.001171273455,1408
1150.158309560244,1392
1152.3148720521767,1414
1154.470858984876,1376
1156.626270594044,1390
1158.7811071154629,1335
1160.9353687849912,1451
1163.089055838569,1392
1165.242168512213,1446
1167.3947070420209,1431
1169.5466716641677,1421
1171.6980626149075,1388
1173.8488801305748,1426
1175.9991244475814,1404
1178.1487958024186,1383
1180.2978944316555,1423
1182.4464205719428,1382
1184.5943744600072,1368
1186.7417563326567,1442
1188.8885664267755,1364
1191.0348049793297,1394
1193.1804722273619,1377
1195.325568407995,1404
1197.4700937584303,1424
1199.614048515948,1418
1201.7574329179074,1393
1203.900247201746,1347
1206.042491604982,1407
1208.1841663652099,1351
1210.3252717201053,1424
1212.465807907422,1409
1214.6057751649923,1397
1216.7451737307279,1383
1218.8840038426192,1403
1221.0222657387353,1445
1223.1599596572241,1377
1225.2970858363137,1371
1227.4336445143094,1451
1229.5696359295966,1444
1231.705060320639,1494
1233.8399179259786,1412
1235.9742089842384,1403
1238.107933734118,1432
1240.2410924143974,1386
1242.373685263935,1375
1244.5057125216676,1410
1246.6371744266116,1451
1248.7680712178621,1392
1250.898403134593,1377
1253.028170416058,1430
1255.1573733015875,1430
1257.2860120305932,1369
1259.4140868425648,1426
1261.54159797707,1427
1263.6685456737569,1463
1265.7949301723515,1469
1267.9207517126597,1428
1270.046010534565,1518
1272.1707068780306,1439
1274.2948409830983,1444
1276.4184130898889,1438
1278.541423438603,1405
1280.6638722695184,1498
1282.785759822993,1498
1284.9070863394636,1489
1287.0278520594447,1492
1289.1480572235314,1528
1291.2677020723963,1563
1293.3867868467923,1581
1295.5053117875495,1496
1297.623277135579,1547
1299.740683131868,1571
1301.8575300174857,1591
1303.973818033578,1584
1306.0895474213703,1566
1308.2047184221678,1529
1310.3193312773528,1634
1312.4333862283888,1552
1314.5468835168163,1571
1316.659823384255,1564
1318.7722060724045,1563
1320.8840318230418,1555
1322.9953008780249,1570
1325.1060134792888,1623
1327.2161698688478,1588
1329.3257702887959,1573
1331.4348149813054,1539
1333.5433041886276,1586
1335.6512381530933,1471
1337.7586171171101,1515
1339.8654413231675,1512
1341.9717110138317,1565
1344.0774264317488,1548
1346.1825878196432,1507
1348.2871954203192,1477
1350.3912494766587,1512
1352.4947502316231,1566
1354.5976979282532,1497
1356.7000928096686,1538
1358.8019351190665,1529
1360.9032250997243,1472
1363.0039629949988,1563
1365.1041490483235,1586
1367.2037835032133,1516
1369.3028666032606,1512
1371.401398592137,1537
1373.4993797135926,1552
1375.5968102114575,1515
1377.6936903296396,1490
1379.7900203121262,1513
1381.8858004029835,1563
1383.9810308463561,1568
1386.075711886469,1520
1388.1698437676241,1510
1390.2634267342032,1518
1392.356461030667,1478
1394.4489469015557,1503
1396.5408845914872,1548
1398.6322743451592,1550
1400.7231164073469,1623
1402.813411022907,1611
1404.903158436773,1544
1406.9923588939578,1649
1409.0810126395531,1547
1411.1691199187303,1522
1413.2566809767386,1618
1415.343696058907,1576
1417.4301654106425,1551
1419.5160892774315,1510
1421.6014679048399,1557
1423.6863015385125,1636
1425.7705904241707,1630
1427.8543348076178,1597
1429.9375349347342,1614
1432.0201910514802,1632
1434.102303403894,1568
1436.1838722380944,1650
1438.2648978002767,1688
1440.3453803367174,1750
1442.4253200937692,1675
1444.5047173178677,1687
1446.5835722555234,1739
1448.6618851533285,1723
1450.739656257952,1743
1452.8168858161434,1750
1454.8935740747306,1718
1456.96972128062,1726
1459.045327680797,1780
1461.120393522327,1806
1463.1949190523528,1807
1465.2689045180973,1907
1467.3423501668608,1834
1469.415256246024,1882
1471.4876230030463,1898
1473.559450685465,1913
1475.6307395408976,1951
1477.7014898170391,1996
1479.771701761665,2110
1481.8413756226287,2118
1483.9105116478618,2080
1485.9791100853772,2149
1488.0471711832643,2077
1490.1146951896926,2143
1492.1816823529098,2244
1494.2481329212433,2198
1496.3140471430984,2211
1498.3794252669609,2246
1500.4442675413939,2292
1502.5085742150404,2335
1504.572345536622,2301
1506.6355817549388,2435
1508.6982831188702,2414
1510.7604498773744,2408
1512.8220822794883,2459
1514.8831805743293,2399
1516.9437450110909,2559
1519.003775839048,2531
1521.0632733075522,2631
1523.1222376660367,2565
1525.1806691640113,2731
1527.2385680510652,2694
1529.2959345768668,2821
1531.3527689911643,2806
1533.4090715437833,2895
1535.4648424846291,2927
1537.5200820636855,2966
1539.5747905310159,3046
1541.6289681367616,3006
1543.6826151311434,3155
1545.7357317644614,3153
1547.7883182870937,3148
1549.8403749494987,3226
1551.8919020022113,3233
1553.9428996958477,3367
1555.9933682811015,3451
1558.0433080087469,3488
1560.0927191296346,3509
1562.1416018946961,3628
1564.1899565549415,3660
1566.2377833614592,3618
1568.2850825654164,3676
1570.3318544180606,3656
1572.3780991707158,3520
1574.423817074788,3405
1576.4690083817595,3208
1578.5136733431923,3081
1580.5578122107272,2926
1582.601425236085,2878
1584.6445126710646,2750
1586.6870747675434,2527
1588.7291117774776,2493
1590.7706239529034,2336
1592.8116115459347,2316
1594.8520748087658,2160
1596.8920139936686,2091
1598.9314293529933,2058
1600.9703211391711,2049
1603.008689604711,1959
1605.0465350022005,1839
1607.0838575843068,1845
1609.1206576037753,1787
1611.1569353134305,1833
1613.1926909661765,1697
1615.2279248149953,1748
1617.2626371129481,1700
1619.2968281131757,1652
1621.3304980688963,1615
1623.3636472334088,1601
1625.39627586009,1656
1627.428384202396,1657
1629.459972513861,1629
1631.4910410480993,1565
1633.5215900588028,1566
1635.551619799744,1548
1637.5811305247717,1529
1639.6101224878166,1547
1641.6385959428862,1589
1643.6665511440683,1543
1645.693988345528,1453
1647.7209078015112,1566
1649.7473097663405,1540
1651.7731944944203,1530
1653.7985622402307,1494
1655.823413258333,1535
1657.847747803366,1465
1659.8715661300494,1495
1661.8948684931793,1473
1663.9176551476316,1486
1665.9399263483624,1467
1667.9616823504057,1444
1669.982923408873,1482
1672.0036497789574,1421
1674.0238617159293,1436
1676.043559475138,1458
1678.0627433120121,1495
1680.081413482059,1509
1682.0995702408654,1465
1684.117213844096,1473
1686.134344547495,1433
1688.1509626068864,1453
1690.1670682781705,1466
1692.182661817329,1442
1694.1977434804217,1463
1696.2123135235875,1477
1698.226372203043,1461
1700.2399197750851,1476
1702.2529564960905,1450
1704.2654826225112,1421
1706.277498410882,1474
1708.2890041178139,1567
1710.2999999999988,1492
1712.3104863142066,1448
1714.3204633172854,1435
1716.329931266163,1443
1718.3388904178469,1448
1720.3473410294214,1418
1722.3552833580516,1509
1724.3627176609807,1398
1726.3696441955308,1441
1728.3760632191033,1430
1730.3819749891782,1416
1732.3873797633146,1394
1734.3922777991502,1341
1736.3966693544012,1459
1738.4005546868639,1479
1740.4039340544127,1427
1742.406807715001,1407
1744.4091759266616,1331
1746.4110389475054,1426
1748.4123970357223,1485
1750.413250449582,1404
1752.4135994474318,1381
1754.4134442876993,1347
1756.4127852288902,1381
1758.4116225295893,1406
1760.4099564484595,1344
1762.407787244244,1419
1764.405115175764,1409
1766.4019405019203,1404
1768.3982634816916,1339
1770.3940843741357,1383
1772.3894034383907,1370
1774.3842209336717,1339
1776.378537119274,1368
1778.372352254571,1359
1780.3656665990156,1350
1782.3584804121397,1355
1784.3507939535534,1362
1786.3426074829463,1365
1788.3339212600863,1364
1790.3247355448211,1351
1792.3150505970766,1336
1794.3048666768573,1391
1796.2941840442477,1287
1798.2830029594106,1356
1800.2713236825884,1367
1802.2591464741004,1367
1804.2464715943465,1324
1806.2332993038058,1365
1808.2196298630352,1352
1810.2054635326708,1396
1812.190800573428,1321
1814.175641246101,1313
1816.1599858115628,1347
1818.1438345307652,1343
1820.127187664738,1349
1822.1100454745924,1335
1824.092408221516,1279
1826.0742761667766,1341
1828.055649571721,1297
1830.0365286977735,1364
1832.0169138064398,1359
1833.9968051593014,1365
1835.9762030180214,1364
1837.9551076443408,1372
1839.9335193000788,1328
1841.9114382471344,1363
1843.888864747485,1318
1845.8657990631878,1346
1847.842241456378,1348
1849.8181921892697,1302
1851.7936515241558,1267
1853.7686197234098,1295
1855.7430970494815,1363
1857.7170837649014,1319
1859.6905801322787,1347
1861.6635864143004,1375
1863.6361028737338,1360
1865.608129773424,1308
1867.5796673762961,1351
1869.5507159453537,1322
1871.521275743678,1330
1873.4913470344313,1357
1875.4609300808534,1374
1877.4300251462632,1351
1879.3986324940588,1368
1881.366752387717,1328
1883.3343850907936,1387
1885.3015308669228,1402
1887.268189979819,1419
1889.2343626932739,1342
1891.2000492711595,1351
1893.1652499774254,1342
1895.1299650761011,1399
1897.0941948312952,1379
1899.0579395071945,1374
1901.0211993680641,1358
1902.98397467825,1347
1904.9462657021745,1367
1906.9080727043415,1349
1908.869395949332,1391
1910.8302357018065,1344
1912.790592226504,1297
1914.7504657882428,1354
1916.7098566519212,1347
1918.6687650825133,1346
1920.6271913450764,1333
1922.5851357047422,1364
1924.5425984267245,1332
1926.499579776314,1340
1928.4560800188833,1365
1930.4120994198802,1310
1932.367638244833,1299
1934.32269675935,1393
1936.2772752291175,1336
1938.231373919899,1313
1940.1849930975404,1338
1942.1381330279637,1369
1944.0907939771696,1261
1946.0429762112412,1327
1947.9946799963363,1354
1949.9459055986945,1390
1951.896653284633,1377
1953.8469233205478,1347
1955.7967159729142,1344
1957.7460315082863,1361
1959.6948701932974,1371
1961.6432322946594,1323
1963.5911180791632,1395
1965.5385278136787,1305
1967.4854617651545,1319
1969.4319202006182,1404
1971.377903387176,1362
1973.3234115920136,1317
1975.268445082395,1367
1977.2130041256642,1341
1979.1570889892423,1317
1981.1006999406304,1345
1983.04383724741,1394
1984.986501177238,1372
1986.928691997853,1324
1988.8704099770712,1325
1990.811655382789,1292
1992.7524284829801,1326
1994.692729545698,1394
1996.6325588390755,1277
1998.5719166313224,1318
2000.5108031907307,1327
2002.4492187856677,1309
2004.387163684583,1324
2006.3246381560011,1323
2008.2616424685298,1351
2010.1981768908527,1349
2012.1342416917332,1290
2014.069837140014,1307
2016.0049635046162,1315
2017.9396210545406,1384
2019.8738100588666,1314
2021.8075307867502,1330
2023.740783507431,1282
2025.6735684902228,1290
2027.6058860045214,1289
2029.5377363198004,1260
2031.4691197056118,1320
2033.4000364315875,1377
2035.3304867674374,1327
2037.260470982952,1348
2039.189989347998,1290
2041.1190421325232,1351
2043.047629606554,1295
2044.9757520401945,1324
2046.9034097036288,1312
2048.8306028671195,1331
2050.7573318010086,1325
2052.683596775716,1267
2054.609398061742,1283
2056.5347359296647,1314
2058.4596106501403,1373
2060.384022493906,1304
2062.3079717317764,1320
2064.231458634646,1343
2066.1544834734873,1280
2068.077046519352,1295
2069.99914804337,1308
2071.9207883167524,1325
2073.8419676107865,1310
2075.7626861968406,1356
2077.6829443463607,1375
2079.6027423308715,1423
2081.522080421977,1310
2083.440958891362,1311
2085.359378010786,1353
2087.2773380520907,1281
2089.194839287196,1283
2091.111881988101,1357
2093.0284664268825,1330
2094.9445928756973,1317
2096.86026160678,1273
2098.775472892446,1372
2100.690227005088,1300
2102.604524217178,1270
2104.5183648012676,1301
2106.431749029985,1332
2108.34467717604,1333
2110.2571495122206,1331
2112.169166311393,1342
2114.080727846503,1307
2115.9918343905747,1290
2117.902486216711,1307
2119.8126835980956,1318
2121.722426807987,1326
2123.6317161197285,1335
2125.5405518067364,1295
2127.448934142509,1321
2129.356863400624,1309
2131.264339854737,1323
2133.1713637785815,1321
2135.077935445972,1298
2136.9840551308002,1304
2138.889723107037,1321
2140.7949396487334,1296
2142.699705030018,1290
2144.6040195250994,1273
2146.507883408264,1355
2148.4112969538774,1302
2150.3142604363848,1280
2152.2167741303097,1304
2154.1188383102535,1321
2156.0204532508997,1234
2157.9216192270064,1343
2159.822336513414,1370
2161.7226053850413,1349
2163.622426116884,1347
2165.5217989840185,1309
2167.4207242616,1329
2169.319202224862,1320
2171.2172331491165,1327
2173.1148173097563,1331
2175.0119549822507,1367
2176.90864644215,1325
2178.8048919650823,1328
2180.7006918267534,1265
2182.596046302952,1339
2184.4909556695407,1257
2186.3854202024645,1256
2188.279440177746,1328
2190.173015871487,1298
2192.066147559868,1318
2193.958835519149,1285
2195.851080025667,1293
2197.7428813558417,1318
2199.6342397861667,1309
2201.5251555932186,1288
2203.415629053651,1310
2205.3056604441986,1310
2207.19525004167,1293
2209.084398122958,1285
2210.9731049650327,1303
2212.861370844941,1299
2214.749196039812,1331
2216.636580826851,1305
2218.523525483344,1327
2220.410030286655,1332
2222.296095514226,1296
2224.1817214435805,1291
2226.066908352319,1309
2227.951656518121,1347
2229.835966218746,1308
2231.71983773203,1347
2233.6032713358913,1340
2235.486267308324,1368
2237.3688259274036,1336
2239.2509474712824,1294
2241.132632218193,1270
2243.013880446447,1335
2244.8946924344323,1304
2246.7750684606203,1366
2248.6550088035574,1328
2250.534513741871,1284
2252.413583554265,1288
2254.292218519526,1320
2256.170418916517,1297
2258.0481850241786,1279
2259.925517121534,1302
2261.8024154876825,1372
2263.678880401803,1346
2265.5549121431536,1358
2267.430510991071,1321
2269.305677224971,1305
2271.180411124348,1276
2273.0547129687766,1311
2274.9285830379076,1269
2276.8020216114737,1318
2278.6750289692845,1326
2280.5476053912294,1288
2282.4197511572766,1333
2284.2914665474727,1339
2286.162751841943,1327
2288.0336073208937,1340
2289.904033264608,1335
2291.774029953448,1342
2293.6435976678554,1329
2295.5127366883517,1339
2297.381447295534,1296
2299.2497297700825,1344
2301.1175843927526,1283
2302.9850114443825,1338
2304.852011205885,1324
2306.7185839582553,1281
2308.5847299825664,1354
2310.4504495599676,1338
2312.3157429716925,1307
2314.1806104990483,1301
2316.0450524234247,1348
2317.9090690262888,1321
2319.772660589186,1298
2321.635827393742,1335
2323.498569721661,1339
2325.3608878547248,1334
2327.2227820747967,1348
2329.0842526638157,1292
2330.945299903803,1464
2332.805924076857,1357
2334.6661254651535,1297
2336.525904350951,1322
2338.3852610165827,1334
2340.244195744464,1369
2342.102708817088,1327
2343.9608005170253,1326
2345.8184711269287,1379
2347.675720929526,1307
2349.532550207628,1349
2351.38895924412,1326
2353.24494832197,1372
2355.100517724223,1318
2356.955667734004,1304
2358.810398634514,1321
2360.664710709037,1398
2362.5186042409337,1334
2364.3720795136437,1348
2366.225136810686,1404
2368.0777764156583,1392
2369.929998612237,1337
2371.7818036841777,1365
2373.633191915315,1359
2375.484163589562,1355
2377.3347189909114,1405
2379.184858403434,1411
2381.03458211128,1343
2382.8838903986775,1334
2384.732783549936,1338
2386.5812618494406,1406
2388.4293255816588,1369
2390.2769750311327,1337
2392.1242104824883,1309
2393.971032220427,1402
2395.8174405297295,1399
2397.6634356952563,1332
2399.509018001947,1382
2401.3541877348193,1412
2403.1989451789705,1396
2405.043290619576,1343
2406.8872243418905,1343
2408.730746631247,1375
2410.5738577730594,1400
2412.4165580528183,1431
2414.258847756095,1390
2416.100727168537,1345
2417.9421965758734,1464
2419.783256263912,1375
2421.623906518538,1401
2423.4641476257157,1401
2425.303979871491,1410
2427.143403541984,1423
2428.9824189233977,1413
2430.821026302012,1383
2432.6592259641866,1368
2434.497018196361,1437
2436.33440328505,1395
2438.171381516851,1338
2440.00795317844,1481
2441.844118556569,1494
2443.6798779380724,1408
2445.5152316098606,1435
2447.3501798589255,1385
2449.1847229723357,1389
2451.0188612372403,1342
2452.8525949408663,1420
2454.6859243705203,1368
2456.518849813587,1346
2458.3513715575314,1310
2460.183489889895,1384
2462.015205098301,1384
2463.8465174704493,1398
2465.67742729412,1390
2467.5079348571717,1427
2469.338040447542,1435
2471.1677443532476,1349
2472.9970468623833,1422
2474.825948263123,1383
2476.6544488437207,1360
2478.482548892508,1425
2480.310248697896,1369
2482.137548548374,1384
2483.9644487325118,1394
2485.790949538956,1468
2487.617051256433,1389
2489.44275417375,1427
2491.26805857979,1453
2493.0929647635157,1344
2494.917473013971,1376
2496.741583620276,1427
2498.5652968716304,1440
2500.3886130573137,1383
2502.2115324666834,1408
2504.0340553891765,1392
2505.856182114308,1435
2507.6779129316733,1405
2509.499248130945,1390
2511.3201880018764,1443
2513.140732834298,1410
2514.9608829181198,1449
2516.780638543331,1382
2518.6,1412
2520.418967578273,1422
2522.237541568376,1435
2524.0557222606144,1424
2525.8735099453706,1466
2527.6909049131086,1349
2529.507907454368,1400
2531.32451785977,1414
2533.140736420014,1467
2534.9565634258774,1427
2536.771999168218,1463
2538.5870439379714,1506
2540.4016980261526,1474
2542.2159617238544,1489
2544.02983532225,1528
2545.8433191125914,1472
2547.656413386209,1462
2549.4691184345115,1476
2551.2814345489874,1455
2553.093362021204,1475
2554.904901142808,1461
2556.716052205523,1547
2558.526815501153,1467
2560.3371913215824,1588
2562.147179958771,1493
2563.956781704761,1559
2565.7659968516705,1591
2567.5748256916986,1621
2569.3832685171224,1518
2571.1913256202984,1528
2572.9989972936614,1494
2574.806283829725,1532
2576.613185521084,1588
2578.4197026604074,1602
2580.2258355404483,1608
2582.031584454035,1567
2583.836949694077,1610
2585.6419315535613,1634
2587.4465303255533,1575
2589.2507463032002,1663
2591.0545797797245,1634
2592.8580310484303,1594
2594.6611004026995,1683
2596.463788135992,1620
2598.266094541849,1623
2600.0680199138874,1639
2601.869564545807,1642
2603.670728731383,1565
2605.4715127644704,1712
2607.2719169390048,1758
2609.071941548998,1671
2610.8715868885433,1679
2612.670853251811,1690
2614.469740933052,1707
2616.268250226594,1660
2618.0663814268455,1674
2619.864134828292,1621
2621.6615107255006,1652
2623.458509413115,1632
2625.2551311858597,1621
2627.0513763385347,1636
2628.8472451660223,1610
2630.6427379632833,1639
2632.4378550253564,1576
2634.232596647359,1540
2636.026963124488,1564
2637.8209547520187,1591
2639.6145718253065,1620
2641.407814639785,1633
2643.200683490966,1592
2644.9931786744414,1548
2646.7853004858807,1560
2648.577049221034,1573
2650.3684251757277,1529
2652.1594286458712,1607
2653.9500599274484,1531
2655.740319316525,1574
2657.5302071092437,1504
2659.3197236018286,1501
2661.10886909058,1422
2662.8976438718782,1520
2664.686048242183,1494
2666.4740824980327,1506
2668.2617469360443,1464
2670.0490418529134,1451
2671.8359675454153,1544
2673.622524310403,1419
2675.408712444811,1448
2677.1945322456495,1433
2678.979984010009,1420
2680.76506803506,1432
2682.5497846180497,1462
2684.334134056306,1423
2686.1181166472343,1453
2687.9017326883213,1392
2689.6849824771293,1417
2691.4678663113013,1412
2693.2503844885596,1409
2695.032537306705,1396
2696.8143250636167,1408
2698.5957480572542,1402
2700.3768065856534,1405
2702.1575009469316,1378
2703.937831439283,1423
2705.717798360982,1392
2707.4974020103837,1422
2709.276642685917,1382
2711.055520686095,1373
2712.834036309506,1388
2714.612189854819,1356
2716.389981620782,1355
2718.1674119062204,1403
2719.944481010041,1361
2721.721189231226,1373
2723.4975368688415,1381
2725.273524222027,1296
2727.0491515900053,1347
2728.824419272075,1327
2730.5993275676146,1331
2732.3738767760838,1358
2734.148067197016,1361
2735.921899130031,1387
2737.6953728748194,1353
2739.468488731156,1283
2741.2412469988926,1326
2743.0136479779617,1345
2744.785691968372,1347
2746.5573792702116,1360
2748.3287101836504,1305
2750.099685008934,1364
2751.870304046388,1356
2753.640567596418,1369
2755.4104759595057,1328
2757.1800294362156,1349
2758.949228327187,1381
2760.7180729331412,1308
2762.486563554877,1321
2764.254700493272,1317
2766.022484049284,1296
2767.789914523947,1358
2769.5569922183786,1312
2771.3237174337705,1331
2773.090090471394,1334
2774.8561116326036,1343
2776.6217812188274,1305
2778.3870995315756,1349
2780.1520668724356,1312
2781.9166835430747,1352
2783.6809498452394,1369
2785.444866080754,1337
2787.2084325515225,1315
2788.971649559527,1263
2790.73451740683,1299
2792.4970363955713,1328
2794.2592068279705,1323
2796.0210290063264,1364
2797.7825032330147,1320
2799.543629810493,1379
2801.304409041296,1338
2803.0648412280366,1332
2804.8249266734088,1339
2806.5846656801846,1279
2808.344058551212,1339
2810.1031055894246,1355
2811.8618070978273,1342
2813.6201633795085,1348
2815.378174737636,1321
2817.1358414754536,1330
2818.893163896285,1359
2820.6501423035334,1320
2822.4067770006814,1361
2824.1630682912883,1289
2825.9190164789957,1350
2827.6746218675207,1331
2829.429884760661,1335
2831.184805462294,1347
2832.9393842763743,1348
2834.693621506936,1326
2836.4475174580916,1305
2838.201072434034,1371
2839.954286739034,1333
2841.707160677441,1300
2843.459694553685,1371
2845.2118886722724,1372
2846.96374333779,1323
2848.7152588549034,1329
2850.4664355283567,1334
2852.217273662973,1296
2853.9677735636546,1347
2855.7179355353833,1363
2857.4677598832186,1332
2859.217246912299,1328
2860.9663969278427,1355
2862.715210235146,1377
2864.4636871395846,1282
2866.211827946614,1322
2867.9596329617652,1347
2869.7071024906536,1372
2871.4542368389684,1333
2873.20103631248,1305
2874.947501217038,1285
2876.6936318585695,1306
2878.4394285430812,1288
2880.1848915766604,1342
2881.9300212654707,1373
2883.6748179157553,1302
2885.4192818338374,1369
2887.1634133261173,1379
2888.907212699077,1320
2890.6506802592744,1343
2892.393816313348,1265
2894.1366211680142,1325
2895.8790951300693,1356
2897.621238506388,1249
2899.363051603925,1309
2901.1045347297118,1379
2902.8456881908596,1304
2904.58651229456,1325
2906.327007348081,1289
2908.067173658772,1346
2909.8070115340597,1319
2911.5465212814497,1303
2913.285703208527,1264
2915.0245576229563,1309
2916.7630848324807,1292
2918.5012851449196,1379
2920.2391588681758,1339
2921.976706310227,1332
2923.7139277791334,1318
2925.4508235830313,1294
2927.187394030137,1333
2928.923639428745,1295
2930.6595600872306,1297
2932.395156314046,1324
2934.1304284177218,1299
2935.8653767068713,1325
2937.6000014901815,1327
2939.3343030764227,1338
2941.068281774442,1321
2942.8019378931644,1315
2944.5352717415976,1331
2946.2682836288236,1306
2948.0009738640065,1267
2949.7333427563885,1321
2951.465390615289,1364
2953.1971177501086,1347
2954.9285244703265,1301
2956.6596110855,1397
2958.3903779052657,1314
2960.1208252393385,1345
2961.8509533975125,1311
2963.5807626896617,1321
2965.3102534257378,1289
2967.0394259157715,1341
2968.768280469873,1238
2970.496817398232,1328
2972.2250370111146,1323
2973.952939618869,1321
2975.6805255319196,1267
2977.4077950607707,1361
2979.134748516006,1401
2980.861386208289,1321
2982.587708448359,1335
2984.313715547037,1309
2986.039407815222,1325
2987.764785563891,1381
2989.489849104102,1298
2991.2145987469908,1313
2992.9390348037705,1368
2994.6631575857346,1340
2996.3869674042576,1343
2998.1104645707887,1300
2999.83364939686,1321
3001.5565221940783,1339
3003.2790832741334,1333
3005.0013329487924,1296
3006.7232715298996,1340
3008.4448993293804,1296
3010.166216659239,1305
3011.887223831558,1335
3013.607921158498,1272
3015.3283089522993,1297
3017.0483875252826,1264
3018.7681571898443,1294
3020.4876182584626,1324
3022.2067710436927,1294
3023.9256158581707,1322
3025.644153014609,1268
3027.362382825801,1300
3029.0803056046193,1309
3030.797921664012,1328
3032.5152313170106,1300
3034.2322348767225,1338
3035.9489326563353,1304
3037.665324969115,1281
3039.3814121284063,1277
3041.097194447633,1293
3042.812672240299,1330
3044.5278458199855,1305
3046.2427155003525,1326
3047.9572815951406,1253
3049.671544418167,1305
3051.38550428333,1298
3053.0991615046073,1261
3054.812516396051,1295
3056.5255692717974,1300
3058.2383204460575,1317
3059.9507702331257,1291
3061.662918947372,1311
3063.3747669032446,1314
3065.0863144152736,1321
3066.7975617980674,1358
3068.508509366309,1321
3070.219157434767,1272
3071.9295063182844,1296
3073.639556331785,1313
3075.3493077902704,1261
3077.058761008821,1357
3078.7679163025964,1305
3080.476773986837,1333
3082.1853343768594,1314
3083.89359778806,1339
3085.6015645359153,1347
3087.3092349359786,1319
3089.016609303884,1355
3090.7236879553434,1307
3092.4304712061476,1314
3094.136959372166,1335
3095.843152769349,1301
3097.5490517137237,1273
3099.2546565213966,1265
3100.959967508554,1363
3102.66498499146,1311
3104.3697092864577,1315
3106.0741407099695,1301
3107.778279578498,1353
3109.482126208622,1323
3111.1856809170004,1341
3112.8889440203716,1326
3114.5919158355528,1312
3116.294596679439,1296
3117.996986869006,1312
3119.6990867213062,1333
3121.4008965534726,1307
3123.102416682717,1300
3124.803647426329,1331
3126.5045891016784,1332
3128.205242026213,1358
3129.90560651746,1305
3131.605682893025,1303
3133.3054714705922,1301
3135.0049725679282,1371
3136.7041865028714,1357
3138.4031135933465,1311
3140.101754157353,1345
3141.800108512971,1299
3143.498176978357,1317
3145.1959598717494,1309
3146.8934575114636,1319
3148.5906702158954,1250
3150.2875983035183,1309
3151.9842420928853,1341
3153.680601902627,1370
3155.376678051456,1257
3157.07247085816,1276
3158.767980641609,1303
3160.463207720748,1294
3162.158152414606,1291
3163.8528150422862,1350
3165.5471959229726,1275
3167.2412953759303,1346
3168.9351137204976,1302
3170.628651276098,1257
3172.3219083622307,1325
3174.014885298474,1321
3175.707582404485,1322
3177.4000000000005,1313
3179.092138404835,1281
3180.7839979388846,1324
3182.47557892212,1326
3184.166881674594,1288
3185.8579065164386,1324
3187.5486537678626,1342
3189.2391237491547,1292
3190.9293167806827,1296
3192.6192331828934,1289
3194.3088732763117,1281
3195.998237381542,1370
3197.687325819268,1246
3199.376138910251,1333
3201.064676975334,1323
3202.7529403354347,1301
3204.4409293115523,1289
3206.1286442247647,1323
3207.816085396229,1290
3209.5032531471825,1320
3211.190147798936,1322
3212.8767696728846,1319
3214.5631190905015,1319
3216.2491963733373,1263
3217.9350018430214,1259
3219.6205358212637,1263
3221.305798629851,1319
3222.990790590651,1275
3224.6755120256103,1259
3226.359963256751,1250
3228.0441446061795,1289
3229.7280563960758,1266
3231.411698948703,1280
3233.0950725863995,1363
3234.778177631587,1313
3236.461014406761,1319
3238.1435832345005,1319
3239.8258844374595,1333
3241.507918338374,1279
3243.1896852600576,1306
3244.8711855254023,1288
3246.552419457381,1329
3248.233387379042,1259
3249.914089613516,1311
3251.59452648401,1303
3253.274698313813,1235
3254.95460542629,1272
3256.6342481448855,1254
3258.313626793125,1274
3259.9927416946084,1302
3261.6715931730196,1288
3263.3501815521176,1304
3265.0285071557437,1274
3266.706570307815,1237
3268.3843713323286,1279
3270.0619105533615,1237
3271.739188295068,1248
3273.4162048816834,1300
3275.0929606375184,1282
3276.769455886966,1275
3278.445690954498,1268
3280.1216661646613,1288
3281.797381842087,1280
3283.4728383114807,1283
3285.1480358976296,1313
3286.8229749253996,1237
3288.4976557197333,1253
3290.172078605655,1262
3291.846243908266,1240
3293.5201519527463,1259
3295.193803064357,1252
3296.8671975684374,1299
3298.5403357904024,1251
3300.21321805575,1235
3301.8858446900567,1289
3303.558216018975,1298
3305.23033236824,1310
3306.9021940636603,1291
3308.57380143113,1292
3310.2451547966184,1273
3311.916254486174,1263
3313.5871008259246,1243
3315.2576941420766,1257
3316.9280347609147,1290
3318.5981230088046,1242
3320.2679592121895,1287
3321.9375436975924,1263
3323.606876791612,1289
3325.27595882093,1221
3326.944790112305,1289
3328.6133709925753,1297
3330.2817017886573,1300
3331.949782827547,1234
3333.617614436319,1296
3335.2851969421245,1258
3336.952530672199,1271
3338.619615953853,1243
3340.286453114475,1259
3341.9530424815357,1318
3343.619384382583,1313
3345.2854791452437,1313
3346.951327097224,1284
3348.6169285663073,1315
3350.2822838803577,1260
3351.947393367319,1242
3353.61225735521,1264
3355.2768761721345,1296
3356.9412501462693,1234
3358.605379605873,1321
3360.2692648792827,1317
3361.9329062949146,1270
3363.596304181263,1255
