CollectionTime,6/26/2024 2:56:26 PM
ExposureUsed,3
CalibratedSpectrum
-962.7078968117929,682
-959.9714848408522,761
-957.2358232597828,707
-954.5009119013725,736
-951.7667505983302,741
-949.0333391832855,735
-946.3006774887896,735
-943.5687653473143,744
-940.837602591253,783
-938.1071890529199,745
-935.3775245645503,757
-932.6486089583007,770
-929.9204420662485,801
-927.1930237203925,766
-924.4663537526524,752
-921.7404319948689,695
-919.0152582788041,739
-916.2908324361409,818
-913.5671542984834,832
-910.8442236973568,790
-908.1220404642074,847
-905.4006044304027,768
-902.679915427231,799
-899.959973285902,793
-897.2407778375464,768
-894.5223289132158,806
-891.8046263438832,765
-889.0876699604426,771
-886.3714595937089,730
-883.6559950744183,744
-880.9412762332282,731
-878.2273029007168,738
-875.5140749073835,749
-872.8015920836489,763
-870.0898542598545,720
-867.3788612662631,714
-864.6686129330585,708
-861.9591090903457,705
-859.2503495681506,680
-856.5423341964203,723
-853.8350628050229,729
-851.1285352237478,712
-848.4227512823054,717
-845.7177108103272,681
-843.0134136373656,749
-840.3098595928943,784
-837.6070485063082,726
-834.9049802069229,702
-832.2036545239757,716
-829.5030712866244,746
-826.8032303239481,750
-824.1041314649472,717
-821.4057745385428,711
-818.7081593735775,702
-816.0112857988148,664
-813.3151536429393,721
-810.6197627345566,757
-807.9251129021936,689
-805.2312039742981,677
-802.5380357792392,696
-799.8456081453069,697
-797.1539209007124,733
-794.462973873588,727
-791.772766891987,699
-789.083299783884,705
-786.3945723771743,725
-783.7065844996748,744
-781.0193359791231,717
-778.3328266431781,730
-775.6470563194197,771
-772.9620248353489,750
-770.2777320183878,712
-767.5941776958798,712
-764.9113616950891,780
-762.2292838432011,776
-759.5479439673222,726
-756.8673418944801,735
-754.1874774516235,746
-751.5083504656222,710
-748.8299607632671,730
-746.15230817127,735
-743.475392516264,747
-740.7992136248035,732
-738.1237713233636,709
-735.4490654383407,721
-732.7750957960521,798
-730.1018622227365,728
-727.4293645445534,728
-724.7576025875837,786
-722.0865761778291,743
-719.4162851412126,786
-716.7467293035781,756
-714.0779084906909,765
-711.409822528237,781
-708.7424712418238,792
-706.0758544569796,763
-703.4099719991541,838
-700.7448236937178,816
-698.0804093659622,820
-695.4167288411002,753
-692.7537819442656,770
-690.0915685005134,865
-687.4300883348199,820
-684.7693412720819,791
-682.1093271371178,791
-679.4500457546669,755
-676.7914969493897,757
-674.1336805458676,807
-671.4765963686034,818
-668.8202442420206,795
-666.1646239904642,796
-663.5097354382001,840
-660.8555784094151,816
-658.2021527282176,803
-655.5494582186366,857
-652.8974947046223,901
-650.2462620100463,852
-647.5957599587009,872
-644.9459883742998,875
-642.2969470804776,879
-639.6486359007902,856
-637.0010546587141,855
-634.3542031776476,869
-631.7080812809096,870
-629.0626887917401,820
-626.4180255333008,841
-623.7740913286734,853
-621.1308860008619,807
-618.4884093727904,828
-615.8466612673046,829
-613.2056415071715,826
-610.5653499150785,827
-607.9257863136347,853
-605.28695052537,824
-602.6488423727357,796
-600.0114616781036,864
-597.3748082637674,886
-594.7388819519412,859
-592.1036825647604,916
-589.4692099242818,870
-586.8354638524829,860
-584.2024441712624,886
-581.5701507024403,852
-578.9385832677575,853
-576.3077416888759,915
-573.6776257873787,870
-571.0482353847704,861
-568.4195703024757,888
-565.7916303618415,931
-563.164415384135,918
-560.5379251905453,859
-557.9121596021815,817
-555.2871184400748,856
-552.6628015251767,895
-550.0392086783606,902
-547.4163397204204,887
-544.794194472071,903
-542.1727727539491,922
-539.5520743866118,919
-536.9320991905377,986
-534.3128469861261,980
-531.6943175936979,1009
-529.0765108334947,1043
-526.4594265256793,1138
-523.8430644903358,1210
-521.2274245474689,1418
-518.612506517005,1535
-515.9983102187913,1531
-513.3848354725959,1610
-510.77208209810846,1746
-508.16004991493924,1793
-505.5487387426199,1913
-502.9381484006032,2072
-500.3282787082628,2121
-497.71912948489364,2288
-495.1107005497117,2249
-492.5029917218539,2305
-489.8960028203786,2200
-487.28973366426493,1998
-484.68418407241325,1784
-482.07935386364494,1536
-479.47524285670266,1503
-476.87185087025,1395
-474.2691777228715,1399
-471.66722323307334,1316
-469.0659872192821,1251
-466.4654694998459,1218
-463.86566989303384,1176
-461.26658821703614,1138
-458.66822428996414,1134
-456.07057792985,1196
-453.4736489546475,1233
-450.877437182231,1185
-448.28194243039627,1155
-445.68716451686,1184
-443.09310325926003,1155
-440.49975847515555,1085
-437.9071299820263,1064
-435.31521759727354,1088
-432.72402113821954,1087
-430.13354042210767,1179
-427.5437752661022,1140
-424.95472548728867,1218
-422.36639090267386,1237
-419.7787713291855,1228
-417.1918665836721,1187
-414.60567648290385,1221
-412.0202008435715,1259
-409.4354394822874,1218
-406.8513922155845,1218
-404.26805885991723,1195
-401.685439231661,1252
-399.103533147112,1177
-396.522340422488,1163
-393.9418608739278,1214
-391.3620943174908,1238
-388.7830405691583,1218
-386.2046994448317,1224
-383.6270707603344,1135
-381.05015433141045,1033
-378.473949973725,969
-375.8984575028645,979
-373.32367673433623,848
-370.74960748356875,836
-368.1762495659117,752
-365.60360279663576,677
-363.03166699093265,679
-360.4604419639154,665
-357.8899275306178,605
-355.32012350599507,593
-352.7510297049233,554
-350.1826459421999,567
-347.61497203254316,593
-345.04800779059235,595
-342.4817530309082,539
-339.91620756797226,551
-337.35137121618743,528
-334.7872437898774,549
-332.22382510328725,607
-329.66111497058273,592
-327.09911320585127,577
-324.53781962310075,556
-321.9772340362607,529
-319.4173562591816,596
-316.8581861056348,665
-314.2997233893127,667
-311.7419679238294,635
-309.1849195227194,699
-306.62857799943856,619
-304.0729431673641,528
-301.51801483979375,564
-298.963792829947,579
-296.41027695096386,601
-293.85746701590574,594
-291.3053628377552,648
-288.7539642294155,622
-286.2032710037115,692
-283.65328297338897,666
-281.1039999511146,672
-278.5554217494762,743
-276.007548180983,738
-273.4603790580651,715
-270.9139141930734,661
-268.3681533982807,658
-265.8230964858798,725
-263.27874326798565,672
-260.7350935566336,740
-258.1921471637804,800
-255.6499039013039,942
-253.10836358100266,773
-250.56752601459698,784
-248.02739101372765,864
-245.48795838995704,827
-242.94922795476816,808
-240.41119951956557,745
-237.8738728956746,902
-235.33724789434166,1001
-232.80132432673452,1061
-230.2661020039418,1093
-227.73158073697357,1123
-225.19776033676033,907
-222.66464061415422,835
-220.1322213799284,886
-217.60050244477725,830
-215.06948361931552,883
-212.53916471408013,902
-210.00954553952818,928
-207.48062590603843,921
-204.9524056239104,955
-202.4248845033651,860
-199.8980623545441,810
-197.37193898751036,903
-194.84651421224817,965
-192.32178783866232,979
-189.79775967657952,973
-187.27442953574644,944
-184.7517972258321,1051
-182.2298625564256,1034
-179.7086253370378,1097
-177.18808537710026,1143
-174.66824248596583,1205
-172.14909647290835,1224
-169.6306471471229,1244
-167.11289431772548,1075
-164.59583779375328,1032
-162.07947738416453,1087
-159.5638128978386,1139
-157.04884414357605,1303
-154.53457093009854,1434
-152.02099306604828,1194
-149.50811035998936,1317
-146.99592262040665,1285
-144.48442965570587,1317
-141.97363127421409,1352
-139.46352728417958,1324
-136.95411749377126,1331
-134.44540171107985,1430
-131.93737974411636,1436
-129.43005140081357,1458
-126.92341648902493,1452
-124.41747481652521,1478
-121.91222619101006,1404
-119.40767042009657,1249
-116.90380731132257,1268
-114.40063667214702,1515
-111.8981583099503,1861
-109.3963720320337,1799
-106.89527764561933,1558
-104.39487495785067,1629
-101.89516377579241,1617
-99.39614390642998,1740
-96.89781515667039,1762
-94.40017733334128,2162
-91.90323024319173,2091
-89.40697369289148,2071
-86.91140748903172,1869
-84.41653143812482,1797
-81.92234534660395,2081
-79.42884902082358,2156
-76.93604226705907,2043
-74.4439248915071,2019
-71.95249670028534,2042
-69.46175749943245,2333
-66.97170709490854,2483
-64.48234529259423,2760
-61.99367189829195,2633
-59.50568671772464,2889
-57.01838955653636,3440
-54.53178022029283,3263
-52.045858514480074,3314
-49.560624244506016,3617
-47.07607721569923,3479
-44.59221723330904,3726
-42.10904410250669,3607
-39.62655762838392,4238
-37.14475761595372,4745
-34.66364387015028,5187
-32.18321619582866,5871
-29.70347439776515,7219
-27.224418280657005,9619
-24.74604764912317,13201
-22.26836230770266,18488
-19.7913620608565,31284
-17.315046712966478,45476
-14.83941606833514,50123
-12.36446993118659,65039
-9.89020810566592,65039
-7.416630395839093,65039
-4.94373660569363,65039
-2.471526539137585,65039
-6.821210263296962E-13,65039
2.47084320796705,65039
4.941003281093458,65039
7.410480415786196,65039
9.879274808531363,65039
12.347386655893956,65039
14.814816154518212,65039
17.28156350112681,65039
19.74762889252179,65039
22.21301252558385,65039
24.67771459727237,65039
27.141735304626195,65039
29.605074844762612,37398
32.06773341487792,14779
34.52971121224755,10392
36.99100843422559,11071
39.45162527824516,11500
41.91156194181792,11553
44.370818622535126,14595
46.82939551806646,15370
49.287292826160524,13700
51.74451074464503,11272
54.201049471426245,6928
56.65690920448981,4370
59.112090141899785,4066
61.56659248179983,4130
64.02041642241159,3678
66.4735621620365,3180
68.92602989905402,2560
71.37781983192338,2509
73.82893215918205,3092
76.27936707944684,2939
78.72912479141326,3086
81.17820549385567,3080
83.62660938562783,3427
86.07433666566146,3284
88.5213875329681,3379
90.96776218663751,2928
93.41346082583925,3057
95.85848364982041,2821
98.30283085790859,2221
100.7465026495089,2174
103.18949922410604,2233
105.63182078126385,2056
108.07346752062438,1905
110.51443964190923,2345
112.95473734491827,1949
115.39436082953114,1701
117.83331029570547,1841
120.27158594347827,2368
122.7091879729652,1783
125.1461165843615,1397
127.58237197794062,1420
130.01795435405518,1236
132.4528639131364,1336
134.88710085569494,1761
137.32066538231982,1731
139.75355769367923,1486
142.1857779905207,1587
144.61732647366978,1534
147.04820334403132,1458
149.47840880258934,1480
151.90794305040674,1725
154.33680628862487,1696
156.76499871846443,1703
159.19252054122433,1884
161.61937195828352,1985
164.04555317109896,1959
166.47106438120693,2270
168.89590579022217,2470
171.320077599839,2732
173.7435800118302,2560
176.16641322804742,2607
178.58857745042144,2760
181.01007288096173,2968
183.43089972175687,2879
185.85105817497413,2890
188.27054844285988,2963
190.6893707277394,3106
193.10752523201643,3041
195.5250121581745,3220
197.9418317087751,3266
200.3579840864594,3266
202.7734694939469,3231
205.18828813403627,3175
207.6024402096051,3107
210.01592592360964,3290
212.42874547908548,3122
214.84089907914665,3090
217.2523869269868,3074
219.66320922587727,3195
222.0733661791695,3092
224.48285799029293,3058
226.8916848627572,3130
229.29984700014882,3233
231.7073446061355,3204
234.11417788446204,3244
236.520347038953,3400
238.92585227351185,3352
241.33069379212054,3468
243.73487179884035,3580
246.1383864978112,3488
248.541238093252,3233
250.9434267894609,3248
253.34495279081432,3395
255.74581630176783,3416
258.1460175268563,3510
260.54555667069314,3488
262.9444339379703,3412
265.3426495334594,3324
267.7402036620107,3280
270.1370965285529,3281
272.53332833809407,3077
274.9288992957214,3127
277.32380960660055,3189
279.718059475976,2994
282.1116491091717,3048
284.5045787115897,3176
286.89684848871195,3163
289.2884586460981,3161
291.67940938938807,3095
294.0697009242996,3026
296.4593334566299,3033
298.84830719225477,2929
301.23662233712923,2982
303.6242790972866,2882
306.01127767884,2905
308.39761828798066,2911
310.78330113097934,2975
313.16832641418534,2773
315.5526943440269,2758
317.9364051270112,2770
320.3194589697242,2734
322.70185607883093,2710
325.0835966610754,2699
327.4646809232805,2680
329.8451090723478,2680
332.2248813152577,2756
334.6039978590701,2649
336.9824589109231,2694
339.36026467803447,2582
341.7374153677,2585
344.113911187295,2546
346.48975234427337,2579
348.8649390461686,2448
351.2394715005918,2400
353.61334991523415,2501
355.9865744978655,2528
358.35914545633375,2500
360.73106299856715,2464
363.10232733257146,2427
365.47293866643247,2507
367.84289720831396,2484
370.2122031664593,2530
372.5808567491905,2388
374.9488581649083,2418
377.31620762209275,2396
379.6829053293021,2402
382.0489514951745,2470
384.4143463284262,2394
386.7790900378528,2391
389.14318283232853,2418
391.50662492080653,2335
393.86941651231916,2333
396.23155781597745,2343
398.5930490409713,2277
400.9538903965696,2340
403.3140820921202,2355
405.6736243370498,2238
408.03251734086336,2346
410.3907613131465,2281
412.74835646356166,2250
415.10530300185144,2258
417.4616011378372,2343
419.81725108141893,2298
422.1722530425758,2350
424.5266072313656,2232
426.880313857925,2233
429.2333731324701,2263
431.58578526529516,2268
433.9375504667738,2188
436.2886689473588,2220
438.63914091758113,2279
440.9889665880513,2235
443.33814616945835,2329
445.68667987257015,2246
448.03456790823395,2230
450.3818104873759,2261
452.72840782100013,2246
455.07436012019105,2193
457.41966759611057,2206
459.7643304600007,2167
462.10834892318155,2226
464.4517231970525,2306
466.79445349309174,2326
469.1365400228566,2286
471.4779829979826,2273
473.81878263018564,2367
476.15893913125876,2245
478.4984527130747,2420
480.8373235875855,2401
483.17555196682144,2456
485.5131380628919,2549
487.8500820879857,2670
490.1863842543697,2968
492.52204477439034,3141
494.8570638604725,3475
497.1914417251204,3716
499.52517858091653,3851
501.85827464052306,3987
504.19073011668036,3943
506.5225452222086,3825
508.85372017000566,3676
511.18425517304956,3541
513.514150444396,3755
515.8434061971808,4188
518.1720226446176,4778
520.4999999999999,5380
522.8273384766991,5570
525.1540382881666,5740
527.480099647932,5662
529.8055227696037,4776
532.1303078668694,3436
534.454455153496,2682
536.777964843328,2355
539.1008371502907,2177
541.4230722883866,2212
543.744670471698,2145
546.0656319143858,2120
548.3859568306899,2078
550.7056454349294,2131
553.0246979415016,2001
555.3431145648834,2010
557.6608955196306,1971
559.978041020377,1977
562.2945512818363,1981
564.6104265188006,1897
566.9256669461412,1970
569.2402727788082,1963
571.5542442318302,1980
573.8675815203156,1996
576.1802848594508,1997
578.4923544645015,2048
580.8037905508126,1954
583.114593333807,1950
585.4247630289875,1953
587.7342998519354,1966
590.0432040183106,1974
592.3514757438526,2075
594.6591152443794,1921
596.9661227357875,1945
599.2724984340531,1977
601.578242555231,1992
603.8833553154542,1994
606.1878369309362,1990
608.4916876179676,2037
610.7949075929192,2060
613.0974970722403,2068
615.3994562724587,1969
617.7007854101818,2018
620.0014847020951,1981
622.3015543649641,2048
624.6009946156324,1958
626.8998056710224,1946
629.1979877481361,1981
631.4955410640538,1925
633.7924658359349,1985
636.0887622810175,1974
638.3844306166192,1960
640.6794710601358,2049
642.9738838290426,1973
645.2676691408932,1964
647.5608272133207,1992
649.853358264037,2142
652.1452625108324,2023
654.4365401715764,1982
656.7271914642178,2050
659.0172166067838,2069
661.3066158173809,1998
663.5953893141935,2027
665.8835373154867,2081
668.1710600396028,2019
670.4579577049639,2079
672.7442305300709,2013
675.0298787335033,2119
677.3149025339197,2064
679.599302150058,2070
681.8830778007342,2134
684.1662297048437,1955
686.4487580813608,2066
688.7306631493387,2050
691.0119451279091,1982
693.2926042362834,2069
695.5726406937516,2045
697.8520547196814,2066
700.1308465335215,2063
702.4090163547982,2018
704.6865644031171,2069
706.9634908981619,2091
709.2397960596965,2069
711.5154801075631,2062
713.7905432616823,2010
716.0649857420548,2015
718.3388077687592,2022
720.612009561953,1980
722.8845913418733,1981
725.1565533288352,2049
727.427895743234,2095
729.6986188055427,2035
731.9687227363137,2054
734.238207756178,2033
736.5070740858458,2042
738.7753219461066,1977
741.0429515578281,2046
743.3099631419569,2001
745.5763569195191,2040
747.8421331116193,2045
750.1072919394409,2082
752.3718336242467,2015
754.6357583873777,2060
756.8990664502545,2034
759.1617580343765,1949
761.423833361321,2099
763.6852926527457,1998
765.9461361303862,2034
768.206364016058,2034
770.4659765316536,2009
772.7249738991469,2054
774.9833563405886,2049
777.2411240781092,2078
779.4982773339183,2161
781.7548163303044,2104
784.010741289634,2092
786.2660524343538,2186
788.5207499869881,2082
790.7748341701416,2079
793.0283052064964,2072
795.2811633188143,2070
797.5334087299362,2120
799.7850416627813,2145
802.0360623403484,2137
804.2864709857143,2056
806.5362678220353,2120
808.7854530725468,2194
811.0340269605625,2150
813.2819897094754,2128
815.5293415427581,2075
817.77608268396,2074
820.0222133567116,2048
822.2677337847211,2027
824.5126441917765,2087
826.7569448017433,2062
829.0006358385675,2105
831.2437175262731,2103
833.4861900889629,2151
835.7280537508192,2124
837.9693087361026,2139
840.2099552691533,2108
842.4499935743896,2116
844.689423876309,2050
846.9282463994886,2072
849.1664613685833,2092
851.4040690083276,2099
853.6410695435349,2103
855.877463199097,2038
858.1132501999847,2105
860.3484307712487,2084
862.5830051380175,2092
864.8169735254988,2136
867.0503361589791,2110
869.2830932638243,2116
871.5152450654786,2048
873.7467917894654,2107
875.9777336613873,2146
878.2080709069252,2180
880.4378037518389,2138
882.666932421968,2143
884.8954571432301,2171
887.1233781416219,2198
889.3506956432192,2141
891.5774098741766,2217
893.803521060728,2146
896.0290294291852,2103
898.2539352059397,2171
900.4782386174619,2232
902.7019398903011,2196
904.925039251085,2235
907.147536926521,2147
909.3694331433943,2092
911.59072812857,2078
913.8114221089921,2139
916.0315153116827,2105
918.2510079637437,2124
920.4699002923547,2146
922.6881925247761,2025
924.905884888345,2152
927.1229776104793,2099
929.3394709186747,2139
931.555365040506,2084
933.7706602036275,2116
935.9853566357709,2047
938.1994545647489,2048
940.4129542184515,2039
942.6258558248488,2088
944.8381596119883,2057
947.0498658079974,2131
949.2609746410825,2145
951.4714863395287,1980
953.6814011316998,2034
955.8907192460387,2042
958.0994409110671,2022
960.3075663553858,2104
962.5150958076741,2052
964.7220294966913,2032
966.928367651274,1994
969.1341105003388,1969
971.3392582728806,1975
973.5438111979742,1966
975.747769504772,2014
977.9511334225061,1970
980.153903180487,1942
982.3560790081052,1906
984.5576611348289,2023
986.7586497902058,1960
988.9590452038618,1917
991.158847605503,2003
993.3580572249133,1878
995.5566742919558,1894
997.7546990365728,1812
999.952131688785,1869
1002.1489724786926,1814
1004.3452216364743,1812
1006.5408793923874,1789
1008.7359459767691,1725
1010.9304216200343,1793
1013.1243065526781,1809
1015.3176010052733,1744
1017.510305208472,1788
1019.7024193930064,1734
1021.8939437896848,1790
1024.0848786293977,1668
1026.2752241431122,1695
1028.4649805618747,1749
1030.6541481168115,1698
1032.842727039127,1629
1035.0307175601051,1663
1037.2181199111074,1638
1039.4049343235752,1605
1041.591161029029,1678
1043.7768002590683,1645
1045.9618522453698,1607
1048.1463172196918,1666
1050.3301954138697,1599
1052.513487059818,1606
1054.69619238953,1692
1056.8783116350783,1618
1059.0598450286152,1671
1061.2407928023704,1604
1063.4211551886528,1621
1065.6009324198508,1647
1067.780124728432,1569
1069.9587323469414,1664
1072.1367555080046,1655
1074.314194444325,1602
1076.4910493886855,1580
1078.667320573947,1647
1080.843008233051,1595
1083.0181125990161,1584
1085.1926339049414,1540
1087.3665723840027,1551
1089.5399282694575,1553
1091.7127017946405,1572
1093.8848931929647,1630
1096.0565026979243,1555
1098.2275305430899,1564
1100.3979769621128,1552
1102.567842188722,1604
1104.737126456726,1506
1106.9058300000124,1520
1109.0739530525475,1528
1111.2414958483764,1470
1113.4084586216231,1491
1115.5748416064907,1539
1117.7406450372605,1559
1119.9058691482942,1490
1122.0705141740304,1555
1124.2345803489884,1532
1126.3980679077658,1528
1128.5609770850388,1506
1130.7233081155623,1519
1132.8850612341707,1494
1135.0462366757774,1504
1137.2068346753745,1438
1139.3668554680326,1464
1141.526299288901,1504
1143.68516637321,1506
1145.8434569562655,1537
1148.001171273455,1473
1150.158309560244,1489
1152.3148720521767,1439
1154.470858984876,1455
1156.626270594044,1423
1158.7811071154629,1404
1160.9353687849912,1467
1163.089055838569,1498
1165.242168512213,1516
1167.3947070420209,1512
1169.5466716641677,1496
1171.6980626149075,1476
1173.8488801305748,1454
1175.9991244475814,1505
1178.1487958024186,1483
1180.2978944316555,1424
1182.4464205719428,1487
1184.5943744600072,1478
1186.7417563326567,1461
1188.8885664267755,1441
1191.0348049793297,1466
1193.1804722273619,1492
1195.325568407995,1408
1197.4700937584303,1491
1199.614048515948,1456
1201.7574329179074,1515
1203.900247201746,1443
1206.042491604982,1477
1208.1841663652099,1443
1210.3252717201053,1450
1212.465807907422,1458
1214.6057751649923,1456
1216.7451737307279,1489
1218.8840038426192,1476
1221.0222657387353,1534
1223.1599596572241,1501
1225.2970858363137,1528
1227.4336445143094,1488
1229.5696359295966,1503
1231.705060320639,1528
1233.8399179259786,1439
1235.9742089842384,1472
1238.107933734118,1441
1240.2410924143974,1552
1242.373685263935,1435
1244.5057125216676,1511
1246.6371744266116,1459
1248.7680712178621,1456
1250.898403134593,1466
1253.028170416058,1463
1255.1573733015875,1534
1257.2860120305932,1511
1259.4140868425648,1485
1261.54159797707,1515
1263.6685456737569,1528
1265.7949301723515,1484
1267.9207517126597,1515
1270.046010534565,1500
1272.1707068780306,1537
1274.2948409830983,1552
1276.4184130898889,1543
1278.541423438603,1575
1280.6638722695184,1483
1282.785759822993,1517
1284.9070863394636,1520
1287.0278520594447,1504
1289.1480572235314,1572
1291.2677020723963,1621
1293.3867868467923,1545
1295.5053117875495,1565
1297.623277135579,1571
1299.740683131868,1701
1301.8575300174857,1655
1303.973818033578,1630
1306.0895474213703,1604
1308.2047184221678,1637
1310.3193312773528,1625
1312.4333862283888,1643
1314.5468835168163,1708
1316.659823384255,1642
1318.7722060724045,1626
1320.8840318230418,1619
1322.9953008780249,1652
1325.1060134792888,1676
1327.2161698688478,1686
1329.3257702887959,1711
1331.4348149813054,1674
1333.5433041886276,1625
1335.6512381530933,1690
1337.7586171171101,1613
1339.8654413231675,1615
1341.9717110138317,1612
1344.0774264317488,1588
1346.1825878196432,1576
1348.2871954203192,1607
1350.3912494766587,1557
1352.4947502316231,1571
1354.5976979282532,1589
1356.7000928096686,1609
1358.8019351190665,1585
1360.9032250997243,1555
1363.0039629949988,1599
1365.1041490483235,1643
1367.2037835032133,1580
1369.3028666032606,1564
1371.401398592137,1541
1373.4993797135926,1641
1375.5968102114575,1583
1377.6936903296396,1648
1379.7900203121262,1565
1381.8858004029835,1620
1383.9810308463561,1633
1386.075711886469,1537
1388.1698437676241,1553
1390.2634267342032,1601
1392.356461030667,1611
1394.4489469015557,1609
1396.5408845914872,1633
1398.6322743451592,1634
1400.7231164073469,1656
1402.813411022907,1641
1404.903158436773,1593
1406.9923588939578,1704
1409.0810126395531,1652
1411.1691199187303,1614
1413.2566809767386,1609
1415.343696058907,1680
1417.4301654106425,1672
1419.5160892774315,1683
1421.6014679048399,1662
1423.6863015385125,1626
1425.7705904241707,1625
1427.8543348076178,1637
1429.9375349347342,1640
1432.0201910514802,1690
1434.102303403894,1689
1436.1838722380944,1763
1438.2648978002767,1737
1440.3453803367174,1726
1442.4253200937692,1772
1444.5047173178677,1755
1446.5835722555234,1743
1448.6618851533285,1781
1450.739656257952,1857
1452.8168858161434,1824
1454.8935740747306,1813
1456.96972128062,1798
1459.045327680797,1862
1461.120393522327,1895
1463.1949190523528,1848
1465.2689045180973,1958
1467.3423501668608,1980
1469.415256246024,1971
1471.4876230030463,1975
1473.559450685465,1961
1475.6307395408976,2043
1477.7014898170391,2053
1479.771701761665,2044
1481.8413756226287,2049
1483.9105116478618,2144
1485.9791100853772,2166
1488.0471711832643,2149
1490.1146951896926,2264
1492.1816823529098,2247
1494.2481329212433,2229
1496.3140471430984,2333
1498.3794252669609,2288
1500.4442675413939,2324
1502.5085742150404,2394
1504.572345536622,2358
1506.6355817549388,2456
1508.6982831188702,2458
1510.7604498773744,2400
1512.8220822794883,2488
1514.8831805743293,2464
1516.9437450110909,2549
1519.003775839048,2631
1521.0632733075522,2628
1523.1222376660367,2672
1525.1806691640113,2721
1527.2385680510652,2682
1529.2959345768668,2726
1531.3527689911643,2835
1533.4090715437833,2941
1535.4648424846291,2951
1537.5200820636855,2965
1539.5747905310159,3066
1541.6289681367616,3041
1543.6826151311434,3085
1545.7357317644614,3187
1547.7883182870937,3152
1549.8403749494987,3190
1551.8919020022113,3179
1553.9428996958477,3405
1555.9933682811015,3449
1558.0433080087469,3454
1560.0927191296346,3523
1562.1416018946961,3639
1564.1899565549415,3630
1566.2377833614592,3751
1568.2850825654164,3491
1570.3318544180606,3473
1572.3780991707158,3444
1574.423817074788,3212
1576.4690083817595,3122
1578.5136733431923,3039
1580.5578122107272,2919
1582.601425236085,2752
1584.6445126710646,2639
1586.6870747675434,2526
1588.7291117774776,2425
1590.7706239529034,2325
1592.8116115459347,2288
1594.8520748087658,2176
1596.8920139936686,2110
1598.9314293529933,2077
1600.9703211391711,2063
1603.008689604711,1947
1605.0465350022005,1946
1607.0838575843068,1853
1609.1206576037753,1832
1611.1569353134305,1804
1613.1926909661765,1759
1615.2279248149953,1714
1617.2626371129481,1787
1619.2968281131757,1636
1621.3304980688963,1705
1623.3636472334088,1654
1625.39627586009,1773
1627.428384202396,1634
1629.459972513861,1677
1631.4910410480993,1593
1633.5215900588028,1607
1635.551619799744,1656
1637.5811305247717,1626
1639.6101224878166,1567
1641.6385959428862,1670
1643.6665511440683,1618
1645.693988345528,1599
1647.7209078015112,1558
1649.7473097663405,1623
1651.7731944944203,1632
1653.7985622402307,1581
1655.823413258333,1597
1657.847747803366,1600
1659.8715661300494,1534
1661.8948684931793,1555
1663.9176551476316,1564
1665.9399263483624,1587
1667.9616823504057,1555
1669.982923408873,1579
1672.0036497789574,1474
1674.0238617159293,1541
1676.043559475138,1491
1678.0627433120121,1549
1680.081413482059,1583
1682.0995702408654,1542
1684.117213844096,1564
1686.134344547495,1538
1688.1509626068864,1573
1690.1670682781705,1518
1692.182661817329,1486
1694.1977434804217,1493
1696.2123135235875,1503
1698.226372203043,1515
1700.2399197750851,1522
1702.2529564960905,1531
1704.2654826225112,1500
1706.277498410882,1528
1708.2890041178139,1508
1710.2999999999988,1612
1712.3104863142066,1555
1714.3204633172854,1489
1716.329931266163,1507
1718.3388904178469,1557
1720.3473410294214,1540
1722.3552833580516,1535
1724.3627176609807,1497
1726.3696441955308,1598
1728.3760632191033,1519
1730.3819749891782,1497
1732.3873797633146,1535
1734.3922777991502,1452
1736.3966693544012,1501
1738.4005546868639,1526
1740.4039340544127,1477
1742.406807715001,1452
1744.4091759266616,1517
1746.4110389475054,1519
1748.4123970357223,1533
1750.413250449582,1507
1752.4135994474318,1466
1754.4134442876993,1477
1756.4127852288902,1447
1758.4116225295893,1474
1760.4099564484595,1436
1762.407787244244,1470
1764.405115175764,1464
1766.4019405019203,1469
1768.3982634816916,1439
1770.3940843741357,1479
1772.3894034383907,1479
1774.3842209336717,1433
1776.378537119274,1462
1778.372352254571,1461
1780.3656665990156,1437
1782.3584804121397,1408
1784.3507939535534,1387
1786.3426074829463,1452
1788.3339212600863,1397
1790.3247355448211,1456
1792.3150505970766,1416
1794.3048666768573,1423
1796.2941840442477,1414
1798.2830029594106,1452
1800.2713236825884,1448
1802.2591464741004,1457
1804.2464715943465,1433
1806.2332993038058,1450
1808.2196298630352,1486
1810.2054635326708,1418
1812.190800573428,1439
1814.175641246101,1368
1816.1599858115628,1455
1818.1438345307652,1357
1820.127187664738,1409
1822.1100454745924,1434
1824.092408221516,1361
1826.0742761667766,1409
1828.055649571721,1443
1830.0365286977735,1437
1832.0169138064398,1449
1833.9968051593014,1394
1835.9762030180214,1411
1837.9551076443408,1404
1839.9335193000788,1360
1841.9114382471344,1460
1843.888864747485,1377
1845.8657990631878,1437
1847.842241456378,1433
1849.8181921892697,1390
1851.7936515241558,1422
1853.7686197234098,1430
1855.7430970494815,1428
1857.7170837649014,1427
1859.6905801322787,1394
1861.6635864143004,1461
1863.6361028737338,1427
1865.608129773424,1426
1867.5796673762961,1467
1869.5507159453537,1450
1871.521275743678,1421
1873.4913470344313,1486
1875.4609300808534,1441
1877.4300251462632,1408
1879.3986324940588,1382
1881.366752387717,1399
1883.3343850907936,1395
1885.3015308669228,1411
1887.268189979819,1400
1889.2343626932739,1458
1891.2000492711595,1469
1893.1652499774254,1387
1895.1299650761011,1445
1897.0941948312952,1428
1899.0579395071945,1451
1901.0211993680641,1465
1902.98397467825,1419
1904.9462657021745,1467
1906.9080727043415,1545
1908.869395949332,1453
1910.8302357018065,1482
1912.790592226504,1404
1914.7504657882428,1415
1916.7098566519212,1427
1918.6687650825133,1422
1920.6271913450764,1410
1922.5851357047422,1435
1924.5425984267245,1442
1926.499579776314,1424
1928.4560800188833,1489
1930.4120994198802,1533
1932.367638244833,1410
1934.32269675935,1494
1936.2772752291175,1513
1938.231373919899,1479
1940.1849930975404,1431
1942.1381330279637,1467
1944.0907939771696,1496
1946.0429762112412,1466
1947.9946799963363,1425
1949.9459055986945,1439
1951.896653284633,1397
1953.8469233205478,1502
1955.7967159729142,1425
1957.7460315082863,1441
1959.6948701932974,1442
1961.6432322946594,1434
1963.5911180791632,1437
1965.5385278136787,1415
1967.4854617651545,1370
1969.4319202006182,1445
1971.377903387176,1446
1973.3234115920136,1433
1975.268445082395,1450
1977.2130041256642,1493
1979.1570889892423,1431
1981.1006999406304,1413
1983.04383724741,1435
1984.986501177238,1473
1986.928691997853,1410
1988.8704099770712,1438
1990.811655382789,1400
1992.7524284829801,1426
1994.692729545698,1381
1996.6325588390755,1385
1998.5719166313224,1381
2000.5108031907307,1412
2002.4492187856677,1425
2004.387163684583,1415
2006.3246381560011,1439
2008.2616424685298,1390
2010.1981768908527,1488
2012.1342416917332,1426
2014.069837140014,1395
2016.0049635046162,1373
2017.9396210545406,1387
2019.8738100588666,1317
2021.8075307867502,1395
2023.740783507431,1360
2025.6735684902228,1395
2027.6058860045214,1422
2029.5377363198004,1413
2031.4691197056118,1426
2033.4000364315875,1429
2035.3304867674374,1446
2037.260470982952,1357
2039.189989347998,1382
2041.1190421325232,1365
2043.047629606554,1372
2044.9757520401945,1411
2046.9034097036288,1386
2048.8306028671195,1388
2050.7573318010086,1386
2052.683596775716,1381
2054.609398061742,1400
2056.5347359296647,1380
2058.4596106501403,1403
2060.384022493906,1377
2062.3079717317764,1492
2064.231458634646,1372
2066.1544834734873,1401
2068.077046519352,1424
2069.99914804337,1376
2071.9207883167524,1389
2073.8419676107865,1384
2075.7626861968406,1335
2077.6829443463607,1377
2079.6027423308715,1411
2081.522080421977,1415
2083.440958891362,1456
2085.359378010786,1375
2087.2773380520907,1370
2089.194839287196,1422
2091.111881988101,1428
2093.0284664268825,1369
2094.9445928756973,1383
2096.86026160678,1378
2098.775472892446,1409
2100.690227005088,1399
2102.604524217178,1443
2104.5183648012676,1420
2106.431749029985,1405
2108.34467717604,1463
2110.2571495122206,1433
2112.169166311393,1383
2114.080727846503,1398
2115.9918343905747,1359
2117.902486216711,1377
2119.8126835980956,1392
2121.722426807987,1394
2123.6317161197285,1447
2125.5405518067364,1443
2127.448934142509,1413
2129.356863400624,1458
2131.264339854737,1387
2133.1713637785815,1387
2135.077935445972,1397
2136.9840551308002,1357
2138.889723107037,1403
2140.7949396487334,1394
2142.699705030018,1407
2144.6040195250994,1398
2146.507883408264,1456
2148.4112969538774,1356
2150.3142604363848,1431
2152.2167741303097,1374
2154.1188383102535,1349
2156.0204532508997,1387
2157.9216192270064,1361
2159.822336513414,1447
2161.7226053850413,1398
2163.622426116884,1417
2165.5217989840185,1355
2167.4207242616,1360
2169.319202224862,1428
2171.2172331491165,1494
2173.1148173097563,1435
2175.0119549822507,1450
2176.90864644215,1385
2178.8048919650823,1393
2180.7006918267534,1382
2182.596046302952,1417
2184.4909556695407,1393
2186.3854202024645,1388
2188.279440177746,1429
2190.173015871487,1444
2192.066147559868,1390
2193.958835519149,1374
2195.851080025667,1428
2197.7428813558417,1371
2199.6342397861667,1407
2201.5251555932186,1392
2203.415629053651,1404
2205.3056604441986,1365
2207.19525004167,1458
2209.084398122958,1406
2210.9731049650327,1447
2212.861370844941,1403
2214.749196039812,1447
2216.636580826851,1352
2218.523525483344,1391
2220.410030286655,1394
2222.296095514226,1435
2224.1817214435805,1389
2226.066908352319,1493
2227.951656518121,1385
2229.835966218746,1412
2231.71983773203,1459
2233.6032713358913,1419
2235.486267308324,1427
2237.3688259274036,1454
2239.2509474712824,1407
2241.132632218193,1437
2243.013880446447,1447
2244.8946924344323,1415
2246.7750684606203,1445
2248.6550088035574,1392
2250.534513741871,1418
2252.413583554265,1417
2254.292218519526,1416
2256.170418916517,1416
2258.0481850241786,1415
2259.925517121534,1422
2261.8024154876825,1419
2263.678880401803,1366
2265.5549121431536,1398
2267.430510991071,1419
2269.305677224971,1435
2271.180411124348,1382
2273.0547129687766,1362
2274.9285830379076,1414
2276.8020216114737,1430
2278.6750289692845,1408
2280.5476053912294,1436
2282.4197511572766,1402
2284.2914665474727,1426
2286.162751841943,1406
2288.0336073208937,1390
2289.904033264608,1378
2291.774029953448,1381
2293.6435976678554,1410
2295.5127366883517,1404
2297.381447295534,1452
2299.2497297700825,1393
2301.1175843927526,1383
2302.9850114443825,1424
2304.852011205885,1451
2306.7185839582553,1405
2308.5847299825664,1374
2310.4504495599676,1442
2312.3157429716925,1447
2314.1806104990483,1409
2316.0450524234247,1399
2317.9090690262888,1426
2319.772660589186,1445
2321.635827393742,1418
2323.498569721661,1447
2325.3608878547248,1443
2327.2227820747967,1405
2329.0842526638157,1439
2330.945299903803,1449
2332.805924076857,1419
2334.6661254651535,1461
2336.525904350951,1448
2338.3852610165827,1432
2340.244195744464,1434
2342.102708817088,1398
2343.9608005170253,1479
2345.8184711269287,1421
2347.675720929526,1466
2349.532550207628,1446
2351.38895924412,1475
2353.24494832197,1425
2355.100517724223,1464
2356.955667734004,1457
2358.810398634514,1403
2360.664710709037,1505
2362.5186042409337,1520
2364.3720795136437,1474
2366.225136810686,1479
2368.0777764156583,1443
2369.929998612237,1471
2371.7818036841777,1500
2373.633191915315,1489
2375.484163589562,1478
2377.3347189909114,1442
2379.184858403434,1439
2381.03458211128,1441
2382.8838903986775,1431
2384.732783549936,1460
2386.5812618494406,1471
2388.4293255816588,1418
2390.2769750311327,1436
2392.1242104824883,1480
2393.971032220427,1460
2395.8174405297295,1420
2397.6634356952563,1450
2399.509018001947,1422
2401.3541877348193,1458
2403.1989451789705,1416
2405.043290619576,1477
2406.8872243418905,1450
2408.730746631247,1455
2410.5738577730594,1456
2412.4165580528183,1388
2414.258847756095,1552
2416.100727168537,1498
2417.9421965758734,1466
2419.783256263912,1485
2421.623906518538,1537
2423.4641476257157,1522
2425.303979871491,1508
2427.143403541984,1528
2428.9824189233977,1473
2430.821026302012,1446
2432.6592259641866,1514
2434.497018196361,1481
2436.33440328505,1465
2438.171381516851,1481
2440.00795317844,1449
2441.844118556569,1462
2443.6798779380724,1481
2445.5152316098606,1529
2447.3501798589255,1465
2449.1847229723357,1489
2451.0188612372403,1455
2452.8525949408663,1479
2454.6859243705203,1460
2456.518849813587,1434
2458.3513715575314,1470
2460.183489889895,1524
2462.015205098301,1510
2463.8465174704493,1416
2465.67742729412,1502
2467.5079348571717,1415
2469.338040447542,1541
2471.1677443532476,1496
2472.9970468623833,1472
2474.825948263123,1486
2476.6544488437207,1494
2478.482548892508,1489
2480.310248697896,1504
2482.137548548374,1520
2483.9644487325118,1433
2485.790949538956,1481
2487.617051256433,1434
2489.44275417375,1446
2491.26805857979,1418
2493.0929647635157,1498
2494.917473013971,1520
2496.741583620276,1449
2498.5652968716304,1483
2500.3886130573137,1479
2502.2115324666834,1450
2504.0340553891765,1512
2505.856182114308,1532
2507.6779129316733,1500
2509.499248130945,1466
2511.3201880018764,1535
2513.140732834298,1612
2514.9608829181198,1559
2516.780638543331,1526
2518.6,1533
2520.418967578273,1530
2522.237541568376,1546
2524.0557222606144,1528
2525.8735099453706,1577
2527.6909049131086,1527
2529.507907454368,1503
2531.32451785977,1492
2533.140736420014,1575
2534.9565634258774,1592
2536.771999168218,1594
2538.5870439379714,1564
2540.4016980261526,1626
2542.2159617238544,1549
2544.02983532225,1514
2545.8433191125914,1617
2547.656413386209,1632
2549.4691184345115,1577
2551.2814345489874,1553
2553.093362021204,1552
2554.904901142808,1564
2556.716052205523,1552
2558.526815501153,1618
2560.3371913215824,1575
2562.147179958771,1629
2563.956781704761,1586
2565.7659968516705,1589
2567.5748256916986,1583
2569.3832685171224,1623
2571.1913256202984,1591
2572.9989972936614,1651
2574.806283829725,1708
2576.613185521084,1642
2578.4197026604074,1706
2580.2258355404483,1692
2582.031584454035,1669
2583.836949694077,1685
2585.6419315535613,1619
2587.4465303255533,1682
2589.2507463032002,1722
2591.0545797797245,1692
2592.8580310484303,1797
2594.6611004026995,1756
2596.463788135992,1657
2598.266094541849,1695
2600.0680199138874,1738
2601.869564545807,1784
2603.670728731383,1622
2605.4715127644704,1675
2607.2719169390048,1767
2609.071941548998,1772
2610.8715868885433,1785
2612.670853251811,1735
2614.469740933052,1757
2616.268250226594,1725
2618.0663814268455,1763
2619.864134828292,1733
2621.6615107255006,1707
2623.458509413115,1701
2625.2551311858597,1747
2627.0513763385347,1754
2628.8472451660223,1734
2630.6427379632833,1693
2632.4378550253564,1716
2634.232596647359,1655
2636.026963124488,1682
2637.8209547520187,1607
2639.6145718253065,1650
2641.407814639785,1673
2643.200683490966,1647
2644.9931786744414,1640
2646.7853004858807,1582
2648.577049221034,1641
2650.3684251757277,1636
2652.1594286458712,1582
2653.9500599274484,1631
2655.740319316525,1635
2657.5302071092437,1545
2659.3197236018286,1566
2661.10886909058,1586
2662.8976438718782,1664
2664.686048242183,1538
2666.4740824980327,1583
2668.2617469360443,1552
2670.0490418529134,1513
2671.8359675454153,1505
2673.622524310403,1479
2675.408712444811,1525
2677.1945322456495,1431
2678.979984010009,1501
2680.76506803506,1566
2682.5497846180497,1517
2684.334134056306,1482
2686.1181166472343,1497
2687.9017326883213,1492
2689.6849824771293,1514
2691.4678663113013,1474
2693.2503844885596,1467
2695.032537306705,1495
2696.8143250636167,1440
2698.5957480572542,1503
2700.3768065856534,1493
2702.1575009469316,1437
2703.937831439283,1469
2705.717798360982,1479
2707.4974020103837,1421
2709.276642685917,1516
2711.055520686095,1493
2712.834036309506,1512
2714.612189854819,1452
2716.389981620782,1409
2718.1674119062204,1458
2719.944481010041,1490
2721.721189231226,1427
2723.4975368688415,1409
2725.273524222027,1415
2727.0491515900053,1461
2728.824419272075,1449
2730.5993275676146,1431
2732.3738767760838,1439
2734.148067197016,1459
2735.921899130031,1435
2737.6953728748194,1445
2739.468488731156,1420
2741.2412469988926,1433
2743.0136479779617,1459
2744.785691968372,1441
2746.5573792702116,1422
2748.3287101836504,1488
2750.099685008934,1459
2751.870304046388,1504
2753.640567596418,1420
2755.4104759595057,1425
2757.1800294362156,1416
2758.949228327187,1494
2760.7180729331412,1436
2762.486563554877,1413
2764.254700493272,1428
2766.022484049284,1398
2767.789914523947,1397
2769.5569922183786,1361
2771.3237174337705,1353
2773.090090471394,1351
2774.8561116326036,1420
2776.6217812188274,1447
2778.3870995315756,1423
2780.1520668724356,1360
2781.9166835430747,1403
2783.6809498452394,1424
2785.444866080754,1387
2787.2084325515225,1356
2788.971649559527,1387
2790.73451740683,1410
2792.4970363955713,1461
2794.2592068279705,1409
2796.0210290063264,1425
2797.7825032330147,1370
2799.543629810493,1402
2801.304409041296,1387
2803.0648412280366,1416
2804.8249266734088,1399
2806.5846656801846,1413
2808.344058551212,1396
2810.1031055894246,1388
2811.8618070978273,1492
2813.6201633795085,1449
2815.378174737636,1450
2817.1358414754536,1390
2818.893163896285,1391
2820.6501423035334,1407
2822.4067770006814,1486
2824.1630682912883,1440
2825.9190164789957,1441
2827.6746218675207,1436
2829.429884760661,1398
2831.184805462294,1405
2832.9393842763743,1421
2834.693621506936,1356
2836.4475174580916,1382
2838.201072434034,1438
2839.954286739034,1418
2841.707160677441,1486
2843.459694553685,1437
2845.2118886722724,1406
2846.96374333779,1388
2848.7152588549034,1387
2850.4664355283567,1489
2852.217273662973,1391
2853.9677735636546,1428
2855.7179355353833,1462
2857.4677598832186,1378
2859.217246912299,1417
2860.9663969278427,1474
2862.715210235146,1473
2864.4636871395846,1415
2866.211827946614,1374
2867.9596329617652,1399
2869.7071024906536,1409
2871.4542368389684,1451
2873.20103631248,1422
2874.947501217038,1449
2876.6936318585695,1456
2878.4394285430812,1460
2880.1848915766604,1411
2881.9300212654707,1414
2883.6748179157553,1426
2885.4192818338374,1438
2887.1634133261173,1461
2888.907212699077,1389
2890.6506802592744,1433
2892.393816313348,1411
2894.1366211680142,1446
2895.8790951300693,1420
2897.621238506388,1448
2899.363051603925,1437
2901.1045347297118,1416
2902.8456881908596,1407
2904.58651229456,1404
2906.327007348081,1366
2908.067173658772,1379
2909.8070115340597,1427
2911.5465212814497,1424
2913.285703208527,1399
2915.0245576229563,1455
2916.7630848324807,1423
2918.5012851449196,1419
2920.2391588681758,1441
2921.976706310227,1420
2923.7139277791334,1467
2925.4508235830313,1390
2927.187394030137,1360
2928.923639428745,1377
2930.6595600872306,1450
2932.395156314046,1402
2934.1304284177218,1426
2935.8653767068713,1386
2937.6000014901815,1426
2939.3343030764227,1411
2941.068281774442,1406
2942.8019378931644,1462
2944.5352717415976,1361
2946.2682836288236,1422
2948.0009738640065,1409
2949.7333427563885,1414
2951.465390615289,1401
2953.1971177501086,1430
2954.9285244703265,1455
2956.6596110855,1413
2958.3903779052657,1479
2960.1208252393385,1418
2961.8509533975125,1407
2963.5807626896617,1367
2965.3102534257378,1437
2967.0394259157715,1363
2968.768280469873,1362
2970.496817398232,1446
2972.2250370111146,1449
2973.952939618869,1434
2975.6805255319196,1430
2977.4077950607707,1348
2979.134748516006,1439
2980.861386208289,1491
2982.587708448359,1429
2984.313715547037,1416
2986.039407815222,1432
2987.764785563891,1358
2989.489849104102,1447
2991.2145987469908,1382
2992.9390348037705,1471
2994.6631575857346,1413
2996.3869674042576,1446
2998.1104645707887,1358
2999.83364939686,1389
3001.5565221940783,1422
3003.2790832741334,1410
3005.0013329487924,1389
3006.7232715298996,1334
3008.4448993293804,1384
3010.166216659239,1431
3011.887223831558,1418
3013.607921158498,1406
3015.3283089522993,1382
3017.0483875252826,1396
3018.7681571898443,1401
3020.4876182584626,1355
3022.2067710436927,1437
3023.9256158581707,1377
3025.644153014609,1370
3027.362382825801,1387
3029.0803056046193,1430
3030.797921664012,1440
3032.5152313170106,1414
3034.2322348767225,1384
3035.9489326563353,1411
3037.665324969115,1377
3039.3814121284063,1349
3041.097194447633,1363
3042.812672240299,1439
3044.5278458199855,1417
3046.2427155003525,1432
3047.9572815951406,1371
3049.671544418167,1370
3051.38550428333,1425
3053.0991615046073,1417
3054.812516396051,1438
3056.5255692717974,1412
3058.2383204460575,1392
3059.9507702331257,1430
3061.662918947372,1424
3063.3747669032446,1409
3065.0863144152736,1384
3066.7975617980674,1427
3068.508509366309,1387
3070.219157434767,1457
3071.9295063182844,1409
3073.639556331785,1449
3075.3493077902704,1488
3077.058761008821,1386
3078.7679163025964,1450
3080.476773986837,1406
3082.1853343768594,1442
3083.89359778806,1437
3085.6015645359153,1395
3087.3092349359786,1349
3089.016609303884,1422
3090.7236879553434,1413
3092.4304712061476,1385
3094.136959372166,1398
3095.843152769349,1372
3097.5490517137237,1445
3099.2546565213966,1386
3100.959967508554,1459
3102.66498499146,1373
3104.3697092864577,1444
3106.0741407099695,1415
3107.778279578498,1359
3109.482126208622,1454
3111.1856809170004,1461
3112.8889440203716,1391
3114.5919158355528,1464
3116.294596679439,1383
3117.996986869006,1455
3119.6990867213062,1492
3121.4008965534726,1450
3123.102416682717,1461
3124.803647426329,1394
3126.5045891016784,1460
3128.205242026213,1481
3129.90560651746,1454
3131.605682893025,1440
3133.3054714705922,1424
3135.0049725679282,1354
3136.7041865028714,1413
3138.4031135933465,1393
3140.101754157353,1406
3141.800108512971,1431
3143.498176978357,1350
3145.1959598717494,1414
3146.8934575114636,1458
3148.5906702158954,1415
3150.2875983035183,1428
3151.9842420928853,1406
3153.680601902627,1411
3155.376678051456,1395
3157.07247085816,1384
3158.767980641609,1376
3160.463207720748,1347
3162.158152414606,1385
3163.8528150422862,1375
3165.5471959229726,1371
3167.2412953759303,1355
3168.9351137204976,1386
3170.628651276098,1399
3172.3219083622307,1394
3174.014885298474,1383
3175.707582404485,1495
3177.4000000000005,1452
3179.092138404835,1410
3180.7839979388846,1353
3182.47557892212,1374
3184.166881674594,1356
3185.8579065164386,1439
3187.5486537678626,1425
3189.2391237491547,1421
3190.9293167806827,1401
3192.6192331828934,1419
3194.3088732763117,1428
3195.998237381542,1406
3197.687325819268,1352
3199.376138910251,1394
3201.064676975334,1355
3202.7529403354347,1378
3204.4409293115523,1420
3206.1286442247647,1384
3207.816085396229,1401
3209.5032531471825,1354
3211.190147798936,1387
3212.8767696728846,1400
3214.5631190905015,1393
3216.2491963733373,1376
3217.9350018430214,1383
3219.6205358212637,1353
3221.305798629851,1410
3222.990790590651,1384
3224.6755120256103,1358
3226.359963256751,1330
3228.0441446061795,1303
3229.7280563960758,1370
3231.411698948703,1431
3233.0950725863995,1425
3234.778177631587,1371
3236.461014406761,1341
3238.1435832345005,1370
3239.8258844374595,1426
3241.507918338374,1448
3243.1896852600576,1380
3244.8711855254023,1430
3246.552419457381,1440
3248.233387379042,1385
3249.914089613516,1423
3251.59452648401,1370
3253.274698313813,1382
3254.95460542629,1339
3256.6342481448855,1298
3258.313626793125,1349
3259.9927416946084,1347
3261.6715931730196,1345
3263.3501815521176,1431
3265.0285071557437,1347
3266.706570307815,1360
3268.3843713323286,1357
3270.0619105533615,1340
3271.739188295068,1400
3273.4162048816834,1386
3275.0929606375184,1363
3276.769455886966,1360
3278.445690954498,1336
3280.1216661646613,1406
3281.797381842087,1388
3283.4728383114807,1391
3285.1480358976296,1329
3286.8229749253996,1320
3288.4976557197333,1341
3290.172078605655,1387
3291.846243908266,1390
3293.5201519527463,1361
3295.193803064357,1367
3296.8671975684374,1311
3298.5403357904024,1340
3300.21321805575,1371
3301.8858446900567,1341
3303.558216018975,1387
3305.23033236824,1379
3306.9021940636603,1377
3308.57380143113,1356
3310.2451547966184,1444
3311.916254486174,1339
3313.5871008259246,1401
3315.2576941420766,1367
3316.9280347609147,1345
3318.5981230088046,1327
3320.2679592121895,1337
3321.9375436975924,1304
3323.606876791612,1359
3325.27595882093,1326
3326.944790112305,1415
3328.6133709925753,1386
3330.2817017886573,1312
3331.949782827547,1389
3333.617614436319,1360
3335.2851969421245,1379
3336.952530672199,1339
3338.619615953853,1379
3340.286453114475,1346
3341.9530424815357,1371
3343.619384382583,1380
3345.2854791452437,1413
3346.951327097224,1415
3348.6169285663073,1419
3350.2822838803577,1466
3351.947393367319,1433
3353.61225735521,1335
3355.2768761721345,1331
3356.9412501462693,1359
3358.605379605873,1322
3360.2692648792827,1373
3361.9329062949146,1380
3363.596304181263,1306
