CollectionTime,6/26/2024 2:57:02 PM
ExposureUsed,3
CalibratedSpectrum
-962.7078968117929,674
-959.9714848408522,749
-957.2358232597828,685
-954.5009119013725,689
-951.7667505983302,711
-949.0333391832855,691
-946.3006774887896,739
-943.5687653473143,713
-940.837602591253,706
-938.1071890529199,722
-935.3775245645503,664
-932.6486089583007,732
-929.9204420662485,785
-927.1930237203925,704
-924.4663537526524,698
-921.7404319948689,713
-919.0152582788041,740
-916.2908324361409,755
-913.5671542984834,773
-910.8442236973568,760
-908.1220404642074,753
-905.4006044304027,716
-902.679915427231,733
-899.959973285902,735
-897.2407778375464,764
-894.5223289132158,729
-891.8046263438832,711
-889.0876699604426,717
-886.3714595937089,700
-883.6559950744183,697
-880.9412762332282,695
-878.2273029007168,671
-875.5140749073835,704
-872.8015920836489,689
-870.0898542598545,700
-867.3788612662631,671
-864.6686129330585,687
-861.9591090903457,683
-859.2503495681506,677
-856.5423341964203,644
-853.8350628050229,655
-851.1285352237478,676
-848.4227512823054,660
-845.7177108103272,706
-843.0134136373656,670
-840.3098595928943,698
-837.6070485063082,672
-834.9049802069229,716
-832.2036545239757,689
-829.5030712866244,678
-826.8032303239481,680
-824.1041314649472,674
-821.4057745385428,708
-818.7081593735775,666
-816.0112857988148,672
-813.3151536429393,698
-810.6197627345566,677
-807.9251129021936,669
-805.2312039742981,674
-802.5380357792392,660
-799.8456081453069,695
-797.1539209007124,705
-794.462973873588,685
-791.772766891987,678
-789.083299783884,711
-786.3945723771743,683
-783.7065844996748,692
-781.0193359791231,664
-778.3328266431781,712
-775.6470563194197,699
-772.9620248353489,739
-770.2777320183878,714
-767.5941776958798,730
-764.9113616950891,700
-762.2292838432011,719
-759.5479439673222,635
-756.8673418944801,668
-754.1874774516235,747
-751.5083504656222,716
-748.8299607632671,682
-746.15230817127,696
-743.475392516264,731
-740.7992136248035,712
-738.1237713233636,677
-735.4490654383407,696
-732.7750957960521,711
-730.1018622227365,718
-727.4293645445534,700
-724.7576025875837,705
-722.0865761778291,725
-719.4162851412126,712
-716.7467293035781,719
-714.0779084906909,750
-711.409822528237,715
-708.7424712418238,731
-706.0758544569796,711
-703.4099719991541,712
-700.7448236937178,772
-698.0804093659622,773
-695.4167288411002,712
-692.7537819442656,740
-690.0915685005134,743
-687.4300883348199,760
-684.7693412720819,747
-682.1093271371178,772
-679.4500457546669,752
-676.7914969493897,715
-674.1336805458676,756
-671.4765963686034,753
-668.8202442420206,778
-666.1646239904642,805
-663.5097354382001,811
-660.8555784094151,740
-658.2021527282176,751
-655.5494582186366,813
-652.8974947046223,851
-650.2462620100463,850
-647.5957599587009,820
-644.9459883742998,837
-642.2969470804776,829
-639.6486359007902,806
-637.0010546587141,872
-634.3542031776476,799
-631.7080812809096,812
-629.0626887917401,791
-626.4180255333008,787
-623.7740913286734,728
-621.1308860008619,794
-618.4884093727904,758
-615.8466612673046,767
-613.2056415071715,792
-610.5653499150785,765
-607.9257863136347,776
-605.28695052537,756
-602.6488423727357,762
-600.0114616781036,788
-597.3748082637674,793
-594.7388819519412,858
-592.1036825647604,824
-589.4692099242818,809
-586.8354638524829,850
-584.2024441712624,831
-581.5701507024403,781
-578.9385832677575,831
-576.3077416888759,867
-573.6776257873787,801
-571.0482353847704,820
-568.4195703024757,841
-565.7916303618415,840
-563.164415384135,845
-560.5379251905453,832
-557.9121596021815,825
-555.2871184400748,824
-552.6628015251767,837
-550.0392086783606,867
-547.4163397204204,841
-544.794194472071,885
-542.1727727539491,869
-539.5520743866118,845
-536.9320991905377,897
-534.3128469861261,955
-531.6943175936979,937
-529.0765108334947,975
-526.4594265256793,1018
-523.8430644903358,1097
-521.2274245474689,1291
-518.612506517005,1430
-515.9983102187913,1496
-513.3848354725959,1597
-510.77208209810846,1779
-508.16004991493924,1758
-505.5487387426199,1778
-502.9381484006032,2072
-500.3282787082628,2038
-497.71912948489364,2259
-495.1107005497117,2226
-492.5029917218539,2091
-489.8960028203786,2018
-487.28973366426493,1802
-484.68418407241325,1583
-482.07935386364494,1388
-479.47524285670266,1354
-476.87185087025,1279
-474.2691777228715,1308
-471.66722323307334,1181
-469.0659872192821,1231
-466.4654694998459,1054
-463.86566989303384,1142
-461.26658821703614,1179
-458.66822428996414,1075
-456.07057792985,1110
-453.4736489546475,1056
-450.877437182231,1054
-448.28194243039627,1087
-445.68716451686,1096
-443.09310325926003,1053
-440.49975847515555,958
-437.9071299820263,1069
-435.31521759727354,988
-432.72402113821954,1011
-430.13354042210767,1036
-427.5437752661022,1096
-424.95472548728867,1135
-422.36639090267386,1169
-419.7787713291855,1123
-417.1918665836721,1118
-414.60567648290385,1122
-412.0202008435715,1175
-409.4354394822874,1090
-406.8513922155845,1119
-404.26805885991723,1158
-401.685439231661,1194
-399.103533147112,1111
-396.522340422488,1165
-393.9418608739278,1145
-391.3620943174908,1193
-388.7830405691583,1175
-386.2046994448317,1128
-383.6270707603344,1101
-381.05015433141045,1010
-378.473949973725,930
-375.8984575028645,922
-373.32367673433623,893
-370.74960748356875,840
-368.1762495659117,789
-365.60360279663576,724
-363.03166699093265,699
-360.4604419639154,647
-357.8899275306178,589
-355.32012350599507,587
-352.7510297049233,575
-350.1826459421999,559
-347.61497203254316,589
-345.04800779059235,546
-342.4817530309082,535
-339.91620756797226,543
-337.35137121618743,546
-334.7872437898774,549
-332.22382510328725,609
-329.66111497058273,615
-327.09911320585127,616
-324.53781962310075,609
-321.9772340362607,563
-319.4173562591816,576
-316.8581861056348,677
-314.2997233893127,709
-311.7419679238294,689
-309.1849195227194,642
-306.62857799943856,600
-304.0729431673641,556
-301.51801483979375,591
-298.963792829947,615
-296.41027695096386,647
-293.85746701590574,644
-291.3053628377552,644
-288.7539642294155,700
-286.2032710037115,700
-283.65328297338897,717
-281.1039999511146,701
-278.5554217494762,786
-276.007548180983,704
-273.4603790580651,684
-270.9139141930734,711
-268.3681533982807,716
-265.8230964858798,709
-263.27874326798565,769
-260.7350935566336,758
-258.1921471637804,827
-255.6499039013039,929
-253.10836358100266,859
-250.56752601459698,774
-248.02739101372765,839
-245.48795838995704,758
-242.94922795476816,764
-240.41119951956557,725
-237.8738728956746,856
-235.33724789434166,893
-232.80132432673452,1016
-230.2661020039418,1053
-227.73158073697357,1026
-225.19776033676033,1028
-222.66464061415422,1006
-220.1322213799284,919
-217.60050244477725,949
-215.06948361931552,960
-212.53916471408013,889
-210.00954553952818,828
-207.48062590603843,852
-204.9524056239104,1023
-202.4248845033651,1005
-199.8980623545441,881
-197.37193898751036,846
-194.84651421224817,996
-192.32178783866232,1046
-189.79775967657952,987
-187.27442953574644,1037
-184.7517972258321,1039
-182.2298625564256,967
-179.7086253370378,1054
-177.18808537710026,1104
-174.66824248596583,1219
-172.14909647290835,1333
-169.6306471471229,1175
-167.11289431772548,1032
-164.59583779375328,986
-162.07947738416453,1061
-159.5638128978386,1032
-157.04884414357605,1181
-154.53457093009854,1388
-152.02099306604828,1148
-149.50811035998936,1281
-146.99592262040665,1270
-144.48442965570587,1263
-141.97363127421409,1396
-139.46352728417958,1416
-136.95411749377126,1320
-134.44540171107985,1454
-131.93737974411636,1501
-129.43005140081357,1477
-126.92341648902493,1431
-124.41747481652521,1514
-121.91222619101006,1589
-119.40767042009657,1380
-116.90380731132257,1368
-114.40063667214702,1471
-111.8981583099503,1757
-109.3963720320337,1682
-106.89527764561933,1513
-104.39487495785067,1684
-101.89516377579241,1785
-99.39614390642998,1826
-96.89781515667039,1946
-94.40017733334128,2331
-91.90323024319173,2149
-89.40697369289148,2183
-86.91140748903172,1822
-84.41653143812482,1872
-81.92234534660395,2135
-79.42884902082358,2097
-76.93604226705907,2138
-74.4439248915071,2051
-71.95249670028534,1804
-69.46175749943245,2268
-66.97170709490854,2353
-64.48234529259423,2637
-61.99367189829195,2702
-59.50568671772464,3034
-57.01838955653636,3556
-54.53178022029283,3547
-52.045858514480074,3671
-49.560624244506016,4106
-47.07607721569923,3884
-44.59221723330904,3949
-42.10904410250669,4224
-39.62655762838392,5035
-37.14475761595372,5259
-34.66364387015028,5916
-32.18321619582866,6181
-29.70347439776515,8232
-27.224418280657005,10893
-24.74604764912317,14508
-22.26836230770266,19679
-19.7913620608565,31021
-17.315046712966478,43132
-14.83941606833514,48621
-12.36446993118659,65040
-9.89020810566592,65040
-7.416630395839093,65040
-4.94373660569363,65040
-2.471526539137585,65040
-6.821210263296962E-13,65040
2.47084320796705,65040
4.941003281093458,65040
7.410480415786196,65040
9.879274808531363,65040
12.347386655893956,65040
14.814816154518212,65040
17.28156350112681,65040
19.74762889252179,65040
22.21301252558385,65040
24.67771459727237,65040
27.141735304626195,65040
29.605074844762612,36554
32.06773341487792,16134
34.52971121224755,12711
36.99100843422559,12470
39.45162527824516,10891
41.91156194181792,10029
44.370818622535126,12857
46.82939551806646,14571
49.287292826160524,13366
51.74451074464503,11351
54.201049471426245,7013
56.65690920448981,4662
59.112090141899785,4736
61.56659248179983,4767
64.02041642241159,4412
66.4735621620365,3764
68.92602989905402,2777
71.37781983192338,2810
73.82893215918205,3710
76.27936707944684,3335
78.72912479141326,3067
81.17820549385567,3251
83.62660938562783,3651
86.07433666566146,3495
88.5213875329681,3620
90.96776218663751,2989
93.41346082583925,2807
95.85848364982041,2423
98.30283085790859,2064
100.7465026495089,2203
103.18949922410604,2307
105.63182078126385,2168
108.07346752062438,2095
110.51443964190923,2398
112.95473734491827,2056
115.39436082953114,1790
117.83331029570547,1888
120.27158594347827,2389
122.7091879729652,1748
125.1461165843615,1667
127.58237197794062,1553
130.01795435405518,1307
132.4528639131364,1431
134.88710085569494,1991
137.32066538231982,1877
139.75355769367923,1558
142.1857779905207,1711
144.61732647366978,1679
147.04820334403132,1433
149.47840880258934,1419
151.90794305040674,1689
154.33680628862487,1857
156.76499871846443,1742
159.19252054122433,1756
161.61937195828352,1852
164.04555317109896,1848
166.47106438120693,2191
168.89590579022217,2604
171.320077599839,2526
173.7435800118302,2579
176.16641322804742,2627
178.58857745042144,2659
181.01007288096173,2862
183.43089972175687,2972
185.85105817497413,2893
188.27054844285988,2858
190.6893707277394,2874
193.10752523201643,2956
195.5250121581745,2967
197.9418317087751,2998
200.3579840864594,3086
202.7734694939469,3059
205.18828813403627,3071
207.6024402096051,3128
210.01592592360964,3186
212.42874547908548,3207
214.84089907914665,3130
217.2523869269868,2969
219.66320922587727,3109
222.0733661791695,3149
224.48285799029293,3085
226.8916848627572,3178
229.29984700014882,3191
231.7073446061355,3094
234.11417788446204,3067
236.520347038953,3160
238.92585227351185,3325
241.33069379212054,3382
243.73487179884035,3374
246.1383864978112,3330
248.541238093252,3256
250.9434267894609,3269
253.34495279081432,3289
255.74581630176783,3269
258.1460175268563,3509
260.54555667069314,3390
262.9444339379703,3269
265.3426495334594,3090
267.7402036620107,3100
270.1370965285529,3128
272.53332833809407,3075
274.9288992957214,3066
277.32380960660055,2956
279.718059475976,2905
282.1116491091717,2958
284.5045787115897,2936
286.89684848871195,3020
289.2884586460981,3036
291.67940938938807,3029
294.0697009242996,2978
296.4593334566299,2890
298.84830719225477,2779
301.23662233712923,2834
303.6242790972866,2872
306.01127767884,2833
308.39761828798066,2816
310.78330113097934,2735
313.16832641418534,2624
315.5526943440269,2683
317.9364051270112,2692
320.3194589697242,2600
322.70185607883093,2573
325.0835966610754,2524
327.4646809232805,2532
329.8451090723478,2517
332.2248813152577,2624
334.6039978590701,2470
336.9824589109231,2503
339.36026467803447,2477
341.7374153677,2445
344.113911187295,2431
346.48975234427337,2407
348.8649390461686,2430
351.2394715005918,2429
353.61334991523415,2429
355.9865744978655,2358
358.35914545633375,2353
360.73106299856715,2451
363.10232733257146,2381
365.47293866643247,2305
367.84289720831396,2212
370.2122031664593,2322
372.5808567491905,2281
374.9488581649083,2281
377.31620762209275,2336
379.6829053293021,2300
382.0489514951745,2325
384.4143463284262,2275
386.7790900378528,2186
389.14318283232853,2260
391.50662492080653,2233
393.86941651231916,2184
396.23155781597745,2183
398.5930490409713,2166
400.9538903965696,2313
403.3140820921202,2204
405.6736243370498,2208
408.03251734086336,2136
410.3907613131465,2102
412.74835646356166,2120
415.10530300185144,2213
417.4616011378372,2214
419.81725108141893,2210
422.1722530425758,2168
424.5266072313656,2159
426.880313857925,2199
429.2333731324701,2254
431.58578526529516,2110
433.9375504667738,2035
436.2886689473588,2137
438.63914091758113,2077
440.9889665880513,2075
443.33814616945835,2053
445.68667987257015,2077
448.03456790823395,2053
450.3818104873759,2120
452.72840782100013,2105
455.07436012019105,2067
457.41966759611057,2068
459.7643304600007,2098
462.10834892318155,2176
464.4517231970525,2230
466.79445349309174,2142
469.1365400228566,2124
471.4779829979826,2111
473.81878263018564,2185
476.15893913125876,2204
478.4984527130747,2281
480.8373235875855,2223
483.17555196682144,2327
485.5131380628919,2332
487.8500820879857,2548
490.1863842543697,2655
492.52204477439034,2882
494.8570638604725,3211
497.1914417251204,3443
499.52517858091653,3642
501.85827464052306,3897
504.19073011668036,3858
506.5225452222086,3812
508.85372017000566,3519
511.18425517304956,3447
513.514150444396,3596
515.8434061971808,4076
518.1720226446176,4602
520.4999999999999,5035
522.8273384766991,5355
525.1540382881666,5283
527.480099647932,5275
529.8055227696037,4546
532.1303078668694,3333
534.454455153496,2576
536.777964843328,2308
539.1008371502907,2089
541.4230722883866,2100
543.744670471698,1981
546.0656319143858,2017
548.3859568306899,1934
550.7056454349294,1995
553.0246979415016,1902
555.3431145648834,1871
557.6608955196306,1913
559.978041020377,1874
562.2945512818363,1880
564.6104265188006,1879
566.9256669461412,1905
569.2402727788082,1869
571.5542442318302,1953
573.8675815203156,1839
576.1802848594508,1869
578.4923544645015,1910
580.8037905508126,1888
583.114593333807,1938
585.4247630289875,1855
587.7342998519354,1797
590.0432040183106,1932
592.3514757438526,1881
594.6591152443794,1899
596.9661227357875,1928
599.2724984340531,1871
601.578242555231,1867
603.8833553154542,1911
606.1878369309362,1995
608.4916876179676,1969
610.7949075929192,1996
613.0974970722403,1831
615.3994562724587,1915
617.7007854101818,1916
620.0014847020951,1934
622.3015543649641,1866
624.6009946156324,1902
626.8998056710224,1879
629.1979877481361,1899
631.4955410640538,1898
633.7924658359349,1839
636.0887622810175,1929
638.3844306166192,1908
640.6794710601358,1960
642.9738838290426,1961
645.2676691408932,1924
647.5608272133207,1929
649.853358264037,1986
652.1452625108324,1959
654.4365401715764,1914
656.7271914642178,1957
659.0172166067838,1975
661.3066158173809,1968
663.5953893141935,1901
665.8835373154867,1999
668.1710600396028,1955
670.4579577049639,1972
672.7442305300709,1928
675.0298787335033,1925
677.3149025339197,1930
679.599302150058,1937
681.8830778007342,1972
684.1662297048437,1974
686.4487580813608,1876
688.7306631493387,1883
691.0119451279091,1962
693.2926042362834,1947
695.5726406937516,1971
697.8520547196814,1998
700.1308465335215,1956
702.4090163547982,1980
704.6865644031171,1979
706.9634908981619,1977
709.2397960596965,1996
711.5154801075631,1982
713.7905432616823,1922
716.0649857420548,1900
718.3388077687592,1963
720.612009561953,1882
722.8845913418733,1980
725.1565533288352,1984
727.427895743234,1935
729.6986188055427,1992
731.9687227363137,1948
734.238207756178,1978
736.5070740858458,1935
738.7753219461066,2028
741.0429515578281,1868
743.3099631419569,1939
745.5763569195191,1883
747.8421331116193,1941
750.1072919394409,1904
752.3718336242467,1899
754.6357583873777,1969
756.8990664502545,1984
759.1617580343765,1935
761.423833361321,1958
763.6852926527457,1901
765.9461361303862,1975
768.206364016058,1864
770.4659765316536,1952
772.7249738991469,1979
774.9833563405886,1986
777.2411240781092,2008
779.4982773339183,2018
781.7548163303044,2017
784.010741289634,1974
786.2660524343538,2053
788.5207499869881,1953
790.7748341701416,2023
793.0283052064964,1944
795.2811633188143,1977
797.5334087299362,1992
799.7850416627813,1963
802.0360623403484,1989
804.2864709857143,2009
806.5362678220353,2005
808.7854530725468,1972
811.0340269605625,2030
813.2819897094754,1979
815.5293415427581,1955
817.77608268396,2029
820.0222133567116,2037
822.2677337847211,1975
824.5126441917765,1882
826.7569448017433,1971
829.0006358385675,1995
831.2437175262731,1936
833.4861900889629,1940
835.7280537508192,2010
837.9693087361026,1951
840.2099552691533,1990
842.4499935743896,1917
844.689423876309,1942
846.9282463994886,1923
849.1664613685833,1975
851.4040690083276,1946
853.6410695435349,1892
855.877463199097,1957
858.1132501999847,1974
860.3484307712487,1889
862.5830051380175,1956
864.8169735254988,2055
867.0503361589791,1968
869.2830932638243,1997
871.5152450654786,1967
873.7467917894654,1994
875.9777336613873,2063
878.2080709069252,2003
880.4378037518389,2031
882.666932421968,2001
884.8954571432301,2068
887.1233781416219,2101
889.3506956432192,2064
891.5774098741766,2052
893.803521060728,2088
896.0290294291852,2158
898.2539352059397,2081
900.4782386174619,2029
902.7019398903011,1989
904.925039251085,2041
907.147536926521,2041
909.3694331433943,2060
911.59072812857,2012
913.8114221089921,2064
916.0315153116827,2011
918.2510079637437,1960
920.4699002923547,1923
922.6881925247761,2011
924.905884888345,2109
927.1229776104793,2065
929.3394709186747,1947
931.555365040506,1968
933.7706602036275,1972
935.9853566357709,1979
938.1994545647489,1990
940.4129542184515,2017
942.6258558248488,1978
944.8381596119883,1985
947.0498658079974,1997
949.2609746410825,2001
951.4714863395287,1904
953.6814011316998,1901
955.8907192460387,2056
958.0994409110671,2016
960.3075663553858,1943
962.5150958076741,1941
964.7220294966913,1894
966.928367651274,1879
969.1341105003388,1926
971.3392582728806,1920
973.5438111979742,1956
975.747769504772,1915
977.9511334225061,1872
980.153903180487,1935
982.3560790081052,1856
984.5576611348289,1803
986.7586497902058,1854
988.9590452038618,1852
991.158847605503,1835
993.3580572249133,1758
995.5566742919558,1806
997.7546990365728,1743
999.952131688785,1730
1002.1489724786926,1720
1004.3452216364743,1682
1006.5408793923874,1696
1008.7359459767691,1657
1010.9304216200343,1653
1013.1243065526781,1622
1015.3176010052733,1634
1017.510305208472,1636
1019.7024193930064,1689
1021.8939437896848,1560
1024.0848786293977,1602
1026.2752241431122,1577
1028.4649805618747,1570
1030.6541481168115,1561
1032.842727039127,1602
1035.0307175601051,1573
1037.2181199111074,1582
1039.4049343235752,1479
1041.591161029029,1612
1043.7768002590683,1524
1045.9618522453698,1558
1048.1463172196918,1519
1050.3301954138697,1518
1052.513487059818,1539
1054.69619238953,1635
1056.8783116350783,1537
1059.0598450286152,1539
1061.2407928023704,1549
1063.4211551886528,1548
1065.6009324198508,1522
1067.780124728432,1548
1069.9587323469414,1494
1072.1367555080046,1565
1074.314194444325,1529
1076.4910493886855,1524
1078.667320573947,1481
1080.843008233051,1546
1083.0181125990161,1491
1085.1926339049414,1542
1087.3665723840027,1480
1089.5399282694575,1464
1091.7127017946405,1526
1093.8848931929647,1528
1096.0565026979243,1481
1098.2275305430899,1468
1100.3979769621128,1397
1102.567842188722,1468
1104.737126456726,1420
1106.9058300000124,1464
1109.0739530525475,1361
1111.2414958483764,1474
1113.4084586216231,1518
1115.5748416064907,1515
1117.7406450372605,1476
1119.9058691482942,1471
1122.0705141740304,1411
1124.2345803489884,1470
1126.3980679077658,1412
1128.5609770850388,1427
1130.7233081155623,1395
1132.8850612341707,1406
1135.0462366757774,1405
1137.2068346753745,1395
1139.3668554680326,1392
1141.526299288901,1358
1143.68516637321,1405
1145.8434569562655,1406
1148.001171273455,1465
1150.158309560244,1399
1152.3148720521767,1447
1154.470858984876,1400
1156.626270594044,1438
1158.7811071154629,1410
1160.9353687849912,1438
1163.089055838569,1449
1165.242168512213,1418
1167.3947070420209,1414
1169.5466716641677,1422
1171.6980626149075,1428
1173.8488801305748,1393
1175.9991244475814,1392
1178.1487958024186,1424
1180.2978944316555,1385
1182.4464205719428,1437
1184.5943744600072,1397
1186.7417563326567,1384
1188.8885664267755,1340
1191.0348049793297,1382
1193.1804722273619,1406
1195.325568407995,1425
1197.4700937584303,1379
1199.614048515948,1333
1201.7574329179074,1375
1203.900247201746,1365
1206.042491604982,1378
1208.1841663652099,1463
1210.3252717201053,1377
1212.465807907422,1380
1214.6057751649923,1361
1216.7451737307279,1417
1218.8840038426192,1397
1221.0222657387353,1344
1223.1599596572241,1439
1225.2970858363137,1379
1227.4336445143094,1418
1229.5696359295966,1371
1231.705060320639,1405
1233.8399179259786,1400
1235.9742089842384,1473
1238.107933734118,1398
1240.2410924143974,1423
1242.373685263935,1446
1244.5057125216676,1429
1246.6371744266116,1393
1248.7680712178621,1451
1250.898403134593,1396
1253.028170416058,1410
1255.1573733015875,1457
1257.2860120305932,1436
1259.4140868425648,1401
1261.54159797707,1447
1263.6685456737569,1385
1265.7949301723515,1398
1267.9207517126597,1408
1270.046010534565,1440
1272.1707068780306,1435
1274.2948409830983,1493
1276.4184130898889,1445
1278.541423438603,1476
1280.6638722695184,1469
1282.785759822993,1436
1284.9070863394636,1456
1287.0278520594447,1522
1289.1480572235314,1521
1291.2677020723963,1487
1293.3867868467923,1509
1295.5053117875495,1489
1297.623277135579,1537
1299.740683131868,1488
1301.8575300174857,1559
1303.973818033578,1476
1306.0895474213703,1515
1308.2047184221678,1512
1310.3193312773528,1577
1312.4333862283888,1596
1314.5468835168163,1548
1316.659823384255,1548
1318.7722060724045,1524
1320.8840318230418,1569
1322.9953008780249,1590
1325.1060134792888,1565
1327.2161698688478,1609
1329.3257702887959,1579
1331.4348149813054,1619
1333.5433041886276,1513
1335.6512381530933,1528
1337.7586171171101,1527
1339.8654413231675,1536
1341.9717110138317,1548
1344.0774264317488,1541
1346.1825878196432,1561
1348.2871954203192,1527
1350.3912494766587,1578
1352.4947502316231,1544
1354.5976979282532,1520
1356.7000928096686,1514
1358.8019351190665,1515
1360.9032250997243,1475
1363.0039629949988,1465
1365.1041490483235,1553
1367.2037835032133,1577
1369.3028666032606,1566
1371.401398592137,1562
1373.4993797135926,1498
1375.5968102114575,1563
1377.6936903296396,1556
1379.7900203121262,1521
1381.8858004029835,1521
1383.9810308463561,1567
1386.075711886469,1537
1388.1698437676241,1509
1390.2634267342032,1541
1392.356461030667,1492
1394.4489469015557,1553
1396.5408845914872,1531
1398.6322743451592,1547
1400.7231164073469,1601
1402.813411022907,1537
1404.903158436773,1565
1406.9923588939578,1596
1409.0810126395531,1629
1411.1691199187303,1557
1413.2566809767386,1553
1415.343696058907,1543
1417.4301654106425,1633
1419.5160892774315,1616
1421.6014679048399,1644
1423.6863015385125,1660
1425.7705904241707,1609
1427.8543348076178,1613
1429.9375349347342,1576
1432.0201910514802,1611
1434.102303403894,1624
1436.1838722380944,1572
1438.2648978002767,1597
1440.3453803367174,1665
1442.4253200937692,1648
1444.5047173178677,1673
1446.5835722555234,1694
1448.6618851533285,1697
1450.739656257952,1662
1452.8168858161434,1729
1454.8935740747306,1761
1456.96972128062,1757
1459.045327680797,1820
1461.120393522327,1798
1463.1949190523528,1786
1465.2689045180973,1919
1467.3423501668608,1843
1469.415256246024,1943
1471.4876230030463,1959
1473.559450685465,1920
1475.6307395408976,1980
1477.7014898170391,1970
1479.771701761665,2102
1481.8413756226287,2111
1483.9105116478618,2127
1485.9791100853772,2069
1488.0471711832643,2128
1490.1146951896926,2060
1492.1816823529098,2234
1494.2481329212433,2285
1496.3140471430984,2247
1498.3794252669609,2218
1500.4442675413939,2245
1502.5085742150404,2276
1504.572345536622,2376
1506.6355817549388,2372
1508.6982831188702,2355
1510.7604498773744,2481
1512.8220822794883,2483
1514.8831805743293,2439
1516.9437450110909,2484
1519.003775839048,2567
1521.0632733075522,2572
1523.1222376660367,2622
1525.1806691640113,2667
1527.2385680510652,2759
1529.2959345768668,2794
1531.3527689911643,2856
1533.4090715437833,2861
1535.4648424846291,2872
1537.5200820636855,2998
1539.5747905310159,2919
1541.6289681367616,3017
1543.6826151311434,3062
1545.7357317644614,3193
1547.7883182870937,3159
1549.8403749494987,3225
1551.8919020022113,3311
1553.9428996958477,3244
1555.9933682811015,3457
1558.0433080087469,3525
1560.0927191296346,3544
1562.1416018946961,3525
1564.1899565549415,3557
1566.2377833614592,3608
1568.2850825654164,3564
1570.3318544180606,3530
1572.3780991707158,3432
1574.423817074788,3395
1576.4690083817595,3162
1578.5136733431923,3014
1580.5578122107272,3007
1582.601425236085,2793
1584.6445126710646,2725
1586.6870747675434,2516
1588.7291117774776,2431
1590.7706239529034,2311
1592.8116115459347,2328
1594.8520748087658,2127
1596.8920139936686,2112
1598.9314293529933,2036
1600.9703211391711,1936
1603.008689604711,1900
1605.0465350022005,1877
1607.0838575843068,1819
1609.1206576037753,1827
1611.1569353134305,1778
1613.1926909661765,1738
1615.2279248149953,1750
1617.2626371129481,1699
1619.2968281131757,1670
1621.3304980688963,1646
1623.3636472334088,1652
1625.39627586009,1588
1627.428384202396,1655
1629.459972513861,1675
1631.4910410480993,1581
1633.5215900588028,1589
1635.551619799744,1547
1637.5811305247717,1541
1639.6101224878166,1554
1641.6385959428862,1544
1643.6665511440683,1466
1645.693988345528,1486
1647.7209078015112,1503
1649.7473097663405,1524
1651.7731944944203,1506
1653.7985622402307,1521
1655.823413258333,1506
1657.847747803366,1432
1659.8715661300494,1516
1661.8948684931793,1545
1663.9176551476316,1459
1665.9399263483624,1454
1667.9616823504057,1455
1669.982923408873,1491
1672.0036497789574,1490
1674.0238617159293,1439
1676.043559475138,1458
1678.0627433120121,1473
1680.081413482059,1472
1682.0995702408654,1444
1684.117213844096,1470
1686.134344547495,1457
1688.1509626068864,1412
1690.1670682781705,1377
1692.182661817329,1406
1694.1977434804217,1485
1696.2123135235875,1432
1698.226372203043,1445
1700.2399197750851,1433
1702.2529564960905,1478
1704.2654826225112,1498
1706.277498410882,1476
1708.2890041178139,1468
1710.2999999999988,1449
1712.3104863142066,1533
1714.3204633172854,1477
1716.329931266163,1435
1718.3388904178469,1469
1720.3473410294214,1454
1722.3552833580516,1455
1724.3627176609807,1443
1726.3696441955308,1450
1728.3760632191033,1455
1730.3819749891782,1423
1732.3873797633146,1437
1734.3922777991502,1404
1736.3966693544012,1399
1738.4005546868639,1472
1740.4039340544127,1449
1742.406807715001,1408
1744.4091759266616,1420
1746.4110389475054,1343
1748.4123970357223,1393
1750.413250449582,1349
1752.4135994474318,1456
1754.4134442876993,1432
1756.4127852288902,1405
1758.4116225295893,1397
1760.4099564484595,1347
1762.407787244244,1361
1764.405115175764,1358
1766.4019405019203,1349
1768.3982634816916,1371
1770.3940843741357,1352
1772.3894034383907,1336
1774.3842209336717,1384
1776.378537119274,1383
1778.372352254571,1375
1780.3656665990156,1325
1782.3584804121397,1367
1784.3507939535534,1366
1786.3426074829463,1347
1788.3339212600863,1364
1790.3247355448211,1333
1792.3150505970766,1344
1794.3048666768573,1309
1796.2941840442477,1329
1798.2830029594106,1356
1800.2713236825884,1345
1802.2591464741004,1327
1804.2464715943465,1336
1806.2332993038058,1289
1808.2196298630352,1343
1810.2054635326708,1329
1812.190800573428,1290
1814.175641246101,1349
1816.1599858115628,1348
1818.1438345307652,1379
1820.127187664738,1400
1822.1100454745924,1393
1824.092408221516,1322
1826.0742761667766,1351
1828.055649571721,1295
1830.0365286977735,1325
1832.0169138064398,1355
1833.9968051593014,1330
1835.9762030180214,1353
1837.9551076443408,1343
1839.9335193000788,1298
1841.9114382471344,1282
1843.888864747485,1317
1845.8657990631878,1369
1847.842241456378,1357
1849.8181921892697,1344
1851.7936515241558,1344
1853.7686197234098,1313
1855.7430970494815,1263
1857.7170837649014,1312
1859.6905801322787,1374
1861.6635864143004,1305
1863.6361028737338,1338
1865.608129773424,1346
1867.5796673762961,1328
1869.5507159453537,1352
1871.521275743678,1346
1873.4913470344313,1313
1875.4609300808534,1344
1877.4300251462632,1315
1879.3986324940588,1349
1881.366752387717,1342
1883.3343850907936,1345
1885.3015308669228,1346
1887.268189979819,1378
1889.2343626932739,1352
1891.2000492711595,1334
1893.1652499774254,1343
1895.1299650761011,1380
1897.0941948312952,1363
1899.0579395071945,1370
1901.0211993680641,1371
1902.98397467825,1390
1904.9462657021745,1413
1906.9080727043415,1444
1908.869395949332,1388
1910.8302357018065,1311
1912.790592226504,1324
1914.7504657882428,1376
1916.7098566519212,1350
1918.6687650825133,1287
1920.6271913450764,1351
1922.5851357047422,1292
1924.5425984267245,1409
1926.499579776314,1391
1928.4560800188833,1306
1930.4120994198802,1375
1932.367638244833,1359
1934.32269675935,1372
1936.2772752291175,1305
1938.231373919899,1320
1940.1849930975404,1347
1942.1381330279637,1356
1944.0907939771696,1302
1946.0429762112412,1412
1947.9946799963363,1364
1949.9459055986945,1352
1951.896653284633,1298
1953.8469233205478,1372
1955.7967159729142,1277
1957.7460315082863,1321
1959.6948701932974,1315
1961.6432322946594,1346
1963.5911180791632,1363
1965.5385278136787,1328
1967.4854617651545,1329
1969.4319202006182,1346
1971.377903387176,1414
1973.3234115920136,1398
1975.268445082395,1345
1977.2130041256642,1372
1979.1570889892423,1363
1981.1006999406304,1288
1983.04383724741,1348
1984.986501177238,1344
1986.928691997853,1332
1988.8704099770712,1377
1990.811655382789,1366
1992.7524284829801,1334
1994.692729545698,1309
1996.6325588390755,1379
1998.5719166313224,1362
2000.5108031907307,1319
2002.4492187856677,1336
2004.387163684583,1356
2006.3246381560011,1365
2008.2616424685298,1305
2010.1981768908527,1267
2012.1342416917332,1284
2014.069837140014,1323
2016.0049635046162,1288
2017.9396210545406,1375
2019.8738100588666,1282
2021.8075307867502,1322
2023.740783507431,1343
2025.6735684902228,1307
2027.6058860045214,1295
2029.5377363198004,1367
2031.4691197056118,1339
2033.4000364315875,1341
2035.3304867674374,1412
2037.260470982952,1325
2039.189989347998,1279
2041.1190421325232,1324
2043.047629606554,1351
2044.9757520401945,1268
2046.9034097036288,1301
2048.8306028671195,1331
2050.7573318010086,1336
2052.683596775716,1336
2054.609398061742,1305
2056.5347359296647,1329
2058.4596106501403,1315
2060.384022493906,1298
2062.3079717317764,1320
2064.231458634646,1256
2066.1544834734873,1340
2068.077046519352,1289
2069.99914804337,1319
2071.9207883167524,1311
2073.8419676107865,1309
2075.7626861968406,1304
2077.6829443463607,1346
2079.6027423308715,1289
2081.522080421977,1263
2083.440958891362,1334
2085.359378010786,1357
2087.2773380520907,1362
2089.194839287196,1328
2091.111881988101,1278
2093.0284664268825,1331
2094.9445928756973,1339
2096.86026160678,1325
2098.775472892446,1324
2100.690227005088,1262
2102.604524217178,1264
2104.5183648012676,1303
2106.431749029985,1333
2108.34467717604,1302
2110.2571495122206,1246
2112.169166311393,1257
2114.080727846503,1311
2115.9918343905747,1301
2117.902486216711,1327
2119.8126835980956,1327
2121.722426807987,1310
2123.6317161197285,1288
2125.5405518067364,1297
2127.448934142509,1271
2129.356863400624,1324
2131.264339854737,1355
2133.1713637785815,1255
2135.077935445972,1356
2136.9840551308002,1387
2138.889723107037,1318
2140.7949396487334,1365
2142.699705030018,1371
2144.6040195250994,1341
2146.507883408264,1320
2148.4112969538774,1362
2150.3142604363848,1329
2152.2167741303097,1301
2154.1188383102535,1312
2156.0204532508997,1365
2157.9216192270064,1346
2159.822336513414,1343
2161.7226053850413,1308
2163.622426116884,1347
2165.5217989840185,1335
2167.4207242616,1288
2169.319202224862,1324
2171.2172331491165,1351
2173.1148173097563,1299
2175.0119549822507,1308
2176.90864644215,1336
2178.8048919650823,1297
2180.7006918267534,1340
2182.596046302952,1275
2184.4909556695407,1351
2186.3854202024645,1273
2188.279440177746,1287
2190.173015871487,1352
2192.066147559868,1333
2193.958835519149,1294
2195.851080025667,1323
2197.7428813558417,1338
2199.6342397861667,1318
2201.5251555932186,1293
2203.415629053651,1254
2205.3056604441986,1309
2207.19525004167,1296
2209.084398122958,1266
2210.9731049650327,1330
2212.861370844941,1353
2214.749196039812,1332
2216.636580826851,1356
2218.523525483344,1345
2220.410030286655,1307
2222.296095514226,1333
2224.1817214435805,1343
2226.066908352319,1305
2227.951656518121,1369
2229.835966218746,1343
2231.71983773203,1325
2233.6032713358913,1308
2235.486267308324,1389
2237.3688259274036,1329
2239.2509474712824,1349
2241.132632218193,1299
2243.013880446447,1322
2244.8946924344323,1297
2246.7750684606203,1328
2248.6550088035574,1397
2250.534513741871,1362
2252.413583554265,1331
2254.292218519526,1304
2256.170418916517,1307
2258.0481850241786,1355
2259.925517121534,1344
2261.8024154876825,1311
2263.678880401803,1291
2265.5549121431536,1305
2267.430510991071,1318
2269.305677224971,1286
2271.180411124348,1315
2273.0547129687766,1353
2274.9285830379076,1346
2276.8020216114737,1268
2278.6750289692845,1321
2280.5476053912294,1332
2282.4197511572766,1328
2284.2914665474727,1325
2286.162751841943,1279
2288.0336073208937,1326
2289.904033264608,1317
2291.774029953448,1307
2293.6435976678554,1342
2295.5127366883517,1343
2297.381447295534,1368
2299.2497297700825,1374
2301.1175843927526,1312
2302.9850114443825,1364
2304.852011205885,1341
2306.7185839582553,1296
2308.5847299825664,1342
2310.4504495599676,1329
2312.3157429716925,1324
2314.1806104990483,1340
2316.0450524234247,1308
2317.9090690262888,1381
2319.772660589186,1349
2321.635827393742,1359
2323.498569721661,1313
2325.3608878547248,1324
2327.2227820747967,1410
2329.0842526638157,1314
2330.945299903803,1335
2332.805924076857,1318
2334.6661254651535,1340
2336.525904350951,1334
2338.3852610165827,1369
2340.244195744464,1356
2342.102708817088,1370
2343.9608005170253,1379
2345.8184711269287,1349
2347.675720929526,1381
2349.532550207628,1306
2351.38895924412,1358
2353.24494832197,1361
2355.100517724223,1299
2356.955667734004,1355
2358.810398634514,1321
2360.664710709037,1308
2362.5186042409337,1326
2364.3720795136437,1392
2366.225136810686,1388
2368.0777764156583,1369
2369.929998612237,1342
2371.7818036841777,1386
2373.633191915315,1364
2375.484163589562,1352
2377.3347189909114,1324
2379.184858403434,1366
2381.03458211128,1397
2382.8838903986775,1409
2384.732783549936,1390
2386.5812618494406,1394
2388.4293255816588,1379
2390.2769750311327,1374
2392.1242104824883,1345
2393.971032220427,1416
2395.8174405297295,1365
2397.6634356952563,1417
2399.509018001947,1353
2401.3541877348193,1361
2403.1989451789705,1340
2405.043290619576,1374
2406.8872243418905,1445
2408.730746631247,1356
2410.5738577730594,1368
2412.4165580528183,1356
2414.258847756095,1381
2416.100727168537,1399
2417.9421965758734,1365
2419.783256263912,1354
2421.623906518538,1427
2423.4641476257157,1418
2425.303979871491,1406
2427.143403541984,1357
2428.9824189233977,1398
2430.821026302012,1408
2432.6592259641866,1456
2434.497018196361,1465
2436.33440328505,1428
2438.171381516851,1378
2440.00795317844,1413
2441.844118556569,1341
2443.6798779380724,1399
2445.5152316098606,1346
2447.3501798589255,1381
2449.1847229723357,1418
2451.0188612372403,1338
2452.8525949408663,1380
2454.6859243705203,1349
2456.518849813587,1361
2458.3513715575314,1351
2460.183489889895,1372
2462.015205098301,1350
2463.8465174704493,1305
2465.67742729412,1397
2467.5079348571717,1388
2469.338040447542,1415
2471.1677443532476,1388
2472.9970468623833,1399
2474.825948263123,1363
2476.6544488437207,1393
2478.482548892508,1436
2480.310248697896,1369
2482.137548548374,1387
2483.9644487325118,1402
2485.790949538956,1352
2487.617051256433,1407
2489.44275417375,1425
2491.26805857979,1399
2493.0929647635157,1412
2494.917473013971,1371
2496.741583620276,1389
2498.5652968716304,1425
2500.3886130573137,1420
2502.2115324666834,1384
2504.0340553891765,1405
2505.856182114308,1457
2507.6779129316733,1436
2509.499248130945,1432
2511.3201880018764,1411
2513.140732834298,1423
2514.9608829181198,1437
2516.780638543331,1465
2518.6,1460
2520.418967578273,1450
2522.237541568376,1476
2524.0557222606144,1490
2525.8735099453706,1407
2527.6909049131086,1439
2529.507907454368,1462
2531.32451785977,1442
2533.140736420014,1463
2534.9565634258774,1482
2536.771999168218,1527
2538.5870439379714,1480
2540.4016980261526,1503
2542.2159617238544,1480
2544.02983532225,1459
2545.8433191125914,1528
2547.656413386209,1507
2549.4691184345115,1475
2551.2814345489874,1455
2553.093362021204,1531
2554.904901142808,1478
2556.716052205523,1548
2558.526815501153,1505
2560.3371913215824,1523
2562.147179958771,1505
2563.956781704761,1580
2565.7659968516705,1499
2567.5748256916986,1579
2569.3832685171224,1552
2571.1913256202984,1492
2572.9989972936614,1589
2574.806283829725,1566
2576.613185521084,1583
2578.4197026604074,1559
2580.2258355404483,1623
2582.031584454035,1594
2583.836949694077,1509
2585.6419315535613,1582
2587.4465303255533,1563
2589.2507463032002,1618
2591.0545797797245,1611
2592.8580310484303,1625
2594.6611004026995,1594
2596.463788135992,1602
2598.266094541849,1650
2600.0680199138874,1630
2601.869564545807,1693
2603.670728731383,1655
2605.4715127644704,1642
2607.2719169390048,1705
2609.071941548998,1704
2610.8715868885433,1603
2612.670853251811,1684
2614.469740933052,1637
2616.268250226594,1654
2618.0663814268455,1637
2619.864134828292,1606
2621.6615107255006,1652
2623.458509413115,1690
2625.2551311858597,1687
2627.0513763385347,1611
2628.8472451660223,1607
2630.6427379632833,1667
2632.4378550253564,1628
2634.232596647359,1538
2636.026963124488,1630
2637.8209547520187,1607
2639.6145718253065,1629
2641.407814639785,1624
2643.200683490966,1585
2644.9931786744414,1562
2646.7853004858807,1539
2648.577049221034,1540
2650.3684251757277,1542
2652.1594286458712,1539
2653.9500599274484,1537
2655.740319316525,1448
2657.5302071092437,1576
2659.3197236018286,1545
2661.10886909058,1501
2662.8976438718782,1507
2664.686048242183,1466
2666.4740824980327,1463
2668.2617469360443,1488
2670.0490418529134,1400
2671.8359675454153,1549
2673.622524310403,1449
2675.408712444811,1449
2677.1945322456495,1440
2678.979984010009,1438
2680.76506803506,1420
2682.5497846180497,1408
2684.334134056306,1453
2686.1181166472343,1449
2687.9017326883213,1337
2689.6849824771293,1462
2691.4678663113013,1446
2693.2503844885596,1349
2695.032537306705,1399
2696.8143250636167,1412
2698.5957480572542,1424
2700.3768065856534,1412
2702.1575009469316,1444
2703.937831439283,1329
2705.717798360982,1336
2707.4974020103837,1360
2709.276642685917,1384
2711.055520686095,1376
2712.834036309506,1328
2714.612189854819,1381
2716.389981620782,1351
2718.1674119062204,1326
2719.944481010041,1357
2721.721189231226,1325
2723.4975368688415,1395
2725.273524222027,1322
2727.0491515900053,1443
2728.824419272075,1361
2730.5993275676146,1358
2732.3738767760838,1304
2734.148067197016,1332
2735.921899130031,1407
2737.6953728748194,1314
2739.468488731156,1324
2741.2412469988926,1310
2743.0136479779617,1359
2744.785691968372,1366
2746.5573792702116,1362
2748.3287101836504,1339
2750.099685008934,1342
2751.870304046388,1355
2753.640567596418,1302
2755.4104759595057,1364
2757.1800294362156,1314
2758.949228327187,1369
2760.7180729331412,1286
2762.486563554877,1376
2764.254700493272,1328
2766.022484049284,1360
2767.789914523947,1364
2769.5569922183786,1339
2771.3237174337705,1353
2773.090090471394,1373
2774.8561116326036,1310
2776.6217812188274,1325
2778.3870995315756,1289
2780.1520668724356,1355
2781.9166835430747,1318
2783.6809498452394,1307
2785.444866080754,1334
2787.2084325515225,1361
2788.971649559527,1302
2790.73451740683,1382
2792.4970363955713,1289
2794.2592068279705,1322
2796.0210290063264,1304
2797.7825032330147,1408
2799.543629810493,1330
2801.304409041296,1299
2803.0648412280366,1330
2804.8249266734088,1324
2806.5846656801846,1336
2808.344058551212,1331
2810.1031055894246,1349
2811.8618070978273,1298
2813.6201633795085,1356
2815.378174737636,1327
2817.1358414754536,1372
2818.893163896285,1336
2820.6501423035334,1371
2822.4067770006814,1410
2824.1630682912883,1326
2825.9190164789957,1284
2827.6746218675207,1333
2829.429884760661,1363
2831.184805462294,1314
2832.9393842763743,1339
2834.693621506936,1412
2836.4475174580916,1319
2838.201072434034,1319
2839.954286739034,1317
2841.707160677441,1301
2843.459694553685,1335
2845.2118886722724,1340
2846.96374333779,1347
2848.7152588549034,1316
2850.4664355283567,1312
2852.217273662973,1312
2853.9677735636546,1336
2855.7179355353833,1352
2857.4677598832186,1251
2859.217246912299,1333
2860.9663969278427,1289
2862.715210235146,1328
2864.4636871395846,1305
2866.211827946614,1331
2867.9596329617652,1312
2869.7071024906536,1305
2871.4542368389684,1309
2873.20103631248,1299
2874.947501217038,1336
2876.6936318585695,1352
2878.4394285430812,1280
2880.1848915766604,1295
2881.9300212654707,1319
2883.6748179157553,1353
2885.4192818338374,1373
2887.1634133261173,1377
2888.907212699077,1299
2890.6506802592744,1413
2892.393816313348,1307
2894.1366211680142,1302
2895.8790951300693,1386
2897.621238506388,1325
2899.363051603925,1288
2901.1045347297118,1297
2902.8456881908596,1365
2904.58651229456,1296
2906.327007348081,1338
2908.067173658772,1362
2909.8070115340597,1316
2911.5465212814497,1336
2913.285703208527,1329
2915.0245576229563,1316
2916.7630848324807,1305
2918.5012851449196,1339
2920.2391588681758,1316
2921.976706310227,1294
2923.7139277791334,1317
2925.4508235830313,1326
2927.187394030137,1274
2928.923639428745,1331
2930.6595600872306,1305
2932.395156314046,1281
2934.1304284177218,1268
2935.8653767068713,1317
2937.6000014901815,1349
2939.3343030764227,1301
2941.068281774442,1331
2942.8019378931644,1352
2944.5352717415976,1318
2946.2682836288236,1369
2948.0009738640065,1354
2949.7333427563885,1321
2951.465390615289,1336
2953.1971177501086,1277
2954.9285244703265,1377
2956.6596110855,1297
2958.3903779052657,1289
2960.1208252393385,1291
2961.8509533975125,1314
2963.5807626896617,1336
2965.3102534257378,1371
2967.0394259157715,1318
2968.768280469873,1368
2970.496817398232,1334
2972.2250370111146,1316
2973.952939618869,1298
2975.6805255319196,1287
2977.4077950607707,1334
2979.134748516006,1334
2980.861386208289,1314
2982.587708448359,1327
2984.313715547037,1330
2986.039407815222,1368
2987.764785563891,1301
2989.489849104102,1311
2991.2145987469908,1306
2992.9390348037705,1309
2994.6631575857346,1355
2996.3869674042576,1334
2998.1104645707887,1300
2999.83364939686,1328
3001.5565221940783,1334
3003.2790832741334,1309
3005.0013329487924,1322
3006.7232715298996,1284
3008.4448993293804,1307
3010.166216659239,1295
3011.887223831558,1279
3013.607921158498,1259
3015.3283089522993,1292
3017.0483875252826,1325
3018.7681571898443,1289
3020.4876182584626,1306
3022.2067710436927,1309
3023.9256158581707,1300
3025.644153014609,1356
3027.362382825801,1357
3029.0803056046193,1292
3030.797921664012,1326
3032.5152313170106,1311
3034.2322348767225,1281
3035.9489326563353,1279
3037.665324969115,1290
3039.3814121284063,1302
3041.097194447633,1284
3042.812672240299,1309
3044.5278458199855,1260
3046.2427155003525,1292
3047.9572815951406,1357
3049.671544418167,1313
3051.38550428333,1283
3053.0991615046073,1319
3054.812516396051,1353
3056.5255692717974,1307
3058.2383204460575,1330
3059.9507702331257,1280
3061.662918947372,1301
3063.3747669032446,1298
3065.0863144152736,1326
3066.7975617980674,1324
3068.508509366309,1341
3070.219157434767,1311
3071.9295063182844,1295
3073.639556331785,1321
3075.3493077902704,1290
3077.058761008821,1282
3078.7679163025964,1276
3080.476773986837,1283
3082.1853343768594,1321
3083.89359778806,1268
3085.6015645359153,1321
3087.3092349359786,1277
3089.016609303884,1318
3090.7236879553434,1307
3092.4304712061476,1355
3094.136959372166,1314
3095.843152769349,1276
3097.5490517137237,1306
3099.2546565213966,1371
3100.959967508554,1324
3102.66498499146,1310
3104.3697092864577,1297
3106.0741407099695,1326
3107.778279578498,1314
3109.482126208622,1315
3111.1856809170004,1307
3112.8889440203716,1365
3114.5919158355528,1329
3116.294596679439,1306
3117.996986869006,1284
3119.6990867213062,1401
3121.4008965534726,1356
3123.102416682717,1298
3124.803647426329,1300
3126.5045891016784,1325
3128.205242026213,1278
3129.90560651746,1319
3131.605682893025,1348
3133.3054714705922,1322
3135.0049725679282,1375
3136.7041865028714,1335
3138.4031135933465,1313
3140.101754157353,1360
3141.800108512971,1286
3143.498176978357,1311
3145.1959598717494,1345
3146.8934575114636,1308
3148.5906702158954,1265
3150.2875983035183,1309
3151.9842420928853,1278
3153.680601902627,1328
3155.376678051456,1269
3157.07247085816,1303
3158.767980641609,1285
3160.463207720748,1305
3162.158152414606,1283
3163.8528150422862,1340
3165.5471959229726,1312
3167.2412953759303,1333
3168.9351137204976,1301
3170.628651276098,1312
3172.3219083622307,1305
3174.014885298474,1297
3175.707582404485,1362
3177.4000000000005,1314
3179.092138404835,1325
3180.7839979388846,1316
3182.47557892212,1298
3184.166881674594,1304
3185.8579065164386,1322
3187.5486537678626,1290
3189.2391237491547,1312
3190.9293167806827,1292
3192.6192331828934,1380
3194.3088732763117,1362
3195.998237381542,1307
3197.687325819268,1316
3199.376138910251,1245
3201.064676975334,1334
3202.7529403354347,1329
3204.4409293115523,1235
3206.1286442247647,1337
3207.816085396229,1240
3209.5032531471825,1277
3211.190147798936,1275
3212.8767696728846,1288
3214.5631190905015,1261
3216.2491963733373,1258
3217.9350018430214,1326
3219.6205358212637,1272
3221.305798629851,1288
3222.990790590651,1256
3224.6755120256103,1263
3226.359963256751,1247
3228.0441446061795,1284
3229.7280563960758,1275
3231.411698948703,1336
3233.0950725863995,1267
3234.778177631587,1300
3236.461014406761,1333
3238.1435832345005,1265
3239.8258844374595,1297
3241.507918338374,1291
3243.1896852600576,1289
3244.8711855254023,1299
3246.552419457381,1326
3248.233387379042,1284
3249.914089613516,1271
3251.59452648401,1195
3253.274698313813,1254
3254.95460542629,1288
3256.6342481448855,1326
3258.313626793125,1275
3259.9927416946084,1225
3261.6715931730196,1312
3263.3501815521176,1249
3265.0285071557437,1252
3266.706570307815,1258
3268.3843713323286,1274
3270.0619105533615,1241
3271.739188295068,1260
3273.4162048816834,1335
3275.0929606375184,1317
3276.769455886966,1297
3278.445690954498,1298
3280.1216661646613,1304
3281.797381842087,1283
3283.4728383114807,1267
3285.1480358976296,1272
3286.8229749253996,1329
3288.4976557197333,1328
3290.172078605655,1307
3291.846243908266,1263
3293.5201519527463,1271
3295.193803064357,1272
3296.8671975684374,1248
3298.5403357904024,1235
3300.21321805575,1314
3301.8858446900567,1282
3303.558216018975,1261
3305.23033236824,1273
3306.9021940636603,1292
3308.57380143113,1300
3310.2451547966184,1293
3311.916254486174,1272
3313.5871008259246,1266
3315.2576941420766,1253
3316.9280347609147,1310
3318.5981230088046,1248
3320.2679592121895,1277
3321.9375436975924,1275
3323.606876791612,1235
3325.27595882093,1268
3326.944790112305,1301
3328.6133709925753,1218
3330.2817017886573,1274
3331.949782827547,1260
3333.617614436319,1232
3335.2851969421245,1269
3336.952530672199,1217
3338.619615953853,1270
3340.286453114475,1289
3341.9530424815357,1300
3343.619384382583,1323
3345.2854791452437,1302
3346.951327097224,1280
3348.6169285663073,1289
3350.2822838803577,1284
3351.947393367319,1280
3353.61225735521,1298
3355.2768761721345,1292
3356.9412501462693,1253
3358.605379605873,1320
3360.2692648792827,1266
3361.9329062949146,1248
3363.596304181263,1230
