CollectionTime,6/26/2024 2:59:17 PM
ExposureUsed,3
CalibratedSpectrum
-962.7078968117929,2524
-959.9714848408522,2684
-957.2358232597828,2718
-954.5009119013725,2692
-951.7667505983302,2743
-949.0333391832855,2676
-946.3006774887896,2756
-943.5687653473143,2750
-940.837602591253,2808
-938.1071890529199,2686
-935.3775245645503,2803
-932.6486089583007,2729
-929.9204420662485,2810
-927.1930237203925,2798
-924.4663537526524,2732
-921.7404319948689,2683
-919.0152582788041,2733
-916.2908324361409,2716
-913.5671542984834,2786
-910.8442236973568,2707
-908.1220404642074,2774
-905.4006044304027,2748
-902.679915427231,2679
-899.959973285902,2684
-897.2407778375464,2714
-894.5223289132158,2761
-891.8046263438832,2640
-889.0876699604426,2674
-886.3714595937089,2652
-883.6559950744183,2631
-880.9412762332282,2621
-878.2273029007168,2639
-875.5140749073835,2604
-872.8015920836489,2636
-870.0898542598545,2662
-867.3788612662631,2623
-864.6686129330585,2681
-861.9591090903457,2575
-859.2503495681506,2537
-856.5423341964203,2655
-853.8350628050229,2656
-851.1285352237478,2634
-848.4227512823054,2553
-845.7177108103272,2626
-843.0134136373656,2692
-840.3098595928943,2654
-837.6070485063082,2639
-834.9049802069229,2623
-832.2036545239757,2640
-829.5030712866244,2701
-826.8032303239481,2635
-824.1041314649472,2705
-821.4057745385428,2605
-818.7081593735775,2546
-816.0112857988148,2592
-813.3151536429393,2595
-810.6197627345566,2643
-807.9251129021936,2595
-805.2312039742981,2513
-802.5380357792392,2598
-799.8456081453069,2590
-797.1539209007124,2652
-794.462973873588,2583
-791.772766891987,2573
-789.083299783884,2569
-786.3945723771743,2608
-783.7065844996748,2548
-781.0193359791231,2606
-778.3328266431781,2664
-775.6470563194197,2623
-772.9620248353489,2579
-770.2777320183878,2575
-767.5941776958798,2542
-764.9113616950891,2579
-762.2292838432011,2567
-759.5479439673222,2568
-756.8673418944801,2531
-754.1874774516235,2653
-751.5083504656222,2621
-748.8299607632671,2616
-746.15230817127,2563
-743.475392516264,2627
-740.7992136248035,2585
-738.1237713233636,2646
-735.4490654383407,2562
-732.7750957960521,2605
-730.1018622227365,2538
-727.4293645445534,2636
-724.7576025875837,2520
-722.0865761778291,2634
-719.4162851412126,2630
-716.7467293035781,2600
-714.0779084906909,2584
-711.409822528237,2608
-708.7424712418238,2589
-706.0758544569796,2612
-703.4099719991541,2538
-700.7448236937178,2561
-698.0804093659622,2603
-695.4167288411002,2545
-692.7537819442656,2465
-690.0915685005134,2489
-687.4300883348199,2588
-684.7693412720819,2599
-682.1093271371178,2575
-679.4500457546669,2596
-676.7914969493897,2620
-674.1336805458676,2577
-671.4765963686034,2493
-668.8202442420206,2592
-666.1646239904642,2583
-663.5097354382001,2580
-660.8555784094151,2541
-658.2021527282176,2510
-655.5494582186366,2630
-652.8974947046223,2641
-650.2462620100463,2657
-647.5957599587009,2667
-644.9459883742998,2705
-642.2969470804776,2645
-639.6486359007902,2697
-637.0010546587141,2611
-634.3542031776476,2576
-631.7080812809096,2542
-629.0626887917401,2548
-626.4180255333008,2521
-623.7740913286734,2562
-621.1308860008619,2569
-618.4884093727904,2557
-615.8466612673046,2612
-613.2056415071715,2535
-610.5653499150785,2569
-607.9257863136347,2510
-605.28695052537,2534
-602.6488423727357,2509
-600.0114616781036,2533
-597.3748082637674,2507
-594.7388819519412,2580
-592.1036825647604,2549
-589.4692099242818,2541
-586.8354638524829,2544
-584.2024441712624,2511
-581.5701507024403,2592
-578.9385832677575,2533
-576.3077416888759,2596
-573.6776257873787,2529
-571.0482353847704,2564
-568.4195703024757,2615
-565.7916303618415,2654
-563.164415384135,2606
-560.5379251905453,2618
-557.9121596021815,2719
-555.2871184400748,2545
-552.6628015251767,2510
-550.0392086783606,2584
-547.4163397204204,2544
-544.794194472071,2550
-542.1727727539491,2547
-539.5520743866118,2583
-536.9320991905377,2745
-534.3128469861261,2731
-531.6943175936979,2645
-529.0765108334947,2679
-526.4594265256793,2779
-523.8430644903358,2859
-521.2274245474689,3002
-518.612506517005,3049
-515.9983102187913,3199
-513.3848354725959,3192
-510.77208209810846,3281
-508.16004991493924,3382
-505.5487387426199,3392
-502.9381484006032,3638
-500.3282787082628,3690
-497.71912948489364,3736
-495.1107005497117,3789
-492.5029917218539,3775
-489.8960028203786,3566
-487.28973366426493,3320
-484.68418407241325,3214
-482.07935386364494,3076
-479.47524285670266,2914
-476.87185087025,2992
-474.2691777228715,2952
-471.66722323307334,2793
-469.0659872192821,2811
-466.4654694998459,2712
-463.86566989303384,2768
-461.26658821703614,2815
-458.66822428996414,2758
-456.07057792985,2739
-453.4736489546475,2723
-450.877437182231,2722
-448.28194243039627,2608
-445.68716451686,2753
-443.09310325926003,2679
-440.49975847515555,2604
-437.9071299820263,2618
-435.31521759727354,2577
-432.72402113821954,2558
-430.13354042210767,2618
-427.5437752661022,2671
-424.95472548728867,2776
-422.36639090267386,2772
-419.7787713291855,2703
-417.1918665836721,2707
-414.60567648290385,2649
-412.0202008435715,2645
-409.4354394822874,2634
-406.8513922155845,2723
-404.26805885991723,2722
-401.685439231661,2665
-399.103533147112,2636
-396.522340422488,2652
-393.9418608739278,2658
-391.3620943174908,2566
-388.7830405691583,2478
-386.2046994448317,2432
-383.6270707603344,2278
-381.05015433141045,2124
-378.473949973725,1866
-375.8984575028645,1710
-373.32367673433623,1553
-370.74960748356875,1434
-368.1762495659117,1321
-365.60360279663576,1195
-363.03166699093265,996
-360.4604419639154,902
-357.8899275306178,783
-355.32012350599507,733
-352.7510297049233,729
-350.1826459421999,717
-347.61497203254316,678
-345.04800779059235,631
-342.4817530309082,585
-339.91620756797226,593
-337.35137121618743,622
-334.7872437898774,666
-332.22382510328725,722
-329.66111497058273,693
-327.09911320585127,707
-324.53781962310075,747
-321.9772340362607,691
-319.4173562591816,669
-316.8581861056348,773
-314.2997233893127,767
-311.7419679238294,753
-309.1849195227194,721
-306.62857799943856,618
-304.0729431673641,624
-301.51801483979375,604
-298.963792829947,663
-296.41027695096386,679
-293.85746701590574,671
-291.3053628377552,745
-288.7539642294155,760
-286.2032710037115,770
-283.65328297338897,804
-281.1039999511146,784
-278.5554217494762,857
-276.007548180983,807
-273.4603790580651,754
-270.9139141930734,717
-268.3681533982807,804
-265.8230964858798,796
-263.27874326798565,810
-260.7350935566336,888
-258.1921471637804,995
-255.6499039013039,1068
-253.10836358100266,906
-250.56752601459698,784
-248.02739101372765,871
-245.48795838995704,918
-242.94922795476816,938
-240.41119951956557,838
-237.8738728956746,931
-235.33724789434166,1011
-232.80132432673452,1192
-230.2661020039418,1204
-227.73158073697357,1064
-225.19776033676033,1032
-222.66464061415422,1044
-220.1322213799284,949
-217.60050244477725,965
-215.06948361931552,1005
-212.53916471408013,1021
-210.00954553952818,985
-207.48062590603843,1012
-204.9524056239104,1105
-202.4248845033651,1059
-199.8980623545441,892
-197.37193898751036,931
-194.84651421224817,1114
-192.32178783866232,1140
-189.79775967657952,1054
-187.27442953574644,1157
-184.7517972258321,1223
-182.2298625564256,1125
-179.7086253370378,1148
-177.18808537710026,1303
-174.66824248596583,1341
-172.14909647290835,1507
-169.6306471471229,1297
-167.11289431772548,1287
-164.59583779375328,1235
-162.07947738416453,1272
-159.5638128978386,1303
-157.04884414357605,1497
-154.53457093009854,1507
-152.02099306604828,1350
-149.50811035998936,1454
-146.99592262040665,1549
-144.48442965570587,1364
-141.97363127421409,1463
-139.46352728417958,1583
-136.95411749377126,1497
-134.44540171107985,1585
-131.93737974411636,1655
-129.43005140081357,1735
-126.92341648902493,1714
-124.41747481652521,1831
-121.91222619101006,1650
-119.40767042009657,1635
-116.90380731132257,1618
-114.40063667214702,1801
-111.8981583099503,2061
-109.3963720320337,2115
-106.89527764561933,1849
-104.39487495785067,1936
-101.89516377579241,2081
-99.39614390642998,2150
-96.89781515667039,2319
-94.40017733334128,2732
-91.90323024319173,2537
-89.40697369289148,2536
-86.91140748903172,2263
-84.41653143812482,2043
-81.92234534660395,2436
-79.42884902082358,2471
-76.93604226705907,2570
-74.4439248915071,2429
-71.95249670028534,2303
-69.46175749943245,2887
-66.97170709490854,3104
-64.48234529259423,3513
-61.99367189829195,3309
-59.50568671772464,3303
-57.01838955653636,4357
-54.53178022029283,4179
-52.045858514480074,3819
-49.560624244506016,3901
-47.07607721569923,3964
-44.59221723330904,4189
-42.10904410250669,4752
-39.62655762838392,5306
-37.14475761595372,6236
-34.66364387015028,6960
-32.18321619582866,7073
-29.70347439776515,8543
-27.224418280657005,11006
-24.74604764912317,14421
-22.26836230770266,20568
-19.7913620608565,31710
-17.315046712966478,46382
-14.83941606833514,54659
-12.36446993118659,65039
-9.89020810566592,65039
-7.416630395839093,65039
-4.94373660569363,65039
-2.471526539137585,65039
-6.821210263296962E-13,65039
2.47084320796705,65039
4.941003281093458,65039
7.410480415786196,65039
9.879274808531363,65039
12.347386655893956,65039
14.814816154518212,65039
17.28156350112681,65039
19.74762889252179,65039
22.21301252558385,65039
24.67771459727237,65039
27.141735304626195,65039
29.605074844762612,44662
32.06773341487792,19571
34.52971121224755,17481
36.99100843422559,16825
39.45162527824516,15456
41.91156194181792,14537
44.370818622535126,14981
46.82939551806646,14575
49.287292826160524,15160
51.74451074464503,15522
54.201049471426245,10733
56.65690920448981,7202
59.112090141899785,5578
61.56659248179983,5014
64.02041642241159,4397
66.4735621620365,4189
68.92602989905402,3199
71.37781983192338,3368
73.82893215918205,4063
76.27936707944684,4109
78.72912479141326,3995
81.17820549385567,4110
83.62660938562783,3955
86.07433666566146,3699
88.5213875329681,4084
90.96776218663751,3366
93.41346082583925,3090
95.85848364982041,2618
98.30283085790859,2488
100.7465026495089,2760
103.18949922410604,2964
105.63182078126385,2507
108.07346752062438,2423
110.51443964190923,2646
112.95473734491827,2338
115.39436082953114,1924
117.83331029570547,2209
120.27158594347827,2433
122.7091879729652,1995
125.1461165843615,1849
127.58237197794062,1757
130.01795435405518,1560
132.4528639131364,1509
134.88710085569494,1810
137.32066538231982,1713
139.75355769367923,1708
142.1857779905207,1914
144.61732647366978,1984
147.04820334403132,1589
149.47840880258934,1527
151.90794305040674,2075
154.33680628862487,2342
156.76499871846443,2080
159.19252054122433,2112
161.61937195828352,2281
164.04555317109896,2588
166.47106438120693,2810
168.89590579022217,3203
171.320077599839,3285
173.7435800118302,3532
176.16641322804742,3510
178.58857745042144,3525
181.01007288096173,3842
183.43089972175687,4011
185.85105817497413,4072
188.27054844285988,4075
190.6893707277394,4158
193.10752523201643,4134
195.5250121581745,4365
197.9418317087751,4435
200.3579840864594,4467
202.7734694939469,4477
205.18828813403627,4397
207.6024402096051,4411
210.01592592360964,4441
212.42874547908548,4585
214.84089907914665,4354
217.2523869269868,4355
219.66320922587727,4508
222.0733661791695,4456
224.48285799029293,4402
226.8916848627572,4493
229.29984700014882,4575
231.7073446061355,4460
234.11417788446204,4537
236.520347038953,4650
238.92585227351185,4759
241.33069379212054,4871
243.73487179884035,4681
246.1383864978112,4664
248.541238093252,4557
250.9434267894609,4607
253.34495279081432,4693
255.74581630176783,4797
258.1460175268563,5016
260.54555667069314,4774
262.9444339379703,4699
265.3426495334594,4621
267.7402036620107,4615
270.1370965285529,4596
272.53332833809407,4500
274.9288992957214,4470
277.32380960660055,4348
279.718059475976,4291
282.1116491091717,4499
284.5045787115897,4539
286.89684848871195,4487
289.2884586460981,4475
291.67940938938807,4226
294.0697009242996,4368
296.4593334566299,4424
298.84830719225477,4276
301.23662233712923,4175
303.6242790972866,4226
306.01127767884,4236
308.39761828798066,4392
310.78330113097934,4262
313.16832641418534,4280
315.5526943440269,4319
317.9364051270112,4159
320.3194589697242,4112
322.70185607883093,4104
325.0835966610754,4028
327.4646809232805,4006
329.8451090723478,3866
332.2248813152577,4067
334.6039978590701,4073
336.9824589109231,4003
339.36026467803447,4029
341.7374153677,3914
344.113911187295,3906
346.48975234427337,3821
348.8649390461686,3840
351.2394715005918,3782
353.61334991523415,3917
355.9865744978655,3845
358.35914545633375,3822
360.73106299856715,3853
363.10232733257146,3813
365.47293866643247,3788
367.84289720831396,3711
370.2122031664593,3772
372.5808567491905,3863
374.9488581649083,3903
377.31620762209275,3855
379.6829053293021,3927
382.0489514951745,3796
384.4143463284262,3832
386.7790900378528,3707
389.14318283232853,3805
391.50662492080653,3837
393.86941651231916,3805
396.23155781597745,3795
398.5930490409713,3793
400.9538903965696,3805
403.3140820921202,3691
405.6736243370498,3662
408.03251734086336,3785
410.3907613131465,3722
412.74835646356166,3727
415.10530300185144,3795
417.4616011378372,3768
419.81725108141893,3778
422.1722530425758,3739
424.5266072313656,3787
426.880313857925,3711
429.2333731324701,3674
431.58578526529516,3723
433.9375504667738,3651
436.2886689473588,3635
438.63914091758113,3776
440.9889665880513,3664
443.33814616945835,3694
445.68667987257015,3665
448.03456790823395,3610
450.3818104873759,3695
452.72840782100013,3556
455.07436012019105,3760
457.41966759611057,3700
459.7643304600007,3699
462.10834892318155,3726
464.4517231970525,3630
466.79445349309174,3713
469.1365400228566,3730
471.4779829979826,3675
473.81878263018564,3752
476.15893913125876,3746
478.4984527130747,3699
480.8373235875855,3808
483.17555196682144,3772
485.5131380628919,3985
487.8500820879857,4069
490.1863842543697,4256
492.52204477439034,4452
494.8570638604725,4648
497.1914417251204,4974
499.52517858091653,5136
501.85827464052306,5221
504.19073011668036,5352
506.5225452222086,5156
508.85372017000566,5040
511.18425517304956,4901
513.514150444396,4937
515.8434061971808,5538
518.1720226446176,6005
520.4999999999999,6508
522.8273384766991,6691
525.1540382881666,7004
527.480099647932,6797
529.8055227696037,6086
532.1303078668694,4827
534.454455153496,4158
536.777964843328,3778
539.1008371502907,3681
541.4230722883866,3711
543.744670471698,3634
546.0656319143858,3691
548.3859568306899,3643
550.7056454349294,3598
553.0246979415016,3619
555.3431145648834,3494
557.6608955196306,3576
559.978041020377,3537
562.2945512818363,3526
564.6104265188006,3529
566.9256669461412,3530
569.2402727788082,3499
571.5542442318302,3567
573.8675815203156,3573
576.1802848594508,3537
578.4923544645015,3511
580.8037905508126,3505
583.114593333807,3575
585.4247630289875,3527
587.7342998519354,3527
590.0432040183106,3539
592.3514757438526,3443
594.6591152443794,3508
596.9661227357875,3553
599.2724984340531,3560
601.578242555231,3600
603.8833553154542,3648
606.1878369309362,3651
608.4916876179676,3642
610.7949075929192,3639
613.0974970722403,3635
615.3994562724587,3510
617.7007854101818,3595
620.0014847020951,3571
622.3015543649641,3478
624.6009946156324,3544
626.8998056710224,3624
629.1979877481361,3610
631.4955410640538,3603
633.7924658359349,3682
636.0887622810175,3628
638.3844306166192,3636
640.6794710601358,3576
642.9738838290426,3637
645.2676691408932,3622
647.5608272133207,3635
649.853358264037,3652
652.1452625108324,3680
654.4365401715764,3706
656.7271914642178,3615
659.0172166067838,3621
661.3066158173809,3595
663.5953893141935,3653
665.8835373154867,3593
668.1710600396028,3685
670.4579577049639,3724
672.7442305300709,3752
675.0298787335033,3753
677.3149025339197,3817
679.599302150058,3707
681.8830778007342,3858
684.1662297048437,3681
686.4487580813608,3716
688.7306631493387,3667
691.0119451279091,3726
693.2926042362834,3844
695.5726406937516,3716
697.8520547196814,3733
700.1308465335215,3634
702.4090163547982,3694
704.6865644031171,3791
706.9634908981619,3740
709.2397960596965,3679
711.5154801075631,3642
713.7905432616823,3732
716.0649857420548,3828
718.3388077687592,3797
720.612009561953,3725
722.8845913418733,3697
725.1565533288352,3702
727.427895743234,3723
729.6986188055427,3774
731.9687227363137,3814
734.238207756178,3704
736.5070740858458,3753
738.7753219461066,3702
741.0429515578281,3758
743.3099631419569,3709
745.5763569195191,3739
747.8421331116193,3879
750.1072919394409,3824
752.3718336242467,3749
754.6357583873777,3809
756.8990664502545,3778
759.1617580343765,3791
761.423833361321,3838
763.6852926527457,3776
765.9461361303862,3789
768.206364016058,3786
770.4659765316536,3792
772.7249738991469,3832
774.9833563405886,3905
777.2411240781092,3882
779.4982773339183,3879
781.7548163303044,3846
784.010741289634,3867
786.2660524343538,4053
788.5207499869881,3922
790.7748341701416,3870
793.0283052064964,3859
795.2811633188143,3976
797.5334087299362,3870
799.7850416627813,3905
802.0360623403484,3910
804.2864709857143,3905
806.5362678220353,3917
808.7854530725468,3887
811.0340269605625,3967
813.2819897094754,3885
815.5293415427581,3856
817.77608268396,3850
820.0222133567116,3862
822.2677337847211,3928
824.5126441917765,3849
826.7569448017433,3762
829.0006358385675,3961
831.2437175262731,3856
833.4861900889629,3842
835.7280537508192,3884
837.9693087361026,3774
840.2099552691533,3902
842.4499935743896,3900
844.689423876309,3942
846.9282463994886,3883
849.1664613685833,3846
851.4040690083276,3949
853.6410695435349,3931
855.877463199097,3932
858.1132501999847,3940
860.3484307712487,3992
862.5830051380175,4009
864.8169735254988,3928
867.0503361589791,3909
869.2830932638243,4004
871.5152450654786,3971
873.7467917894654,4084
875.9777336613873,3964
878.2080709069252,3888
880.4378037518389,4028
882.666932421968,4020
884.8954571432301,4046
887.1233781416219,4092
889.3506956432192,4021
891.5774098741766,4021
893.803521060728,4006
896.0290294291852,4044
898.2539352059397,4033
900.4782386174619,4030
902.7019398903011,4093
904.925039251085,3965
907.147536926521,4081
909.3694331433943,4049
911.59072812857,4004
913.8114221089921,3971
916.0315153116827,3941
918.2510079637437,3927
920.4699002923547,3964
922.6881925247761,3944
924.905884888345,4024
927.1229776104793,4001
929.3394709186747,3947
931.555365040506,4045
933.7706602036275,4023
935.9853566357709,4074
938.1994545647489,3919
940.4129542184515,3897
942.6258558248488,4053
944.8381596119883,3999
947.0498658079974,3941
949.2609746410825,3950
951.4714863395287,3948
953.6814011316998,4051
955.8907192460387,4046
958.0994409110671,4090
960.3075663553858,3909
962.5150958076741,3946
964.7220294966913,3902
966.928367651274,4008
969.1341105003388,4003
971.3392582728806,3990
973.5438111979742,3871
975.747769504772,3954
977.9511334225061,3971
980.153903180487,4019
982.3560790081052,3922
984.5576611348289,3996
986.7586497902058,4016
988.9590452038618,3952
991.158847605503,3854
993.3580572249133,3839
995.5566742919558,3774
997.7546990365728,3897
999.952131688785,3767
1002.1489724786926,3783
1004.3452216364743,3836
1006.5408793923874,3884
1008.7359459767691,3845
1010.9304216200343,3710
1013.1243065526781,3788
1015.3176010052733,3793
1017.510305208472,3745
1019.7024193930064,3667
1021.8939437896848,3719
1024.0848786293977,3711
1026.2752241431122,3777
1028.4649805618747,3717
1030.6541481168115,3695
1032.842727039127,3767
1035.0307175601051,3763
1037.2181199111074,3632
1039.4049343235752,3656
1041.591161029029,3680
1043.7768002590683,3662
1045.9618522453698,3719
1048.1463172196918,3697
1050.3301954138697,3742
1052.513487059818,3773
1054.69619238953,3748
1056.8783116350783,3650
1059.0598450286152,3543
1061.2407928023704,3858
1063.4211551886528,3828
1065.6009324198508,3737
1067.780124728432,3737
1069.9587323469414,3745
1072.1367555080046,3683
1074.314194444325,3749
1076.4910493886855,3620
1078.667320573947,3836
1080.843008233051,3635
1083.0181125990161,3610
1085.1926339049414,3609
1087.3665723840027,3764
1089.5399282694575,3708
1091.7127017946405,3699
1093.8848931929647,3615
1096.0565026979243,3634
1098.2275305430899,3764
1100.3979769621128,3766
1102.567842188722,3690
1104.737126456726,3618
1106.9058300000124,3691
1109.0739530525475,3660
1111.2414958483764,3631
1113.4084586216231,3710
1115.5748416064907,3665
1117.7406450372605,3620
1119.9058691482942,3642
1122.0705141740304,3714
1124.2345803489884,3685
1126.3980679077658,3738
1128.5609770850388,3709
1130.7233081155623,3619
1132.8850612341707,3685
1135.0462366757774,3708
1137.2068346753745,3603
1139.3668554680326,3656
1141.526299288901,3712
1143.68516637321,3734
1145.8434569562655,3660
1148.001171273455,3714
1150.158309560244,3611
1152.3148720521767,3665
1154.470858984876,3551
1156.626270594044,3621
1158.7811071154629,3636
1160.9353687849912,3762
1163.089055838569,3739
1165.242168512213,3837
1167.3947070420209,3707
1169.5466716641677,3730
1171.6980626149075,3734
1173.8488801305748,3737
1175.9991244475814,3779
1178.1487958024186,3632
1180.2978944316555,3780
1182.4464205719428,3687
1184.5943744600072,3576
1186.7417563326567,3647
1188.8885664267755,3696
1191.0348049793297,3645
1193.1804722273619,3645
1195.325568407995,3672
1197.4700937584303,3639
1199.614048515948,3742
1201.7574329179074,3783
1203.900247201746,3630
1206.042491604982,3716
1208.1841663652099,3740
1210.3252717201053,3688
1212.465807907422,3736
1214.6057751649923,3660
1216.7451737307279,3671
1218.8840038426192,3814
1221.0222657387353,3681
1223.1599596572241,3701
1225.2970858363137,3757
1227.4336445143094,3773
1229.5696359295966,3801
1231.705060320639,3717
1233.8399179259786,3736
1235.9742089842384,3795
1238.107933734118,3806
1240.2410924143974,3604
1242.373685263935,3732
1244.5057125216676,3666
1246.6371744266116,3799
1248.7680712178621,3714
1250.898403134593,3697
1253.028170416058,3745
1255.1573733015875,3747
1257.2860120305932,3927
1259.4140868425648,3780
1261.54159797707,3711
1263.6685456737569,3710
1265.7949301723515,3773
1267.9207517126597,3689
1270.046010534565,3804
1272.1707068780306,3852
1274.2948409830983,3841
1276.4184130898889,3792
1278.541423438603,3762
1280.6638722695184,3761
1282.785759822993,3854
1284.9070863394636,3847
1287.0278520594447,3879
1289.1480572235314,3847
1291.2677020723963,3992
1293.3867868467923,3942
1295.5053117875495,4034
1297.623277135579,3822
1299.740683131868,4071
1301.8575300174857,4013
1303.973818033578,3936
1306.0895474213703,4047
1308.2047184221678,4042
1310.3193312773528,4016
1312.4333862283888,3891
1314.5468835168163,4029
1316.659823384255,3963
1318.7722060724045,3964
1320.8840318230418,3961
1322.9953008780249,3959
1325.1060134792888,4022
1327.2161698688478,3976
1329.3257702887959,4118
1331.4348149813054,4058
1333.5433041886276,3987
1335.6512381530933,3970
1337.7586171171101,3998
1339.8654413231675,3991
1341.9717110138317,4035
1344.0774264317488,3871
1346.1825878196432,4013
1348.2871954203192,3970
1350.3912494766587,3898
1352.4947502316231,3834
1354.5976979282532,3855
1356.7000928096686,3976
1358.8019351190665,3958
1360.9032250997243,3943
1363.0039629949988,3858
1365.1041490483235,3962
1367.2037835032133,3947
1369.3028666032606,4010
1371.401398592137,3887
1373.4993797135926,3997
1375.5968102114575,4072
1377.6936903296396,4059
1379.7900203121262,4032
1381.8858004029835,3956
1383.9810308463561,3905
1386.075711886469,3930
1388.1698437676241,4000
1390.2634267342032,4078
1392.356461030667,3987
1394.4489469015557,4013
1396.5408845914872,4034
1398.6322743451592,3916
1400.7231164073469,3935
1402.813411022907,3925
1404.903158436773,4000
1406.9923588939578,3985
1409.0810126395531,4063
1411.1691199187303,3945
1413.2566809767386,3962
1415.343696058907,3963
1417.4301654106425,3953
1419.5160892774315,4044
1421.6014679048399,4084
1423.6863015385125,4004
1425.7705904241707,4100
1427.8543348076178,4056
1429.9375349347342,4104
1432.0201910514802,3999
1434.102303403894,4042
1436.1838722380944,4003
1438.2648978002767,3971
1440.3453803367174,4031
1442.4253200937692,4050
1444.5047173178677,4083
1446.5835722555234,4103
1448.6618851533285,4199
1450.739656257952,4163
1452.8168858161434,4142
1454.8935740747306,4222
1456.96972128062,4247
1459.045327680797,4128
1461.120393522327,4214
1463.1949190523528,4200
1465.2689045180973,4301
1467.3423501668608,4379
1469.415256246024,4403
1471.4876230030463,4326
1473.559450685465,4277
1475.6307395408976,4401
1477.7014898170391,4415
1479.771701761665,4415
1481.8413756226287,4364
1483.9105116478618,4491
1485.9791100853772,4482
1488.0471711832643,4477
1490.1146951896926,4633
1492.1816823529098,4644
1494.2481329212433,4613
1496.3140471430984,4614
1498.3794252669609,4711
1500.4442675413939,4664
1502.5085742150404,4700
1504.572345536622,4753
1506.6355817549388,4752
1508.6982831188702,4767
1510.7604498773744,4718
1512.8220822794883,4846
1514.8831805743293,5001
1516.9437450110909,4910
1519.003775839048,4923
1521.0632733075522,4926
1523.1222376660367,4949
1525.1806691640113,5050
1527.2385680510652,5202
1529.2959345768668,5221
1531.3527689911643,5115
1533.4090715437833,5339
1535.4648424846291,5205
1537.5200820636855,5436
1539.5747905310159,5352
1541.6289681367616,5388
1543.6826151311434,5459
1545.7357317644614,5612
1547.7883182870937,5474
1549.8403749494987,5553
1551.8919020022113,5736
1553.9428996958477,5660
1555.9933682811015,5843
1558.0433080087469,5782
1560.0927191296346,5939
1562.1416018946961,5957
1564.1899565549415,5992
1566.2377833614592,6085
1568.2850825654164,6022
1570.3318544180606,5968
1572.3780991707158,5843
1574.423817074788,5769
1576.4690083817595,5558
1578.5136733431923,5302
1580.5578122107272,5372
1582.601425236085,5179
1584.6445126710646,5088
1586.6870747675434,4927
1588.7291117774776,4740
1590.7706239529034,4631
1592.8116115459347,4686
1594.8520748087658,4582
1596.8920139936686,4507
1598.9314293529933,4385
1600.9703211391711,4377
1603.008689604711,4340
1605.0465350022005,4269
1607.0838575843068,4241
1609.1206576037753,4180
1611.1569353134305,4207
1613.1926909661765,4118
1615.2279248149953,4138
1617.2626371129481,4135
1619.2968281131757,4096
1621.3304980688963,4149
1623.3636472334088,4120
1625.39627586009,4112
1627.428384202396,4016
1629.459972513861,4155
1631.4910410480993,4080
1633.5215900588028,3991
1635.551619799744,4007
1637.5811305247717,3995
1639.6101224878166,3962
1641.6385959428862,3999
1643.6665511440683,3976
1645.693988345528,3956
1647.7209078015112,3927
1649.7473097663405,3894
1651.7731944944203,3971
1653.7985622402307,3948
1655.823413258333,3984
1657.847747803366,3888
1659.8715661300494,3872
1661.8948684931793,3839
1663.9176551476316,3844
1665.9399263483624,3802
1667.9616823504057,3843
1669.982923408873,3962
1672.0036497789574,3837
1674.0238617159293,3888
1676.043559475138,3886
1678.0627433120121,3861
1680.081413482059,3894
1682.0995702408654,3940
1684.117213844096,3888
1686.134344547495,3837
1688.1509626068864,3688
1690.1670682781705,3806
1692.182661817329,3934
1694.1977434804217,3913
1696.2123135235875,3892
1698.226372203043,3959
1700.2399197750851,3831
1702.2529564960905,3894
1704.2654826225112,3906
1706.277498410882,3865
1708.2890041178139,3945
1710.2999999999988,3871
1712.3104863142066,3863
1714.3204633172854,3858
1716.329931266163,3907
1718.3388904178469,3897
1720.3473410294214,3986
1722.3552833580516,3883
1724.3627176609807,3857
1726.3696441955308,3833
1728.3760632191033,3860
1730.3819749891782,3944
1732.3873797633146,3867
1734.3922777991502,3794
1736.3966693544012,3756
1738.4005546868639,3868
1740.4039340544127,3915
1742.406807715001,3870
1744.4091759266616,3864
1746.4110389475054,3836
1748.4123970357223,3845
1750.413250449582,3806
1752.4135994474318,3857
1754.4134442876993,3763
1756.4127852288902,3927
1758.4116225295893,3799
1760.4099564484595,3696
1762.407787244244,3718
1764.405115175764,3792
1766.4019405019203,3795
1768.3982634816916,3843
1770.3940843741357,3787
1772.3894034383907,3718
1774.3842209336717,3770
1776.378537119274,3824
1778.372352254571,3961
1780.3656665990156,3809
1782.3584804121397,3710
1784.3507939535534,3659
1786.3426074829463,3783
1788.3339212600863,3735
1790.3247355448211,3769
1792.3150505970766,3759
1794.3048666768573,3787
1796.2941840442477,3833
1798.2830029594106,3690
1800.2713236825884,3638
1802.2591464741004,3681
1804.2464715943465,3845
1806.2332993038058,3789
1808.2196298630352,3758
1810.2054635326708,3720
1812.190800573428,3745
1814.175641246101,3711
1816.1599858115628,3769
1818.1438345307652,3708
1820.127187664738,3846
1822.1100454745924,3776
1824.092408221516,3777
1826.0742761667766,3714
1828.055649571721,3762
1830.0365286977735,3800
1832.0169138064398,3790
1833.9968051593014,3699
1835.9762030180214,3659
1837.9551076443408,3754
1839.9335193000788,3755
1841.9114382471344,3687
1843.888864747485,3819
1845.8657990631878,3771
1847.842241456378,3720
1849.8181921892697,3754
1851.7936515241558,3795
1853.7686197234098,3764
1855.7430970494815,3741
1857.7170837649014,3704
1859.6905801322787,3728
1861.6635864143004,3800
1863.6361028737338,3740
1865.608129773424,3746
1867.5796673762961,3762
1869.5507159453537,3769
1871.521275743678,3743
1873.4913470344313,3755
1875.4609300808534,3803
1877.4300251462632,3790
1879.3986324940588,3805
1881.366752387717,3775
1883.3343850907936,3732
1885.3015308669228,3735
1887.268189979819,3781
1889.2343626932739,3789
1891.2000492711595,3749
1893.1652499774254,3769
1895.1299650761011,3640
1897.0941948312952,3810
1899.0579395071945,3728
1901.0211993680641,3927
1902.98397467825,3708
1904.9462657021745,3857
1906.9080727043415,3711
1908.869395949332,3774
1910.8302357018065,3789
1912.790592226504,3691
1914.7504657882428,3790
1916.7098566519212,3622
1918.6687650825133,3725
1920.6271913450764,3784
1922.5851357047422,3817
1924.5425984267245,3785
1926.499579776314,3764
1928.4560800188833,3776
1930.4120994198802,3787
1932.367638244833,3773
1934.32269675935,3839
1936.2772752291175,3676
1938.231373919899,3796
1940.1849930975404,3702
1942.1381330279637,3685
1944.0907939771696,3757
1946.0429762112412,3841
1947.9946799963363,3638
1949.9459055986945,3712
1951.896653284633,3821
1953.8469233205478,3742
1955.7967159729142,3732
1957.7460315082863,3675
1959.6948701932974,3692
1961.6432322946594,3733
1963.5911180791632,3689
1965.5385278136787,3654
1967.4854617651545,3706
1969.4319202006182,3745
1971.377903387176,3740
1973.3234115920136,3706
1975.268445082395,3707
1977.2130041256642,3778
1979.1570889892423,3701
1981.1006999406304,3752
1983.04383724741,3730
1984.986501177238,3747
1986.928691997853,3718
1988.8704099770712,3575
1990.811655382789,3694
1992.7524284829801,3766
1994.692729545698,3739
1996.6325588390755,3725
1998.5719166313224,3675
2000.5108031907307,3701
2002.4492187856677,3699
2004.387163684583,3618
2006.3246381560011,3691
2008.2616424685298,3649
2010.1981768908527,3711
2012.1342416917332,3662
2014.069837140014,3641
2016.0049635046162,3515
2017.9396210545406,3762
2019.8738100588666,3611
2021.8075307867502,3680
2023.740783507431,3677
2025.6735684902228,3705
2027.6058860045214,3626
2029.5377363198004,3594
2031.4691197056118,3699
2033.4000364315875,3767
2035.3304867674374,3705
2037.260470982952,3556
2039.189989347998,3618
2041.1190421325232,3693
2043.047629606554,3725
2044.9757520401945,3689
2046.9034097036288,3537
2048.8306028671195,3675
2050.7573318010086,3656
2052.683596775716,3720
2054.609398061742,3740
2056.5347359296647,3543
2058.4596106501403,3655
2060.384022493906,3677
2062.3079717317764,3675
2064.231458634646,3676
2066.1544834734873,3604
2068.077046519352,3727
2069.99914804337,3705
2071.9207883167524,3754
2073.8419676107865,3635
2075.7626861968406,3616
2077.6829443463607,3547
2079.6027423308715,3711
2081.522080421977,3544
2083.440958891362,3730
2085.359378010786,3699
2087.2773380520907,3668
2089.194839287196,3671
2091.111881988101,3675
2093.0284664268825,3514
2094.9445928756973,3643
2096.86026160678,3594
2098.775472892446,3643
2100.690227005088,3625
2102.604524217178,3578
2104.5183648012676,3530
2106.431749029985,3602
2108.34467717604,3561
2110.2571495122206,3671
2112.169166311393,3525
2114.080727846503,3494
2115.9918343905747,3536
2117.902486216711,3617
2119.8126835980956,3563
2121.722426807987,3604
2123.6317161197285,3559
2125.5405518067364,3534
2127.448934142509,3471
2129.356863400624,3562
2131.264339854737,3530
2133.1713637785815,3591
2135.077935445972,3525
2136.9840551308002,3523
2138.889723107037,3559
2140.7949396487334,3568
2142.699705030018,3645
2144.6040195250994,3606
2146.507883408264,3520
2148.4112969538774,3552
2150.3142604363848,3580
2152.2167741303097,3671
2154.1188383102535,3613
2156.0204532508997,3489
2157.9216192270064,3558
2159.822336513414,3676
2161.7226053850413,3552
2163.622426116884,3649
2165.5217989840185,3640
2167.4207242616,3491
2169.319202224862,3542
2171.2172331491165,3561
2173.1148173097563,3563
2175.0119549822507,3550
2176.90864644215,3542
2178.8048919650823,3528
2180.7006918267534,3534
2182.596046302952,3583
2184.4909556695407,3573
2186.3854202024645,3551
2188.279440177746,3553
2190.173015871487,3596
2192.066147559868,3472
2193.958835519149,3583
2195.851080025667,3585
2197.7428813558417,3550
2199.6342397861667,3496
2201.5251555932186,3528
2203.415629053651,3633
2205.3056604441986,3493
2207.19525004167,3534
2209.084398122958,3508
2210.9731049650327,3460
2212.861370844941,3477
2214.749196039812,3561
2216.636580826851,3584
2218.523525483344,3586
2220.410030286655,3574
2222.296095514226,3579
2224.1817214435805,3565
2226.066908352319,3431
2227.951656518121,3570
2229.835966218746,3634
2231.71983773203,3559
2233.6032713358913,3624
2235.486267308324,3533
2237.3688259274036,3565
2239.2509474712824,3541
2241.132632218193,3546
2243.013880446447,3472
2244.8946924344323,3636
2246.7750684606203,3482
2248.6550088035574,3465
2250.534513741871,3455
2252.413583554265,3518
2254.292218519526,3511
2256.170418916517,3538
2258.0481850241786,3516
2259.925517121534,3589
2261.8024154876825,3404
2263.678880401803,3543
2265.5549121431536,3429
2267.430510991071,3456
2269.305677224971,3467
2271.180411124348,3480
2273.0547129687766,3440
2274.9285830379076,3423
2276.8020216114737,3465
2278.6750289692845,3512
2280.5476053912294,3480
2282.4197511572766,3520
2284.2914665474727,3634
2286.162751841943,3541
2288.0336073208937,3538
2289.904033264608,3512
2291.774029953448,3509
2293.6435976678554,3446
2295.5127366883517,3512
2297.381447295534,3587
2299.2497297700825,3502
2301.1175843927526,3552
2302.9850114443825,3494
2304.852011205885,3521
2306.7185839582553,3433
2308.5847299825664,3449
2310.4504495599676,3463
2312.3157429716925,3476
2314.1806104990483,3409
2316.0450524234247,3507
2317.9090690262888,3545
2319.772660589186,3491
2321.635827393742,3484
2323.498569721661,3371
2325.3608878547248,3519
2327.2227820747967,3605
2329.0842526638157,3540
2330.945299903803,3468
2332.805924076857,3523
2334.6661254651535,3537
2336.525904350951,3489
2338.3852610165827,3485
2340.244195744464,3431
2342.102708817088,3552
2343.9608005170253,3490
2345.8184711269287,3536
2347.675720929526,3380
2349.532550207628,3419
2351.38895924412,3415
2353.24494832197,3426
2355.100517724223,3445
2356.955667734004,3476
2358.810398634514,3461
2360.664710709037,3480
2362.5186042409337,3486
2364.3720795136437,3467
2366.225136810686,3428
2368.0777764156583,3466
2369.929998612237,3425
2371.7818036841777,3519
2373.633191915315,3464
2375.484163589562,3517
2377.3347189909114,3453
2379.184858403434,3489
2381.03458211128,3524
2382.8838903986775,3374
2384.732783549936,3315
2386.5812618494406,3459
2388.4293255816588,3426
2390.2769750311327,3452
2392.1242104824883,3438
2393.971032220427,3375
2395.8174405297295,3370
2397.6634356952563,3426
2399.509018001947,3416
2401.3541877348193,3510
2403.1989451789705,3443
2405.043290619576,3434
2406.8872243418905,3400
2408.730746631247,3419
2410.5738577730594,3489
2412.4165580528183,3352
2414.258847756095,3422
2416.100727168537,3390
2417.9421965758734,3435
2419.783256263912,3445
2421.623906518538,3456
2423.4641476257157,3394
2425.303979871491,3405
2427.143403541984,3516
2428.9824189233977,3461
2430.821026302012,3486
2432.6592259641866,3431
2434.497018196361,3439
2436.33440328505,3396
2438.171381516851,3445
2440.00795317844,3472
2441.844118556569,3490
2443.6798779380724,3410
2445.5152316098606,3439
2447.3501798589255,3473
2449.1847229723357,3419
2451.0188612372403,3475
2452.8525949408663,3420
2454.6859243705203,3432
2456.518849813587,3468
2458.3513715575314,3464
2460.183489889895,3386
2462.015205098301,3417
2463.8465174704493,3350
2465.67742729412,3438
2467.5079348571717,3360
2469.338040447542,3479
2471.1677443532476,3406
2472.9970468623833,3328
2474.825948263123,3416
2476.6544488437207,3374
2478.482548892508,3395
2480.310248697896,3431
2482.137548548374,3367
2483.9644487325118,3398
2485.790949538956,3425
2487.617051256433,3398
2489.44275417375,3339
2491.26805857979,3378
2493.0929647635157,3350
2494.917473013971,3361
2496.741583620276,3486
2498.5652968716304,3432
2500.3886130573137,3304
2502.2115324666834,3431
2504.0340553891765,3358
2505.856182114308,3386
2507.6779129316733,3387
2509.499248130945,3440
2511.3201880018764,3458
2513.140732834298,3392
2514.9608829181198,3403
2516.780638543331,3444
2518.6,3394
2520.418967578273,3392
2522.237541568376,3291
2524.0557222606144,3330
2525.8735099453706,3368
2527.6909049131086,3374
2529.507907454368,3408
2531.32451785977,3350
2533.140736420014,3360
2534.9565634258774,3451
2536.771999168218,3446
2538.5870439379714,3429
2540.4016980261526,3461
2542.2159617238544,3453
2544.02983532225,3376
2545.8433191125914,3480
2547.656413386209,3356
2549.4691184345115,3432
2551.2814345489874,3406
2553.093362021204,3373
2554.904901142808,3498
2556.716052205523,3358
2558.526815501153,3393
2560.3371913215824,3435
2562.147179958771,3465
2563.956781704761,3325
2565.7659968516705,3452
2567.5748256916986,3451
2569.3832685171224,3582
2571.1913256202984,3503
2572.9989972936614,3359
2574.806283829725,3531
2576.613185521084,3508
2578.4197026604074,3443
2580.2258355404483,3530
2582.031584454035,3525
2583.836949694077,3490
2585.6419315535613,3428
2587.4465303255533,3445
2589.2507463032002,3519
2591.0545797797245,3482
2592.8580310484303,3530
2594.6611004026995,3441
2596.463788135992,3438
2598.266094541849,3447
2600.0680199138874,3513
2601.869564545807,3520
2603.670728731383,3428
2605.4715127644704,3531
2607.2719169390048,3547
2609.071941548998,3487
2610.8715868885433,3567
2612.670853251811,3453
2614.469740933052,3592
2616.268250226594,3537
2618.0663814268455,3453
2619.864134828292,3501
2621.6615107255006,3477
2623.458509413115,3472
2625.2551311858597,3495
2627.0513763385347,3507
2628.8472451660223,3451
2630.6427379632833,3331
2632.4378550253564,3479
2634.232596647359,3450
2636.026963124488,3437
2637.8209547520187,3449
2639.6145718253065,3451
2641.407814639785,3400
2643.200683490966,3372
2644.9931786744414,3376
2646.7853004858807,3362
2648.577049221034,3397
2650.3684251757277,3416
2652.1594286458712,3421
2653.9500599274484,3407
2655.740319316525,3385
2657.5302071092437,3301
2659.3197236018286,3190
2661.10886909058,3255
2662.8976438718782,3327
2664.686048242183,3187
2666.4740824980327,3293
2668.2617469360443,3290
2670.0490418529134,3292
2671.8359675454153,3321
2673.622524310403,3327
2675.408712444811,3300
2677.1945322456495,3201
2678.979984010009,3232
2680.76506803506,3262
2682.5497846180497,3214
2684.334134056306,3170
2686.1181166472343,3161
2687.9017326883213,3202
2689.6849824771293,3265
2691.4678663113013,3250
2693.2503844885596,3291
2695.032537306705,3219
2696.8143250636167,3154
2698.5957480572542,3242
2700.3768065856534,3272
2702.1575009469316,3226
2703.937831439283,3244
2705.717798360982,3208
2707.4974020103837,3184
2709.276642685917,3224
2711.055520686095,3106
2712.834036309506,3088
2714.612189854819,3218
2716.389981620782,3168
2718.1674119062204,3169
2719.944481010041,3053
2721.721189231226,3199
2723.4975368688415,3131
2725.273524222027,3100
2727.0491515900053,3151
2728.824419272075,3134
2730.5993275676146,3114
2732.3738767760838,3014
2734.148067197016,3141
2735.921899130031,3123
2737.6953728748194,3148
2739.468488731156,3030
2741.2412469988926,3067
2743.0136479779617,3065
2744.785691968372,3114
2746.5573792702116,3104
2748.3287101836504,3083
2750.099685008934,3106
2751.870304046388,3113
2753.640567596418,2984
2755.4104759595057,3085
2757.1800294362156,3100
2758.949228327187,3080
2760.7180729331412,2992
2762.486563554877,3102
2764.254700493272,3033
2766.022484049284,3112
2767.789914523947,3112
2769.5569922183786,3000
2771.3237174337705,3043
2773.090090471394,3014
2774.8561116326036,3085
2776.6217812188274,3103
2778.3870995315756,2972
2780.1520668724356,3099
2781.9166835430747,3020
2783.6809498452394,3013
2785.444866080754,3104
2787.2084325515225,3081
2788.971649559527,3082
2790.73451740683,2987
2792.4970363955713,3003
2794.2592068279705,2994
2796.0210290063264,2997
2797.7825032330147,3004
2799.543629810493,3111
2801.304409041296,3073
2803.0648412280366,3076
2804.8249266734088,2960
2806.5846656801846,3020
2808.344058551212,3037
2810.1031055894246,3065
2811.8618070978273,2983
2813.6201633795085,3019
2815.378174737636,3054
2817.1358414754536,2929
2818.893163896285,2981
2820.6501423035334,3063
2822.4067770006814,3031
2824.1630682912883,3053
2825.9190164789957,3074
2827.6746218675207,3121
2829.429884760661,3007
2831.184805462294,2993
2832.9393842763743,2957
2834.693621506936,3006
2836.4475174580916,3081
2838.201072434034,3017
2839.954286739034,2955
2841.707160677441,3062
2843.459694553685,3009
2845.2118886722724,2999
2846.96374333779,2964
2848.7152588549034,3045
2850.4664355283567,2949
2852.217273662973,3025
2853.9677735636546,2997
2855.7179355353833,2959
2857.4677598832186,2978
2859.217246912299,3025
2860.9663969278427,2961
2862.715210235146,3014
2864.4636871395846,3021
2866.211827946614,2949
2867.9596329617652,3011
2869.7071024906536,2926
2871.4542368389684,3007
2873.20103631248,2974
2874.947501217038,3017
2876.6936318585695,2923
2878.4394285430812,2934
2880.1848915766604,2923
2881.9300212654707,2910
2883.6748179157553,2937
2885.4192818338374,2955
2887.1634133261173,2956
2888.907212699077,2924
2890.6506802592744,3015
2892.393816313348,2973
2894.1366211680142,2902
2895.8790951300693,3025
2897.621238506388,2986
2899.363051603925,2959
2901.1045347297118,2995
2902.8456881908596,2954
2904.58651229456,2994
2906.327007348081,2958
2908.067173658772,2964
2909.8070115340597,2951
2911.5465212814497,2931
2913.285703208527,2882
2915.0245576229563,2911
2916.7630848324807,2899
2918.5012851449196,2888
2920.2391588681758,2914
2921.976706310227,2879
2923.7139277791334,2821
2925.4508235830313,2882
2927.187394030137,3034
2928.923639428745,2960
2930.6595600872306,2969
2932.395156314046,2917
2934.1304284177218,3021
2935.8653767068713,2889
2937.6000014901815,2843
2939.3343030764227,2937
2941.068281774442,2885
2942.8019378931644,2960
2944.5352717415976,2880
2946.2682836288236,2969
2948.0009738640065,2849
2949.7333427563885,2853
2951.465390615289,2830
2953.1971177501086,2878
2954.9285244703265,2920
2956.6596110855,2876
2958.3903779052657,2891
2960.1208252393385,2891
2961.8509533975125,2952
2963.5807626896617,2805
2965.3102534257378,2807
2967.0394259157715,2821
2968.768280469873,2836
2970.496817398232,2884
2972.2250370111146,2840
2973.952939618869,2884
2975.6805255319196,2893
2977.4077950607707,2995
2979.134748516006,2873
2980.861386208289,2863
2982.587708448359,2872
2984.313715547037,2785
2986.039407815222,2957
2987.764785563891,3055
2989.489849104102,2933
2991.2145987469908,2892
2992.9390348037705,2880
2994.6631575857346,2880
2996.3869674042576,2838
2998.1104645707887,2834
2999.83364939686,2783
3001.5565221940783,2847
3003.2790832741334,2778
3005.0013329487924,2892
3006.7232715298996,2888
3008.4448993293804,2773
3010.166216659239,2728
3011.887223831558,2796
3013.607921158498,2879
3015.3283089522993,2850
3017.0483875252826,2813
3018.7681571898443,2740
3020.4876182584626,2879
3022.2067710436927,2810
3023.9256158581707,2776
3025.644153014609,2840
3027.362382825801,2780
3029.0803056046193,2794
3030.797921664012,2857
3032.5152313170106,2874
3034.2322348767225,2813
3035.9489326563353,2894
3037.665324969115,2829
3039.3814121284063,2803
3041.097194447633,2809
3042.812672240299,2818
3044.5278458199855,2805
3046.2427155003525,2729
3047.9572815951406,2821
3049.671544418167,2836
3051.38550428333,2745
3053.0991615046073,2825
3054.812516396051,2813
3056.5255692717974,2858
3058.2383204460575,2852
3059.9507702331257,2869
3061.662918947372,2825
3063.3747669032446,2798
3065.0863144152736,2815
3066.7975617980674,2928
3068.508509366309,2807
3070.219157434767,2817
3071.9295063182844,2788
3073.639556331785,2773
3075.3493077902704,2872
3077.058761008821,2847
3078.7679163025964,2851
3080.476773986837,2798
3082.1853343768594,2843
3083.89359778806,2840
3085.6015645359153,2722
3087.3092349359786,2761
3089.016609303884,2713
3090.7236879553434,2680
3092.4304712061476,2705
3094.136959372166,2756
3095.843152769349,2733
3097.5490517137237,2730
3099.2546565213966,2781
3100.959967508554,2853
3102.66498499146,2715
3104.3697092864577,2783
3106.0741407099695,2766
3107.778279578498,2775
3109.482126208622,2905
3111.1856809170004,2722
3112.8889440203716,2780
3114.5919158355528,2811
3116.294596679439,2833
3117.996986869006,2800
3119.6990867213062,2732
3121.4008965534726,2798
3123.102416682717,2800
3124.803647426329,2815
3126.5045891016784,2844
3128.205242026213,2774
3129.90560651746,2861
3131.605682893025,2716
3133.3054714705922,2802
3135.0049725679282,2772
3136.7041865028714,2714
3138.4031135933465,2757
3140.101754157353,2743
3141.800108512971,2675
3143.498176978357,2727
3145.1959598717494,2850
3146.8934575114636,2752
3148.5906702158954,2725
3150.2875983035183,2746
3151.9842420928853,2707
3153.680601902627,2760
3155.376678051456,2705
3157.07247085816,2726
3158.767980641609,2730
3160.463207720748,2760
3162.158152414606,2758
3163.8528150422862,2744
3165.5471959229726,2755
3167.2412953759303,2800
3168.9351137204976,2788
3170.628651276098,2758
3172.3219083622307,2787
3174.014885298474,2769
3175.707582404485,2687
3177.4000000000005,2803
3179.092138404835,2737
3180.7839979388846,2710
3182.47557892212,2707
3184.166881674594,2745
3185.8579065164386,2749
3187.5486537678626,2783
3189.2391237491547,2763
3190.9293167806827,2795
3192.6192331828934,2762
3194.3088732763117,2731
3195.998237381542,2758
3197.687325819268,2663
3199.376138910251,2700
3201.064676975334,2789
3202.7529403354347,2725
3204.4409293115523,2671
3206.1286442247647,2677
3207.816085396229,2682
3209.5032531471825,2652
3211.190147798936,2635
3212.8767696728846,2627
3214.5631190905015,2597
3216.2491963733373,2618
3217.9350018430214,2681
3219.6205358212637,2601
3221.305798629851,2663
3222.990790590651,2590
3224.6755120256103,2723
3226.359963256751,2621
3228.0441446061795,2565
3229.7280563960758,2630
3231.411698948703,2678
3233.0950725863995,2665
3234.778177631587,2621
3236.461014406761,2641
3238.1435832345005,2705
3239.8258844374595,2718
3241.507918338374,2676
3243.1896852600576,2714
3244.8711855254023,2678
3246.552419457381,2675
3248.233387379042,2679
3249.914089613516,2724
3251.59452648401,2574
3253.274698313813,2576
3254.95460542629,2598
3256.6342481448855,2621
3258.313626793125,2592
3259.9927416946084,2599
3261.6715931730196,2585
3263.3501815521176,2571
3265.0285071557437,2535
3266.706570307815,2550
3268.3843713323286,2572
3270.0619105533615,2642
3271.739188295068,2546
3273.4162048816834,2636
3275.0929606375184,2491
3276.769455886966,2606
3278.445690954498,2656
3280.1216661646613,2615
3281.797381842087,2623
3283.4728383114807,2632
3285.1480358976296,2626
3286.8229749253996,2586
3288.4976557197333,2650
3290.172078605655,2568
3291.846243908266,2612
3293.5201519527463,2568
3295.193803064357,2536
3296.8671975684374,2521
3298.5403357904024,2541
3300.21321805575,2491
3301.8858446900567,2573
3303.558216018975,2520
3305.23033236824,2610
3306.9021940636603,2619
3308.57380143113,2641
3310.2451547966184,2617
3311.916254486174,2645
3313.5871008259246,2571
3315.2576941420766,2624
3316.9280347609147,2575
3318.5981230088046,2588
3320.2679592121895,2532
3321.9375436975924,2592
3323.606876791612,2489
3325.27595882093,2527
3326.944790112305,2544
3328.6133709925753,2481
3330.2817017886573,2635
3331.949782827547,2552
3333.617614436319,2617
3335.2851969421245,2595
3336.952530672199,2570
3338.619615953853,2628
3340.286453114475,2539
3341.9530424815357,2583
3343.619384382583,2581
3345.2854791452437,2502
3346.951327097224,2554
3348.6169285663073,2632
3350.2822838803577,2598
3351.947393367319,2608
3353.61225735521,2665
3355.2768761721345,2682
3356.9412501462693,2595
3358.605379605873,2527
3360.2692648792827,2627
3361.9329062949146,2498
3363.596304181263,2526
