CollectionTime,7/10/2024 3:43:31 PM
ExposureUsed,3
CalibratedSpectrum
-962.7078968117929,1629
-959.9714848408522,1805
-957.2358232597828,1755
-954.5009119013725,1774
-951.7667505983302,1791
-949.0333391832855,1763
-946.3006774887896,1838
-943.5687653473143,1766
-940.837602591253,1850
-938.1071890529199,1799
-935.3775245645503,1708
-932.6486089583007,1764
-929.9204420662485,1795
-927.1930237203925,1729
-924.4663537526524,1747
-921.7404319948689,1804
-919.0152582788041,1851
-916.2908324361409,1742
-913.5671542984834,1781
-910.8442236973568,1816
-908.1220404642074,1771
-905.4006044304027,1873
-902.679915427231,1840
-899.959973285902,1770
-897.2407778375464,1793
-894.5223289132158,1760
-891.8046263438832,1765
-889.0876699604426,1742
-886.3714595937089,1748
-883.6559950744183,1728
-880.9412762332282,1778
-878.2273029007168,1819
-875.5140749073835,1772
-872.8015920836489,1763
-870.0898542598545,1767
-867.3788612662631,1789
-864.6686129330585,1758
-861.9591090903457,1782
-859.2503495681506,1822
-856.5423341964203,1826
-853.8350628050229,1777
-851.1285352237478,1796
-848.4227512823054,1823
-845.7177108103272,1825
-843.0134136373656,1815
-840.3098595928943,1846
-837.6070485063082,1819
-834.9049802069229,1801
-832.2036545239757,1879
-829.5030712866244,1798
-826.8032303239481,1914
-824.1041314649472,1852
-821.4057745385428,1841
-818.7081593735775,1825
-816.0112857988148,1886
-813.3151536429393,1907
-810.6197627345566,1886
-807.9251129021936,1903
-805.2312039742981,1878
-802.5380357792392,1795
-799.8456081453069,1861
-797.1539209007124,1869
-794.462973873588,1896
-791.772766891987,1890
-789.083299783884,1901
-786.3945723771743,1842
-783.7065844996748,1877
-781.0193359791231,1873
-778.3328266431781,1830
-775.6470563194197,1878
-772.9620248353489,1835
-770.2777320183878,1854
-767.5941776958798,1860
-764.9113616950891,1844
-762.2292838432011,1854
-759.5479439673222,1923
-756.8673418944801,1842
-754.1874774516235,1920
-751.5083504656222,1839
-748.8299607632671,1898
-746.15230817127,1920
-743.475392516264,1939
-740.7992136248035,1946
-738.1237713233636,1882
-735.4490654383407,1905
-732.7750957960521,1893
-730.1018622227365,1918
-727.4293645445534,1948
-724.7576025875837,1921
-722.0865761778291,1931
-719.4162851412126,1978
-716.7467293035781,1942
-714.0779084906909,1921
-711.409822528237,2007
-708.7424712418238,1936
-706.0758544569796,2041
-703.4099719991541,1992
-700.7448236937178,2041
-698.0804093659622,2016
-695.4167288411002,2007
-692.7537819442656,1980
-690.0915685005134,1979
-687.4300883348199,1920
-684.7693412720819,2015
-682.1093271371178,1998
-679.4500457546669,1994
-676.7914969493897,2033
-674.1336805458676,1984
-671.4765963686034,2033
-668.8202442420206,2070
-666.1646239904642,2084
-663.5097354382001,2091
-660.8555784094151,2071
-658.2021527282176,2042
-655.5494582186366,2035
-652.8974947046223,2103
-650.2462620100463,2048
-647.5957599587009,2054
-644.9459883742998,2007
-642.2969470804776,2073
-639.6486359007902,2106
-637.0010546587141,2144
-634.3542031776476,2135
-631.7080812809096,2112
-629.0626887917401,2093
-626.4180255333008,2087
-623.7740913286734,2103
-621.1308860008619,2103
-618.4884093727904,2212
-615.8466612673046,2143
-613.2056415071715,2170
-610.5653499150785,2151
-607.9257863136347,2113
-605.28695052537,2179
-602.6488423727357,2172
-600.0114616781036,2121
-597.3748082637674,2102
-594.7388819519412,2155
-592.1036825647604,2099
-589.4692099242818,2187
-586.8354638524829,2244
-584.2024441712624,2160
-581.5701507024403,2201
-578.9385832677575,2171
-576.3077416888759,2164
-573.6776257873787,2192
-571.0482353847704,2191
-568.4195703024757,2211
-565.7916303618415,2261
-563.164415384135,2174
-560.5379251905453,2208
-557.9121596021815,2281
-555.2871184400748,2182
-552.6628015251767,2200
-550.0392086783606,2230
-547.4163397204204,2167
-544.794194472071,2210
-542.1727727539491,2239
-539.5520743866118,2231
-536.9320991905377,2301
-534.3128469861261,2346
-531.6943175936979,2283
-529.0765108334947,2335
-526.4594265256793,2315
-523.8430644903358,2443
-521.2274245474689,2556
-518.612506517005,2655
-515.9983102187913,2613
-513.3848354725959,2650
-510.77208209810846,2798
-508.16004991493924,2813
-505.5487387426199,2941
-502.9381484006032,3146
-500.3282787082628,3164
-497.71912948489364,3204
-495.1107005497117,3118
-492.5029917218539,3009
-489.8960028203786,2840
-487.28973366426493,2711
-484.68418407241325,2707
-482.07935386364494,2552
-479.47524285670266,2593
-476.87185087025,2546
-474.2691777228715,2456
-471.66722323307334,2523
-469.0659872192821,2515
-466.4654694998459,2573
-463.86566989303384,2450
-461.26658821703614,2574
-458.66822428996414,2446
-456.07057792985,2487
-453.4736489546475,2587
-450.877437182231,2505
-448.28194243039627,2542
-445.68716451686,2443
-443.09310325926003,2464
-440.49975847515555,2488
-437.9071299820263,2369
-435.31521759727354,2444
-432.72402113821954,2395
-430.13354042210767,2389
-427.5437752661022,2503
-424.95472548728867,2462
-422.36639090267386,2482
-419.7787713291855,2476
-417.1918665836721,2515
-414.60567648290385,2524
-412.0202008435715,2544
-409.4354394822874,2571
-406.8513922155845,2604
-404.26805885991723,2543
-401.685439231661,2554
-399.103533147112,2547
-396.522340422488,2579
-393.9418608739278,2578
-391.3620943174908,2477
-388.7830405691583,2391
-386.2046994448317,2283
-383.6270707603344,2165
-381.05015433141045,2013
-378.473949973725,1786
-375.8984575028645,1624
-373.32367673433623,1507
-370.74960748356875,1266
-368.1762495659117,1177
-365.60360279663576,1017
-363.03166699093265,856
-360.4604419639154,732
-357.8899275306178,670
-355.32012350599507,573
-352.7510297049233,573
-350.1826459421999,506
-347.61497203254316,496
-345.04800779059235,504
-342.4817530309082,487
-339.91620756797226,523
-337.35137121618743,494
-334.7872437898774,488
-332.22382510328725,526
-329.66111497058273,482
-327.09911320585127,487
-324.53781962310075,494
-321.9772340362607,476
-319.4173562591816,474
-316.8581861056348,476
-314.2997233893127,493
-311.7419679238294,476
-309.1849195227194,512
-306.62857799943856,506
-304.0729431673641,505
-301.51801483979375,509
-298.963792829947,500
-296.41027695096386,538
-293.85746701590574,602
-291.3053628377552,577
-288.7539642294155,529
-286.2032710037115,552
-283.65328297338897,515
-281.1039999511146,562
-278.5554217494762,646
-276.007548180983,639
-273.4603790580651,548
-270.9139141930734,569
-268.3681533982807,611
-265.8230964858798,612
-263.27874326798565,599
-260.7350935566336,626
-258.1921471637804,584
-255.6499039013039,582
-253.10836358100266,617
-250.56752601459698,621
-248.02739101372765,624
-245.48795838995704,610
-242.94922795476816,603
-240.41119951956557,611
-237.8738728956746,649
-235.33724789434166,654
-232.80132432673452,665
-230.2661020039418,651
-227.73158073697357,693
-225.19776033676033,693
-222.66464061415422,665
-220.1322213799284,644
-217.60050244477725,614
-215.06948361931552,683
-212.53916471408013,721
-210.00954553952818,748
-207.48062590603843,709
-204.9524056239104,730
-202.4248845033651,702
-199.8980623545441,663
-197.37193898751036,643
-194.84651421224817,710
-192.32178783866232,724
-189.79775967657952,797
-187.27442953574644,785
-184.7517972258321,828
-182.2298625564256,851
-179.7086253370378,696
-177.18808537710026,697
-174.66824248596583,765
-172.14909647290835,783
-169.6306471471229,798
-167.11289431772548,845
-164.59583779375328,837
-162.07947738416453,949
-159.5638128978386,1000
-157.04884414357605,1028
-154.53457093009854,958
-152.02099306604828,913
-149.50811035998936,864
-146.99592262040665,787
-144.48442965570587,850
-141.97363127421409,999
-139.46352728417958,985
-136.95411749377126,988
-134.44540171107985,936
-131.93737974411636,1004
-129.43005140081357,1021
-126.92341648902493,1288
-124.41747481652521,1660
-121.91222619101006,1829
-119.40767042009657,1891
-116.90380731132257,2145
-114.40063667214702,2491
-111.8981583099503,2616
-109.3963720320337,2362
-106.89527764561933,2022
-104.39487495785067,2262
-101.89516377579241,3258
-99.39614390642998,4276
-96.89781515667039,5745
-94.40017733334128,5909
-91.90323024319173,4939
-89.40697369289148,3721
-86.91140748903172,2754
-84.41653143812482,2802
-81.92234534660395,3817
-79.42884902082358,5052
-76.93604226705907,6636
-74.4439248915071,7582
-71.95249670028534,10088
-69.46175749943245,12411
-66.97170709490854,13808
-64.48234529259423,13507
-61.99367189829195,11990
-59.50568671772464,10559
-57.01838955653636,8615
-54.53178022029283,7142
-52.045858514480074,8479
-49.560624244506016,11273
-47.07607721569923,12388
-44.59221723330904,12459
-42.10904410250669,13057
-39.62655762838392,12539
-37.14475761595372,11089
-34.66364387015028,9972
-32.18321619582866,9844
-29.70347439776515,9484
-27.224418280657005,10430
-24.74604764912317,12391
-22.26836230770266,15757
-19.7913620608565,26011
-17.315046712966478,44076
-14.83941606833514,58804
-12.36446993118659,65039
-9.89020810566592,65039
-7.416630395839093,65039
-4.94373660569363,65039
-2.471526539137585,65039
-6.821210263296962E-13,65039
2.47084320796705,65039
4.941003281093458,65039
7.410480415786196,65039
9.879274808531363,65039
12.347386655893956,65039
14.814816154518212,65039
17.28156350112681,65039
19.74762889252179,65039
22.21301252558385,65039
24.67771459727237,21166
27.141735304626195,4391
29.605074844762612,2920
32.06773341487792,2486
34.52971121224755,2290
36.99100843422559,2646
39.45162527824516,2856
41.91156194181792,2296
44.370818622535126,1908
46.82939551806646,1465
49.287292826160524,1488
51.74451074464503,1660
54.201049471426245,1551
56.65690920448981,1382
59.112090141899785,1300
61.56659248179983,1269
64.02041642241159,1269
66.4735621620365,1203
68.92602989905402,1271
71.37781983192338,1217
73.82893215918205,1118
76.27936707944684,1190
78.72912479141326,1217
81.17820549385567,1153
83.62660938562783,1067
86.07433666566146,1132
88.5213875329681,1061
90.96776218663751,1062
93.41346082583925,1068
95.85848364982041,1044
98.30283085790859,1388
100.7465026495089,1458
103.18949922410604,1144
105.63182078126385,1012
108.07346752062438,1090
110.51443964190923,1209
112.95473734491827,1130
115.39436082953114,1076
117.83331029570547,960
120.27158594347827,1016
122.7091879729652,1118
125.1461165843615,1072
127.58237197794062,1041
130.01795435405518,1006
132.4528639131364,943
134.88710085569494,1092
137.32066538231982,1057
139.75355769367923,978
142.1857779905207,810
144.61732647366978,876
147.04820334403132,965
149.47840880258934,1067
151.90794305040674,1120
154.33680628862487,1271
156.76499871846443,1483
159.19252054122433,1713
161.61937195828352,2006
164.04555317109896,2255
166.47106438120693,2680
168.89590579022217,3016
171.320077599839,3250
173.7435800118302,3584
176.16641322804742,3708
178.58857745042144,4038
181.01007288096173,4200
183.43089972175687,4276
185.85105817497413,4355
188.27054844285988,4372
190.6893707277394,4534
193.10752523201643,4527
195.5250121581745,4709
197.9418317087751,4809
200.3579840864594,4845
202.7734694939469,5051
205.18828813403627,4999
207.6024402096051,5114
210.01592592360964,5111
212.42874547908548,5048
214.84089907914665,5109
217.2523869269868,5105
219.66320922587727,5157
222.0733661791695,5122
224.48285799029293,5076
226.8916848627572,5112
229.29984700014882,5213
231.7073446061355,5124
234.11417788446204,5163
236.520347038953,5239
238.92585227351185,5259
241.33069379212054,5262
243.73487179884035,5235
246.1383864978112,5332
248.541238093252,5131
250.9434267894609,5110
253.34495279081432,5209
255.74581630176783,5200
258.1460175268563,5196
260.54555667069314,5214
262.9444339379703,5139
265.3426495334594,5046
267.7402036620107,5122
270.1370965285529,5031
272.53332833809407,5104
274.9288992957214,4996
277.32380960660055,5072
279.718059475976,5027
282.1116491091717,5062
284.5045787115897,5009
286.89684848871195,5027
289.2884586460981,5023
291.67940938938807,5203
294.0697009242996,5042
296.4593334566299,5052
298.84830719225477,4914
301.23662233712923,5081
303.6242790972866,5046
306.01127767884,4982
308.39761828798066,5006
310.78330113097934,4908
313.16832641418534,4894
315.5526943440269,4837
317.9364051270112,4816
320.3194589697242,4934
322.70185607883093,4938
325.0835966610754,4868
327.4646809232805,4904
329.8451090723478,4826
332.2248813152577,4837
334.6039978590701,4706
336.9824589109231,4944
339.36026467803447,4794
341.7374153677,4664
344.113911187295,4709
346.48975234427337,4771
348.8649390461686,4743
351.2394715005918,4847
353.61334991523415,4776
355.9865744978655,4774
358.35914545633375,4753
360.73106299856715,4792
363.10232733257146,4769
365.47293866643247,4678
367.84289720831396,4733
370.2122031664593,4607
372.5808567491905,4600
374.9488581649083,4683
377.31620762209275,4742
379.6829053293021,4767
382.0489514951745,4599
384.4143463284262,4690
386.7790900378528,4681
389.14318283232853,4690
391.50662492080653,4703
393.86941651231916,4649
396.23155781597745,4710
398.5930490409713,4671
400.9538903965696,4593
403.3140820921202,4703
405.6736243370498,4681
408.03251734086336,4559
410.3907613131465,4584
412.74835646356166,4523
415.10530300185144,4577
417.4616011378372,4725
419.81725108141893,4690
422.1722530425758,4704
424.5266072313656,4609
426.880313857925,4698
429.2333731324701,4650
431.58578526529516,4697
433.9375504667738,4704
436.2886689473588,4625
438.63914091758113,4672
440.9889665880513,4637
443.33814616945835,4610
445.68667987257015,4661
448.03456790823395,4437
450.3818104873759,4748
452.72840782100013,4631
455.07436012019105,4532
457.41966759611057,4597
459.7643304600007,4617
462.10834892318155,4723
464.4517231970525,4727
466.79445349309174,4645
469.1365400228566,4685
471.4779829979826,4640
473.81878263018564,4657
476.15893913125876,4653
478.4984527130747,4688
480.8373235875855,4751
483.17555196682144,4802
485.5131380628919,4902
487.8500820879857,5075
490.1863842543697,5049
492.52204477439034,5245
494.8570638604725,5512
497.1914417251204,5852
499.52517858091653,5968
501.85827464052306,6231
504.19073011668036,6252
506.5225452222086,6129
508.85372017000566,6075
511.18425517304956,5800
513.514150444396,6133
515.8434061971808,6585
518.1720226446176,7315
520.4999999999999,7434
522.8273384766991,7582
525.1540382881666,7194
527.480099647932,6650
529.8055227696037,6129
532.1303078668694,5435
534.454455153496,5111
536.777964843328,4946
539.1008371502907,4851
541.4230722883866,4888
543.744670471698,4926
546.0656319143858,4774
548.3859568306899,4812
550.7056454349294,4894
553.0246979415016,4886
555.3431145648834,4743
557.6608955196306,4748
559.978041020377,4823
562.2945512818363,4826
564.6104265188006,4851
566.9256669461412,4746
569.2402727788082,4888
571.5542442318302,4807
573.8675815203156,4812
576.1802848594508,4853
578.4923544645015,5043
580.8037905508126,4879
583.114593333807,4886
585.4247630289875,4917
587.7342998519354,4902
590.0432040183106,4822
592.3514757438526,4929
594.6591152443794,4904
596.9661227357875,4813
599.2724984340531,4904
601.578242555231,4844
603.8833553154542,4940
606.1878369309362,4936
608.4916876179676,4982
610.7949075929192,5076
613.0974970722403,4994
615.3994562724587,4954
617.7007854101818,4947
620.0014847020951,4746
622.3015543649641,4900
624.6009946156324,4927
626.8998056710224,4877
629.1979877481361,4814
631.4955410640538,4925
633.7924658359349,5028
636.0887622810175,4926
638.3844306166192,4933
640.6794710601358,4874
642.9738838290426,4903
645.2676691408932,4886
647.5608272133207,4929
649.853358264037,5006
652.1452625108324,4987
654.4365401715764,5097
656.7271914642178,5053
659.0172166067838,4997
661.3066158173809,5038
663.5953893141935,4939
665.8835373154867,4904
668.1710600396028,4982
670.4579577049639,4990
672.7442305300709,5048
675.0298787335033,5036
677.3149025339197,4950
679.599302150058,5006
681.8830778007342,5110
684.1662297048437,4993
686.4487580813608,5047
688.7306631493387,4926
691.0119451279091,5003
693.2926042362834,5071
695.5726406937516,5026
697.8520547196814,5013
700.1308465335215,5006
702.4090163547982,5105
704.6865644031171,4995
706.9634908981619,4922
709.2397960596965,4979
711.5154801075631,5095
713.7905432616823,5058
716.0649857420548,5063
718.3388077687592,5010
720.612009561953,5050
722.8845913418733,5051
725.1565533288352,5020
727.427895743234,5031
729.6986188055427,5040
731.9687227363137,5172
734.238207756178,4983
736.5070740858458,5135
738.7753219461066,5163
741.0429515578281,5073
743.3099631419569,5023
745.5763569195191,5005
747.8421331116193,5070
750.1072919394409,5110
752.3718336242467,5090
754.6357583873777,4982
756.8990664502545,5100
759.1617580343765,4998
761.423833361321,5038
763.6852926527457,5038
765.9461361303862,5088
768.206364016058,5090
770.4659765316536,5157
772.7249738991469,5210
774.9833563405886,5165
777.2411240781092,5052
779.4982773339183,5089
781.7548163303044,5142
784.010741289634,5103
786.2660524343538,5251
788.5207499869881,5158
790.7748341701416,5114
793.0283052064964,5115
795.2811633188143,5129
797.5334087299362,5116
799.7850416627813,5139
802.0360623403484,5183
804.2864709857143,5076
806.5362678220353,5119
808.7854530725468,5152
811.0340269605625,5107
813.2819897094754,5155
815.5293415427581,5149
817.77608268396,5084
820.0222133567116,4991
822.2677337847211,5115
824.5126441917765,5040
826.7569448017433,5159
829.0006358385675,5127
831.2437175262731,5260
833.4861900889629,5133
835.7280537508192,5110
837.9693087361026,5066
840.2099552691533,5168
842.4499935743896,5132
844.689423876309,5171
846.9282463994886,5181
849.1664613685833,5265
851.4040690083276,5206
853.6410695435349,5149
855.877463199097,5135
858.1132501999847,5209
860.3484307712487,5214
862.5830051380175,5091
864.8169735254988,5270
867.0503361589791,5149
869.2830932638243,5291
871.5152450654786,5166
873.7467917894654,5225
875.9777336613873,5236
878.2080709069252,5270
880.4378037518389,5309
882.666932421968,5338
884.8954571432301,5353
887.1233781416219,5389
889.3506956432192,5312
891.5774098741766,5311
893.803521060728,5181
896.0290294291852,5264
898.2539352059397,5294
900.4782386174619,5194
902.7019398903011,5109
904.925039251085,5174
907.147536926521,5274
909.3694331433943,5125
911.59072812857,5274
913.8114221089921,5156
916.0315153116827,5226
918.2510079637437,5222
920.4699002923547,5128
922.6881925247761,5115
924.905884888345,5210
927.1229776104793,5193
929.3394709186747,5149
931.555365040506,5133
933.7706602036275,5109
935.9853566357709,5232
938.1994545647489,5133
940.4129542184515,5179
942.6258558248488,5057
944.8381596119883,5006
947.0498658079974,5126
949.2609746410825,5229
951.4714863395287,5165
953.6814011316998,5152
955.8907192460387,5067
958.0994409110671,5093
960.3075663553858,5147
962.5150958076741,5018
964.7220294966913,5107
966.928367651274,5158
969.1341105003388,5051
971.3392582728806,5040
973.5438111979742,5099
975.747769504772,5065
977.9511334225061,5216
980.153903180487,5145
982.3560790081052,5199
984.5576611348289,5021
986.7586497902058,5072
988.9590452038618,5019
991.158847605503,4986
993.3580572249133,4931
995.5566742919558,4917
997.7546990365728,4889
999.952131688785,5022
1002.1489724786926,4949
1004.3452216364743,4833
1006.5408793923874,4896
1008.7359459767691,4938
1010.9304216200343,4885
1013.1243065526781,4846
1015.3176010052733,4810
1017.510305208472,4878
1019.7024193930064,4837
1021.8939437896848,4917
1024.0848786293977,4830
1026.2752241431122,4725
1028.4649805618747,4831
1030.6541481168115,4835
1032.842727039127,4899
1035.0307175601051,4743
1037.2181199111074,4848
1039.4049343235752,4834
1041.591161029029,4809
1043.7768002590683,4827
1045.9618522453698,4858
1048.1463172196918,4839
1050.3301954138697,4760
1052.513487059818,4743
1054.69619238953,4843
1056.8783116350783,4811
1059.0598450286152,4779
1061.2407928023704,4923
1063.4211551886528,4928
1065.6009324198508,4789
1067.780124728432,4787
1069.9587323469414,4919
1072.1367555080046,4945
1074.314194444325,4836
1076.4910493886855,4845
1078.667320573947,4861
1080.843008233051,4796
1083.0181125990161,4767
1085.1926339049414,4652
1087.3665723840027,4773
1089.5399282694575,4705
1091.7127017946405,4786
1093.8848931929647,4807
1096.0565026979243,4786
1098.2275305430899,4735
1100.3979769621128,4682
1102.567842188722,4896
1104.737126456726,4794
1106.9058300000124,4678
1109.0739530525475,4659
1111.2414958483764,4696
1113.4084586216231,4680
1115.5748416064907,4743
1117.7406450372605,4736
1119.9058691482942,4747
1122.0705141740304,4776
1124.2345803489884,4756
1126.3980679077658,4793
1128.5609770850388,4701
1130.7233081155623,4669
1132.8850612341707,4673
1135.0462366757774,4669
1137.2068346753745,4771
1139.3668554680326,4726
1141.526299288901,4774
1143.68516637321,4807
1145.8434569562655,4687
1148.001171273455,4677
1150.158309560244,4599
1152.3148720521767,4645
1154.470858984876,4700
1156.626270594044,4734
1158.7811071154629,4716
1160.9353687849912,4774
1163.089055838569,4750
1165.242168512213,4720
1167.3947070420209,4781
1169.5466716641677,4620
1171.6980626149075,4749
1173.8488801305748,4599
1175.9991244475814,4606
1178.1487958024186,4687
1180.2978944316555,4653
1182.4464205719428,4723
1184.5943744600072,4716
1186.7417563326567,4637
1188.8885664267755,4606
1191.0348049793297,4571
1193.1804722273619,4576
1195.325568407995,4660
1197.4700937584303,4668
1199.614048515948,4731
1201.7574329179074,4587
1203.900247201746,4794
1206.042491604982,4737
1208.1841663652099,4758
1210.3252717201053,4701
1212.465807907422,4547
1214.6057751649923,4681
1216.7451737307279,4667
1218.8840038426192,4659
1221.0222657387353,4700
1223.1599596572241,4743
1225.2970858363137,4785
1227.4336445143094,4753
1229.5696359295966,4754
1231.705060320639,4791
1233.8399179259786,4754
1235.9742089842384,4690
1238.107933734118,4821
1240.2410924143974,4737
1242.373685263935,4838
1244.5057125216676,4817
1246.6371744266116,4759
1248.7680712178621,4641
1250.898403134593,4739
1253.028170416058,4756
1255.1573733015875,4720
1257.2860120305932,4702
1259.4140868425648,4807
1261.54159797707,4772
1263.6685456737569,4717
1265.7949301723515,4775
1267.9207517126597,4835
1270.046010534565,4775
1272.1707068780306,4626
1274.2948409830983,4899
1276.4184130898889,4845
1278.541423438603,4821
1280.6638722695184,4824
1282.785759822993,4794
1284.9070863394636,4813
1287.0278520594447,4815
1289.1480572235314,4830
1291.2677020723963,4888
1293.3867868467923,4770
1295.5053117875495,4907
1297.623277135579,4806
1299.740683131868,5059
1301.8575300174857,4910
1303.973818033578,4891
1306.0895474213703,4955
1308.2047184221678,4889
1310.3193312773528,4898
1312.4333862283888,4925
1314.5468835168163,4930
1316.659823384255,4832
1318.7722060724045,4924
1320.8840318230418,4955
1322.9953008780249,5068
1325.1060134792888,5028
1327.2161698688478,4843
1329.3257702887959,4908
1331.4348149813054,4713
1333.5433041886276,4899
1335.6512381530933,4906
1337.7586171171101,4847
1339.8654413231675,4811
1341.9717110138317,4889
1344.0774264317488,4718
1346.1825878196432,4843
1348.2871954203192,4922
1350.3912494766587,4845
1352.4947502316231,4902
1354.5976979282532,4783
1356.7000928096686,4732
1358.8019351190665,4833
1360.9032250997243,4885
1363.0039629949988,4713
1365.1041490483235,4836
1367.2037835032133,4850
1369.3028666032606,4778
1371.401398592137,4852
1373.4993797135926,4895
1375.5968102114575,4860
1377.6936903296396,4923
1379.7900203121262,4900
1381.8858004029835,4856
1383.9810308463561,4866
1386.075711886469,4938
1388.1698437676241,4829
1390.2634267342032,4869
1392.356461030667,4967
1394.4489469015557,4890
1396.5408845914872,4941
1398.6322743451592,4960
1400.7231164073469,4977
1402.813411022907,4902
1404.903158436773,4902
1406.9923588939578,4959
1409.0810126395531,4946
1411.1691199187303,4855
1413.2566809767386,4907
1415.343696058907,4883
1417.4301654106425,4972
1419.5160892774315,5029
1421.6014679048399,4931
1423.6863015385125,4961
1425.7705904241707,4937
1427.8543348076178,4988
1429.9375349347342,4919
1432.0201910514802,5110
1434.102303403894,4982
1436.1838722380944,4986
1438.2648978002767,4951
1440.3453803367174,5064
1442.4253200937692,5080
1444.5047173178677,4972
1446.5835722555234,4982
1448.6618851533285,5177
1450.739656257952,5007
1452.8168858161434,5078
1454.8935740747306,5168
1456.96972128062,5126
1459.045327680797,5147
1461.120393522327,5148
1463.1949190523528,5161
1465.2689045180973,5287
1467.3423501668608,5284
1469.415256246024,5134
1471.4876230030463,5345
1473.559450685465,5287
1475.6307395408976,5283
1477.7014898170391,5385
1479.771701761665,5318
1481.8413756226287,5437
1483.9105116478618,5415
1485.9791100853772,5555
1488.0471711832643,5444
1490.1146951896926,5564
1492.1816823529098,5555
1494.2481329212433,5678
1496.3140471430984,5515
1498.3794252669609,5575
1500.4442675413939,5722
1502.5085742150404,5668
1504.572345536622,5583
1506.6355817549388,5612
1508.6982831188702,5735
1510.7604498773744,5699
1512.8220822794883,5713
1514.8831805743293,5899
1516.9437450110909,5864
1519.003775839048,5771
1521.0632733075522,5988
1523.1222376660367,5967
1525.1806691640113,5913
1527.2385680510652,6196
1529.2959345768668,6021
1531.3527689911643,6141
1533.4090715437833,6224
1535.4648424846291,6266
1537.5200820636855,6357
1539.5747905310159,6414
1541.6289681367616,6513
1543.6826151311434,6404
1545.7357317644614,6436
1547.7883182870937,6578
1549.8403749494987,6493
1551.8919020022113,6738
1553.9428996958477,6720
1555.9933682811015,6679
1558.0433080087469,7006
1560.0927191296346,6813
1562.1416018946961,6838
1564.1899565549415,7016
1566.2377833614592,6966
1568.2850825654164,6852
1570.3318544180606,6701
1572.3780991707158,6597
1574.423817074788,6617
1576.4690083817595,6424
1578.5136733431923,6286
1580.5578122107272,5994
1582.601425236085,5916
1584.6445126710646,5837
1586.6870747675434,5862
1588.7291117774776,5557
1590.7706239529034,5469
1592.8116115459347,5445
1594.8520748087658,5486
1596.8920139936686,5338
1598.9314293529933,5429
1600.9703211391711,5265
1603.008689604711,5144
1605.0465350022005,4976
1607.0838575843068,5081
1609.1206576037753,4991
1611.1569353134305,4920
1613.1926909661765,4976
1615.2279248149953,4956
1617.2626371129481,4869
1619.2968281131757,4866
1621.3304980688963,4930
1623.3636472334088,4926
1625.39627586009,4956
1627.428384202396,4916
1629.459972513861,4898
1631.4910410480993,4784
1633.5215900588028,4779
1635.551619799744,4898
1637.5811305247717,4865
1639.6101224878166,4990
1641.6385959428862,4776
1643.6665511440683,4742
1645.693988345528,4706
1647.7209078015112,4715
1649.7473097663405,4828
1651.7731944944203,4707
1653.7985622402307,4865
1655.823413258333,4757
1657.847747803366,4710
1659.8715661300494,4737
1661.8948684931793,4654
1663.9176551476316,4704
1665.9399263483624,4739
1667.9616823504057,4747
1669.982923408873,4677
1672.0036497789574,4675
1674.0238617159293,4732
1676.043559475138,4702
1678.0627433120121,4707
1680.081413482059,4732
1682.0995702408654,4834
1684.117213844096,4710
1686.134344547495,4605
1688.1509626068864,4721
1690.1670682781705,4701
1692.182661817329,4616
1694.1977434804217,4677
1696.2123135235875,4722
1698.226372203043,4726
1700.2399197750851,4661
1702.2529564960905,4684
1704.2654826225112,4717
1706.277498410882,4735
1708.2890041178139,4688
1710.2999999999988,4671
1712.3104863142066,4669
1714.3204633172854,4603
1716.329931266163,4685
1718.3388904178469,4647
1720.3473410294214,4722
1722.3552833580516,4692
1724.3627176609807,4693
1726.3696441955308,4626
1728.3760632191033,4710
1730.3819749891782,4534
1732.3873797633146,4560
1734.3922777991502,4731
1736.3966693544012,4585
1738.4005546868639,4721
1740.4039340544127,4598
1742.406807715001,4626
1744.4091759266616,4609
1746.4110389475054,4613
1748.4123970357223,4515
1750.413250449582,4697
1752.4135994474318,4696
1754.4134442876993,4665
1756.4127852288902,4615
1758.4116225295893,4475
1760.4099564484595,4574
1762.407787244244,4617
1764.405115175764,4614
1766.4019405019203,4580
1768.3982634816916,4678
1770.3940843741357,4534
1772.3894034383907,4489
1774.3842209336717,4507
1776.378537119274,4731
1778.372352254571,4657
1780.3656665990156,4540
1782.3584804121397,4644
1784.3507939535534,4491
1786.3426074829463,4522
1788.3339212600863,4528
1790.3247355448211,4586
1792.3150505970766,4567
1794.3048666768573,4583
1796.2941840442477,4504
1798.2830029594106,4488
1800.2713236825884,4575
1802.2591464741004,4584
1804.2464715943465,4518
1806.2332993038058,4563
1808.2196298630352,4578
1810.2054635326708,4692
1812.190800573428,4665
1814.175641246101,4641
1816.1599858115628,4513
1818.1438345307652,4569
1820.127187664738,4614
1822.1100454745924,4528
1824.092408221516,4501
1826.0742761667766,4637
1828.055649571721,4624
1830.0365286977735,4595
1832.0169138064398,4515
1833.9968051593014,4663
1835.9762030180214,4662
1837.9551076443408,4596
1839.9335193000788,4632
1841.9114382471344,4529
1843.888864747485,4525
1845.8657990631878,4542
1847.842241456378,4524
1849.8181921892697,4479
1851.7936515241558,4464
1853.7686197234098,4570
1855.7430970494815,4451
1857.7170837649014,4354
1859.6905801322787,4387
1861.6635864143004,4557
1863.6361028737338,4460
1865.608129773424,4414
1867.5796673762961,4515
1869.5507159453537,4461
1871.521275743678,4684
1873.4913470344313,4579
1875.4609300808534,4497
1877.4300251462632,4546
1879.3986324940588,4676
1881.366752387717,4572
1883.3343850907936,4753
1885.3015308669228,4587
1887.268189979819,4562
1889.2343626932739,4550
1891.2000492711595,4538
1893.1652499774254,4617
1895.1299650761011,4518
1897.0941948312952,4600
1899.0579395071945,4574
1901.0211993680641,4571
1902.98397467825,4581
1904.9462657021745,4564
1906.9080727043415,4543
1908.869395949332,4543
1910.8302357018065,4465
1912.790592226504,4593
1914.7504657882428,4540
1916.7098566519212,4508
1918.6687650825133,4492
1920.6271913450764,4477
1922.5851357047422,4560
1924.5425984267245,4517
1926.499579776314,4512
1928.4560800188833,4551
1930.4120994198802,4507
1932.367638244833,4571
1934.32269675935,4705
1936.2772752291175,4523
1938.231373919899,4608
1940.1849930975404,4602
1942.1381330279637,4572
1944.0907939771696,4430
1946.0429762112412,4535
1947.9946799963363,4494
1949.9459055986945,4521
1951.896653284633,4616
1953.8469233205478,4530
1955.7967159729142,4494
1957.7460315082863,4590
1959.6948701932974,4471
1961.6432322946594,4618
1963.5911180791632,4575
1965.5385278136787,4583
1967.4854617651545,4523
1969.4319202006182,4568
1971.377903387176,4498
1973.3234115920136,4624
1975.268445082395,4563
1977.2130041256642,4519
1979.1570889892423,4594
1981.1006999406304,4584
1983.04383724741,4628
1984.986501177238,4589
1986.928691997853,4546
1988.8704099770712,4572
1990.811655382789,4513
1992.7524284829801,4408
1994.692729545698,4509
1996.6325588390755,4605
1998.5719166313224,4594
2000.5108031907307,4487
2002.4492187856677,4493
2004.387163684583,4556
2006.3246381560011,4568
2008.2616424685298,4641
2010.1981768908527,4548
2012.1342416917332,4530
2014.069837140014,4502
2016.0049635046162,4490
2017.9396210545406,4583
2019.8738100588666,4577
2021.8075307867502,4543
2023.740783507431,4574
2025.6735684902228,4591
2027.6058860045214,4469
2029.5377363198004,4530
2031.4691197056118,4570
2033.4000364315875,4539
2035.3304867674374,4518
2037.260470982952,4534
2039.189989347998,4508
2041.1190421325232,4512
2043.047629606554,4505
2044.9757520401945,4460
2046.9034097036288,4453
2048.8306028671195,4492
2050.7573318010086,4480
2052.683596775716,4658
2054.609398061742,4509
2056.5347359296647,4481
2058.4596106501403,4570
2060.384022493906,4597
2062.3079717317764,4572
2064.231458634646,4495
2066.1544834734873,4493
2068.077046519352,4518
2069.99914804337,4531
2071.9207883167524,4511
2073.8419676107865,4588
2075.7626861968406,4575
2077.6829443463607,4569
2079.6027423308715,4489
2081.522080421977,4599
2083.440958891362,4544
2085.359378010786,4564
2087.2773380520907,4683
2089.194839287196,4509
2091.111881988101,4574
2093.0284664268825,4497
2094.9445928756973,4574
2096.86026160678,4534
2098.775472892446,4510
2100.690227005088,4546
2102.604524217178,4558
2104.5183648012676,4547
2106.431749029985,4462
2108.34467717604,4516
2110.2571495122206,4590
2112.169166311393,4529
2114.080727846503,4525
2115.9918343905747,4523
2117.902486216711,4549
2119.8126835980956,4512
2121.722426807987,4547
2123.6317161197285,4637
2125.5405518067364,4613
2127.448934142509,4557
2129.356863400624,4656
2131.264339854737,4584
2133.1713637785815,4606
2135.077935445972,4602
2136.9840551308002,4647
2138.889723107037,4667
2140.7949396487334,4621
2142.699705030018,4595
2144.6040195250994,4470
2146.507883408264,4679
2148.4112969538774,4685
2150.3142604363848,4670
2152.2167741303097,4649
2154.1188383102535,4619
2156.0204532508997,4639
2157.9216192270064,4552
2159.822336513414,4640
2161.7226053850413,4719
2163.622426116884,4673
2165.5217989840185,4732
2167.4207242616,4678
2169.319202224862,4723
2171.2172331491165,4552
2173.1148173097563,4664
2175.0119549822507,4597
2176.90864644215,4633
2178.8048919650823,4738
2180.7006918267534,4722
2182.596046302952,4695
2184.4909556695407,4712
2186.3854202024645,4728
2188.279440177746,4731
2190.173015871487,4684
2192.066147559868,4705
2193.958835519149,4713
2195.851080025667,4749
2197.7428813558417,4650
2199.6342397861667,4641
2201.5251555932186,4672
2203.415629053651,4690
2205.3056604441986,4634
2207.19525004167,4802
2209.084398122958,4830
2210.9731049650327,4843
2212.861370844941,4702
2214.749196039812,4906
2216.636580826851,4624
2218.523525483344,4898
2220.410030286655,4767
2222.296095514226,4782
2224.1817214435805,4811
2226.066908352319,4819
2227.951656518121,4651
2229.835966218746,4671
2231.71983773203,4747
2233.6032713358913,4718
2235.486267308324,4807
2237.3688259274036,4624
2239.2509474712824,4773
2241.132632218193,4844
2243.013880446447,4796
2244.8946924344323,4751
2246.7750684606203,4865
2248.6550088035574,4813
2250.534513741871,4801
2252.413583554265,4822
2254.292218519526,4830
2256.170418916517,4778
2258.0481850241786,4722
2259.925517121534,4717
2261.8024154876825,4659
2263.678880401803,4817
2265.5549121431536,4799
2267.430510991071,4799
2269.305677224971,4739
2271.180411124348,4693
2273.0547129687766,4798
2274.9285830379076,4660
2276.8020216114737,4662
2278.6750289692845,4756
2280.5476053912294,4771
2282.4197511572766,4853
2284.2914665474727,4827
2286.162751841943,4839
2288.0336073208937,4817
2289.904033264608,4684
2291.774029953448,4658
2293.6435976678554,4882
2295.5127366883517,4730
2297.381447295534,4627
2299.2497297700825,4641
2301.1175843927526,4733
2302.9850114443825,4660
2304.852011205885,4741
2306.7185839582553,4582
2308.5847299825664,4531
2310.4504495599676,4697
2312.3157429716925,4563
2314.1806104990483,4560
2316.0450524234247,4570
2317.9090690262888,4597
2319.772660589186,4587
2321.635827393742,4594
2323.498569721661,4584
2325.3608878547248,4533
2327.2227820747967,4559
2329.0842526638157,4558
2330.945299903803,4606
2332.805924076857,4555
2334.6661254651535,4655
2336.525904350951,4545
2338.3852610165827,4623
2340.244195744464,4547
2342.102708817088,4618
2343.9608005170253,4510
2345.8184711269287,4555
2347.675720929526,4456
2349.532550207628,4522
2351.38895924412,4604
2353.24494832197,4543
2355.100517724223,4533
2356.955667734004,4665
2358.810398634514,4569
2360.664710709037,4475
2362.5186042409337,4639
2364.3720795136437,4629
2366.225136810686,4538
2368.0777764156583,4513
2369.929998612237,4606
2371.7818036841777,4591
2373.633191915315,4630
2375.484163589562,4562
2377.3347189909114,4655
2379.184858403434,4644
2381.03458211128,4627
2382.8838903986775,4609
2384.732783549936,4586
2386.5812618494406,4646
2388.4293255816588,4700
2390.2769750311327,4639
2392.1242104824883,4639
2393.971032220427,4567
2395.8174405297295,4572
2397.6634356952563,4659
2399.509018001947,4674
2401.3541877348193,4652
2403.1989451789705,4615
2405.043290619576,4671
2406.8872243418905,4628
2408.730746631247,4682
2410.5738577730594,4563
2412.4165580528183,4692
2414.258847756095,4588
2416.100727168537,4567
2417.9421965758734,4743
2419.783256263912,4772
2421.623906518538,4619
2423.4641476257157,4422
2425.303979871491,4675
2427.143403541984,4702
2428.9824189233977,4650
2430.821026302012,4580
2432.6592259641866,4678
2434.497018196361,4722
2436.33440328505,4587
2438.171381516851,4585
2440.00795317844,4628
2441.844118556569,4622
2443.6798779380724,4675
2445.5152316098606,4704
2447.3501798589255,4755
2449.1847229723357,4592
2451.0188612372403,4611
2452.8525949408663,4713
2454.6859243705203,4461
2456.518849813587,4626
2458.3513715575314,4637
2460.183489889895,4660
2462.015205098301,4688
2463.8465174704493,4644
2465.67742729412,4582
2467.5079348571717,4678
2469.338040447542,4583
2471.1677443532476,4646
2472.9970468623833,4655
2474.825948263123,4769
2476.6544488437207,4635
2478.482548892508,4865
2480.310248697896,4777
2482.137548548374,4705
2483.9644487325118,4592
2485.790949538956,4698
2487.617051256433,4604
2489.44275417375,4765
2491.26805857979,4625
2493.0929647635157,4800
2494.917473013971,4675
2496.741583620276,4863
2498.5652968716304,4750
2500.3886130573137,4778
2502.2115324666834,4737
2504.0340553891765,4703
2505.856182114308,4794
2507.6779129316733,4586
2509.499248130945,4726
2511.3201880018764,4821
2513.140732834298,4679
2514.9608829181198,4702
2516.780638543331,4805
2518.6,4863
2520.418967578273,4768
2522.237541568376,4577
2524.0557222606144,4772
2525.8735099453706,4759
2527.6909049131086,4777
2529.507907454368,4862
2531.32451785977,4740
2533.140736420014,4803
2534.9565634258774,4841
2536.771999168218,4886
2538.5870439379714,4794
2540.4016980261526,4809
2542.2159617238544,4746
2544.02983532225,4917
2545.8433191125914,4752
2547.656413386209,4833
2549.4691184345115,4939
2551.2814345489874,4869
2553.093362021204,4865
2554.904901142808,4883
2556.716052205523,4907
2558.526815501153,4864
2560.3371913215824,4941
2562.147179958771,4932
2563.956781704761,4925
2565.7659968516705,4928
2567.5748256916986,4907
2569.3832685171224,4954
2571.1913256202984,4920
2572.9989972936614,4929
2574.806283829725,4845
2576.613185521084,5065
2578.4197026604074,5083
2580.2258355404483,5057
2582.031584454035,4973
2583.836949694077,4927
2585.6419315535613,5005
2587.4465303255533,4955
2589.2507463032002,5004
2591.0545797797245,5128
2592.8580310484303,5002
2594.6611004026995,5021
2596.463788135992,4971
2598.266094541849,4941
2600.0680199138874,5065
2601.869564545807,5027
2603.670728731383,5042
2605.4715127644704,5023
2607.2719169390048,5087
2609.071941548998,5082
2610.8715868885433,5128
2612.670853251811,5096
2614.469740933052,5135
2616.268250226594,5051
2618.0663814268455,5082
2619.864134828292,5048
2621.6615107255006,5018
2623.458509413115,5047
2625.2551311858597,5011
2627.0513763385347,5154
2628.8472451660223,5048
2630.6427379632833,4925
2632.4378550253564,5018
2634.232596647359,4973
2636.026963124488,5004
2637.8209547520187,5060
2639.6145718253065,4998
2641.407814639785,5041
2643.200683490966,4968
2644.9931786744414,5032
2646.7853004858807,5022
2648.577049221034,5054
2650.3684251757277,4988
2652.1594286458712,4959
2653.9500599274484,4974
2655.740319316525,5003
2657.5302071092437,4890
2659.3197236018286,4881
2661.10886909058,4930
2662.8976438718782,4834
2664.686048242183,4918
2666.4740824980327,4909
2668.2617469360443,4974
2670.0490418529134,4859
2671.8359675454153,4949
2673.622524310403,4975
2675.408712444811,4877
2677.1945322456495,4950
2678.979984010009,4961
2680.76506803506,4877
2682.5497846180497,4842
2684.334134056306,4900
2686.1181166472343,4967
2687.9017326883213,4889
2689.6849824771293,4857
2691.4678663113013,4834
2693.2503844885596,4877
2695.032537306705,4900
2696.8143250636167,4917
2698.5957480572542,4866
2700.3768065856534,4780
2702.1575009469316,4776
2703.937831439283,4789
2705.717798360982,4821
2707.4974020103837,4758
2709.276642685917,4838
2711.055520686095,4832
2712.834036309506,4877
2714.612189854819,4803
2716.389981620782,4873
2718.1674119062204,4779
2719.944481010041,4732
2721.721189231226,4779
2723.4975368688415,4807
2725.273524222027,4693
2727.0491515900053,4764
2728.824419272075,4908
2730.5993275676146,4759
2732.3738767760838,4672
2734.148067197016,4828
2735.921899130031,4806
2737.6953728748194,4862
2739.468488731156,4757
2741.2412469988926,4705
2743.0136479779617,4796
2744.785691968372,4780
2746.5573792702116,4796
2748.3287101836504,4760
2750.099685008934,4874
2751.870304046388,4948
2753.640567596418,4778
2755.4104759595057,4798
2757.1800294362156,4805
2758.949228327187,4761
2760.7180729331412,4811
2762.486563554877,4836
2764.254700493272,4729
2766.022484049284,4772
2767.789914523947,4695
2769.5569922183786,4917
2771.3237174337705,4741
2773.090090471394,4845
2774.8561116326036,4820
2776.6217812188274,4923
2778.3870995315756,4749
2780.1520668724356,4790
2781.9166835430747,4787
2783.6809498452394,4745
2785.444866080754,4804
2787.2084325515225,4769
2788.971649559527,4794
2790.73451740683,4843
2792.4970363955713,4802
2794.2592068279705,4826
2796.0210290063264,4731
2797.7825032330147,4871
2799.543629810493,4879
2801.304409041296,4796
2803.0648412280366,4768
2804.8249266734088,4886
2806.5846656801846,4944
2808.344058551212,4995
2810.1031055894246,4949
2811.8618070978273,4861
2813.6201633795085,4906
2815.378174737636,4936
2817.1358414754536,4919
2818.893163896285,4806
2820.6501423035334,4898
2822.4067770006814,4984
2824.1630682912883,4813
2825.9190164789957,4895
2827.6746218675207,4967
2829.429884760661,4815
2831.184805462294,4901
2832.9393842763743,4949
2834.693621506936,4929
2836.4475174580916,4919
2838.201072434034,4986
2839.954286739034,4998
2841.707160677441,4877
2843.459694553685,4913
2845.2118886722724,5001
2846.96374333779,4781
2848.7152588549034,4880
2850.4664355283567,4870
2852.217273662973,4819
2853.9677735636546,4858
2855.7179355353833,4924
2857.4677598832186,4847
2859.217246912299,4967
2860.9663969278427,4878
2862.715210235146,4781
2864.4636871395846,4875
2866.211827946614,4973
2867.9596329617652,4891
2869.7071024906536,4912
2871.4542368389684,4961
2873.20103631248,4892
2874.947501217038,4939
2876.6936318585695,4863
2878.4394285430812,4894
2880.1848915766604,4875
2881.9300212654707,4821
2883.6748179157553,4944
2885.4192818338374,4899
2887.1634133261173,4885
2888.907212699077,4964
2890.6506802592744,4952
2892.393816313348,4976
2894.1366211680142,5055
2895.8790951300693,4918
2897.621238506388,4902
2899.363051603925,4858
2901.1045347297118,4918
2902.8456881908596,4870
2904.58651229456,4845
2906.327007348081,4930
2908.067173658772,4903
2909.8070115340597,4955
2911.5465212814497,4849
2913.285703208527,4814
2915.0245576229563,4804
2916.7630848324807,4844
2918.5012851449196,4865
2920.2391588681758,4873
2921.976706310227,4821
2923.7139277791334,4831
2925.4508235830313,4950
2927.187394030137,4832
2928.923639428745,4856
2930.6595600872306,4900
2932.395156314046,5002
2934.1304284177218,4888
2935.8653767068713,5009
2937.6000014901815,4995
2939.3343030764227,4920
2941.068281774442,4990
2942.8019378931644,4960
2944.5352717415976,5079
2946.2682836288236,4978
2948.0009738640065,4992
2949.7333427563885,4950
2951.465390615289,5044
2953.1971177501086,4995
2954.9285244703265,4935
2956.6596110855,5081
2958.3903779052657,4878
2960.1208252393385,4867
2961.8509533975125,4915
2963.5807626896617,4890
2965.3102534257378,4918
2967.0394259157715,4872
2968.768280469873,4961
2970.496817398232,4805
2972.2250370111146,4872
2973.952939618869,4970
2975.6805255319196,4929
2977.4077950607707,4910
2979.134748516006,5011
2980.861386208289,4995
2982.587708448359,5000
2984.313715547037,4987
2986.039407815222,5081
2987.764785563891,5037
2989.489849104102,5112
2991.2145987469908,5082
2992.9390348037705,5055
2994.6631575857346,5013
2996.3869674042576,5011
2998.1104645707887,4913
2999.83364939686,4993
3001.5565221940783,4988
3003.2790832741334,5013
3005.0013329487924,4941
3006.7232715298996,4880
3008.4448993293804,4914
3010.166216659239,4891
3011.887223831558,4904
3013.607921158498,5023
3015.3283089522993,4971
3017.0483875252826,4885
3018.7681571898443,4931
3020.4876182584626,4932
3022.2067710436927,4903
3023.9256158581707,5034
3025.644153014609,5027
3027.362382825801,5004
3029.0803056046193,4860
3030.797921664012,4934
3032.5152313170106,4966
3034.2322348767225,5089
3035.9489326563353,4944
3037.665324969115,5012
3039.3814121284063,5040
3041.097194447633,4953
3042.812672240299,4894
3044.5278458199855,5094
3046.2427155003525,5036
3047.9572815951406,4978
3049.671544418167,4970
3051.38550428333,4947
3053.0991615046073,5014
3054.812516396051,4931
3056.5255692717974,4965
3058.2383204460575,5042
3059.9507702331257,5081
3061.662918947372,4963
3063.3747669032446,4960
3065.0863144152736,5048
3066.7975617980674,5043
3068.508509366309,5021
3070.219157434767,5063
3071.9295063182844,4980
3073.639556331785,5135
3075.3493077902704,5047
3077.058761008821,4978
3078.7679163025964,4990
3080.476773986837,4891
3082.1853343768594,5061
3083.89359778806,4993
3085.6015645359153,5092
3087.3092349359786,5109
3089.016609303884,5009
3090.7236879553434,4977
3092.4304712061476,5053
3094.136959372166,4979
3095.843152769349,5009
3097.5490517137237,5170
3099.2546565213966,5107
3100.959967508554,5068
3102.66498499146,5023
3104.3697092864577,5152
3106.0741407099695,5068
3107.778279578498,5121
3109.482126208622,4976
3111.1856809170004,5083
3112.8889440203716,4958
3114.5919158355528,4958
3116.294596679439,5193
3117.996986869006,4987
3119.6990867213062,5148
3121.4008965534726,5184
3123.102416682717,5059
3124.803647426329,4966
3126.5045891016784,5237
3128.205242026213,5153
3129.90560651746,5118
3131.605682893025,5160
3133.3054714705922,5043
3135.0049725679282,5202
3136.7041865028714,5235
3138.4031135933465,5098
3140.101754157353,5059
3141.800108512971,5050
3143.498176978357,5137
3145.1959598717494,5022
3146.8934575114636,5081
3148.5906702158954,5098
3150.2875983035183,5012
3151.9842420928853,4960
3153.680601902627,5063
3155.376678051456,4882
3157.07247085816,4958
3158.767980641609,4936
3160.463207720748,4956
3162.158152414606,5130
3163.8528150422862,5075
3165.5471959229726,5063
3167.2412953759303,5048
3168.9351137204976,5091
3170.628651276098,5025
3172.3219083622307,5050
3174.014885298474,5108
3175.707582404485,5106
3177.4000000000005,5186
3179.092138404835,5354
3180.7839979388846,5187
3182.47557892212,5181
3184.166881674594,5256
3185.8579065164386,5035
3187.5486537678626,5116
3189.2391237491547,5141
3190.9293167806827,5164
3192.6192331828934,5098
3194.3088732763117,5055
3195.998237381542,5105
3197.687325819268,5032
3199.376138910251,5118
3201.064676975334,5092
3202.7529403354347,5149
3204.4409293115523,5087
3206.1286442247647,5204
3207.816085396229,4881
3209.5032531471825,5018
3211.190147798936,5029
3212.8767696728846,4959
3214.5631190905015,5004
3216.2491963733373,5047
3217.9350018430214,5084
3219.6205358212637,4956
3221.305798629851,4924
3222.990790590651,4844
3224.6755120256103,4998
3226.359963256751,4995
3228.0441446061795,5076
3229.7280563960758,5046
3231.411698948703,5069
3233.0950725863995,5095
3234.778177631587,5003
3236.461014406761,5009
3238.1435832345005,5161
3239.8258844374595,5175
3241.507918338374,5157
3243.1896852600576,5009
3244.8711855254023,5011
3246.552419457381,5131
3248.233387379042,5232
3249.914089613516,5088
3251.59452648401,5197
3253.274698313813,5158
3254.95460542629,5073
3256.6342481448855,5010
3258.313626793125,5065
3259.9927416946084,5064
3261.6715931730196,5001
3263.3501815521176,5040
3265.0285071557437,4849
3266.706570307815,5041
3268.3843713323286,5006
3270.0619105533615,4972
3271.739188295068,5062
3273.4162048816834,5046
3275.0929606375184,4998
3276.769455886966,5043
3278.445690954498,5153
3280.1216661646613,5118
3281.797381842087,5081
3283.4728383114807,5133
3285.1480358976296,4970
3286.8229749253996,5152
3288.4976557197333,5047
3290.172078605655,4975
3291.846243908266,5029
3293.5201519527463,5062
3295.193803064357,4929
3296.8671975684374,4989
3298.5403357904024,5063
3300.21321805575,5088
3301.8858446900567,5008
3303.558216018975,5099
3305.23033236824,4989
3306.9021940636603,5122
3308.57380143113,5114
3310.2451547966184,5172
3311.916254486174,5205
3313.5871008259246,5100
3315.2576941420766,5222
3316.9280347609147,5112
3318.5981230088046,5044
3320.2679592121895,5042
3321.9375436975924,4991
3323.606876791612,4984
3325.27595882093,5066
3326.944790112305,4983
3328.6133709925753,5027
3330.2817017886573,5079
3331.949782827547,4853
3333.617614436319,5006
3335.2851969421245,5137
3336.952530672199,5222
3338.619615953853,5021
3340.286453114475,5120
3341.9530424815357,5056
3343.619384382583,5226
3345.2854791452437,5142
3346.951327097224,5202
3348.6169285663073,5294
3350.2822838803577,5245
3351.947393367319,5080
3353.61225735521,5115
3355.2768761721345,5161
3356.9412501462693,5224
3358.605379605873,5192
3360.2692648792827,5128
3361.9329062949146,5109
3363.596304181263,5113
