CollectionTime,7/10/2024 3:44:00 PM
ExposureUsed,3
CalibratedSpectrum
-962.7078968117929,1146
-959.9714848408522,1178
-957.2358232597828,1208
-954.5009119013725,1211
-951.7667505983302,1212
-949.0333391832855,1220
-946.3006774887896,1277
-943.5687653473143,1241
-940.837602591253,1223
-938.1071890529199,1303
-935.3775245645503,1211
-932.6486089583007,1216
-929.9204420662485,1214
-927.1930237203925,1230
-924.4663537526524,1251
-921.7404319948689,1292
-919.0152582788041,1289
-916.2908324361409,1297
-913.5671542984834,1279
-910.8442236973568,1238
-908.1220404642074,1272
-905.4006044304027,1239
-902.679915427231,1253
-899.959973285902,1278
-897.2407778375464,1242
-894.5223289132158,1285
-891.8046263438832,1272
-889.0876699604426,1195
-886.3714595937089,1183
-883.6559950744183,1203
-880.9412762332282,1220
-878.2273029007168,1230
-875.5140749073835,1237
-872.8015920836489,1250
-870.0898542598545,1215
-867.3788612662631,1230
-864.6686129330585,1266
-861.9591090903457,1227
-859.2503495681506,1242
-856.5423341964203,1286
-853.8350628050229,1289
-851.1285352237478,1257
-848.4227512823054,1259
-845.7177108103272,1232
-843.0134136373656,1195
-840.3098595928943,1241
-837.6070485063082,1296
-834.9049802069229,1337
-832.2036545239757,1265
-829.5030712866244,1244
-826.8032303239481,1262
-824.1041314649472,1288
-821.4057745385428,1199
-818.7081593735775,1207
-816.0112857988148,1264
-813.3151536429393,1201
-810.6197627345566,1234
-807.9251129021936,1249
-805.2312039742981,1287
-802.5380357792392,1204
-799.8456081453069,1231
-797.1539209007124,1226
-794.462973873588,1236
-791.772766891987,1242
-789.083299783884,1282
-786.3945723771743,1250
-783.7065844996748,1240
-781.0193359791231,1212
-778.3328266431781,1268
-775.6470563194197,1302
-772.9620248353489,1233
-770.2777320183878,1265
-767.5941776958798,1273
-764.9113616950891,1275
-762.2292838432011,1212
-759.5479439673222,1272
-756.8673418944801,1255
-754.1874774516235,1242
-751.5083504656222,1275
-748.8299607632671,1274
-746.15230817127,1325
-743.475392516264,1305
-740.7992136248035,1374
-738.1237713233636,1298
-735.4490654383407,1273
-732.7750957960521,1286
-730.1018622227365,1303
-727.4293645445534,1330
-724.7576025875837,1284
-722.0865761778291,1281
-719.4162851412126,1313
-716.7467293035781,1273
-714.0779084906909,1289
-711.409822528237,1321
-708.7424712418238,1346
-706.0758544569796,1324
-703.4099719991541,1395
-700.7448236937178,1311
-698.0804093659622,1274
-695.4167288411002,1320
-692.7537819442656,1359
-690.0915685005134,1237
-687.4300883348199,1329
-684.7693412720819,1291
-682.1093271371178,1323
-679.4500457546669,1311
-676.7914969493897,1339
-674.1336805458676,1308
-671.4765963686034,1332
-668.8202442420206,1338
-666.1646239904642,1355
-663.5097354382001,1337
-660.8555784094151,1324
-658.2021527282176,1315
-655.5494582186366,1355
-652.8974947046223,1395
-650.2462620100463,1306
-647.5957599587009,1331
-644.9459883742998,1340
-642.2969470804776,1370
-639.6486359007902,1336
-637.0010546587141,1340
-634.3542031776476,1355
-631.7080812809096,1375
-629.0626887917401,1354
-626.4180255333008,1316
-623.7740913286734,1385
-621.1308860008619,1375
-618.4884093727904,1400
-615.8466612673046,1390
-613.2056415071715,1412
-610.5653499150785,1355
-607.9257863136347,1350
-605.28695052537,1369
-602.6488423727357,1381
-600.0114616781036,1411
-597.3748082637674,1419
-594.7388819519412,1408
-592.1036825647604,1450
-589.4692099242818,1456
-586.8354638524829,1495
-584.2024441712624,1421
-581.5701507024403,1475
-578.9385832677575,1446
-576.3077416888759,1410
-573.6776257873787,1380
-571.0482353847704,1356
-568.4195703024757,1380
-565.7916303618415,1346
-563.164415384135,1431
-560.5379251905453,1383
-557.9121596021815,1373
-555.2871184400748,1428
-552.6628015251767,1463
-550.0392086783606,1389
-547.4163397204204,1422
-544.794194472071,1378
-542.1727727539491,1435
-539.5520743866118,1459
-536.9320991905377,1429
-534.3128469861261,1487
-531.6943175936979,1508
-529.0765108334947,1516
-526.4594265256793,1552
-523.8430644903358,1638
-521.2274245474689,1733
-518.612506517005,1888
-515.9983102187913,1902
-513.3848354725959,1882
-510.77208209810846,1841
-508.16004991493924,1963
-505.5487387426199,2024
-502.9381484006032,2272
-500.3282787082628,2310
-497.71912948489364,2300
-495.1107005497117,2213
-492.5029917218539,2059
-489.8960028203786,1924
-487.28973366426493,1967
-484.68418407241325,1838
-482.07935386364494,1762
-479.47524285670266,1709
-476.87185087025,1663
-474.2691777228715,1641
-471.66722323307334,1680
-469.0659872192821,1734
-466.4654694998459,1633
-463.86566989303384,1651
-461.26658821703614,1676
-458.66822428996414,1629
-456.07057792985,1668
-453.4736489546475,1651
-450.877437182231,1609
-448.28194243039627,1526
-445.68716451686,1637
-443.09310325926003,1585
-440.49975847515555,1579
-437.9071299820263,1566
-435.31521759727354,1547
-432.72402113821954,1634
-430.13354042210767,1575
-427.5437752661022,1623
-424.95472548728867,1600
-422.36639090267386,1563
-419.7787713291855,1630
-417.1918665836721,1707
-414.60567648290385,1699
-412.0202008435715,1616
-409.4354394822874,1777
-406.8513922155845,1772
-404.26805885991723,1804
-401.685439231661,1764
-399.103533147112,1676
-396.522340422488,1670
-393.9418608739278,1594
-391.3620943174908,1621
-388.7830405691583,1610
-386.2046994448317,1513
-383.6270707603344,1463
-381.05015433141045,1330
-378.473949973725,1237
-375.8984575028645,1165
-373.32367673433623,1051
-370.74960748356875,946
-368.1762495659117,887
-365.60360279663576,767
-363.03166699093265,673
-360.4604419639154,647
-357.8899275306178,610
-355.32012350599507,576
-352.7510297049233,522
-350.1826459421999,493
-347.61497203254316,491
-345.04800779059235,494
-342.4817530309082,493
-339.91620756797226,500
-337.35137121618743,504
-334.7872437898774,483
-332.22382510328725,531
-329.66111497058273,480
-327.09911320585127,502
-324.53781962310075,494
-321.9772340362607,545
-319.4173562591816,535
-316.8581861056348,520
-314.2997233893127,504
-311.7419679238294,530
-309.1849195227194,506
-306.62857799943856,530
-304.0729431673641,553
-301.51801483979375,507
-298.963792829947,534
-296.41027695096386,535
-293.85746701590574,564
-291.3053628377552,562
-288.7539642294155,514
-286.2032710037115,549
-283.65328297338897,564
-281.1039999511146,571
-278.5554217494762,607
-276.007548180983,595
-273.4603790580651,594
-270.9139141930734,599
-268.3681533982807,561
-265.8230964858798,571
-263.27874326798565,613
-260.7350935566336,653
-258.1921471637804,644
-255.6499039013039,669
-253.10836358100266,665
-250.56752601459698,655
-248.02739101372765,651
-245.48795838995704,597
-242.94922795476816,590
-240.41119951956557,612
-237.8738728956746,717
-235.33724789434166,667
-232.80132432673452,639
-230.2661020039418,636
-227.73158073697357,684
-225.19776033676033,763
-222.66464061415422,699
-220.1322213799284,702
-217.60050244477725,708
-215.06948361931552,703
-212.53916471408013,797
-210.00954553952818,825
-207.48062590603843,831
-204.9524056239104,754
-202.4248845033651,714
-199.8980623545441,743
-197.37193898751036,746
-194.84651421224817,719
-192.32178783866232,791
-189.79775967657952,826
-187.27442953574644,875
-184.7517972258321,893
-182.2298625564256,885
-179.7086253370378,775
-177.18808537710026,695
-174.66824248596583,743
-172.14909647290835,779
-169.6306471471229,801
-167.11289431772548,883
-164.59583779375328,877
-162.07947738416453,868
-159.5638128978386,1011
-157.04884414357605,1066
-154.53457093009854,988
-152.02099306604828,908
-149.50811035998936,860
-146.99592262040665,865
-144.48442965570587,927
-141.97363127421409,953
-139.46352728417958,939
-136.95411749377126,978
-134.44540171107985,987
-131.93737974411636,1046
-129.43005140081357,1068
-126.92341648902493,1403
-124.41747481652521,1670
-121.91222619101006,1693
-119.40767042009657,1744
-116.90380731132257,2145
-114.40063667214702,2416
-111.8981583099503,2734
-109.3963720320337,2691
-106.89527764561933,3114
-104.39487495785067,4001
-101.89516377579241,5158
-99.39614390642998,6288
-96.89781515667039,8688
-94.40017733334128,9916
-91.90323024319173,8822
-89.40697369289148,6879
-86.91140748903172,4645
-84.41653143812482,3512
-81.92234534660395,5054
-79.42884902082358,7268
-76.93604226705907,9370
-74.4439248915071,10679
-71.95249670028534,11945
-69.46175749943245,13437
-66.97170709490854,14216
-64.48234529259423,13528
-61.99367189829195,11831
-59.50568671772464,11536
-57.01838955653636,11635
-54.53178022029283,12382
-52.045858514480074,14944
-49.560624244506016,18768
-47.07607721569923,19834
-44.59221723330904,17916
-42.10904410250669,16560
-39.62655762838392,14802
-37.14475761595372,12177
-34.66364387015028,11084
-32.18321619582866,11334
-29.70347439776515,10822
-27.224418280657005,11892
-24.74604764912317,14034
-22.26836230770266,16981
-19.7913620608565,26614
-17.315046712966478,43049
-14.83941606833514,55879
-12.36446993118659,65039
-9.89020810566592,65039
-7.416630395839093,65039
-4.94373660569363,65039
-2.471526539137585,65039
-6.821210263296962E-13,65039
2.47084320796705,65039
4.941003281093458,65039
7.410480415786196,65039
9.879274808531363,65039
12.347386655893956,65039
14.814816154518212,65039
17.28156350112681,65039
19.74762889252179,65039
22.21301252558385,65039
24.67771459727237,22774
27.141735304626195,5314
29.605074844762612,3982
32.06773341487792,3492
34.52971121224755,2737
36.99100843422559,2814
39.45162527824516,3122
41.91156194181792,2302
44.370818622535126,1884
46.82939551806646,1578
49.287292826160524,1936
51.74451074464503,2113
54.201049471426245,2075
56.65690920448981,1622
59.112090141899785,1355
61.56659248179983,1557
64.02041642241159,1618
66.4735621620365,1564
68.92602989905402,1550
71.37781983192338,1492
73.82893215918205,1576
76.27936707944684,1380
78.72912479141326,1485
81.17820549385567,1619
83.62660938562783,1445
86.07433666566146,1465
88.5213875329681,1266
90.96776218663751,1241
93.41346082583925,1072
95.85848364982041,1099
98.30283085790859,1480
100.7465026495089,1377
103.18949922410604,1229
105.63182078126385,1101
108.07346752062438,1275
110.51443964190923,1349
112.95473734491827,1126
115.39436082953114,1159
117.83331029570547,1067
120.27158594347827,1030
122.7091879729652,1058
125.1461165843615,1121
127.58237197794062,1138
130.01795435405518,1036
132.4528639131364,1123
134.88710085569494,1319
137.32066538231982,1296
139.75355769367923,1166
142.1857779905207,1048
144.61732647366978,1045
147.04820334403132,988
149.47840880258934,1041
151.90794305040674,1092
154.33680628862487,1147
156.76499871846443,1431
159.19252054122433,1575
161.61937195828352,1685
164.04555317109896,1921
166.47106438120693,2230
168.89590579022217,2435
171.320077599839,2763
173.7435800118302,2787
176.16641322804742,3159
178.58857745042144,3267
181.01007288096173,3392
183.43089972175687,3451
185.85105817497413,3437
188.27054844285988,3442
190.6893707277394,3479
193.10752523201643,3462
195.5250121581745,3633
197.9418317087751,3722
200.3579840864594,3703
202.7734694939469,3827
205.18828813403627,3883
207.6024402096051,3988
210.01592592360964,3921
212.42874547908548,3819
214.84089907914665,3836
217.2523869269868,3896
219.66320922587727,3825
222.0733661791695,3820
224.48285799029293,3918
226.8916848627572,3737
229.29984700014882,3944
231.7073446061355,3980
234.11417788446204,3857
236.520347038953,3870
238.92585227351185,3962
241.33069379212054,4003
243.73487179884035,4043
246.1383864978112,4027
248.541238093252,3913
250.9434267894609,3999
253.34495279081432,3899
255.74581630176783,3991
258.1460175268563,3907
260.54555667069314,3903
262.9444339379703,3872
265.3426495334594,3944
267.7402036620107,3879
270.1370965285529,3838
272.53332833809407,3749
274.9288992957214,3833
277.32380960660055,3801
279.718059475976,3746
282.1116491091717,3695
284.5045787115897,3749
286.89684848871195,3720
289.2884586460981,3790
291.67940938938807,3906
294.0697009242996,3812
296.4593334566299,3687
298.84830719225477,3662
301.23662233712923,3863
303.6242790972866,3768
306.01127767884,3757
308.39761828798066,3679
310.78330113097934,3588
313.16832641418534,3790
315.5526943440269,3658
317.9364051270112,3383
320.3194589697242,3613
322.70185607883093,3512
325.0835966610754,3550
327.4646809232805,3569
329.8451090723478,3445
332.2248813152577,3551
334.6039978590701,3588
336.9824589109231,3455
339.36026467803447,3536
341.7374153677,3498
344.113911187295,3432
346.48975234427337,3442
348.8649390461686,3545
351.2394715005918,3562
353.61334991523415,3523
355.9865744978655,3457
358.35914545633375,3593
360.73106299856715,3585
363.10232733257146,3492
365.47293866643247,3521
367.84289720831396,3376
370.2122031664593,3379
372.5808567491905,3372
374.9488581649083,3394
377.31620762209275,3397
379.6829053293021,3456
382.0489514951745,3376
384.4143463284262,3502
386.7790900378528,3373
389.14318283232853,3452
391.50662492080653,3305
393.86941651231916,3414
396.23155781597745,3476
398.5930490409713,3390
400.9538903965696,3465
403.3140820921202,3396
405.6736243370498,3294
408.03251734086336,3338
410.3907613131465,3409
412.74835646356166,3324
415.10530300185144,3394
417.4616011378372,3370
419.81725108141893,3421
422.1722530425758,3291
424.5266072313656,3317
426.880313857925,3376
429.2333731324701,3290
431.58578526529516,3234
433.9375504667738,3418
436.2886689473588,3320
438.63914091758113,3326
440.9889665880513,3295
443.33814616945835,3410
445.68667987257015,3332
448.03456790823395,3282
450.3818104873759,3389
452.72840782100013,3387
455.07436012019105,3402
457.41966759611057,3460
459.7643304600007,3297
462.10834892318155,3442
464.4517231970525,3360
466.79445349309174,3501
469.1365400228566,3381
471.4779829979826,3506
473.81878263018564,3426
476.15893913125876,3317
478.4984527130747,3487
480.8373235875855,3569
483.17555196682144,3620
485.5131380628919,3601
487.8500820879857,3636
490.1863842543697,3734
492.52204477439034,4013
494.8570638604725,4230
497.1914417251204,4400
499.52517858091653,4678
501.85827464052306,4796
504.19073011668036,4886
506.5225452222086,4881
508.85372017000566,4653
511.18425517304956,4627
513.514150444396,4668
515.8434061971808,5391
518.1720226446176,5950
520.4999999999999,6157
522.8273384766991,6150
525.1540382881666,5848
527.480099647932,5339
529.8055227696037,4753
532.1303078668694,4042
534.454455153496,3855
536.777964843328,3646
539.1008371502907,3639
541.4230722883866,3671
543.744670471698,3505
546.0656319143858,3589
548.3859568306899,3546
550.7056454349294,3526
553.0246979415016,3598
555.3431145648834,3565
557.6608955196306,3579
559.978041020377,3539
562.2945512818363,3519
564.6104265188006,3575
566.9256669461412,3499
569.2402727788082,3576
571.5542442318302,3659
573.8675815203156,3644
576.1802848594508,3709
578.4923544645015,3651
580.8037905508126,3660
583.114593333807,3643
585.4247630289875,3758
587.7342998519354,3698
590.0432040183106,3597
592.3514757438526,3700
594.6591152443794,3606
596.9661227357875,3646
599.2724984340531,3667
601.578242555231,3652
603.8833553154542,3675
606.1878369309362,3693
608.4916876179676,3701
610.7949075929192,3718
613.0974970722403,3651
615.3994562724587,3740
617.7007854101818,3763
620.0014847020951,3606
622.3015543649641,3629
624.6009946156324,3640
626.8998056710224,3640
629.1979877481361,3621
631.4955410640538,3742
633.7924658359349,3678
636.0887622810175,3685
638.3844306166192,3741
640.6794710601358,3716
642.9738838290426,3784
645.2676691408932,3803
647.5608272133207,3734
649.853358264037,3728
652.1452625108324,3839
654.4365401715764,3677
656.7271914642178,3755
659.0172166067838,3644
661.3066158173809,3751
663.5953893141935,3864
665.8835373154867,3684
668.1710600396028,3724
670.4579577049639,3683
672.7442305300709,3708
675.0298787335033,3769
677.3149025339197,3746
679.599302150058,3849
681.8830778007342,3800
684.1662297048437,3771
686.4487580813608,3751
688.7306631493387,3927
691.0119451279091,3774
693.2926042362834,3819
695.5726406937516,3853
697.8520547196814,3889
700.1308465335215,3877
702.4090163547982,3875
704.6865644031171,3741
706.9634908981619,3884
709.2397960596965,3732
711.5154801075631,3766
713.7905432616823,3859
716.0649857420548,3759
718.3388077687592,3851
720.612009561953,3809
722.8845913418733,3820
725.1565533288352,3816
727.427895743234,3641
729.6986188055427,3769
731.9687227363137,3868
734.238207756178,3822
736.5070740858458,3770
738.7753219461066,3909
741.0429515578281,3803
743.3099631419569,3746
745.5763569195191,3882
747.8421331116193,3849
750.1072919394409,3731
752.3718336242467,3795
754.6357583873777,3896
756.8990664502545,3899
759.1617580343765,3832
761.423833361321,3860
763.6852926527457,3842
765.9461361303862,3865
768.206364016058,3892
770.4659765316536,3874
772.7249738991469,3838
774.9833563405886,3902
777.2411240781092,3901
779.4982773339183,3918
781.7548163303044,3879
784.010741289634,3833
786.2660524343538,3971
788.5207499869881,3872
790.7748341701416,3971
793.0283052064964,3884
795.2811633188143,3945
797.5334087299362,3770
799.7850416627813,3926
802.0360623403484,3915
804.2864709857143,3967
806.5362678220353,3908
808.7854530725468,3958
811.0340269605625,4031
813.2819897094754,3870
815.5293415427581,3977
817.77608268396,3935
820.0222133567116,3996
822.2677337847211,3922
824.5126441917765,4033
826.7569448017433,3899
829.0006358385675,3882
831.2437175262731,3914
833.4861900889629,3964
835.7280537508192,3915
837.9693087361026,3964
840.2099552691533,3962
842.4499935743896,3885
844.689423876309,3863
846.9282463994886,3939
849.1664613685833,3969
851.4040690083276,4029
853.6410695435349,4006
855.877463199097,3911
858.1132501999847,3999
860.3484307712487,4079
862.5830051380175,4021
864.8169735254988,3850
867.0503361589791,4029
869.2830932638243,3987
871.5152450654786,4093
873.7467917894654,3985
875.9777336613873,4034
878.2080709069252,4077
880.4378037518389,3973
882.666932421968,4010
884.8954571432301,4075
887.1233781416219,4095
889.3506956432192,4084
891.5774098741766,4160
893.803521060728,4165
896.0290294291852,4164
898.2539352059397,4150
900.4782386174619,4016
902.7019398903011,4161
904.925039251085,4133
907.147536926521,4084
909.3694331433943,4035
911.59072812857,4071
913.8114221089921,4026
916.0315153116827,3973
918.2510079637437,4012
920.4699002923547,4007
922.6881925247761,3997
924.905884888345,4016
927.1229776104793,3999
929.3394709186747,3976
931.555365040506,4182
933.7706602036275,3979
935.9853566357709,4011
938.1994545647489,3896
940.4129542184515,3987
942.6258558248488,3947
944.8381596119883,4000
947.0498658079974,4012
949.2609746410825,4017
951.4714863395287,3998
953.6814011316998,3989
955.8907192460387,4005
958.0994409110671,3958
960.3075663553858,3927
962.5150958076741,4027
964.7220294966913,3971
966.928367651274,4005
969.1341105003388,3934
971.3392582728806,3926
973.5438111979742,4028
975.747769504772,3977
977.9511334225061,3891
980.153903180487,3920
982.3560790081052,3964
984.5576611348289,3915
986.7586497902058,4015
988.9590452038618,3877
991.158847605503,3910
993.3580572249133,3802
995.5566742919558,3989
997.7546990365728,3799
999.952131688785,3829
1002.1489724786926,3743
1004.3452216364743,3716
1006.5408793923874,3777
1008.7359459767691,3643
1010.9304216200343,3749
1013.1243065526781,3728
1015.3176010052733,3793
1017.510305208472,3731
1019.7024193930064,3730
1021.8939437896848,3687
1024.0848786293977,3767
1026.2752241431122,3697
1028.4649805618747,3647
1030.6541481168115,3636
1032.842727039127,3757
1035.0307175601051,3640
1037.2181199111074,3789
1039.4049343235752,3715
1041.591161029029,3671
1043.7768002590683,3698
1045.9618522453698,3625
1048.1463172196918,3780
1050.3301954138697,3664
1052.513487059818,3670
1054.69619238953,3816
1056.8783116350783,3725
1059.0598450286152,3626
1061.2407928023704,3728
1063.4211551886528,3739
1065.6009324198508,3714
1067.780124728432,3673
1069.9587323469414,3698
1072.1367555080046,3733
1074.314194444325,3722
1076.4910493886855,3731
1078.667320573947,3619
1080.843008233051,3707
1083.0181125990161,3616
1085.1926339049414,3629
1087.3665723840027,3631
1089.5399282694575,3623
1091.7127017946405,3592
1093.8848931929647,3667
1096.0565026979243,3568
1098.2275305430899,3558
1100.3979769621128,3602
1102.567842188722,3458
1104.737126456726,3615
1106.9058300000124,3559
1109.0739530525475,3632
1111.2414958483764,3680
1113.4084586216231,3617
1115.5748416064907,3544
1117.7406450372605,3609
1119.9058691482942,3544
1122.0705141740304,3499
1124.2345803489884,3584
1126.3980679077658,3595
1128.5609770850388,3680
1130.7233081155623,3714
1132.8850612341707,3550
1135.0462366757774,3555
1137.2068346753745,3612
1139.3668554680326,3643
1141.526299288901,3610
1143.68516637321,3555
1145.8434569562655,3615
1148.001171273455,3597
1150.158309560244,3558
1152.3148720521767,3581
1154.470858984876,3486
1156.626270594044,3566
1158.7811071154629,3532
1160.9353687849912,3576
1163.089055838569,3587
1165.242168512213,3543
1167.3947070420209,3595
1169.5466716641677,3547
1171.6980626149075,3551
1173.8488801305748,3628
1175.9991244475814,3452
1178.1487958024186,3611
1180.2978944316555,3536
1182.4464205719428,3493
1184.5943744600072,3432
1186.7417563326567,3459
1188.8885664267755,3483
1191.0348049793297,3500
1193.1804722273619,3451
1195.325568407995,3624
1197.4700937584303,3581
1199.614048515948,3520
1201.7574329179074,3507
1203.900247201746,3619
1206.042491604982,3467
1208.1841663652099,3542
1210.3252717201053,3511
1212.465807907422,3594
1214.6057751649923,3583
1216.7451737307279,3521
1218.8840038426192,3618
1221.0222657387353,3563
1223.1599596572241,3596
1225.2970858363137,3591
1227.4336445143094,3640
1229.5696359295966,3565
1231.705060320639,3640
1233.8399179259786,3650
1235.9742089842384,3529
1238.107933734118,3604
1240.2410924143974,3615
1242.373685263935,3578
1244.5057125216676,3607
1246.6371744266116,3620
1248.7680712178621,3562
1250.898403134593,3689
1253.028170416058,3460
1255.1573733015875,3519
1257.2860120305932,3571
1259.4140868425648,3534
1261.54159797707,3554
1263.6685456737569,3624
1265.7949301723515,3617
1267.9207517126597,3614
1270.046010534565,3611
1272.1707068780306,3637
1274.2948409830983,3647
1276.4184130898889,3672
1278.541423438603,3756
1280.6638722695184,3694
1282.785759822993,3617
1284.9070863394636,3667
1287.0278520594447,3636
1289.1480572235314,3638
1291.2677020723963,3668
1293.3867868467923,3659
1295.5053117875495,3687
1297.623277135579,3648
1299.740683131868,3631
1301.8575300174857,3684
1303.973818033578,3736
1306.0895474213703,3683
1308.2047184221678,3728
1310.3193312773528,3811
1312.4333862283888,3726
1314.5468835168163,3689
1316.659823384255,3717
1318.7722060724045,3795
1320.8840318230418,3802
1322.9953008780249,3692
1325.1060134792888,3669
1327.2161698688478,3691
1329.3257702887959,3778
1331.4348149813054,3774
1333.5433041886276,3730
1335.6512381530933,3638
1337.7586171171101,3694
1339.8654413231675,3702
1341.9717110138317,3699
1344.0774264317488,3653
1346.1825878196432,3651
1348.2871954203192,3700
1350.3912494766587,3726
1352.4947502316231,3800
1354.5976979282532,3642
1356.7000928096686,3676
1358.8019351190665,3652
1360.9032250997243,3653
1363.0039629949988,3592
1365.1041490483235,3633
1367.2037835032133,3613
1369.3028666032606,3631
1371.401398592137,3586
1373.4993797135926,3718
1375.5968102114575,3644
1377.6936903296396,3684
1379.7900203121262,3548
1381.8858004029835,3669
1383.9810308463561,3719
1386.075711886469,3626
1388.1698437676241,3638
1390.2634267342032,3645
1392.356461030667,3672
1394.4489469015557,3648
1396.5408845914872,3645
1398.6322743451592,3715
1400.7231164073469,3775
1402.813411022907,3738
1404.903158436773,3705
1406.9923588939578,3656
1409.0810126395531,3723
1411.1691199187303,3684
1413.2566809767386,3780
1415.343696058907,3837
1417.4301654106425,3674
1419.5160892774315,3703
1421.6014679048399,3746
1423.6863015385125,3798
1425.7705904241707,3647
1427.8543348076178,3735
1429.9375349347342,3698
1432.0201910514802,3692
1434.102303403894,3706
1436.1838722380944,3759
1438.2648978002767,3677
1440.3453803367174,3794
1442.4253200937692,3786
1444.5047173178677,3773
1446.5835722555234,3819
1448.6618851533285,3857
1450.739656257952,3720
1452.8168858161434,3863
1454.8935740747306,3826
1456.96972128062,3856
1459.045327680797,3939
1461.120393522327,4000
1463.1949190523528,4019
1465.2689045180973,3990
1467.3423501668608,3950
1469.415256246024,4003
1471.4876230030463,3975
1473.559450685465,4096
1475.6307395408976,4057
1477.7014898170391,4164
1479.771701761665,4164
1481.8413756226287,4037
1483.9105116478618,4071
1485.9791100853772,4107
1488.0471711832643,4213
1490.1146951896926,4197
1492.1816823529098,4288
1494.2481329212433,4312
1496.3140471430984,4368
1498.3794252669609,4312
1500.4442675413939,4282
1502.5085742150404,4289
1504.572345536622,4352
1506.6355817549388,4284
1508.6982831188702,4529
1510.7604498773744,4516
1512.8220822794883,4564
1514.8831805743293,4484
1516.9437450110909,4682
1519.003775839048,4692
1521.0632733075522,4633
1523.1222376660367,4773
1525.1806691640113,4742
1527.2385680510652,4735
1529.2959345768668,4892
1531.3527689911643,4921
1533.4090715437833,4869
1535.4648424846291,4925
1537.5200820636855,4965
1539.5747905310159,4999
1541.6289681367616,5077
1543.6826151311434,5177
1545.7357317644614,5191
1547.7883182870937,5195
1549.8403749494987,5167
1551.8919020022113,5202
1553.9428996958477,5474
1555.9933682811015,5407
1558.0433080087469,5396
1560.0927191296346,5563
1562.1416018946961,5623
1564.1899565549415,5637
1566.2377833614592,5529
1568.2850825654164,5527
1570.3318544180606,5460
1572.3780991707158,5405
1574.423817074788,5209
1576.4690083817595,5053
1578.5136733431923,5053
1580.5578122107272,4769
1582.601425236085,4777
1584.6445126710646,4600
1586.6870747675434,4503
1588.7291117774776,4330
1590.7706239529034,4376
1592.8116115459347,4165
1594.8520748087658,4071
1596.8920139936686,4053
1598.9314293529933,4055
1600.9703211391711,3944
1603.008689604711,3837
1605.0465350022005,3868
1607.0838575843068,3801
1609.1206576037753,3843
1611.1569353134305,3802
1613.1926909661765,3790
1615.2279248149953,3755
1617.2626371129481,3688
1619.2968281131757,3714
1621.3304980688963,3583
1623.3636472334088,3596
1625.39627586009,3637
1627.428384202396,3624
1629.459972513861,3611
1631.4910410480993,3649
1633.5215900588028,3493
1635.551619799744,3625
1637.5811305247717,3519
1639.6101224878166,3466
1641.6385959428862,3502
1643.6665511440683,3533
1645.693988345528,3399
1647.7209078015112,3403
1649.7473097663405,3513
1651.7731944944203,3415
1653.7985622402307,3394
1655.823413258333,3499
1657.847747803366,3461
1659.8715661300494,3485
1661.8948684931793,3357
1663.9176551476316,3388
1665.9399263483624,3505
1667.9616823504057,3408
1669.982923408873,3366
1672.0036497789574,3390
1674.0238617159293,3343
1676.043559475138,3274
1678.0627433120121,3382
1680.081413482059,3307
1682.0995702408654,3336
1684.117213844096,3326
1686.134344547495,3392
1688.1509626068864,3291
1690.1670682781705,3317
1692.182661817329,3343
1694.1977434804217,3377
1696.2123135235875,3372
1698.226372203043,3325
1700.2399197750851,3370
1702.2529564960905,3325
1704.2654826225112,3349
1706.277498410882,3388
1708.2890041178139,3377
1710.2999999999988,3391
1712.3104863142066,3376
1714.3204633172854,3372
1716.329931266163,3436
1718.3388904178469,3333
1720.3473410294214,3334
1722.3552833580516,3354
1724.3627176609807,3320
1726.3696441955308,3327
1728.3760632191033,3310
1730.3819749891782,3214
1732.3873797633146,3259
1734.3922777991502,3330
1736.3966693544012,3241
1738.4005546868639,3333
1740.4039340544127,3266
1742.406807715001,3197
1744.4091759266616,3314
1746.4110389475054,3337
1748.4123970357223,3282
1750.413250449582,3256
1752.4135994474318,3272
1754.4134442876993,3218
1756.4127852288902,3250
1758.4116225295893,3248
1760.4099564484595,3294
1762.407787244244,3249
1764.405115175764,3222
1766.4019405019203,3225
1768.3982634816916,3132
1770.3940843741357,3104
1772.3894034383907,3078
1774.3842209336717,3176
1776.378537119274,3168
1778.372352254571,3156
1780.3656665990156,3302
1782.3584804121397,3170
1784.3507939535534,3150
1786.3426074829463,3173
1788.3339212600863,3203
1790.3247355448211,3146
1792.3150505970766,3227
1794.3048666768573,3285
1796.2941840442477,3257
1798.2830029594106,3186
1800.2713236825884,3163
1802.2591464741004,3130
1804.2464715943465,3085
1806.2332993038058,3254
1808.2196298630352,3260
1810.2054635326708,3164
1812.190800573428,3141
1814.175641246101,3191
1816.1599858115628,3255
1818.1438345307652,3215
1820.127187664738,3234
1822.1100454745924,3210
1824.092408221516,3140
1826.0742761667766,3180
1828.055649571721,3188
1830.0365286977735,3133
1832.0169138064398,3163
1833.9968051593014,3231
1835.9762030180214,3160
1837.9551076443408,3227
1839.9335193000788,3252
1841.9114382471344,3092
1843.888864747485,3129
1845.8657990631878,3156
1847.842241456378,3199
1849.8181921892697,3120
1851.7936515241558,3168
1853.7686197234098,3127
1855.7430970494815,3218
1857.7170837649014,3102
1859.6905801322787,3113
1861.6635864143004,3198
1863.6361028737338,3231
1865.608129773424,3088
1867.5796673762961,3153
1869.5507159453537,3197
1871.521275743678,3212
1873.4913470344313,3196
1875.4609300808534,3190
1877.4300251462632,3207
1879.3986324940588,3098
1881.366752387717,3192
1883.3343850907936,3184
1885.3015308669228,3160
1887.268189979819,3134
1889.2343626932739,3230
1891.2000492711595,3164
1893.1652499774254,3188
1895.1299650761011,3205
1897.0941948312952,3202
1899.0579395071945,3170
1901.0211993680641,3139
1902.98397467825,3156
1904.9462657021745,3022
1906.9080727043415,3121
1908.869395949332,3144
1910.8302357018065,3171
1912.790592226504,3117
1914.7504657882428,3127
1916.7098566519212,3149
1918.6687650825133,3205
1920.6271913450764,3174
1922.5851357047422,3131
1924.5425984267245,3101
1926.499579776314,3205
1928.4560800188833,3145
1930.4120994198802,3092
1932.367638244833,3231
1934.32269675935,3187
1936.2772752291175,3231
1938.231373919899,3092
1940.1849930975404,3129
1942.1381330279637,3095
1944.0907939771696,3083
1946.0429762112412,3060
1947.9946799963363,3062
1949.9459055986945,3065
1951.896653284633,3096
1953.8469233205478,3158
1955.7967159729142,3037
1957.7460315082863,3064
1959.6948701932974,3164
1961.6432322946594,3049
1963.5911180791632,3124
1965.5385278136787,3083
1967.4854617651545,3084
1969.4319202006182,3123
1971.377903387176,3097
1973.3234115920136,3061
1975.268445082395,3038
1977.2130041256642,3167
1979.1570889892423,3150
1981.1006999406304,3144
1983.04383724741,3132
1984.986501177238,3051
1986.928691997853,3066
1988.8704099770712,3100
1990.811655382789,3004
1992.7524284829801,3062
1994.692729545698,3066
1996.6325588390755,3093
1998.5719166313224,3045
2000.5108031907307,3114
2002.4492187856677,2976
2004.387163684583,3031
2006.3246381560011,3054
2008.2616424685298,3039
2010.1981768908527,3056
2012.1342416917332,3143
2014.069837140014,3002
2016.0049635046162,3033
2017.9396210545406,3030
2019.8738100588666,3041
2021.8075307867502,3046
2023.740783507431,3054
2025.6735684902228,2980
2027.6058860045214,3093
2029.5377363198004,3038
2031.4691197056118,3006
2033.4000364315875,3047
2035.3304867674374,3018
2037.260470982952,3080
2039.189989347998,3059
2041.1190421325232,3069
2043.047629606554,3028
2044.9757520401945,3000
2046.9034097036288,3060
2048.8306028671195,3054
2050.7573318010086,3033
2052.683596775716,3062
2054.609398061742,2951
2056.5347359296647,2926
2058.4596106501403,3015
2060.384022493906,2980
2062.3079717317764,3053
2064.231458634646,2955
2066.1544834734873,3054
2068.077046519352,3036
2069.99914804337,2971
2071.9207883167524,2973
2073.8419676107865,3034
2075.7626861968406,2928
2077.6829443463607,2946
2079.6027423308715,3055
2081.522080421977,2981
2083.440958891362,3118
2085.359378010786,3038
2087.2773380520907,3020
2089.194839287196,3076
2091.111881988101,3009
2093.0284664268825,2998
2094.9445928756973,2972
2096.86026160678,2953
2098.775472892446,3018
2100.690227005088,3039
2102.604524217178,2953
2104.5183648012676,2957
2106.431749029985,3048
2108.34467717604,3067
2110.2571495122206,3008
2112.169166311393,2950
2114.080727846503,3022
2115.9918343905747,2972
2117.902486216711,2999
2119.8126835980956,3045
2121.722426807987,3053
2123.6317161197285,3029
2125.5405518067364,3066
2127.448934142509,3001
2129.356863400624,3048
2131.264339854737,3050
2133.1713637785815,3057
2135.077935445972,3041
2136.9840551308002,3029
2138.889723107037,3001
2140.7949396487334,2997
2142.699705030018,3051
2144.6040195250994,3061
2146.507883408264,3062
2148.4112969538774,3092
2150.3142604363848,3080
2152.2167741303097,3152
2154.1188383102535,3146
2156.0204532508997,3111
2157.9216192270064,3108
2159.822336513414,3150
2161.7226053850413,3054
2163.622426116884,3094
2165.5217989840185,3114
2167.4207242616,3126
2169.319202224862,3133
2171.2172331491165,3159
2173.1148173097563,3060
2175.0119549822507,3185
2176.90864644215,3069
2178.8048919650823,3148
2180.7006918267534,3152
2182.596046302952,3138
2184.4909556695407,3187
2186.3854202024645,3076
2188.279440177746,3126
2190.173015871487,3181
2192.066147559868,3014
2193.958835519149,3203
2195.851080025667,3102
2197.7428813558417,3039
2199.6342397861667,3085
2201.5251555932186,3154
2203.415629053651,3125
2205.3056604441986,3203
2207.19525004167,3169
2209.084398122958,3098
2210.9731049650327,3285
2212.861370844941,3208
2214.749196039812,3146
2216.636580826851,3095
2218.523525483344,3260
2220.410030286655,3110
2222.296095514226,3231
2224.1817214435805,3144
2226.066908352319,3269
2227.951656518121,3258
2229.835966218746,3204
2231.71983773203,3184
2233.6032713358913,3128
2235.486267308324,3200
2237.3688259274036,3156
2239.2509474712824,3202
2241.132632218193,3172
2243.013880446447,3201
2244.8946924344323,3238
2246.7750684606203,3258
2248.6550088035574,3154
2250.534513741871,3076
2252.413583554265,3080
2254.292218519526,3163
2256.170418916517,3152
2258.0481850241786,3160
2259.925517121534,3203
2261.8024154876825,3113
2263.678880401803,3116
2265.5549121431536,3090
2267.430510991071,3139
2269.305677224971,3164
2271.180411124348,3071
2273.0547129687766,3098
2274.9285830379076,3152
2276.8020216114737,3047
2278.6750289692845,3080
2280.5476053912294,3129
2282.4197511572766,3094
2284.2914665474727,3201
2286.162751841943,3116
2288.0336073208937,3178
2289.904033264608,3158
2291.774029953448,3241
2293.6435976678554,3181
2295.5127366883517,3152
2297.381447295534,3098
2299.2497297700825,3140
2301.1175843927526,3024
2302.9850114443825,3012
2304.852011205885,2894
2306.7185839582553,2993
2308.5847299825664,2891
2310.4504495599676,2963
2312.3157429716925,2964
2314.1806104990483,2950
2316.0450524234247,2941
2317.9090690262888,2903
2319.772660589186,2930
2321.635827393742,2965
2323.498569721661,2980
2325.3608878547248,2940
2327.2227820747967,2939
2329.0842526638157,2970
2330.945299903803,2929
2332.805924076857,2936
2334.6661254651535,2974
2336.525904350951,3006
2338.3852610165827,3027
2340.244195744464,2998
2342.102708817088,2911
2343.9608005170253,2916
2345.8184711269287,2980
2347.675720929526,2963
2349.532550207628,2933
2351.38895924412,3002
2353.24494832197,3029
2355.100517724223,3003
2356.955667734004,2933
2358.810398634514,2929
2360.664710709037,2990
2362.5186042409337,2992
2364.3720795136437,3000
2366.225136810686,3043
2368.0777764156583,3034
2369.929998612237,3043
2371.7818036841777,2956
2373.633191915315,2918
2375.484163589562,2977
2377.3347189909114,2948
2379.184858403434,3045
2381.03458211128,2945
2382.8838903986775,3069
2384.732783549936,3048
2386.5812618494406,2981
2388.4293255816588,3082
2390.2769750311327,2941
2392.1242104824883,3021
2393.971032220427,2976
2395.8174405297295,3048
2397.6634356952563,3049
2399.509018001947,3047
2401.3541877348193,3056
2403.1989451789705,2972
2405.043290619576,3048
2406.8872243418905,2973
2408.730746631247,3050
2410.5738577730594,3037
2412.4165580528183,2958
2414.258847756095,2903
2416.100727168537,3003
2417.9421965758734,3099
2419.783256263912,2995
2421.623906518538,2958
2423.4641476257157,2938
2425.303979871491,2978
2427.143403541984,3009
2428.9824189233977,2994
2430.821026302012,2981
2432.6592259641866,3035
2434.497018196361,3065
2436.33440328505,2941
2438.171381516851,3003
2440.00795317844,2929
2441.844118556569,2923
2443.6798779380724,3021
2445.5152316098606,3020
2447.3501798589255,3060
2449.1847229723357,3028
2451.0188612372403,3035
2452.8525949408663,3029
2454.6859243705203,2956
2456.518849813587,3021
2458.3513715575314,3025
2460.183489889895,2967
2462.015205098301,3007
2463.8465174704493,3019
2465.67742729412,3046
2467.5079348571717,2993
2469.338040447542,3102
2471.1677443532476,3016
2472.9970468623833,3074
2474.825948263123,3042
2476.6544488437207,3014
2478.482548892508,3027
2480.310248697896,3038
2482.137548548374,3164
2483.9644487325118,3060
2485.790949538956,3080
2487.617051256433,3025
2489.44275417375,3011
2491.26805857979,3080
2493.0929647635157,3060
2494.917473013971,3091
2496.741583620276,3187
2498.5652968716304,3093
2500.3886130573137,3129
2502.2115324666834,3092
2504.0340553891765,3096
2505.856182114308,3105
2507.6779129316733,3164
2509.499248130945,3101
2511.3201880018764,3093
2513.140732834298,3169
2514.9608829181198,3174
2516.780638543331,3080
2518.6,3114
2520.418967578273,3084
2522.237541568376,3089
2524.0557222606144,3093
2525.8735099453706,3163
2527.6909049131086,3126
2529.507907454368,3184
2531.32451785977,3172
2533.140736420014,3096
2534.9565634258774,3196
2536.771999168218,3158
2538.5870439379714,3149
2540.4016980261526,3225
2542.2159617238544,3155
2544.02983532225,3164
2545.8433191125914,3165
2547.656413386209,3172
2549.4691184345115,3172
2551.2814345489874,3192
2553.093362021204,3365
2554.904901142808,3164
2556.716052205523,3250
2558.526815501153,3281
2560.3371913215824,3303
2562.147179958771,3244
2563.956781704761,3221
2565.7659968516705,3236
2567.5748256916986,3192
2569.3832685171224,3353
2571.1913256202984,3211
2572.9989972936614,3253
2574.806283829725,3339
2576.613185521084,3327
2578.4197026604074,3384
2580.2258355404483,3379
2582.031584454035,3333
2583.836949694077,3286
2585.6419315535613,3362
2587.4465303255533,3337
2589.2507463032002,3371
2591.0545797797245,3419
2592.8580310484303,3351
2594.6611004026995,3355
2596.463788135992,3428
2598.266094541849,3408
2600.0680199138874,3359
2601.869564545807,3427
2603.670728731383,3478
2605.4715127644704,3465
2607.2719169390048,3432
2609.071941548998,3411
2610.8715868885433,3469
2612.670853251811,3485
2614.469740933052,3447
2616.268250226594,3369
2618.0663814268455,3476
2619.864134828292,3397
2621.6615107255006,3474
2623.458509413115,3458
2625.2551311858597,3475
2627.0513763385347,3377
2628.8472451660223,3306
2630.6427379632833,3402
2632.4378550253564,3391
2634.232596647359,3392
2636.026963124488,3347
2637.8209547520187,3396
2639.6145718253065,3451
2641.407814639785,3480
2643.200683490966,3447
2644.9931786744414,3371
2646.7853004858807,3422
2648.577049221034,3335
2650.3684251757277,3282
2652.1594286458712,3310
2653.9500599274484,3299
2655.740319316525,3301
2657.5302071092437,3362
2659.3197236018286,3262
2661.10886909058,3202
2662.8976438718782,3277
2664.686048242183,3347
2666.4740824980327,3306
2668.2617469360443,3221
2670.0490418529134,3147
2671.8359675454153,3312
2673.622524310403,3341
2675.408712444811,3360
2677.1945322456495,3211
2678.979984010009,3283
2680.76506803506,3288
2682.5497846180497,3225
2684.334134056306,3268
2686.1181166472343,3329
2687.9017326883213,3225
2689.6849824771293,3243
2691.4678663113013,3285
2693.2503844885596,3201
2695.032537306705,3190
2696.8143250636167,3282
2698.5957480572542,3196
2700.3768065856534,3207
2702.1575009469316,3252
2703.937831439283,3156
2705.717798360982,3181
2707.4974020103837,3274
2709.276642685917,3216
2711.055520686095,3200
2712.834036309506,3238
2714.612189854819,3188
2716.389981620782,3168
2718.1674119062204,3240
2719.944481010041,3216
2721.721189231226,3172
2723.4975368688415,3230
2725.273524222027,3218
2727.0491515900053,3177
2728.824419272075,3139
2730.5993275676146,3251
2732.3738767760838,3206
2734.148067197016,3168
2735.921899130031,3152
2737.6953728748194,3203
2739.468488731156,3105
2741.2412469988926,3111
2743.0136479779617,3210
2744.785691968372,3149
2746.5573792702116,3066
2748.3287101836504,3216
2750.099685008934,3226
2751.870304046388,3246
2753.640567596418,3216
2755.4104759595057,3148
2757.1800294362156,3210
2758.949228327187,3150
2760.7180729331412,3156
2762.486563554877,3232
2764.254700493272,3309
2766.022484049284,3224
2767.789914523947,3136
2769.5569922183786,3143
2771.3237174337705,3180
2773.090090471394,3253
2774.8561116326036,3298
2776.6217812188274,3252
2778.3870995315756,3225
2780.1520668724356,3226
2781.9166835430747,3256
2783.6809498452394,3270
2785.444866080754,3374
2787.2084325515225,3184
2788.971649559527,3295
2790.73451740683,3266
2792.4970363955713,3191
2794.2592068279705,3314
2796.0210290063264,3178
2797.7825032330147,3297
2799.543629810493,3243
2801.304409041296,3239
2803.0648412280366,3282
2804.8249266734088,3132
2806.5846656801846,3235
2808.344058551212,3294
2810.1031055894246,3245
2811.8618070978273,3288
2813.6201633795085,3313
2815.378174737636,3364
2817.1358414754536,3239
2818.893163896285,3228
2820.6501423035334,3297
2822.4067770006814,3335
2824.1630682912883,3280
2825.9190164789957,3241
2827.6746218675207,3239
2829.429884760661,3349
2831.184805462294,3342
2832.9393842763743,3362
2834.693621506936,3221
2836.4475174580916,3296
2838.201072434034,3350
2839.954286739034,3362
2841.707160677441,3303
2843.459694553685,3361
2845.2118886722724,3322
2846.96374333779,3366
2848.7152588549034,3265
2850.4664355283567,3337
2852.217273662973,3356
2853.9677735636546,3327
2855.7179355353833,3345
2857.4677598832186,3245
2859.217246912299,3318
2860.9663969278427,3371
2862.715210235146,3300
2864.4636871395846,3297
2866.211827946614,3371
2867.9596329617652,3375
2869.7071024906536,3324
2871.4542368389684,3365
2873.20103631248,3259
2874.947501217038,3330
2876.6936318585695,3248
2878.4394285430812,3282
2880.1848915766604,3375
2881.9300212654707,3205
2883.6748179157553,3316
2885.4192818338374,3340
2887.1634133261173,3280
2888.907212699077,3353
2890.6506802592744,3231
2892.393816313348,3352
2894.1366211680142,3324
2895.8790951300693,3359
2897.621238506388,3453
2899.363051603925,3352
2901.1045347297118,3304
2902.8456881908596,3362
2904.58651229456,3337
2906.327007348081,3294
2908.067173658772,3367
2909.8070115340597,3316
2911.5465212814497,3361
2913.285703208527,3269
2915.0245576229563,3281
2916.7630848324807,3265
2918.5012851449196,3335
2920.2391588681758,3297
2921.976706310227,3276
2923.7139277791334,3206
2925.4508235830313,3428
2927.187394030137,3295
2928.923639428745,3402
2930.6595600872306,3347
2932.395156314046,3369
2934.1304284177218,3316
2935.8653767068713,3399
2937.6000014901815,3449
2939.3343030764227,3385
2941.068281774442,3405
2942.8019378931644,3455
2944.5352717415976,3389
2946.2682836288236,3400
2948.0009738640065,3398
2949.7333427563885,3403
2951.465390615289,3465
2953.1971177501086,3402
2954.9285244703265,3426
2956.6596110855,3355
2958.3903779052657,3369
2960.1208252393385,3443
2961.8509533975125,3396
2963.5807626896617,3372
2965.3102534257378,3409
2967.0394259157715,3204
2968.768280469873,3323
2970.496817398232,3484
2972.2250370111146,3299
2973.952939618869,3319
2975.6805255319196,3476
2977.4077950607707,3439
2979.134748516006,3487
2980.861386208289,3500
2982.587708448359,3528
2984.313715547037,3577
2986.039407815222,3364
2987.764785563891,3615
2989.489849104102,3481
2991.2145987469908,3416
2992.9390348037705,3439
2994.6631575857346,3349
2996.3869674042576,3568
2998.1104645707887,3463
2999.83364939686,3377
3001.5565221940783,3559
3003.2790832741334,3432
3005.0013329487924,3442
3006.7232715298996,3431
3008.4448993293804,3321
3010.166216659239,3379
3011.887223831558,3431
3013.607921158498,3379
3015.3283089522993,3478
3017.0483875252826,3381
3018.7681571898443,3419
3020.4876182584626,3373
3022.2067710436927,3462
3023.9256158581707,3374
3025.644153014609,3474
3027.362382825801,3375
3029.0803056046193,3446
3030.797921664012,3483
3032.5152313170106,3437
3034.2322348767225,3453
3035.9489326563353,3442
3037.665324969115,3417
3039.3814121284063,3529
3041.097194447633,3462
3042.812672240299,3501
3044.5278458199855,3456
3046.2427155003525,3447
3047.9572815951406,3485
3049.671544418167,3473
3051.38550428333,3419
3053.0991615046073,3477
3054.812516396051,3409
3056.5255692717974,3547
3058.2383204460575,3368
3059.9507702331257,3401
3061.662918947372,3588
3063.3747669032446,3511
3065.0863144152736,3414
3066.7975617980674,3443
3068.508509366309,3497
3070.219157434767,3473
3071.9295063182844,3538
3073.639556331785,3510
3075.3493077902704,3496
3077.058761008821,3492
3078.7679163025964,3431
3080.476773986837,3565
3082.1853343768594,3462
3083.89359778806,3514
3085.6015645359153,3431
3087.3092349359786,3520
3089.016609303884,3486
3090.7236879553434,3570
3092.4304712061476,3513
3094.136959372166,3485
3095.843152769349,3488
3097.5490517137237,3476
3099.2546565213966,3529
3100.959967508554,3496
3102.66498499146,3577
3104.3697092864577,3548
3106.0741407099695,3530
3107.778279578498,3575
3109.482126208622,3579
3111.1856809170004,3539
3112.8889440203716,3579
3114.5919158355528,3482
3116.294596679439,3506
3117.996986869006,3591
3119.6990867213062,3600
3121.4008965534726,3642
3123.102416682717,3491
3124.803647426329,3567
3126.5045891016784,3611
3128.205242026213,3583
3129.90560651746,3491
3131.605682893025,3551
3133.3054714705922,3650
3135.0049725679282,3563
3136.7041865028714,3599
3138.4031135933465,3651
3140.101754157353,3646
3141.800108512971,3568
3143.498176978357,3559
3145.1959598717494,3488
3146.8934575114636,3563
3148.5906702158954,3500
3150.2875983035183,3445
3151.9842420928853,3500
3153.680601902627,3571
3155.376678051456,3527
3157.07247085816,3561
3158.767980641609,3451
3160.463207720748,3481
3162.158152414606,3478
3163.8528150422862,3523
3165.5471959229726,3413
3167.2412953759303,3606
3168.9351137204976,3621
3170.628651276098,3527
3172.3219083622307,3525
3174.014885298474,3554
3175.707582404485,3607
3177.4000000000005,3615
3179.092138404835,3582
3180.7839979388846,3511
3182.47557892212,3678
3184.166881674594,3657
3185.8579065164386,3611
3187.5486537678626,3614
3189.2391237491547,3546
3190.9293167806827,3498
3192.6192331828934,3491
3194.3088732763117,3526
3195.998237381542,3534
3197.687325819268,3594
3199.376138910251,3568
3201.064676975334,3607
3202.7529403354347,3495
3204.4409293115523,3504
3206.1286442247647,3531
3207.816085396229,3541
3209.5032531471825,3572
3211.190147798936,3526
3212.8767696728846,3495
3214.5631190905015,3513
3216.2491963733373,3493
3217.9350018430214,3572
3219.6205358212637,3363
3221.305798629851,3461
3222.990790590651,3383
3224.6755120256103,3456
3226.359963256751,3448
3228.0441446061795,3569
3229.7280563960758,3446
3231.411698948703,3460
3233.0950725863995,3528
3234.778177631587,3569
3236.461014406761,3507
3238.1435832345005,3578
3239.8258844374595,3550
3241.507918338374,3586
3243.1896852600576,3578
3244.8711855254023,3642
3246.552419457381,3562
3248.233387379042,3641
3249.914089613516,3525
3251.59452648401,3569
3253.274698313813,3623
3254.95460542629,3560
3256.6342481448855,3460
3258.313626793125,3527
3259.9927416946084,3407
3261.6715931730196,3584
3263.3501815521176,3516
3265.0285071557437,3411
3266.706570307815,3458
3268.3843713323286,3492
3270.0619105533615,3484
3271.739188295068,3607
3273.4162048816834,3554
3275.0929606375184,3577
3276.769455886966,3644
3278.445690954498,3564
3280.1216661646613,3667
3281.797381842087,3669
3283.4728383114807,3546
3285.1480358976296,3643
3286.8229749253996,3571
3288.4976557197333,3641
3290.172078605655,3491
3291.846243908266,3498
3293.5201519527463,3480
3295.193803064357,3433
3296.8671975684374,3544
3298.5403357904024,3494
3300.21321805575,3507
3301.8858446900567,3431
3303.558216018975,3544
3305.23033236824,3554
3306.9021940636603,3611
3308.57380143113,3610
3310.2451547966184,3517
3311.916254486174,3617
3313.5871008259246,3623
3315.2576941420766,3592
3316.9280347609147,3584
3318.5981230088046,3589
3320.2679592121895,3536
3321.9375436975924,3477
3323.606876791612,3464
3325.27595882093,3545
3326.944790112305,3463
3328.6133709925753,3480
3330.2817017886573,3502
3331.949782827547,3437
3333.617614436319,3521
3335.2851969421245,3545
3336.952530672199,3574
3338.619615953853,3518
3340.286453114475,3543
3341.9530424815357,3630
3343.619384382583,3591
3345.2854791452437,3541
3346.951327097224,3607
3348.6169285663073,3605
3350.2822838803577,3552
3351.947393367319,3538
3353.61225735521,3647
3355.2768761721345,3548
3356.9412501462693,3585
3358.605379605873,3583
3360.2692648792827,3565
3361.9329062949146,3472
3363.596304181263,3634
