CollectionTime,7/10/2024 3:40:36 PM
ExposureUsed,3
CalibratedSpectrum
-962.7078968117929,509
-959.9714848408522,602
-957.2358232597828,601
-954.5009119013725,586
-951.7667505983302,574
-949.0333391832855,589
-946.3006774887896,591
-943.5687653473143,610
-940.837602591253,599
-938.1071890529199,591
-935.3775245645503,570
-932.6486089583007,619
-929.9204420662485,594
-927.1930237203925,584
-924.4663537526524,583
-921.7404319948689,605
-919.0152582788041,598
-916.2908324361409,654
-913.5671542984834,646
-910.8442236973568,638
-908.1220404642074,604
-905.4006044304027,628
-902.679915427231,614
-899.959973285902,604
-897.2407778375464,604
-894.5223289132158,613
-891.8046263438832,595
-889.0876699604426,587
-886.3714595937089,585
-883.6559950744183,598
-880.9412762332282,602
-878.2273029007168,612
-875.5140749073835,584
-872.8015920836489,597
-870.0898542598545,598
-867.3788612662631,577
-864.6686129330585,625
-861.9591090903457,595
-859.2503495681506,605
-856.5423341964203,591
-853.8350628050229,593
-851.1285352237478,605
-848.4227512823054,622
-845.7177108103272,596
-843.0134136373656,588
-840.3098595928943,629
-837.6070485063082,638
-834.9049802069229,635
-832.2036545239757,641
-829.5030712866244,641
-826.8032303239481,604
-824.1041314649472,593
-821.4057745385428,606
-818.7081593735775,605
-816.0112857988148,586
-813.3151536429393,596
-810.6197627345566,593
-807.9251129021936,628
-805.2312039742981,617
-802.5380357792392,632
-799.8456081453069,608
-797.1539209007124,656
-794.462973873588,617
-791.772766891987,605
-789.083299783884,642
-786.3945723771743,613
-783.7065844996748,607
-781.0193359791231,641
-778.3328266431781,614
-775.6470563194197,592
-772.9620248353489,629
-770.2777320183878,626
-767.5941776958798,642
-764.9113616950891,649
-762.2292838432011,648
-759.5479439673222,628
-756.8673418944801,636
-754.1874774516235,644
-751.5083504656222,674
-748.8299607632671,653
-746.15230817127,673
-743.475392516264,646
-740.7992136248035,660
-738.1237713233636,639
-735.4490654383407,647
-732.7750957960521,635
-730.1018622227365,654
-727.4293645445534,678
-724.7576025875837,655
-722.0865761778291,651
-719.4162851412126,691
-716.7467293035781,704
-714.0779084906909,657
-711.409822528237,625
-708.7424712418238,661
-706.0758544569796,654
-703.4099719991541,653
-700.7448236937178,701
-698.0804093659622,700
-695.4167288411002,672
-692.7537819442656,677
-690.0915685005134,644
-687.4300883348199,655
-684.7693412720819,678
-682.1093271371178,670
-679.4500457546669,699
-676.7914969493897,716
-674.1336805458676,691
-671.4765963686034,677
-668.8202442420206,667
-666.1646239904642,663
-663.5097354382001,698
-660.8555784094151,701
-658.2021527282176,662
-655.5494582186366,684
-652.8974947046223,714
-650.2462620100463,680
-647.5957599587009,711
-644.9459883742998,727
-642.2969470804776,738
-639.6486359007902,710
-637.0010546587141,733
-634.3542031776476,734
-631.7080812809096,709
-629.0626887917401,709
-626.4180255333008,726
-623.7740913286734,767
-621.1308860008619,749
-618.4884093727904,722
-615.8466612673046,745
-613.2056415071715,717
-610.5653499150785,717
-607.9257863136347,754
-605.28695052537,756
-602.6488423727357,735
-600.0114616781036,728
-597.3748082637674,735
-594.7388819519412,758
-592.1036825647604,785
-589.4692099242818,793
-586.8354638524829,770
-584.2024441712624,782
-581.5701507024403,785
-578.9385832677575,830
-576.3077416888759,782
-573.6776257873787,775
-571.0482353847704,762
-568.4195703024757,773
-565.7916303618415,758
-563.164415384135,803
-560.5379251905453,811
-557.9121596021815,770
-555.2871184400748,786
-552.6628015251767,788
-550.0392086783606,775
-547.4163397204204,786
-544.794194472071,780
-542.1727727539491,832
-539.5520743866118,811
-536.9320991905377,841
-534.3128469861261,853
-531.6943175936979,884
-529.0765108334947,890
-526.4594265256793,895
-523.8430644903358,1064
-521.2274245474689,1142
-518.612506517005,1246
-515.9983102187913,1213
-513.3848354725959,1254
-510.77208209810846,1313
-508.16004991493924,1317
-505.5487387426199,1509
-502.9381484006032,1731
-500.3282787082628,1849
-497.71912948489364,1833
-495.1107005497117,1772
-492.5029917218539,1580
-489.8960028203786,1432
-487.28973366426493,1316
-484.68418407241325,1193
-482.07935386364494,1117
-479.47524285670266,1053
-476.87185087025,1004
-474.2691777228715,1052
-471.66722323307334,1044
-469.0659872192821,1026
-466.4654694998459,1023
-463.86566989303384,1003
-461.26658821703614,991
-458.66822428996414,967
-456.07057792985,1041
-453.4736489546475,1017
-450.877437182231,961
-448.28194243039627,970
-445.68716451686,933
-443.09310325926003,931
-440.49975847515555,928
-437.9071299820263,910
-435.31521759727354,934
-432.72402113821954,984
-430.13354042210767,982
-427.5437752661022,974
-424.95472548728867,996
-422.36639090267386,1027
-419.7787713291855,1026
-417.1918665836721,1108
-414.60567648290385,1134
-412.0202008435715,979
-409.4354394822874,1049
-406.8513922155845,1107
-404.26805885991723,1080
-401.685439231661,1129
-399.103533147112,1056
-396.522340422488,1034
-393.9418608739278,1035
-391.3620943174908,1010
-388.7830405691583,985
-386.2046994448317,932
-383.6270707603344,974
-381.05015433141045,950
-378.473949973725,858
-375.8984575028645,839
-373.32367673433623,758
-370.74960748356875,765
-368.1762495659117,722
-365.60360279663576,669
-363.03166699093265,591
-360.4604419639154,562
-357.8899275306178,568
-355.32012350599507,505
-352.7510297049233,532
-350.1826459421999,478
-347.61497203254316,483
-345.04800779059235,504
-342.4817530309082,511
-339.91620756797226,538
-337.35137121618743,539
-334.7872437898774,559
-332.22382510328725,594
-329.66111497058273,556
-327.09911320585127,526
-324.53781962310075,518
-321.9772340362607,527
-319.4173562591816,542
-316.8581861056348,495
-314.2997233893127,511
-311.7419679238294,519
-309.1849195227194,581
-306.62857799943856,574
-304.0729431673641,586
-301.51801483979375,565
-298.963792829947,575
-296.41027695096386,610
-293.85746701590574,640
-291.3053628377552,578
-288.7539642294155,577
-286.2032710037115,596
-283.65328297338897,584
-281.1039999511146,684
-278.5554217494762,754
-276.007548180983,665
-273.4603790580651,596
-270.9139141930734,572
-268.3681533982807,634
-265.8230964858798,625
-263.27874326798565,669
-260.7350935566336,700
-258.1921471637804,756
-255.6499039013039,748
-253.10836358100266,696
-250.56752601459698,662
-248.02739101372765,678
-245.48795838995704,693
-242.94922795476816,692
-240.41119951956557,635
-237.8738728956746,710
-235.33724789434166,727
-232.80132432673452,711
-230.2661020039418,725
-227.73158073697357,747
-225.19776033676033,729
-222.66464061415422,741
-220.1322213799284,745
-217.60050244477725,724
-215.06948361931552,677
-212.53916471408013,766
-210.00954553952818,897
-207.48062590603843,828
-204.9524056239104,814
-202.4248845033651,771
-199.8980623545441,805
-197.37193898751036,774
-194.84651421224817,782
-192.32178783866232,797
-189.79775967657952,832
-187.27442953574644,921
-184.7517972258321,833
-182.2298625564256,783
-179.7086253370378,792
-177.18808537710026,796
-174.66824248596583,940
-172.14909647290835,890
-169.6306471471229,861
-167.11289431772548,873
-164.59583779375328,963
-162.07947738416453,968
-159.5638128978386,1068
-157.04884414357605,1124
-154.53457093009854,1027
-152.02099306604828,1059
-149.50811035998936,990
-146.99592262040665,937
-144.48442965570587,1056
-141.97363127421409,1086
-139.46352728417958,1021
-136.95411749377126,1009
-134.44540171107985,1085
-131.93737974411636,1157
-129.43005140081357,1140
-126.92341648902493,1538
-124.41747481652521,2051
-121.91222619101006,2146
-119.40767042009657,2383
-116.90380731132257,3026
-114.40063667214702,3212
-111.8981583099503,3372
-109.3963720320337,2812
-106.89527764561933,2195
-104.39487495785067,1889
-101.89516377579241,2850
-99.39614390642998,4227
-96.89781515667039,5309
-94.40017733334128,4900
-91.90323024319173,3549
-89.40697369289148,3246
-86.91140748903172,5063
-84.41653143812482,6923
-81.92234534660395,6807
-79.42884902082358,5417
-76.93604226705907,7114
-74.4439248915071,12299
-71.95249670028534,19424
-69.46175749943245,24513
-66.97170709490854,25048
-64.48234529259423,20890
-61.99367189829195,15782
-59.50568671772464,13013
-57.01838955653636,11896
-54.53178022029283,12200
-52.045858514480074,13946
-49.560624244506016,18559
-47.07607721569923,19944
-44.59221723330904,18968
-42.10904410250669,17507
-39.62655762838392,15646
-37.14475761595372,13593
-34.66364387015028,12189
-32.18321619582866,11932
-29.70347439776515,11723
-27.224418280657005,12616
-24.74604764912317,15958
-22.26836230770266,20593
-19.7913620608565,30047
-17.315046712966478,48737
-14.83941606833514,65037
-12.36446993118659,65037
-9.89020810566592,65037
-7.416630395839093,65037
-4.94373660569363,65037
-2.471526539137585,65037
-6.821210263296962E-13,65037
2.47084320796705,65037
4.941003281093458,65037
7.410480415786196,65037
9.879274808531363,65037
12.347386655893956,65037
14.814816154518212,65037
17.28156350112681,65037
19.74762889252179,65037
22.21301252558385,65037
24.67771459727237,22578
27.141735304626195,5551
29.605074844762612,3806
32.06773341487792,3351
34.52971121224755,3087
36.99100843422559,3500
39.45162527824516,3581
41.91156194181792,2614
44.370818622535126,2326
46.82939551806646,1952
49.287292826160524,1922
51.74451074464503,2178
54.201049471426245,2387
56.65690920448981,2021
59.112090141899785,1675
61.56659248179983,1777
64.02041642241159,1734
66.4735621620365,1567
68.92602989905402,1569
71.37781983192338,1479
73.82893215918205,1596
76.27936707944684,1650
78.72912479141326,1660
81.17820549385567,1519
83.62660938562783,1626
86.07433666566146,1627
88.5213875329681,1276
90.96776218663751,1275
93.41346082583925,1255
95.85848364982041,1216
98.30283085790859,1465
100.7465026495089,1654
103.18949922410604,1442
105.63182078126385,1230
108.07346752062438,1377
110.51443964190923,1558
112.95473734491827,1230
115.39436082953114,1167
117.83331029570547,1162
120.27158594347827,1230
122.7091879729652,1477
125.1461165843615,1320
127.58237197794062,1311
130.01795435405518,1234
132.4528639131364,1317
134.88710085569494,1512
137.32066538231982,1394
139.75355769367923,1243
142.1857779905207,1047
144.61732647366978,1045
147.04820334403132,997
149.47840880258934,1045
151.90794305040674,1138
154.33680628862487,1252
156.76499871846443,1464
159.19252054122433,1584
161.61937195828352,1584
164.04555317109896,1740
166.47106438120693,1985
168.89590579022217,2153
171.320077599839,2322
173.7435800118302,2558
176.16641322804742,2571
178.58857745042144,2779
181.01007288096173,2908
183.43089972175687,3063
185.85105817497413,3047
188.27054844285988,2844
190.6893707277394,2693
193.10752523201643,2740
195.5250121581745,2865
197.9418317087751,2880
200.3579840864594,3005
202.7734694939469,2983
205.18828813403627,3010
207.6024402096051,3218
210.01592592360964,3132
212.42874547908548,3050
214.84089907914665,3118
217.2523869269868,3006
219.66320922587727,2871
222.0733661791695,3013
224.48285799029293,2992
226.8916848627572,3047
229.29984700014882,3033
231.7073446061355,3144
234.11417788446204,3187
236.520347038953,3086
238.92585227351185,3133
241.33069379212054,3065
243.73487179884035,3199
246.1383864978112,3154
248.541238093252,3056
250.9434267894609,3169
253.34495279081432,3031
255.74581630176783,3133
258.1460175268563,3081
260.54555667069314,3093
262.9444339379703,3124
265.3426495334594,3062
267.7402036620107,3082
270.1370965285529,3024
272.53332833809407,3017
274.9288992957214,2845
277.32380960660055,2900
279.718059475976,2837
282.1116491091717,2875
284.5045787115897,2827
286.89684848871195,2820
289.2884586460981,2792
291.67940938938807,2857
294.0697009242996,2881
296.4593334566299,2854
298.84830719225477,2764
301.23662233712923,2817
303.6242790972866,2763
306.01127767884,2685
308.39761828798066,2598
310.78330113097934,2643
313.16832641418534,2625
315.5526943440269,2572
317.9364051270112,2559
320.3194589697242,2621
322.70185607883093,2626
325.0835966610754,2529
327.4646809232805,2528
329.8451090723478,2543
332.2248813152577,2407
334.6039978590701,2520
336.9824589109231,2462
339.36026467803447,2505
341.7374153677,2428
344.113911187295,2500
346.48975234427337,2421
348.8649390461686,2530
351.2394715005918,2428
353.61334991523415,2494
355.9865744978655,2417
358.35914545633375,2364
360.73106299856715,2392
363.10232733257146,2365
365.47293866643247,2316
367.84289720831396,2322
370.2122031664593,2308
372.5808567491905,2269
374.9488581649083,2329
377.31620762209275,2298
379.6829053293021,2239
382.0489514951745,2243
384.4143463284262,2243
386.7790900378528,2267
389.14318283232853,2322
391.50662492080653,2261
393.86941651231916,2251
396.23155781597745,2334
398.5930490409713,2254
400.9538903965696,2207
403.3140820921202,2264
405.6736243370498,2293
408.03251734086336,2271
410.3907613131465,2177
412.74835646356166,2178
415.10530300185144,2150
417.4616011378372,2212
419.81725108141893,2168
422.1722530425758,2139
424.5266072313656,2171
426.880313857925,2248
429.2333731324701,2184
431.58578526529516,2208
433.9375504667738,2190
436.2886689473588,2203
438.63914091758113,2064
440.9889665880513,2202
443.33814616945835,2136
445.68667987257015,2178
448.03456790823395,2169
450.3818104873759,2127
452.72840782100013,2161
455.07436012019105,2098
457.41966759611057,2153
459.7643304600007,2164
462.10834892318155,2204
464.4517231970525,2190
466.79445349309174,2262
469.1365400228566,2147
471.4779829979826,2170
473.81878263018564,2216
476.15893913125876,2292
478.4984527130747,2269
480.8373235875855,2368
483.17555196682144,2345
485.5131380628919,2311
487.8500820879857,2542
490.1863842543697,2630
492.52204477439034,2824
494.8570638604725,3172
497.1914417251204,3365
499.52517858091653,3540
501.85827464052306,3838
504.19073011668036,3912
506.5225452222086,3824
508.85372017000566,3739
511.18425517304956,3682
513.514150444396,3552
515.8434061971808,4141
518.1720226446176,4929
520.4999999999999,5235
522.8273384766991,4944
525.1540382881666,4545
527.480099647932,4100
529.8055227696037,3438
532.1303078668694,2912
534.454455153496,2581
536.777964843328,2358
539.1008371502907,2331
541.4230722883866,2299
543.744670471698,2263
546.0656319143858,2284
548.3859568306899,2317
550.7056454349294,2312
553.0246979415016,2276
555.3431145648834,2283
557.6608955196306,2178
559.978041020377,2186
562.2945512818363,2133
564.6104265188006,2245
566.9256669461412,2269
569.2402727788082,2261
571.5542442318302,2235
573.8675815203156,2252
576.1802848594508,2320
578.4923544645015,2303
580.8037905508126,2249
583.114593333807,2242
585.4247630289875,2300
587.7342998519354,2273
590.0432040183106,2213
592.3514757438526,2126
594.6591152443794,2214
596.9661227357875,2303
599.2724984340531,2227
601.578242555231,2234
603.8833553154542,2293
606.1878369309362,2323
608.4916876179676,2283
610.7949075929192,2266
613.0974970722403,2279
615.3994562724587,2314
617.7007854101818,2296
620.0014847020951,2307
622.3015543649641,2254
624.6009946156324,2274
626.8998056710224,2336
629.1979877481361,2335
631.4955410640538,2309
633.7924658359349,2319
636.0887622810175,2311
638.3844306166192,2252
640.6794710601358,2274
642.9738838290426,2310
645.2676691408932,2210
647.5608272133207,2268
649.853358264037,2324
652.1452625108324,2293
654.4365401715764,2260
656.7271914642178,2279
659.0172166067838,2242
661.3066158173809,2276
663.5953893141935,2296
665.8835373154867,2364
668.1710600396028,2310
670.4579577049639,2307
672.7442305300709,2342
675.0298787335033,2251
677.3149025339197,2266
679.599302150058,2298
681.8830778007342,2286
684.1662297048437,2277
686.4487580813608,2340
688.7306631493387,2338
691.0119451279091,2335
693.2926042362834,2309
695.5726406937516,2342
697.8520547196814,2321
700.1308465335215,2264
702.4090163547982,2242
704.6865644031171,2244
706.9634908981619,2292
709.2397960596965,2246
711.5154801075631,2263
713.7905432616823,2248
716.0649857420548,2249
718.3388077687592,2278
720.612009561953,2268
722.8845913418733,2241
725.1565533288352,2269
727.427895743234,2274
729.6986188055427,2324
731.9687227363137,2287
734.238207756178,2315
736.5070740858458,2225
738.7753219461066,2259
741.0429515578281,2304
743.3099631419569,2267
745.5763569195191,2235
747.8421331116193,2233
750.1072919394409,2273
752.3718336242467,2212
754.6357583873777,2385
756.8990664502545,2234
759.1617580343765,2306
761.423833361321,2281
763.6852926527457,2258
765.9461361303862,2266
768.206364016058,2298
770.4659765316536,2256
772.7249738991469,2304
774.9833563405886,2320
777.2411240781092,2370
779.4982773339183,2259
781.7548163303044,2405
784.010741289634,2385
786.2660524343538,2400
788.5207499869881,2376
790.7748341701416,2318
793.0283052064964,2291
795.2811633188143,2353
797.5334087299362,2379
799.7850416627813,2345
802.0360623403484,2339
804.2864709857143,2276
806.5362678220353,2314
808.7854530725468,2350
811.0340269605625,2293
813.2819897094754,2306
815.5293415427581,2271
817.77608268396,2294
820.0222133567116,2379
822.2677337847211,2333
824.5126441917765,2246
826.7569448017433,2327
829.0006358385675,2327
831.2437175262731,2376
833.4861900889629,2337
835.7280537508192,2250
837.9693087361026,2312
840.2099552691533,2210
842.4499935743896,2306
844.689423876309,2329
846.9282463994886,2354
849.1664613685833,2352
851.4040690083276,2336
853.6410695435349,2315
855.877463199097,2298
858.1132501999847,2287
860.3484307712487,2282
862.5830051380175,2347
864.8169735254988,2264
867.0503361589791,2427
869.2830932638243,2389
871.5152450654786,2405
873.7467917894654,2425
875.9777336613873,2357
878.2080709069252,2389
880.4378037518389,2349
882.666932421968,2516
884.8954571432301,2429
887.1233781416219,2402
889.3506956432192,2442
891.5774098741766,2473
893.803521060728,2438
896.0290294291852,2401
898.2539352059397,2392
900.4782386174619,2390
902.7019398903011,2414
904.925039251085,2340
907.147536926521,2350
909.3694331433943,2427
911.59072812857,2375
913.8114221089921,2339
916.0315153116827,2378
918.2510079637437,2303
920.4699002923547,2283
922.6881925247761,2248
924.905884888345,2379
927.1229776104793,2295
929.3394709186747,2333
931.555365040506,2368
933.7706602036275,2385
935.9853566357709,2327
938.1994545647489,2301
940.4129542184515,2411
942.6258558248488,2317
944.8381596119883,2260
947.0498658079974,2353
949.2609746410825,2281
951.4714863395287,2305
953.6814011316998,2220
955.8907192460387,2256
958.0994409110671,2254
960.3075663553858,2254
962.5150958076741,2249
964.7220294966913,2193
966.928367651274,2247
969.1341105003388,2239
971.3392582728806,2149
973.5438111979742,2190
975.747769504772,2264
977.9511334225061,2226
980.153903180487,2307
982.3560790081052,2208
984.5576611348289,2214
986.7586497902058,2136
988.9590452038618,2220
991.158847605503,2076
993.3580572249133,2194
995.5566742919558,2127
997.7546990365728,2122
999.952131688785,2110
1002.1489724786926,2052
1004.3452216364743,1966
1006.5408793923874,1977
1008.7359459767691,2012
1010.9304216200343,1967
1013.1243065526781,1990
1015.3176010052733,1996
1017.510305208472,1912
1019.7024193930064,1985
1021.8939437896848,2019
1024.0848786293977,2016
1026.2752241431122,1944
1028.4649805618747,1988
1030.6541481168115,2013
1032.842727039127,1980
1035.0307175601051,1973
1037.2181199111074,1885
1039.4049343235752,1914
1041.591161029029,1913
1043.7768002590683,1918
1045.9618522453698,1909
1048.1463172196918,1937
1050.3301954138697,1885
1052.513487059818,1964
1054.69619238953,1895
1056.8783116350783,1923
1059.0598450286152,1917
1061.2407928023704,1944
1063.4211551886528,1911
1065.6009324198508,1951
1067.780124728432,1940
1069.9587323469414,1961
1072.1367555080046,1956
1074.314194444325,1927
1076.4910493886855,1924
1078.667320573947,1965
1080.843008233051,1855
1083.0181125990161,1802
1085.1926339049414,1817
1087.3665723840027,1952
1089.5399282694575,1930
1091.7127017946405,1889
1093.8848931929647,1933
1096.0565026979243,1871
1098.2275305430899,1858
1100.3979769621128,1856
1102.567842188722,1887
1104.737126456726,1888
1106.9058300000124,1831
1109.0739530525475,1849
1111.2414958483764,1884
1113.4084586216231,1850
1115.5748416064907,1812
1117.7406450372605,1898
1119.9058691482942,1893
1122.0705141740304,1887
1124.2345803489884,1839
1126.3980679077658,1835
1128.5609770850388,1805
1130.7233081155623,1754
1132.8850612341707,1775
1135.0462366757774,1807
1137.2068346753745,1824
1139.3668554680326,1835
1141.526299288901,1744
1143.68516637321,1774
1145.8434569562655,1820
1148.001171273455,1802
1150.158309560244,1780
1152.3148720521767,1789
1154.470858984876,1708
1156.626270594044,1732
1158.7811071154629,1737
1160.9353687849912,1755
1163.089055838569,1798
1165.242168512213,1838
1167.3947070420209,1746
1169.5466716641677,1709
1171.6980626149075,1785
1173.8488801305748,1674
1175.9991244475814,1747
1178.1487958024186,1746
1180.2978944316555,1742
1182.4464205719428,1755
1184.5943744600072,1752
1186.7417563326567,1705
1188.8885664267755,1745
1191.0348049793297,1763
1193.1804722273619,1788
1195.325568407995,1688
1197.4700937584303,1702
1199.614048515948,1761
1201.7574329179074,1756
1203.900247201746,1696
1206.042491604982,1726
1208.1841663652099,1810
1210.3252717201053,1747
1212.465807907422,1736
1214.6057751649923,1757
1216.7451737307279,1803
1218.8840038426192,1738
1221.0222657387353,1782
1223.1599596572241,1781
1225.2970858363137,1806
1227.4336445143094,1854
1229.5696359295966,1833
1231.705060320639,1748
1233.8399179259786,1766
1235.9742089842384,1803
1238.107933734118,1869
1240.2410924143974,1837
1242.373685263935,1857
1244.5057125216676,1854
1246.6371744266116,1825
1248.7680712178621,1800
1250.898403134593,1780
1253.028170416058,1772
1255.1573733015875,1802
1257.2860120305932,1833
1259.4140868425648,1838
1261.54159797707,1838
1263.6685456737569,1789
1265.7949301723515,1821
1267.9207517126597,1751
1270.046010534565,1851
1272.1707068780306,1795
1274.2948409830983,1777
1276.4184130898889,1809
1278.541423438603,1882
1280.6638722695184,1887
1282.785759822993,1841
1284.9070863394636,1791
1287.0278520594447,1898
1289.1480572235314,1934
1291.2677020723963,1909
1293.3867868467923,1859
1295.5053117875495,1795
1297.623277135579,1943
1299.740683131868,1845
1301.8575300174857,1929
1303.973818033578,1911
1306.0895474213703,1909
1308.2047184221678,1880
1310.3193312773528,1952
1312.4333862283888,1837
1314.5468835168163,1849
1316.659823384255,1829
1318.7722060724045,1858
1320.8840318230418,1898
1322.9953008780249,1907
1325.1060134792888,1903
1327.2161698688478,1893
1329.3257702887959,1939
1331.4348149813054,1937
1333.5433041886276,1908
1335.6512381530933,1947
1337.7586171171101,1858
1339.8654413231675,1940
1341.9717110138317,1885
1344.0774264317488,1937
1346.1825878196432,1868
1348.2871954203192,1858
1350.3912494766587,1877
1352.4947502316231,1881
1354.5976979282532,1846
1356.7000928096686,1785
1358.8019351190665,1884
1360.9032250997243,1905
1363.0039629949988,1913
1365.1041490483235,1872
1367.2037835032133,1838
1369.3028666032606,1866
1371.401398592137,1906
1373.4993797135926,1950
1375.5968102114575,1975
1377.6936903296396,1916
1379.7900203121262,1906
1381.8858004029835,1897
1383.9810308463561,1960
1386.075711886469,1914
1388.1698437676241,1943
1390.2634267342032,1905
1392.356461030667,1940
1394.4489469015557,1988
1396.5408845914872,1946
1398.6322743451592,1887
1400.7231164073469,1918
1402.813411022907,1902
1404.903158436773,1976
1406.9923588939578,1939
1409.0810126395531,1973
1411.1691199187303,1995
1413.2566809767386,2015
1415.343696058907,2037
1417.4301654106425,2031
1419.5160892774315,1972
1421.6014679048399,2039
1423.6863015385125,2057
1425.7705904241707,2136
1427.8543348076178,2113
1429.9375349347342,2032
1432.0201910514802,2059
1434.102303403894,2007
1436.1838722380944,2103
1438.2648978002767,2052
1440.3453803367174,2095
1442.4253200937692,2097
1444.5047173178677,2133
1446.5835722555234,2185
1448.6618851533285,2189
1450.739656257952,2170
1452.8168858161434,2235
1454.8935740747306,2168
1456.96972128062,2153
1459.045327680797,2214
1461.120393522327,2208
1463.1949190523528,2289
1465.2689045180973,2298
1467.3423501668608,2350
1469.415256246024,2288
1471.4876230030463,2363
1473.559450685465,2425
1475.6307395408976,2453
1477.7014898170391,2475
1479.771701761665,2541
1481.8413756226287,2542
1483.9105116478618,2572
1485.9791100853772,2517
1488.0471711832643,2603
1490.1146951896926,2581
1492.1816823529098,2577
1494.2481329212433,2619
1496.3140471430984,2681
1498.3794252669609,2738
1500.4442675413939,2688
1502.5085742150404,2779
1504.572345536622,2777
1506.6355817549388,2809
1508.6982831188702,2692
1510.7604498773744,2793
1512.8220822794883,2786
1514.8831805743293,2867
1516.9437450110909,2864
1519.003775839048,2934
1521.0632733075522,2969
1523.1222376660367,2977
1525.1806691640113,3037
1527.2385680510652,3049
1529.2959345768668,3028
1531.3527689911643,3286
1533.4090715437833,3276
1535.4648424846291,3256
1537.5200820636855,3361
1539.5747905310159,3402
1541.6289681367616,3404
1543.6826151311434,3464
1545.7357317644614,3407
1547.7883182870937,3474
1549.8403749494987,3559
1551.8919020022113,3605
1553.9428996958477,3638
1555.9933682811015,3749
1558.0433080087469,3686
1560.0927191296346,3811
1562.1416018946961,3879
1564.1899565549415,3995
1566.2377833614592,3851
1568.2850825654164,3864
1570.3318544180606,3785
1572.3780991707158,3747
1574.423817074788,3736
1576.4690083817595,3473
1578.5136733431923,3298
1580.5578122107272,3264
1582.601425236085,3204
1584.6445126710646,3008
1586.6870747675434,2988
1588.7291117774776,2844
1590.7706239529034,2697
1592.8116115459347,2685
1594.8520748087658,2528
1596.8920139936686,2552
1598.9314293529933,2429
1600.9703211391711,2310
1603.008689604711,2357
1605.0465350022005,2300
1607.0838575843068,2195
1609.1206576037753,2206
1611.1569353134305,2197
1613.1926909661765,2144
1615.2279248149953,2161
1617.2626371129481,2081
1619.2968281131757,2042
1621.3304980688963,2081
1623.3636472334088,2054
1625.39627586009,2048
1627.428384202396,2035
1629.459972513861,1962
1631.4910410480993,2000
1633.5215900588028,1971
1635.551619799744,2057
1637.5811305247717,1968
1639.6101224878166,2022
1641.6385959428862,1932
1643.6665511440683,1968
1645.693988345528,1912
1647.7209078015112,1962
1649.7473097663405,1982
1651.7731944944203,1922
1653.7985622402307,1973
1655.823413258333,1884
1657.847747803366,1905
1659.8715661300494,1939
1661.8948684931793,1946
1663.9176551476316,1858
1665.9399263483624,1864
1667.9616823504057,1920
1669.982923408873,1989
1672.0036497789574,1971
1674.0238617159293,1863
1676.043559475138,1906
1678.0627433120121,1911
1680.081413482059,1969
1682.0995702408654,1875
1684.117213844096,1852
1686.134344547495,1933
1688.1509626068864,1913
1690.1670682781705,1904
1692.182661817329,1939
1694.1977434804217,1922
1696.2123135235875,1918
1698.226372203043,1833
1700.2399197750851,1926
1702.2529564960905,1951
1704.2654826225112,1931
1706.277498410882,1960
1708.2890041178139,1857
1710.2999999999988,1825
1712.3104863142066,1937
1714.3204633172854,1894
1716.329931266163,1842
1718.3388904178469,1853
1720.3473410294214,1905
1722.3552833580516,1859
1724.3627176609807,1816
1726.3696441955308,1861
1728.3760632191033,1908
1730.3819749891782,1870
1732.3873797633146,1929
1734.3922777991502,1908
1736.3966693544012,1930
1738.4005546868639,1907
1740.4039340544127,1867
1742.406807715001,1820
1744.4091759266616,1853
1746.4110389475054,1828
1748.4123970357223,1823
1750.413250449582,1840
1752.4135994474318,1831
1754.4134442876993,1806
1756.4127852288902,1863
1758.4116225295893,1801
1760.4099564484595,1802
1762.407787244244,1789
1764.405115175764,1836
1766.4019405019203,1770
1768.3982634816916,1779
1770.3940843741357,1771
1772.3894034383907,1805
1774.3842209336717,1830
1776.378537119274,1854
1778.372352254571,1834
1780.3656665990156,1892
1782.3584804121397,1804
1784.3507939535534,1794
1786.3426074829463,1769
1788.3339212600863,1790
1790.3247355448211,1811
1792.3150505970766,1793
1794.3048666768573,1814
1796.2941840442477,1803
1798.2830029594106,1861
1800.2713236825884,1841
1802.2591464741004,1805
1804.2464715943465,1782
1806.2332993038058,1708
1808.2196298630352,1767
1810.2054635326708,1799
1812.190800573428,1861
1814.175641246101,1762
1816.1599858115628,1827
1818.1438345307652,1864
1820.127187664738,1806
1822.1100454745924,1847
1824.092408221516,1820
1826.0742761667766,1746
1828.055649571721,1821
1830.0365286977735,1806
1832.0169138064398,1779
1833.9968051593014,1884
1835.9762030180214,1779
1837.9551076443408,1876
1839.9335193000788,1850
1841.9114382471344,1804
1843.888864747485,1825
1845.8657990631878,1774
1847.842241456378,1784
1849.8181921892697,1893
1851.7936515241558,1757
1853.7686197234098,1757
1855.7430970494815,1715
1857.7170837649014,1737
1859.6905801322787,1782
1861.6635864143004,1819
1863.6361028737338,1834
1865.608129773424,1845
1867.5796673762961,1825
1869.5507159453537,1825
1871.521275743678,1802
1873.4913470344313,1856
1875.4609300808534,1780
1877.4300251462632,1793
1879.3986324940588,1861
1881.366752387717,1791
1883.3343850907936,1809
1885.3015308669228,1830
1887.268189979819,1813
1889.2343626932739,1820
1891.2000492711595,1807
1893.1652499774254,1856
1895.1299650761011,1876
1897.0941948312952,1800
1899.0579395071945,1850
1901.0211993680641,1812
1902.98397467825,1859
1904.9462657021745,1833
1906.9080727043415,1782
1908.869395949332,1814
1910.8302357018065,1785
1912.790592226504,1838
1914.7504657882428,1831
1916.7098566519212,1766
1918.6687650825133,1750
1920.6271913450764,1811
1922.5851357047422,1766
1924.5425984267245,1766
1926.499579776314,1791
1928.4560800188833,1780
1930.4120994198802,1778
1932.367638244833,1795
1934.32269675935,1785
1936.2772752291175,1853
1938.231373919899,1786
1940.1849930975404,1787
1942.1381330279637,1839
1944.0907939771696,1798
1946.0429762112412,1762
1947.9946799963363,1790
1949.9459055986945,1817
1951.896653284633,1768
1953.8469233205478,1796
1955.7967159729142,1801
1957.7460315082863,1781
1959.6948701932974,1774
1961.6432322946594,1797
1963.5911180791632,1722
1965.5385278136787,1760
1967.4854617651545,1746
1969.4319202006182,1712
1971.377903387176,1777
1973.3234115920136,1745
1975.268445082395,1708
1977.2130041256642,1738
1979.1570889892423,1750
1981.1006999406304,1751
1983.04383724741,1786
1984.986501177238,1732
1986.928691997853,1814
1988.8704099770712,1774
1990.811655382789,1731
1992.7524284829801,1735
1994.692729545698,1773
1996.6325588390755,1841
1998.5719166313224,1787
2000.5108031907307,1761
2002.4492187856677,1811
2004.387163684583,1767
2006.3246381560011,1750
2008.2616424685298,1700
2010.1981768908527,1810
2012.1342416917332,1647
2014.069837140014,1816
2016.0049635046162,1720
2017.9396210545406,1742
2019.8738100588666,1731
2021.8075307867502,1746
2023.740783507431,1749
2025.6735684902228,1755
2027.6058860045214,1740
2029.5377363198004,1812
2031.4691197056118,1769
2033.4000364315875,1749
2035.3304867674374,1770
2037.260470982952,1759
2039.189989347998,1829
2041.1190421325232,1721
2043.047629606554,1732
2044.9757520401945,1778
2046.9034097036288,1742
2048.8306028671195,1715
2050.7573318010086,1739
2052.683596775716,1749
2054.609398061742,1721
2056.5347359296647,1735
2058.4596106501403,1692
2060.384022493906,1684
2062.3079717317764,1676
2064.231458634646,1744
2066.1544834734873,1704
2068.077046519352,1681
2069.99914804337,1790
2071.9207883167524,1742
2073.8419676107865,1743
2075.7626861968406,1751
2077.6829443463607,1760
2079.6027423308715,1670
2081.522080421977,1800
2083.440958891362,1712
2085.359378010786,1649
2087.2773380520907,1778
2089.194839287196,1795
2091.111881988101,1664
2093.0284664268825,1666
2094.9445928756973,1708
2096.86026160678,1684
2098.775472892446,1678
2100.690227005088,1702
2102.604524217178,1720
2104.5183648012676,1770
2106.431749029985,1697
2108.34467717604,1726
2110.2571495122206,1749
2112.169166311393,1753
2114.080727846503,1693
2115.9918343905747,1752
2117.902486216711,1785
2119.8126835980956,1659
2121.722426807987,1701
2123.6317161197285,1772
2125.5405518067364,1741
2127.448934142509,1737
2129.356863400624,1788
2131.264339854737,1758
2133.1713637785815,1795
2135.077935445972,1818
2136.9840551308002,1744
2138.889723107037,1727
2140.7949396487334,1789
2142.699705030018,1742
2144.6040195250994,1785
2146.507883408264,1800
2148.4112969538774,1813
2150.3142604363848,1775
2152.2167741303097,1830
2154.1188383102535,1780
2156.0204532508997,1835
2157.9216192270064,1838
2159.822336513414,1778
2161.7226053850413,1773
2163.622426116884,1818
2165.5217989840185,1720
2167.4207242616,1811
2169.319202224862,1790
2171.2172331491165,1864
2173.1148173097563,1834
2175.0119549822507,1853
2176.90864644215,1823
2178.8048919650823,1851
2180.7006918267534,1778
2182.596046302952,1903
2184.4909556695407,1824
2186.3854202024645,1818
2188.279440177746,1793
2190.173015871487,1783
2192.066147559868,1750
2193.958835519149,1820
2195.851080025667,1834
2197.7428813558417,1856
2199.6342397861667,1825
2201.5251555932186,1838
2203.415629053651,1875
2205.3056604441986,1921
2207.19525004167,1793
2209.084398122958,1916
2210.9731049650327,1915
2212.861370844941,1870
2214.749196039812,1831
2216.636580826851,1849
2218.523525483344,1911
2220.410030286655,1846
2222.296095514226,1801
2224.1817214435805,1857
2226.066908352319,1917
2227.951656518121,1835
2229.835966218746,1901
2231.71983773203,1817
2233.6032713358913,1897
2235.486267308324,1849
2237.3688259274036,1860
2239.2509474712824,1867
2241.132632218193,1871
2243.013880446447,1883
2244.8946924344323,1865
2246.7750684606203,1863
2248.6550088035574,1858
2250.534513741871,1895
2252.413583554265,1888
2254.292218519526,1806
2256.170418916517,1797
2258.0481850241786,1873
2259.925517121534,1812
2261.8024154876825,1831
2263.678880401803,1821
2265.5549121431536,1899
2267.430510991071,1899
2269.305677224971,1925
2271.180411124348,1872
2273.0547129687766,1838
2274.9285830379076,1889
2276.8020216114737,1838
2278.6750289692845,1784
2280.5476053912294,1819
2282.4197511572766,1892
2284.2914665474727,1849
2286.162751841943,1938
2288.0336073208937,1919
2289.904033264608,1922
2291.774029953448,1898
2293.6435976678554,1786
2295.5127366883517,1795
2297.381447295534,1821
2299.2497297700825,1808
2301.1175843927526,1646
2302.9850114443825,1716
2304.852011205885,1634
2306.7185839582553,1641
2308.5847299825664,1697
2310.4504495599676,1631
2312.3157429716925,1597
2314.1806104990483,1576
2316.0450524234247,1619
2317.9090690262888,1603
2319.772660589186,1618
2321.635827393742,1629
2323.498569721661,1652
2325.3608878547248,1625
2327.2227820747967,1589
2329.0842526638157,1638
2330.945299903803,1634
2332.805924076857,1571
2334.6661254651535,1623
2336.525904350951,1618
2338.3852610165827,1574
2340.244195744464,1544
2342.102708817088,1543
2343.9608005170253,1565
2345.8184711269287,1597
2347.675720929526,1586
2349.532550207628,1565
2351.38895924412,1588
2353.24494832197,1603
2355.100517724223,1624
2356.955667734004,1590
2358.810398634514,1552
2360.664710709037,1615
2362.5186042409337,1619
2364.3720795136437,1636
2366.225136810686,1630
2368.0777764156583,1625
2369.929998612237,1552
2371.7818036841777,1568
2373.633191915315,1614
2375.484163589562,1600
2377.3347189909114,1636
2379.184858403434,1586
2381.03458211128,1646
2382.8838903986775,1601
2384.732783549936,1677
2386.5812618494406,1590
2388.4293255816588,1673
2390.2769750311327,1681
2392.1242104824883,1606
2393.971032220427,1574
2395.8174405297295,1580
2397.6634356952563,1619
2399.509018001947,1652
2401.3541877348193,1683
2403.1989451789705,1596
2405.043290619576,1632
2406.8872243418905,1593
2408.730746631247,1634
2410.5738577730594,1624
2412.4165580528183,1579
2414.258847756095,1653
2416.100727168537,1617
2417.9421965758734,1667
2419.783256263912,1607
2421.623906518538,1560
2423.4641476257157,1603
2425.303979871491,1617
2427.143403541984,1616
2428.9824189233977,1603
2430.821026302012,1574
2432.6592259641866,1593
2434.497018196361,1617
2436.33440328505,1619
2438.171381516851,1605
2440.00795317844,1660
2441.844118556569,1593
2443.6798779380724,1627
2445.5152316098606,1635
2447.3501798589255,1599
2449.1847229723357,1566
2451.0188612372403,1646
2452.8525949408663,1621
2454.6859243705203,1544
2456.518849813587,1649
2458.3513715575314,1641
2460.183489889895,1656
2462.015205098301,1625
2463.8465174704493,1565
2465.67742729412,1625
2467.5079348571717,1674
2469.338040447542,1641
2471.1677443532476,1589
2472.9970468623833,1648
2474.825948263123,1599
2476.6544488437207,1666
2478.482548892508,1632
2480.310248697896,1666
2482.137548548374,1595
2483.9644487325118,1622
2485.790949538956,1659
2487.617051256433,1654
2489.44275417375,1559
2491.26805857979,1637
2493.0929647635157,1601
2494.917473013971,1720
2496.741583620276,1614
2498.5652968716304,1665
2500.3886130573137,1699
2502.2115324666834,1619
2504.0340553891765,1723
2505.856182114308,1574
2507.6779129316733,1649
2509.499248130945,1632
2511.3201880018764,1597
2513.140732834298,1685
2514.9608829181198,1651
2516.780638543331,1704
2518.6,1660
2520.418967578273,1649
2522.237541568376,1669
2524.0557222606144,1614
2525.8735099453706,1720
2527.6909049131086,1699
2529.507907454368,1666
2531.32451785977,1761
2533.140736420014,1718
2534.9565634258774,1709
2536.771999168218,1764
2538.5870439379714,1732
2540.4016980261526,1753
2542.2159617238544,1689
2544.02983532225,1685
2545.8433191125914,1692
2547.656413386209,1821
2549.4691184345115,1749
2551.2814345489874,1774
2553.093362021204,1709
2554.904901142808,1726
2556.716052205523,1717
2558.526815501153,1721
2560.3371913215824,1758
2562.147179958771,1785
2563.956781704761,1841
2565.7659968516705,1785
2567.5748256916986,1798
2569.3832685171224,1848
2571.1913256202984,1802
2572.9989972936614,1815
2574.806283829725,1921
2576.613185521084,1852
2578.4197026604074,1808
2580.2258355404483,1885
2582.031584454035,1853
2583.836949694077,1872
2585.6419315535613,1887
2587.4465303255533,1963
2589.2507463032002,1923
2591.0545797797245,1833
2592.8580310484303,1878
2594.6611004026995,1916
2596.463788135992,1962
2598.266094541849,1957
2600.0680199138874,1907
2601.869564545807,1916
2603.670728731383,1937
2605.4715127644704,1940
2607.2719169390048,1936
2609.071941548998,1939
2610.8715868885433,1921
2612.670853251811,2010
2614.469740933052,1935
2616.268250226594,1898
2618.0663814268455,1943
2619.864134828292,1902
2621.6615107255006,1937
2623.458509413115,1917
2625.2551311858597,1930
2627.0513763385347,1906
2628.8472451660223,1944
2630.6427379632833,1960
2632.4378550253564,1870
2634.232596647359,1849
2636.026963124488,1833
2637.8209547520187,1877
2639.6145718253065,1900
2641.407814639785,1860
2643.200683490966,1866
2644.9931786744414,1892
2646.7853004858807,1755
2648.577049221034,1816
2650.3684251757277,1822
2652.1594286458712,1803
2653.9500599274484,1741
2655.740319316525,1802
2657.5302071092437,1753
2659.3197236018286,1752
2661.10886909058,1759
2662.8976438718782,1820
2664.686048242183,1720
2666.4740824980327,1690
2668.2617469360443,1767
2670.0490418529134,1796
2671.8359675454153,1684
2673.622524310403,1687
2675.408712444811,1692
2677.1945322456495,1641
2678.979984010009,1676
2680.76506803506,1666
2682.5497846180497,1696
2684.334134056306,1702
2686.1181166472343,1638
2687.9017326883213,1651
2689.6849824771293,1621
2691.4678663113013,1639
2693.2503844885596,1704
2695.032537306705,1565
2696.8143250636167,1655
2698.5957480572542,1620
2700.3768065856534,1595
2702.1575009469316,1690
2703.937831439283,1562
2705.717798360982,1729
2707.4974020103837,1666
2709.276642685917,1651
2711.055520686095,1593
2712.834036309506,1591
2714.612189854819,1559
2716.389981620782,1595
2718.1674119062204,1612
2719.944481010041,1582
2721.721189231226,1609
2723.4975368688415,1678
2725.273524222027,1583
2727.0491515900053,1614
2728.824419272075,1590
2730.5993275676146,1614
2732.3738767760838,1545
2734.148067197016,1579
2735.921899130031,1534
2737.6953728748194,1569
2739.468488731156,1563
2741.2412469988926,1535
2743.0136479779617,1609
2744.785691968372,1547
2746.5573792702116,1554
2748.3287101836504,1532
2750.099685008934,1568
2751.870304046388,1641
2753.640567596418,1578
2755.4104759595057,1554
2757.1800294362156,1579
2758.949228327187,1531
2760.7180729331412,1559
2762.486563554877,1519
2764.254700493272,1568
2766.022484049284,1580
2767.789914523947,1635
2769.5569922183786,1554
2771.3237174337705,1615
2773.090090471394,1523
2774.8561116326036,1614
2776.6217812188274,1578
2778.3870995315756,1563
2780.1520668724356,1576
2781.9166835430747,1573
2783.6809498452394,1607
2785.444866080754,1520
2787.2084325515225,1483
2788.971649559527,1541
2790.73451740683,1496
2792.4970363955713,1499
2794.2592068279705,1511
2796.0210290063264,1527
2797.7825032330147,1623
2799.543629810493,1564
2801.304409041296,1515
2803.0648412280366,1560
2804.8249266734088,1570
2806.5846656801846,1560
2808.344058551212,1549
2810.1031055894246,1564
2811.8618070978273,1567
2813.6201633795085,1625
2815.378174737636,1561
2817.1358414754536,1552
2818.893163896285,1547
2820.6501423035334,1539
2822.4067770006814,1570
2824.1630682912883,1497
2825.9190164789957,1536
2827.6746218675207,1520
2829.429884760661,1551
2831.184805462294,1558
2832.9393842763743,1546
2834.693621506936,1556
2836.4475174580916,1589
2838.201072434034,1569
2839.954286739034,1563
2841.707160677441,1593
2843.459694553685,1621
2845.2118886722724,1559
2846.96374333779,1587
2848.7152588549034,1557
2850.4664355283567,1540
2852.217273662973,1597
2853.9677735636546,1622
2855.7179355353833,1538
2857.4677598832186,1529
2859.217246912299,1624
2860.9663969278427,1593
2862.715210235146,1540
2864.4636871395846,1561
2866.211827946614,1509
2867.9596329617652,1545
2869.7071024906536,1542
2871.4542368389684,1545
2873.20103631248,1582
2874.947501217038,1586
2876.6936318585695,1543
2878.4394285430812,1536
2880.1848915766604,1576
2881.9300212654707,1601
2883.6748179157553,1530
2885.4192818338374,1534
2887.1634133261173,1526
2888.907212699077,1617
2890.6506802592744,1500
2892.393816313348,1496
2894.1366211680142,1627
2895.8790951300693,1632
2897.621238506388,1574
2899.363051603925,1567
2901.1045347297118,1569
2902.8456881908596,1523
2904.58651229456,1599
2906.327007348081,1644
2908.067173658772,1509
2909.8070115340597,1449
2911.5465212814497,1552
2913.285703208527,1573
2915.0245576229563,1502
2916.7630848324807,1531
2918.5012851449196,1519
2920.2391588681758,1587
2921.976706310227,1546
2923.7139277791334,1562
2925.4508235830313,1573
2927.187394030137,1560
2928.923639428745,1535
2930.6595600872306,1528
2932.395156314046,1575
2934.1304284177218,1564
2935.8653767068713,1618
2937.6000014901815,1503
2939.3343030764227,1586
2941.068281774442,1545
2942.8019378931644,1564
2944.5352717415976,1577
2946.2682836288236,1527
2948.0009738640065,1611
2949.7333427563885,1579
2951.465390615289,1565
2953.1971177501086,1563
2954.9285244703265,1580
2956.6596110855,1572
2958.3903779052657,1546
2960.1208252393385,1590
2961.8509533975125,1542
2963.5807626896617,1548
2965.3102534257378,1524
2967.0394259157715,1554
2968.768280469873,1539
2970.496817398232,1490
2972.2250370111146,1516
2973.952939618869,1566
2975.6805255319196,1582
2977.4077950607707,1582
2979.134748516006,1639
2980.861386208289,1564
2982.587708448359,1576
2984.313715547037,1545
2986.039407815222,1506
2987.764785563891,1609
2989.489849104102,1516
2991.2145987469908,1499
2992.9390348037705,1503
2994.6631575857346,1510
2996.3869674042576,1601
2998.1104645707887,1539
2999.83364939686,1566
3001.5565221940783,1569
3003.2790832741334,1577
3005.0013329487924,1579
3006.7232715298996,1470
3008.4448993293804,1477
3010.166216659239,1475
3011.887223831558,1482
3013.607921158498,1516
3015.3283089522993,1576
3017.0483875252826,1507
3018.7681571898443,1519
3020.4876182584626,1532
3022.2067710436927,1587
3023.9256158581707,1582
3025.644153014609,1571
3027.362382825801,1550
3029.0803056046193,1541
3030.797921664012,1565
3032.5152313170106,1509
3034.2322348767225,1548
3035.9489326563353,1572
3037.665324969115,1529
3039.3814121284063,1470
3041.097194447633,1557
3042.812672240299,1577
3044.5278458199855,1502
3046.2427155003525,1536
3047.9572815951406,1526
3049.671544418167,1508
3051.38550428333,1557
3053.0991615046073,1531
3054.812516396051,1484
3056.5255692717974,1486
3058.2383204460575,1568
3059.9507702331257,1534
3061.662918947372,1507
3063.3747669032446,1496
3065.0863144152736,1553
3066.7975617980674,1592
3068.508509366309,1550
3070.219157434767,1500
3071.9295063182844,1579
3073.639556331785,1557
3075.3493077902704,1518
3077.058761008821,1542
3078.7679163025964,1532
3080.476773986837,1463
3082.1853343768594,1561
3083.89359778806,1596
3085.6015645359153,1517
3087.3092349359786,1578
3089.016609303884,1529
3090.7236879553434,1507
3092.4304712061476,1529
3094.136959372166,1530
3095.843152769349,1524
3097.5490517137237,1547
3099.2546565213966,1564
3100.959967508554,1536
3102.66498499146,1507
3104.3697092864577,1541
3106.0741407099695,1528
3107.778279578498,1516
3109.482126208622,1558
3111.1856809170004,1603
3112.8889440203716,1560
3114.5919158355528,1574
3116.294596679439,1580
3117.996986869006,1605
3119.6990867213062,1620
3121.4008965534726,1463
3123.102416682717,1536
3124.803647426329,1572
3126.5045891016784,1506
3128.205242026213,1542
3129.90560651746,1648
3131.605682893025,1500
3133.3054714705922,1518
3135.0049725679282,1534
3136.7041865028714,1539
3138.4031135933465,1513
3140.101754157353,1548
3141.800108512971,1559
3143.498176978357,1504
3145.1959598717494,1509
3146.8934575114636,1508
3148.5906702158954,1577
3150.2875983035183,1560
3151.9842420928853,1534
3153.680601902627,1540
3155.376678051456,1523
3157.07247085816,1464
3158.767980641609,1472
3160.463207720748,1546
3162.158152414606,1518
3163.8528150422862,1515
3165.5471959229726,1569
3167.2412953759303,1558
3168.9351137204976,1489
3170.628651276098,1514
3172.3219083622307,1496
3174.014885298474,1535
3175.707582404485,1468
3177.4000000000005,1484
3179.092138404835,1479
3180.7839979388846,1556
3182.47557892212,1522
3184.166881674594,1517
3185.8579065164386,1494
3187.5486537678626,1477
3189.2391237491547,1523
3190.9293167806827,1471
3192.6192331828934,1533
3194.3088732763117,1546
3195.998237381542,1476
3197.687325819268,1529
3199.376138910251,1458
3201.064676975334,1501
3202.7529403354347,1500
3204.4409293115523,1543
3206.1286442247647,1478
3207.816085396229,1492
3209.5032531471825,1490
3211.190147798936,1452
3212.8767696728846,1502
3214.5631190905015,1415
3216.2491963733373,1413
3217.9350018430214,1518
3219.6205358212637,1472
3221.305798629851,1443
3222.990790590651,1472
3224.6755120256103,1471
3226.359963256751,1460
3228.0441446061795,1484
3229.7280563960758,1480
3231.411698948703,1456
3233.0950725863995,1473
3234.778177631587,1470
3236.461014406761,1478
3238.1435832345005,1475
3239.8258844374595,1497
3241.507918338374,1513
3243.1896852600576,1530
3244.8711855254023,1502
3246.552419457381,1507
3248.233387379042,1487
3249.914089613516,1484
3251.59452648401,1525
3253.274698313813,1433
3254.95460542629,1441
3256.6342481448855,1507
3258.313626793125,1444
3259.9927416946084,1468
3261.6715931730196,1523
3263.3501815521176,1503
3265.0285071557437,1428
3266.706570307815,1400
3268.3843713323286,1448
3270.0619105533615,1497
3271.739188295068,1474
3273.4162048816834,1479
3275.0929606375184,1447
3276.769455886966,1496
3278.445690954498,1504
3280.1216661646613,1520
3281.797381842087,1537
3283.4728383114807,1487
3285.1480358976296,1488
3286.8229749253996,1463
3288.4976557197333,1484
3290.172078605655,1477
3291.846243908266,1490
3293.5201519527463,1457
3295.193803064357,1459
3296.8671975684374,1461
3298.5403357904024,1445
3300.21321805575,1479
3301.8858446900567,1481
3303.558216018975,1462
3305.23033236824,1541
3306.9021940636603,1538
3308.57380143113,1423
3310.2451547966184,1467
3311.916254486174,1494
3313.5871008259246,1414
3315.2576941420766,1437
3316.9280347609147,1481
3318.5981230088046,1435
3320.2679592121895,1429
3321.9375436975924,1419
3323.606876791612,1467
3325.27595882093,1487
3326.944790112305,1458
3328.6133709925753,1368
3330.2817017886573,1369
3331.949782827547,1482
3333.617614436319,1432
3335.2851969421245,1492
3336.952530672199,1466
3338.619615953853,1424
3340.286453114475,1510
3341.9530424815357,1409
3343.619384382583,1447
3345.2854791452437,1486
3346.951327097224,1483
3348.6169285663073,1476
3350.2822838803577,1503
3351.947393367319,1468
3353.61225735521,1411
3355.2768761721345,1419
3356.9412501462693,1435
3358.605379605873,1465
3360.2692648792827,1517
3361.9329062949146,1465
3363.596304181263,1462
