CollectionTime,7/10/2024 3:40:10 PM
ExposureUsed,3
CalibratedSpectrum
-962.7078968117929,523
-959.9714848408522,564
-957.2358232597828,591
-954.5009119013725,564
-951.7667505983302,578
-949.0333391832855,613
-946.3006774887896,591
-943.5687653473143,589
-940.837602591253,576
-938.1071890529199,571
-935.3775245645503,574
-932.6486089583007,567
-929.9204420662485,599
-927.1930237203925,636
-924.4663537526524,578
-921.7404319948689,622
-919.0152582788041,594
-916.2908324361409,667
-913.5671542984834,662
-910.8442236973568,571
-908.1220404642074,562
-905.4006044304027,609
-902.679915427231,641
-899.959973285902,610
-897.2407778375464,604
-894.5223289132158,598
-891.8046263438832,604
-889.0876699604426,582
-886.3714595937089,577
-883.6559950744183,574
-880.9412762332282,593
-878.2273029007168,595
-875.5140749073835,575
-872.8015920836489,582
-870.0898542598545,581
-867.3788612662631,601
-864.6686129330585,621
-861.9591090903457,624
-859.2503495681506,584
-856.5423341964203,604
-853.8350628050229,600
-851.1285352237478,629
-848.4227512823054,614
-845.7177108103272,625
-843.0134136373656,597
-840.3098595928943,596
-837.6070485063082,595
-834.9049802069229,645
-832.2036545239757,635
-829.5030712866244,618
-826.8032303239481,584
-824.1041314649472,619
-821.4057745385428,591
-818.7081593735775,602
-816.0112857988148,601
-813.3151536429393,603
-810.6197627345566,589
-807.9251129021936,620
-805.2312039742981,660
-802.5380357792392,614
-799.8456081453069,625
-797.1539209007124,613
-794.462973873588,620
-791.772766891987,635
-789.083299783884,588
-786.3945723771743,653
-783.7065844996748,633
-781.0193359791231,581
-778.3328266431781,658
-775.6470563194197,601
-772.9620248353489,554
-770.2777320183878,609
-767.5941776958798,646
-764.9113616950891,647
-762.2292838432011,631
-759.5479439673222,615
-756.8673418944801,616
-754.1874774516235,630
-751.5083504656222,609
-748.8299607632671,612
-746.15230817127,638
-743.475392516264,643
-740.7992136248035,626
-738.1237713233636,631
-735.4490654383407,626
-732.7750957960521,673
-730.1018622227365,648
-727.4293645445534,625
-724.7576025875837,653
-722.0865761778291,634
-719.4162851412126,621
-716.7467293035781,678
-714.0779084906909,661
-711.409822528237,653
-708.7424712418238,650
-706.0758544569796,675
-703.4099719991541,675
-700.7448236937178,704
-698.0804093659622,687
-695.4167288411002,677
-692.7537819442656,642
-690.0915685005134,645
-687.4300883348199,679
-684.7693412720819,669
-682.1093271371178,720
-679.4500457546669,703
-676.7914969493897,674
-674.1336805458676,652
-671.4765963686034,636
-668.8202442420206,679
-666.1646239904642,711
-663.5097354382001,675
-660.8555784094151,681
-658.2021527282176,705
-655.5494582186366,679
-652.8974947046223,681
-650.2462620100463,686
-647.5957599587009,719
-644.9459883742998,724
-642.2969470804776,728
-639.6486359007902,762
-637.0010546587141,759
-634.3542031776476,723
-631.7080812809096,688
-629.0626887917401,711
-626.4180255333008,717
-623.7740913286734,715
-621.1308860008619,729
-618.4884093727904,711
-615.8466612673046,749
-613.2056415071715,694
-610.5653499150785,713
-607.9257863136347,728
-605.28695052537,730
-602.6488423727357,721
-600.0114616781036,751
-597.3748082637674,695
-594.7388819519412,749
-592.1036825647604,816
-589.4692099242818,830
-586.8354638524829,816
-584.2024441712624,752
-581.5701507024403,813
-578.9385832677575,830
-576.3077416888759,852
-573.6776257873787,813
-571.0482353847704,744
-568.4195703024757,795
-565.7916303618415,771
-563.164415384135,766
-560.5379251905453,743
-557.9121596021815,737
-555.2871184400748,809
-552.6628015251767,799
-550.0392086783606,779
-547.4163397204204,774
-544.794194472071,813
-542.1727727539491,782
-539.5520743866118,850
-536.9320991905377,877
-534.3128469861261,865
-531.6943175936979,859
-529.0765108334947,912
-526.4594265256793,904
-523.8430644903358,1080
-521.2274245474689,1159
-518.612506517005,1255
-515.9983102187913,1214
-513.3848354725959,1239
-510.77208209810846,1353
-508.16004991493924,1357
-505.5487387426199,1557
-502.9381484006032,1681
-500.3282787082628,1829
-497.71912948489364,1825
-495.1107005497117,1722
-492.5029917218539,1671
-489.8960028203786,1512
-487.28973366426493,1306
-484.68418407241325,1205
-482.07935386364494,1084
-479.47524285670266,1090
-476.87185087025,1042
-474.2691777228715,1028
-471.66722323307334,1000
-469.0659872192821,1009
-466.4654694998459,1002
-463.86566989303384,1023
-461.26658821703614,998
-458.66822428996414,991
-456.07057792985,969
-453.4736489546475,983
-450.877437182231,979
-448.28194243039627,950
-445.68716451686,930
-443.09310325926003,1003
-440.49975847515555,973
-437.9071299820263,945
-435.31521759727354,969
-432.72402113821954,947
-430.13354042210767,1024
-427.5437752661022,996
-424.95472548728867,1017
-422.36639090267386,1021
-419.7787713291855,1052
-417.1918665836721,1108
-414.60567648290385,1090
-412.0202008435715,1086
-409.4354394822874,1075
-406.8513922155845,1087
-404.26805885991723,1098
-401.685439231661,1097
-399.103533147112,1122
-396.522340422488,1047
-393.9418608739278,1063
-391.3620943174908,1044
-388.7830405691583,1028
-386.2046994448317,928
-383.6270707603344,985
-381.05015433141045,880
-378.473949973725,851
-375.8984575028645,839
-373.32367673433623,767
-370.74960748356875,725
-368.1762495659117,728
-365.60360279663576,676
-363.03166699093265,583
-360.4604419639154,593
-357.8899275306178,562
-355.32012350599507,559
-352.7510297049233,539
-350.1826459421999,520
-347.61497203254316,473
-345.04800779059235,516
-342.4817530309082,555
-339.91620756797226,552
-337.35137121618743,519
-334.7872437898774,576
-332.22382510328725,615
-329.66111497058273,573
-327.09911320585127,509
-324.53781962310075,550
-321.9772340362607,613
-319.4173562591816,578
-316.8581861056348,515
-314.2997233893127,508
-311.7419679238294,560
-309.1849195227194,562
-306.62857799943856,576
-304.0729431673641,578
-301.51801483979375,595
-298.963792829947,588
-296.41027695096386,602
-293.85746701590574,660
-291.3053628377552,616
-288.7539642294155,575
-286.2032710037115,596
-283.65328297338897,615
-281.1039999511146,663
-278.5554217494762,764
-276.007548180983,664
-273.4603790580651,626
-270.9139141930734,630
-268.3681533982807,672
-265.8230964858798,643
-263.27874326798565,654
-260.7350935566336,742
-258.1921471637804,785
-255.6499039013039,763
-253.10836358100266,759
-250.56752601459698,705
-248.02739101372765,707
-245.48795838995704,710
-242.94922795476816,687
-240.41119951956557,720
-237.8738728956746,730
-235.33724789434166,771
-232.80132432673452,724
-230.2661020039418,753
-227.73158073697357,783
-225.19776033676033,751
-222.66464061415422,795
-220.1322213799284,788
-217.60050244477725,725
-215.06948361931552,711
-212.53916471408013,788
-210.00954553952818,891
-207.48062590603843,920
-204.9524056239104,840
-202.4248845033651,885
-199.8980623545441,922
-197.37193898751036,825
-194.84651421224817,805
-192.32178783866232,837
-189.79775967657952,860
-187.27442953574644,913
-184.7517972258321,883
-182.2298625564256,878
-179.7086253370378,862
-177.18808537710026,876
-174.66824248596583,1029
-172.14909647290835,907
-169.6306471471229,908
-167.11289431772548,950
-164.59583779375328,1001
-162.07947738416453,992
-159.5638128978386,1112
-157.04884414357605,1171
-154.53457093009854,1145
-152.02099306604828,1085
-149.50811035998936,1051
-146.99592262040665,999
-144.48442965570587,1047
-141.97363127421409,1093
-139.46352728417958,1057
-136.95411749377126,1045
-134.44540171107985,1207
-131.93737974411636,1224
-129.43005140081357,1214
-126.92341648902493,1647
-124.41747481652521,2098
-121.91222619101006,2252
-119.40767042009657,2569
-116.90380731132257,3113
-114.40063667214702,3504
-111.8981583099503,3771
-109.3963720320337,3214
-106.89527764561933,2469
-104.39487495785067,2037
-101.89516377579241,3121
-99.39614390642998,4655
-96.89781515667039,6292
-94.40017733334128,5794
-91.90323024319173,4217
-89.40697369289148,3841
-86.91140748903172,5657
-84.41653143812482,8079
-81.92234534660395,7781
-79.42884902082358,6161
-76.93604226705907,8019
-74.4439248915071,13478
-71.95249670028534,21901
-69.46175749943245,27087
-66.97170709490854,28252
-64.48234529259423,22707
-61.99367189829195,16919
-59.50568671772464,13764
-57.01838955653636,13138
-54.53178022029283,13379
-52.045858514480074,15167
-49.560624244506016,19941
-47.07607721569923,21270
-44.59221723330904,19253
-42.10904410250669,17476
-39.62655762838392,15183
-37.14475761595372,13223
-34.66364387015028,11793
-32.18321619582866,11923
-29.70347439776515,12058
-27.224418280657005,12961
-24.74604764912317,16779
-22.26836230770266,23102
-19.7913620608565,35306
-17.315046712966478,57333
-14.83941606833514,65038
-12.36446993118659,65038
-9.89020810566592,65038
-7.416630395839093,65038
-4.94373660569363,65038
-2.471526539137585,65038
-6.821210263296962E-13,65038
2.47084320796705,65038
4.941003281093458,65038
7.410480415786196,65038
9.879274808531363,65038
12.347386655893956,65038
14.814816154518212,65038
17.28156350112681,65038
19.74762889252179,65038
22.21301252558385,65038
24.67771459727237,23059
27.141735304626195,5792
29.605074844762612,3989
32.06773341487792,3678
34.52971121224755,3382
36.99100843422559,3701
39.45162527824516,3767
41.91156194181792,2828
44.370818622535126,2510
46.82939551806646,2109
49.287292826160524,2055
51.74451074464503,2339
54.201049471426245,2576
56.65690920448981,2209
59.112090141899785,1795
61.56659248179983,1931
64.02041642241159,1900
66.4735621620365,1718
68.92602989905402,1716
71.37781983192338,1587
73.82893215918205,1699
76.27936707944684,1754
78.72912479141326,1729
81.17820549385567,1604
83.62660938562783,1778
86.07433666566146,1747
88.5213875329681,1400
90.96776218663751,1210
93.41346082583925,1282
95.85848364982041,1287
98.30283085790859,1505
100.7465026495089,1677
103.18949922410604,1473
105.63182078126385,1299
108.07346752062438,1607
110.51443964190923,1629
112.95473734491827,1229
115.39436082953114,1185
117.83331029570547,1205
120.27158594347827,1207
122.7091879729652,1421
125.1461165843615,1351
127.58237197794062,1268
130.01795435405518,1238
132.4528639131364,1393
134.88710085569494,1614
137.32066538231982,1466
139.75355769367923,1262
142.1857779905207,1121
144.61732647366978,1112
147.04820334403132,1083
149.47840880258934,1106
151.90794305040674,1138
154.33680628862487,1363
156.76499871846443,1619
159.19252054122433,1649
161.61937195828352,1647
164.04555317109896,1772
166.47106438120693,2026
168.89590579022217,2144
171.320077599839,2422
173.7435800118302,2532
176.16641322804742,2631
178.58857745042144,2716
181.01007288096173,2922
183.43089972175687,3106
185.85105817497413,2955
188.27054844285988,2848
190.6893707277394,2708
193.10752523201643,2784
195.5250121581745,2809
197.9418317087751,2947
200.3579840864594,3034
202.7734694939469,3069
205.18828813403627,3109
207.6024402096051,3098
210.01592592360964,3079
212.42874547908548,3075
214.84089907914665,3044
217.2523869269868,3014
219.66320922587727,2934
222.0733661791695,2912
224.48285799029293,2978
226.8916848627572,2956
229.29984700014882,3110
231.7073446061355,3189
234.11417788446204,3064
236.520347038953,3024
238.92585227351185,2969
241.33069379212054,3109
243.73487179884035,3147
246.1383864978112,3135
248.541238093252,3118
250.9434267894609,3021
253.34495279081432,3202
255.74581630176783,3134
258.1460175268563,3121
260.54555667069314,3074
262.9444339379703,3028
265.3426495334594,3098
267.7402036620107,3152
270.1370965285529,3198
272.53332833809407,3075
274.9288992957214,2849
277.32380960660055,2892
279.718059475976,2885
282.1116491091717,2960
284.5045787115897,2968
286.89684848871195,2777
289.2884586460981,2735
291.67940938938807,2886
294.0697009242996,2903
296.4593334566299,2854
298.84830719225477,2826
301.23662233712923,2810
303.6242790972866,2898
306.01127767884,2793
308.39761828798066,2694
310.78330113097934,2664
313.16832641418534,2659
315.5526943440269,2654
317.9364051270112,2532
320.3194589697242,2638
322.70185607883093,2669
325.0835966610754,2579
327.4646809232805,2498
329.8451090723478,2547
332.2248813152577,2486
334.6039978590701,2484
336.9824589109231,2508
339.36026467803447,2460
341.7374153677,2416
344.113911187295,2467
346.48975234427337,2453
348.8649390461686,2504
351.2394715005918,2493
353.61334991523415,2449
355.9865744978655,2363
358.35914545633375,2432
360.73106299856715,2455
363.10232733257146,2456
365.47293866643247,2371
367.84289720831396,2358
370.2122031664593,2333
372.5808567491905,2312
374.9488581649083,2319
377.31620762209275,2361
379.6829053293021,2302
382.0489514951745,2294
384.4143463284262,2281
386.7790900378528,2258
389.14318283232853,2306
391.50662492080653,2312
393.86941651231916,2279
396.23155781597745,2257
398.5930490409713,2230
400.9538903965696,2306
403.3140820921202,2304
405.6736243370498,2252
408.03251734086336,2317
410.3907613131465,2285
412.74835646356166,2303
415.10530300185144,2292
417.4616011378372,2217
419.81725108141893,2240
422.1722530425758,2274
424.5266072313656,2250
426.880313857925,2268
429.2333731324701,2270
431.58578526529516,2252
433.9375504667738,2256
436.2886689473588,2208
438.63914091758113,2214
440.9889665880513,2125
443.33814616945835,2165
445.68667987257015,2246
448.03456790823395,2210
450.3818104873759,2087
452.72840782100013,2126
455.07436012019105,2109
457.41966759611057,2170
459.7643304600007,2218
462.10834892318155,2198
464.4517231970525,2189
466.79445349309174,2236
469.1365400228566,2241
471.4779829979826,2215
473.81878263018564,2196
476.15893913125876,2271
478.4984527130747,2268
480.8373235875855,2431
483.17555196682144,2484
485.5131380628919,2433
487.8500820879857,2573
490.1863842543697,2774
492.52204477439034,2930
494.8570638604725,3211
497.1914417251204,3487
499.52517858091653,3722
501.85827464052306,3947
504.19073011668036,4001
506.5225452222086,3769
508.85372017000566,3746
511.18425517304956,3535
513.514150444396,3618
515.8434061971808,4190
518.1720226446176,4986
520.4999999999999,5270
522.8273384766991,5055
525.1540382881666,4680
527.480099647932,4182
529.8055227696037,3563
532.1303078668694,2974
534.454455153496,2614
536.777964843328,2449
539.1008371502907,2440
541.4230722883866,2345
543.744670471698,2302
546.0656319143858,2365
548.3859568306899,2314
550.7056454349294,2270
553.0246979415016,2221
555.3431145648834,2255
557.6608955196306,2265
559.978041020377,2168
562.2945512818363,2319
564.6104265188006,2174
566.9256669461412,2292
569.2402727788082,2304
571.5542442318302,2421
573.8675815203156,2386
576.1802848594508,2381
578.4923544645015,2369
580.8037905508126,2301
583.114593333807,2313
585.4247630289875,2424
587.7342998519354,2300
590.0432040183106,2319
592.3514757438526,2266
594.6591152443794,2364
596.9661227357875,2247
599.2724984340531,2335
601.578242555231,2282
603.8833553154542,2300
606.1878369309362,2333
608.4916876179676,2292
610.7949075929192,2341
613.0974970722403,2302
615.3994562724587,2311
617.7007854101818,2306
620.0014847020951,2284
622.3015543649641,2299
624.6009946156324,2344
626.8998056710224,2245
629.1979877481361,2298
631.4955410640538,2275
633.7924658359349,2377
636.0887622810175,2294
638.3844306166192,2283
640.6794710601358,2301
642.9738838290426,2342
645.2676691408932,2308
647.5608272133207,2290
649.853358264037,2410
652.1452625108324,2355
654.4365401715764,2249
656.7271914642178,2279
659.0172166067838,2321
661.3066158173809,2318
663.5953893141935,2316
665.8835373154867,2392
668.1710600396028,2276
670.4579577049639,2286
672.7442305300709,2342
675.0298787335033,2334
677.3149025339197,2266
679.599302150058,2273
681.8830778007342,2334
684.1662297048437,2276
686.4487580813608,2351
688.7306631493387,2330
691.0119451279091,2335
693.2926042362834,2336
695.5726406937516,2411
697.8520547196814,2358
700.1308465335215,2293
702.4090163547982,2276
704.6865644031171,2400
706.9634908981619,2273
709.2397960596965,2205
711.5154801075631,2272
713.7905432616823,2287
716.0649857420548,2283
718.3388077687592,2367
720.612009561953,2388
722.8845913418733,2304
725.1565533288352,2335
727.427895743234,2260
729.6986188055427,2326
731.9687227363137,2328
734.238207756178,2242
736.5070740858458,2238
738.7753219461066,2379
741.0429515578281,2277
743.3099631419569,2340
745.5763569195191,2327
747.8421331116193,2306
750.1072919394409,2320
752.3718336242467,2297
754.6357583873777,2290
756.8990664502545,2354
759.1617580343765,2315
761.423833361321,2334
763.6852926527457,2319
765.9461361303862,2381
768.206364016058,2326
770.4659765316536,2333
772.7249738991469,2364
774.9833563405886,2319
777.2411240781092,2351
779.4982773339183,2299
781.7548163303044,2323
784.010741289634,2373
786.2660524343538,2482
788.5207499869881,2349
790.7748341701416,2409
793.0283052064964,2342
795.2811633188143,2270
797.5334087299362,2348
799.7850416627813,2319
802.0360623403484,2313
804.2864709857143,2280
806.5362678220353,2327
808.7854530725468,2450
811.0340269605625,2290
813.2819897094754,2352
815.5293415427581,2391
817.77608268396,2328
820.0222133567116,2394
822.2677337847211,2391
824.5126441917765,2369
826.7569448017433,2359
829.0006358385675,2393
831.2437175262731,2318
833.4861900889629,2388
835.7280537508192,2359
837.9693087361026,2363
840.2099552691533,2268
842.4499935743896,2361
844.689423876309,2381
846.9282463994886,2315
849.1664613685833,2350
851.4040690083276,2377
853.6410695435349,2308
855.877463199097,2333
858.1132501999847,2363
860.3484307712487,2424
862.5830051380175,2370
864.8169735254988,2336
867.0503361589791,2429
869.2830932638243,2375
871.5152450654786,2413
873.7467917894654,2467
875.9777336613873,2408
878.2080709069252,2400
880.4378037518389,2399
882.666932421968,2497
884.8954571432301,2468
887.1233781416219,2459
889.3506956432192,2511
891.5774098741766,2522
893.803521060728,2439
896.0290294291852,2480
898.2539352059397,2399
900.4782386174619,2477
902.7019398903011,2442
904.925039251085,2403
907.147536926521,2448
909.3694331433943,2389
911.59072812857,2449
913.8114221089921,2356
916.0315153116827,2361
918.2510079637437,2390
920.4699002923547,2321
922.6881925247761,2317
924.905884888345,2438
927.1229776104793,2374
929.3394709186747,2291
931.555365040506,2353
933.7706602036275,2404
935.9853566357709,2330
938.1994545647489,2398
940.4129542184515,2372
942.6258558248488,2396
944.8381596119883,2285
947.0498658079974,2251
949.2609746410825,2244
951.4714863395287,2341
953.6814011316998,2286
955.8907192460387,2292
958.0994409110671,2285
960.3075663553858,2286
962.5150958076741,2283
964.7220294966913,2266
966.928367651274,2273
969.1341105003388,2281
971.3392582728806,2282
973.5438111979742,2325
975.747769504772,2175
977.9511334225061,2187
980.153903180487,2219
982.3560790081052,2282
984.5576611348289,2213
986.7586497902058,2294
988.9590452038618,2214
991.158847605503,2227
993.3580572249133,2113
995.5566742919558,2072
997.7546990365728,2152
999.952131688785,2047
1002.1489724786926,2157
1004.3452216364743,2049
1006.5408793923874,2063
1008.7359459767691,2027
1010.9304216200343,2079
1013.1243065526781,2013
1015.3176010052733,1980
1017.510305208472,2023
1019.7024193930064,1949
1021.8939437896848,2044
1024.0848786293977,2073
1026.2752241431122,1976
1028.4649805618747,1944
1030.6541481168115,1973
1032.842727039127,1951
1035.0307175601051,1946
1037.2181199111074,1891
1039.4049343235752,1885
1041.591161029029,1959
1043.7768002590683,1992
1045.9618522453698,1983
1048.1463172196918,1952
1050.3301954138697,1958
1052.513487059818,1937
1054.69619238953,1989
1056.8783116350783,2032
1059.0598450286152,1977
1061.2407928023704,1936
1063.4211551886528,1918
1065.6009324198508,1961
1067.780124728432,1920
1069.9587323469414,1898
1072.1367555080046,1891
1074.314194444325,1930
1076.4910493886855,1929
1078.667320573947,1903
1080.843008233051,1869
1083.0181125990161,1917
1085.1926339049414,1881
1087.3665723840027,1862
1089.5399282694575,1839
1091.7127017946405,1911
1093.8848931929647,1849
1096.0565026979243,1818
1098.2275305430899,1855
1100.3979769621128,1826
1102.567842188722,1920
1104.737126456726,1854
1106.9058300000124,1856
1109.0739530525475,1788
1111.2414958483764,1826
1113.4084586216231,1913
1115.5748416064907,1865
1117.7406450372605,1852
1119.9058691482942,1831
1122.0705141740304,1809
1124.2345803489884,1850
1126.3980679077658,1836
1128.5609770850388,1854
1130.7233081155623,1858
1132.8850612341707,1845
1135.0462366757774,1767
1137.2068346753745,1818
1139.3668554680326,1829
1141.526299288901,1789
1143.68516637321,1751
1145.8434569562655,1803
1148.001171273455,1802
1150.158309560244,1747
1152.3148720521767,1737
1154.470858984876,1779
1156.626270594044,1762
1158.7811071154629,1811
1160.9353687849912,1821
1163.089055838569,1829
1165.242168512213,1768
1167.3947070420209,1714
1169.5466716641677,1793
1171.6980626149075,1750
1173.8488801305748,1778
1175.9991244475814,1785
1178.1487958024186,1812
1180.2978944316555,1766
1182.4464205719428,1723
1184.5943744600072,1676
1186.7417563326567,1768
1188.8885664267755,1715
1191.0348049793297,1756
1193.1804722273619,1792
1195.325568407995,1727
1197.4700937584303,1694
1199.614048515948,1769
1201.7574329179074,1771
1203.900247201746,1790
1206.042491604982,1783
1208.1841663652099,1746
1210.3252717201053,1810
1212.465807907422,1743
1214.6057751649923,1764
1216.7451737307279,1835
1218.8840038426192,1788
1221.0222657387353,1762
1223.1599596572241,1767
1225.2970858363137,1792
1227.4336445143094,1797
1229.5696359295966,1803
1231.705060320639,1811
1233.8399179259786,1823
1235.9742089842384,1868
1238.107933734118,1810
1240.2410924143974,1839
1242.373685263935,1828
1244.5057125216676,1809
1246.6371744266116,1849
1248.7680712178621,1800
1250.898403134593,1794
1253.028170416058,1846
1255.1573733015875,1821
1257.2860120305932,1822
1259.4140868425648,1785
1261.54159797707,1822
1263.6685456737569,1886
1265.7949301723515,1902
1267.9207517126597,1831
1270.046010534565,1918
1272.1707068780306,1756
1274.2948409830983,1825
1276.4184130898889,1790
1278.541423438603,1836
1280.6638722695184,1879
1282.785759822993,1882
1284.9070863394636,1899
1287.0278520594447,1818
1289.1480572235314,1877
1291.2677020723963,1942
1293.3867868467923,1866
1295.5053117875495,1912
1297.623277135579,1974
1299.740683131868,1982
1301.8575300174857,1889
1303.973818033578,1886
1306.0895474213703,1905
1308.2047184221678,1895
1310.3193312773528,1877
1312.4333862283888,1871
1314.5468835168163,1918
1316.659823384255,1889
1318.7722060724045,1979
1320.8840318230418,1980
1322.9953008780249,1928
1325.1060134792888,1919
1327.2161698688478,1961
1329.3257702887959,1949
1331.4348149813054,1885
1333.5433041886276,1903
1335.6512381530933,1964
1337.7586171171101,1895
1339.8654413231675,1953
1341.9717110138317,1896
1344.0774264317488,1931
1346.1825878196432,1847
1348.2871954203192,1936
1350.3912494766587,1897
1352.4947502316231,1897
1354.5976979282532,1901
1356.7000928096686,1855
1358.8019351190665,2020
1360.9032250997243,1932
1363.0039629949988,1904
1365.1041490483235,1960
1367.2037835032133,1973
1369.3028666032606,1831
1371.401398592137,1872
1373.4993797135926,1990
1375.5968102114575,1987
1377.6936903296396,1954
1379.7900203121262,1858
1381.8858004029835,1887
1383.9810308463561,1926
1386.075711886469,1909
1388.1698437676241,1892
1390.2634267342032,1914
1392.356461030667,1945
1394.4489469015557,1986
1396.5408845914872,1953
1398.6322743451592,1938
1400.7231164073469,1911
1402.813411022907,1982
1404.903158436773,1988
1406.9923588939578,1982
1409.0810126395531,2054
1411.1691199187303,2008
1413.2566809767386,1968
1415.343696058907,1938
1417.4301654106425,2038
1419.5160892774315,2013
1421.6014679048399,2049
1423.6863015385125,2024
1425.7705904241707,2027
1427.8543348076178,2048
1429.9375349347342,2031
1432.0201910514802,2010
1434.102303403894,2023
1436.1838722380944,2059
1438.2648978002767,2070
1440.3453803367174,2058
1442.4253200937692,2047
1444.5047173178677,2072
1446.5835722555234,2145
1448.6618851533285,2144
1450.739656257952,2223
1452.8168858161434,2154
1454.8935740747306,2190
1456.96972128062,2201
1459.045327680797,2118
1461.120393522327,2152
1463.1949190523528,2243
1465.2689045180973,2275
1467.3423501668608,2264
1469.415256246024,2297
1471.4876230030463,2346
1473.559450685465,2376
1475.6307395408976,2344
1477.7014898170391,2395
1479.771701761665,2447
1481.8413756226287,2338
1483.9105116478618,2487
1485.9791100853772,2505
1488.0471711832643,2505
1490.1146951896926,2519
1492.1816823529098,2561
1494.2481329212433,2610
1496.3140471430984,2598
1498.3794252669609,2612
1500.4442675413939,2626
1502.5085742150404,2675
1504.572345536622,2692
1506.6355817549388,2631
1508.6982831188702,2755
1510.7604498773744,2708
1512.8220822794883,2701
1514.8831805743293,2817
1516.9437450110909,2816
1519.003775839048,2807
1521.0632733075522,2820
1523.1222376660367,2881
1525.1806691640113,2925
1527.2385680510652,2975
1529.2959345768668,3033
1531.3527689911643,2993
1533.4090715437833,3036
1535.4648424846291,3150
1537.5200820636855,3235
1539.5747905310159,3286
1541.6289681367616,3295
1543.6826151311434,3210
1545.7357317644614,3260
1547.7883182870937,3283
1549.8403749494987,3333
1551.8919020022113,3332
1553.9428996958477,3433
1555.9933682811015,3582
1558.0433080087469,3695
1560.0927191296346,3756
1562.1416018946961,3671
1564.1899565549415,3760
1566.2377833614592,3690
1568.2850825654164,3637
1570.3318544180606,3601
1572.3780991707158,3570
1574.423817074788,3504
1576.4690083817595,3468
1578.5136733431923,3195
1580.5578122107272,3076
1582.601425236085,3009
1584.6445126710646,2906
1586.6870747675434,2815
1588.7291117774776,2741
1590.7706239529034,2682
1592.8116115459347,2533
1594.8520748087658,2467
1596.8920139936686,2427
1598.9314293529933,2409
1600.9703211391711,2362
1603.008689604711,2311
1605.0465350022005,2293
1607.0838575843068,2248
1609.1206576037753,2195
1611.1569353134305,2148
1613.1926909661765,2168
1615.2279248149953,2192
1617.2626371129481,2108
1619.2968281131757,2163
1621.3304980688963,2099
1623.3636472334088,2127
1625.39627586009,1975
1627.428384202396,2040
1629.459972513861,1940
1631.4910410480993,2050
1633.5215900588028,2033
1635.551619799744,1971
1637.5811305247717,1953
1639.6101224878166,1987
1641.6385959428862,2007
1643.6665511440683,1989
1645.693988345528,2003
1647.7209078015112,1965
1649.7473097663405,1938
1651.7731944944203,2009
1653.7985622402307,1950
1655.823413258333,2039
1657.847747803366,2016
1659.8715661300494,1873
1661.8948684931793,1936
1663.9176551476316,1906
1665.9399263483624,1910
1667.9616823504057,1931
1669.982923408873,1952
1672.0036497789574,1922
1674.0238617159293,1926
1676.043559475138,1909
1678.0627433120121,1900
1680.081413482059,1918
1682.0995702408654,1908
1684.117213844096,1911
1686.134344547495,1885
1688.1509626068864,1864
1690.1670682781705,1993
1692.182661817329,1872
1694.1977434804217,1904
1696.2123135235875,1879
1698.226372203043,1896
1700.2399197750851,2005
1702.2529564960905,1967
1704.2654826225112,1948
1706.277498410882,1970
1708.2890041178139,1919
1710.2999999999988,1989
1712.3104863142066,1923
1714.3204633172854,1960
1716.329931266163,1976
1718.3388904178469,1928
1720.3473410294214,1889
1722.3552833580516,1942
1724.3627176609807,1893
1726.3696441955308,1921
1728.3760632191033,1933
1730.3819749891782,1887
1732.3873797633146,1892
1734.3922777991502,1894
1736.3966693544012,1935
1738.4005546868639,1855
1740.4039340544127,1927
1742.406807715001,1878
1744.4091759266616,1861
1746.4110389475054,1872
1748.4123970357223,1844
1750.413250449582,1918
1752.4135994474318,1840
1754.4134442876993,1872
1756.4127852288902,1879
1758.4116225295893,1881
1760.4099564484595,1909
1762.407787244244,1839
1764.405115175764,2001
1766.4019405019203,1910
1768.3982634816916,1898
1770.3940843741357,1845
1772.3894034383907,1885
1774.3842209336717,1865
1776.378537119274,1853
1778.372352254571,1789
1780.3656665990156,1852
1782.3584804121397,1848
1784.3507939535534,1868
1786.3426074829463,1839
1788.3339212600863,1859
1790.3247355448211,1868
1792.3150505970766,1837
1794.3048666768573,1864
1796.2941840442477,1852
1798.2830029594106,1875
1800.2713236825884,1903
1802.2591464741004,1884
1804.2464715943465,1843
1806.2332993038058,1876
1808.2196298630352,1892
1810.2054635326708,1866
1812.190800573428,1820
1814.175641246101,1893
1816.1599858115628,1879
1818.1438345307652,1883
1820.127187664738,1905
1822.1100454745924,1911
1824.092408221516,1858
1826.0742761667766,1919
1828.055649571721,1877
1830.0365286977735,1893
1832.0169138064398,1839
1833.9968051593014,1910
1835.9762030180214,1877
1837.9551076443408,1899
1839.9335193000788,1862
1841.9114382471344,1900
1843.888864747485,1859
1845.8657990631878,1895
1847.842241456378,1839
1849.8181921892697,1788
1851.7936515241558,1840
1853.7686197234098,1890
1855.7430970494815,1847
1857.7170837649014,1877
1859.6905801322787,1875
1861.6635864143004,1919
1863.6361028737338,1884
1865.608129773424,1893
1867.5796673762961,1847
1869.5507159453537,1827
1871.521275743678,1855
1873.4913470344313,1856
1875.4609300808534,1884
1877.4300251462632,1811
1879.3986324940588,1911
1881.366752387717,1920
1883.3343850907936,1916
1885.3015308669228,1949
1887.268189979819,1924
1889.2343626932739,1915
1891.2000492711595,1874
1893.1652499774254,1840
1895.1299650761011,1859
1897.0941948312952,1874
1899.0579395071945,1891
1901.0211993680641,1859
1902.98397467825,1771
1904.9462657021745,1846
1906.9080727043415,1823
1908.869395949332,1827
1910.8302357018065,1918
1912.790592226504,1811
1914.7504657882428,1867
1916.7098566519212,1800
1918.6687650825133,1812
1920.6271913450764,1808
1922.5851357047422,1764
1924.5425984267245,1833
1926.499579776314,1856
1928.4560800188833,1851
1930.4120994198802,1862
1932.367638244833,1847
1934.32269675935,1829
1936.2772752291175,1930
1938.231373919899,1833
1940.1849930975404,1831
1942.1381330279637,1820
1944.0907939771696,1824
1946.0429762112412,1830
1947.9946799963363,1846
1949.9459055986945,1839
1951.896653284633,1866
1953.8469233205478,1857
1955.7967159729142,1775
1957.7460315082863,1766
1959.6948701932974,1816
1961.6432322946594,1790
1963.5911180791632,1889
1965.5385278136787,1849
1967.4854617651545,1849
1969.4319202006182,1807
1971.377903387176,1766
1973.3234115920136,1886
1975.268445082395,1895
1977.2130041256642,1854
1979.1570889892423,1814
1981.1006999406304,1792
1983.04383724741,1807
1984.986501177238,1764
1986.928691997853,1863
1988.8704099770712,1853
1990.811655382789,1807
1992.7524284829801,1847
1994.692729545698,1844
1996.6325588390755,1901
1998.5719166313224,1776
2000.5108031907307,1804
2002.4492187856677,1862
2004.387163684583,1819
2006.3246381560011,1787
2008.2616424685298,1760
2010.1981768908527,1811
2012.1342416917332,1758
2014.069837140014,1820
2016.0049635046162,1812
2017.9396210545406,1778
2019.8738100588666,1802
2021.8075307867502,1749
2023.740783507431,1829
2025.6735684902228,1829
2027.6058860045214,1789
2029.5377363198004,1823
2031.4691197056118,1758
2033.4000364315875,1751
2035.3304867674374,1813
2037.260470982952,1837
2039.189989347998,1754
2041.1190421325232,1812
2043.047629606554,1797
2044.9757520401945,1806
2046.9034097036288,1771
2048.8306028671195,1831
2050.7573318010086,1777
2052.683596775716,1774
2054.609398061742,1773
2056.5347359296647,1754
2058.4596106501403,1781
2060.384022493906,1863
2062.3079717317764,1798
2064.231458634646,1780
2066.1544834734873,1829
2068.077046519352,1747
2069.99914804337,1776
2071.9207883167524,1831
2073.8419676107865,1772
2075.7626861968406,1779
2077.6829443463607,1804
2079.6027423308715,1766
2081.522080421977,1820
2083.440958891362,1830
2085.359378010786,1765
2087.2773380520907,1731
2089.194839287196,1807
2091.111881988101,1770
2093.0284664268825,1816
2094.9445928756973,1802
2096.86026160678,1728
2098.775472892446,1785
2100.690227005088,1761
2102.604524217178,1759
2104.5183648012676,1776
2106.431749029985,1780
2108.34467717604,1858
2110.2571495122206,1744
2112.169166311393,1814
2114.080727846503,1786
2115.9918343905747,1739
2117.902486216711,1765
2119.8126835980956,1818
2121.722426807987,1787
2123.6317161197285,1823
2125.5405518067364,1769
2127.448934142509,1780
2129.356863400624,1850
2131.264339854737,1840
2133.1713637785815,1767
2135.077935445972,1823
2136.9840551308002,1874
2138.889723107037,1826
2140.7949396487334,1745
2142.699705030018,1852
2144.6040195250994,1873
2146.507883408264,1805
2148.4112969538774,1805
2150.3142604363848,1819
2152.2167741303097,1801
2154.1188383102535,1836
2156.0204532508997,1855
2157.9216192270064,1784
2159.822336513414,1838
2161.7226053850413,1837
2163.622426116884,1808
2165.5217989840185,1862
2167.4207242616,1826
2169.319202224862,1830
2171.2172331491165,1852
2173.1148173097563,1853
2175.0119549822507,1878
2176.90864644215,1853
2178.8048919650823,1835
2180.7006918267534,1855
2182.596046302952,1892
2184.4909556695407,1876
2186.3854202024645,1900
2188.279440177746,1937
2190.173015871487,1839
2192.066147559868,1877
2193.958835519149,1772
2195.851080025667,1906
2197.7428813558417,1874
2199.6342397861667,1937
2201.5251555932186,1845
2203.415629053651,1834
2205.3056604441986,1844
2207.19525004167,1869
2209.084398122958,1890
2210.9731049650327,1947
2212.861370844941,1928
2214.749196039812,1947
2216.636580826851,1934
2218.523525483344,1892
2220.410030286655,1935
2222.296095514226,1947
2224.1817214435805,1888
2226.066908352319,1972
2227.951656518121,1895
2229.835966218746,1919
2231.71983773203,1840
2233.6032713358913,1900
2235.486267308324,1922
2237.3688259274036,1907
2239.2509474712824,1885
2241.132632218193,1919
2243.013880446447,1878
2244.8946924344323,1924
2246.7750684606203,1925
2248.6550088035574,1926
2250.534513741871,1942
2252.413583554265,1907
2254.292218519526,1913
2256.170418916517,1889
2258.0481850241786,1812
2259.925517121534,1841
2261.8024154876825,1894
2263.678880401803,1905
2265.5549121431536,1907
2267.430510991071,1918
2269.305677224971,1985
2271.180411124348,1920
2273.0547129687766,1882
2274.9285830379076,1871
2276.8020216114737,1836
2278.6750289692845,1807
2280.5476053912294,1868
2282.4197511572766,1877
2284.2914665474727,1929
2286.162751841943,1914
2288.0336073208937,1938
2289.904033264608,1953
2291.774029953448,1935
2293.6435976678554,1913
2295.5127366883517,1858
2297.381447295534,1805
2299.2497297700825,1753
2301.1175843927526,1743
2302.9850114443825,1771
2304.852011205885,1690
2306.7185839582553,1618
2308.5847299825664,1686
2310.4504495599676,1682
2312.3157429716925,1586
2314.1806104990483,1628
2316.0450524234247,1582
2317.9090690262888,1630
2319.772660589186,1601
2321.635827393742,1611
2323.498569721661,1622
2325.3608878547248,1603
2327.2227820747967,1590
2329.0842526638157,1596
2330.945299903803,1685
2332.805924076857,1638
2334.6661254651535,1641
2336.525904350951,1647
2338.3852610165827,1626
2340.244195744464,1584
2342.102708817088,1617
2343.9608005170253,1609
2345.8184711269287,1633
2347.675720929526,1638
2349.532550207628,1675
2351.38895924412,1601
2353.24494832197,1666
2355.100517724223,1623
2356.955667734004,1626
2358.810398634514,1634
2360.664710709037,1641
2362.5186042409337,1677
2364.3720795136437,1673
2366.225136810686,1617
2368.0777764156583,1681
2369.929998612237,1626
2371.7818036841777,1621
2373.633191915315,1656
2375.484163589562,1613
2377.3347189909114,1642
2379.184858403434,1638
2381.03458211128,1653
2382.8838903986775,1587
2384.732783549936,1689
2386.5812618494406,1649
2388.4293255816588,1656
2390.2769750311327,1647
2392.1242104824883,1636
2393.971032220427,1644
2395.8174405297295,1655
2397.6634356952563,1666
2399.509018001947,1682
2401.3541877348193,1615
2403.1989451789705,1617
2405.043290619576,1634
2406.8872243418905,1705
2408.730746631247,1675
2410.5738577730594,1601
2412.4165580528183,1609
2414.258847756095,1671
2416.100727168537,1602
2417.9421965758734,1624
2419.783256263912,1625
2421.623906518538,1617
2423.4641476257157,1721
2425.303979871491,1661
2427.143403541984,1593
2428.9824189233977,1676
2430.821026302012,1584
2432.6592259641866,1634
2434.497018196361,1622
2436.33440328505,1662
2438.171381516851,1623
2440.00795317844,1653
2441.844118556569,1643
2443.6798779380724,1709
2445.5152316098606,1736
2447.3501798589255,1630
2449.1847229723357,1606
2451.0188612372403,1644
2452.8525949408663,1624
2454.6859243705203,1648
2456.518849813587,1640
2458.3513715575314,1597
2460.183489889895,1605
2462.015205098301,1638
2463.8465174704493,1655
2465.67742729412,1603
2467.5079348571717,1687
2469.338040447542,1644
2471.1677443532476,1669
2472.9970468623833,1673
2474.825948263123,1679
2476.6544488437207,1682
2478.482548892508,1668
2480.310248697896,1673
2482.137548548374,1665
2483.9644487325118,1599
2485.790949538956,1631
2487.617051256433,1686
2489.44275417375,1674
2491.26805857979,1642
2493.0929647635157,1625
2494.917473013971,1633
2496.741583620276,1672
2498.5652968716304,1697
2500.3886130573137,1714
2502.2115324666834,1738
2504.0340553891765,1757
2505.856182114308,1666
2507.6779129316733,1750
2509.499248130945,1783
2511.3201880018764,1672
2513.140732834298,1674
2514.9608829181198,1679
2516.780638543331,1687
2518.6,1694
2520.418967578273,1662
2522.237541568376,1735
2524.0557222606144,1706
2525.8735099453706,1685
2527.6909049131086,1678
2529.507907454368,1694
2531.32451785977,1713
2533.140736420014,1714
2534.9565634258774,1758
2536.771999168218,1713
2538.5870439379714,1766
2540.4016980261526,1740
2542.2159617238544,1708
2544.02983532225,1725
2545.8433191125914,1706
2547.656413386209,1842
2549.4691184345115,1777
2551.2814345489874,1759
2553.093362021204,1804
2554.904901142808,1789
2556.716052205523,1770
2558.526815501153,1785
2560.3371913215824,1845
2562.147179958771,1831
2563.956781704761,1782
2565.7659968516705,1844
2567.5748256916986,1859
2569.3832685171224,1825
2571.1913256202984,1828
2572.9989972936614,1802
2574.806283829725,1917
2576.613185521084,1843
2578.4197026604074,1941
2580.2258355404483,1893
2582.031584454035,1871
2583.836949694077,1900
2585.6419315535613,1902
2587.4465303255533,1914
2589.2507463032002,1947
2591.0545797797245,1940
2592.8580310484303,1929
2594.6611004026995,1913
2596.463788135992,1995
2598.266094541849,1942
2600.0680199138874,1957
2601.869564545807,1948
2603.670728731383,1907
2605.4715127644704,1932
2607.2719169390048,1946
2609.071941548998,1925
2610.8715868885433,1987
2612.670853251811,1948
2614.469740933052,1925
2616.268250226594,1937
2618.0663814268455,1886
2619.864134828292,1892
2621.6615107255006,1866
2623.458509413115,1914
2625.2551311858597,1972
2627.0513763385347,1929
2628.8472451660223,1876
2630.6427379632833,1895
2632.4378550253564,1831
2634.232596647359,1854
2636.026963124488,1865
2637.8209547520187,1901
2639.6145718253065,1935
2641.407814639785,1875
2643.200683490966,1857
2644.9931786744414,1843
2646.7853004858807,1840
2648.577049221034,1811
2650.3684251757277,1760
2652.1594286458712,1786
2653.9500599274484,1804
2655.740319316525,1884
2657.5302071092437,1806
2659.3197236018286,1738
2661.10886909058,1820
2662.8976438718782,1747
2664.686048242183,1708
2666.4740824980327,1790
2668.2617469360443,1743
2670.0490418529134,1748
2671.8359675454153,1783
2673.622524310403,1728
2675.408712444811,1776
2677.1945322456495,1679
2678.979984010009,1695
2680.76506803506,1712
2682.5497846180497,1691
2684.334134056306,1658
2686.1181166472343,1691
2687.9017326883213,1670
2689.6849824771293,1722
2691.4678663113013,1665
2693.2503844885596,1654
2695.032537306705,1803
2696.8143250636167,1668
2698.5957480572542,1741
2700.3768065856534,1650
2702.1575009469316,1691
2703.937831439283,1744
2705.717798360982,1703
2707.4974020103837,1658
2709.276642685917,1616
2711.055520686095,1630
2712.834036309506,1645
2714.612189854819,1649
2716.389981620782,1610
2718.1674119062204,1661
2719.944481010041,1553
2721.721189231226,1636
2723.4975368688415,1648
2725.273524222027,1671
2727.0491515900053,1693
2728.824419272075,1635
2730.5993275676146,1586
2732.3738767760838,1642
2734.148067197016,1604
2735.921899130031,1602
2737.6953728748194,1616
2739.468488731156,1591
2741.2412469988926,1595
2743.0136479779617,1569
2744.785691968372,1585
2746.5573792702116,1601
2748.3287101836504,1535
2750.099685008934,1572
2751.870304046388,1619
2753.640567596418,1572
2755.4104759595057,1617
2757.1800294362156,1641
2758.949228327187,1578
2760.7180729331412,1601
2762.486563554877,1620
2764.254700493272,1548
2766.022484049284,1599
2767.789914523947,1594
2769.5569922183786,1566
2771.3237174337705,1621
2773.090090471394,1706
2774.8561116326036,1546
2776.6217812188274,1583
2778.3870995315756,1618
2780.1520668724356,1618
2781.9166835430747,1588
2783.6809498452394,1621
2785.444866080754,1637
2787.2084325515225,1621
2788.971649559527,1530
2790.73451740683,1578
2792.4970363955713,1610
2794.2592068279705,1598
2796.0210290063264,1646
2797.7825032330147,1548
2799.543629810493,1606
2801.304409041296,1616
2803.0648412280366,1617
2804.8249266734088,1625
2806.5846656801846,1621
2808.344058551212,1595
2810.1031055894246,1598
2811.8618070978273,1601
2813.6201633795085,1650
2815.378174737636,1604
2817.1358414754536,1609
2818.893163896285,1610
2820.6501423035334,1577
2822.4067770006814,1581
2824.1630682912883,1569
2825.9190164789957,1591
2827.6746218675207,1625
2829.429884760661,1607
2831.184805462294,1563
2832.9393842763743,1634
2834.693621506936,1598
2836.4475174580916,1575
2838.201072434034,1591
2839.954286739034,1591
2841.707160677441,1586
2843.459694553685,1611
2845.2118886722724,1602
2846.96374333779,1592
2848.7152588549034,1561
2850.4664355283567,1608
2852.217273662973,1637
2853.9677735636546,1581
2855.7179355353833,1678
2857.4677598832186,1607
2859.217246912299,1574
2860.9663969278427,1621
2862.715210235146,1641
2864.4636871395846,1549
2866.211827946614,1540
2867.9596329617652,1545
2869.7071024906536,1558
2871.4542368389684,1544
2873.20103631248,1612
2874.947501217038,1560
2876.6936318585695,1649
2878.4394285430812,1537
2880.1848915766604,1552
2881.9300212654707,1613
2883.6748179157553,1602
2885.4192818338374,1582
2887.1634133261173,1612
2888.907212699077,1657
2890.6506802592744,1521
2892.393816313348,1588
2894.1366211680142,1591
2895.8790951300693,1566
2897.621238506388,1664
2899.363051603925,1609
2901.1045347297118,1596
2902.8456881908596,1512
2904.58651229456,1597
2906.327007348081,1567
2908.067173658772,1612
2909.8070115340597,1622
2911.5465212814497,1591
2913.285703208527,1607
2915.0245576229563,1562
2916.7630848324807,1578
2918.5012851449196,1554
2920.2391588681758,1600
2921.976706310227,1611
2923.7139277791334,1616
2925.4508235830313,1537
2927.187394030137,1534
2928.923639428745,1534
2930.6595600872306,1556
2932.395156314046,1596
2934.1304284177218,1575
2935.8653767068713,1553
2937.6000014901815,1567
2939.3343030764227,1554
2941.068281774442,1574
2942.8019378931644,1575
2944.5352717415976,1574
2946.2682836288236,1574
2948.0009738640065,1583
2949.7333427563885,1574
2951.465390615289,1517
2953.1971177501086,1634
2954.9285244703265,1655
2956.6596110855,1617
2958.3903779052657,1563
2960.1208252393385,1624
2961.8509533975125,1570
2963.5807626896617,1572
2965.3102534257378,1559
2967.0394259157715,1582
2968.768280469873,1570
2970.496817398232,1601
2972.2250370111146,1606
2973.952939618869,1627
2975.6805255319196,1612
2977.4077950607707,1605
2979.134748516006,1598
2980.861386208289,1616
2982.587708448359,1657
2984.313715547037,1601
2986.039407815222,1649
2987.764785563891,1578
2989.489849104102,1590
2991.2145987469908,1531
2992.9390348037705,1550
2994.6631575857346,1533
2996.3869674042576,1564
2998.1104645707887,1591
2999.83364939686,1592
3001.5565221940783,1529
3003.2790832741334,1635
3005.0013329487924,1552
3006.7232715298996,1548
3008.4448993293804,1556
3010.166216659239,1586
3011.887223831558,1551
3013.607921158498,1495
3015.3283089522993,1566
3017.0483875252826,1453
3018.7681571898443,1586
3020.4876182584626,1592
3022.2067710436927,1540
3023.9256158581707,1573
3025.644153014609,1535
3027.362382825801,1502
3029.0803056046193,1518
3030.797921664012,1598
3032.5152313170106,1576
3034.2322348767225,1584
3035.9489326563353,1561
3037.665324969115,1624
3039.3814121284063,1553
3041.097194447633,1586
3042.812672240299,1587
3044.5278458199855,1603
3046.2427155003525,1525
3047.9572815951406,1537
3049.671544418167,1550
3051.38550428333,1515
3053.0991615046073,1551
3054.812516396051,1614
3056.5255692717974,1563
3058.2383204460575,1589
3059.9507702331257,1623
3061.662918947372,1512
3063.3747669032446,1609
3065.0863144152736,1536
3066.7975617980674,1553
3068.508509366309,1579
3070.219157434767,1570
3071.9295063182844,1539
3073.639556331785,1564
3075.3493077902704,1553
3077.058761008821,1586
3078.7679163025964,1584
3080.476773986837,1619
3082.1853343768594,1600
3083.89359778806,1529
3085.6015645359153,1539
3087.3092349359786,1520
3089.016609303884,1572
3090.7236879553434,1583
3092.4304712061476,1556
3094.136959372166,1569
3095.843152769349,1611
3097.5490517137237,1606
3099.2546565213966,1544
3100.959967508554,1603
3102.66498499146,1565
3104.3697092864577,1655
3106.0741407099695,1591
3107.778279578498,1607
3109.482126208622,1617
3111.1856809170004,1637
3112.8889440203716,1563
3114.5919158355528,1570
3116.294596679439,1571
3117.996986869006,1566
3119.6990867213062,1578
3121.4008965534726,1579
3123.102416682717,1607
3124.803647426329,1594
3126.5045891016784,1579
3128.205242026213,1612
3129.90560651746,1580
3131.605682893025,1553
3133.3054714705922,1549
3135.0049725679282,1590
3136.7041865028714,1605
3138.4031135933465,1549
3140.101754157353,1583
3141.800108512971,1553
3143.498176978357,1567
3145.1959598717494,1563
3146.8934575114636,1588
3148.5906702158954,1502
3150.2875983035183,1574
3151.9842420928853,1530
3153.680601902627,1594
3155.376678051456,1551
3157.07247085816,1547
3158.767980641609,1555
3160.463207720748,1537
3162.158152414606,1545
3163.8528150422862,1539
3165.5471959229726,1559
3167.2412953759303,1584
3168.9351137204976,1539
3170.628651276098,1561
3172.3219083622307,1480
3174.014885298474,1623
3175.707582404485,1595
3177.4000000000005,1524
3179.092138404835,1568
3180.7839979388846,1515
3182.47557892212,1496
3184.166881674594,1550
3185.8579065164386,1517
3187.5486537678626,1512
3189.2391237491547,1553
3190.9293167806827,1534
3192.6192331828934,1594
3194.3088732763117,1557
3195.998237381542,1530
3197.687325819268,1507
3199.376138910251,1550
3201.064676975334,1533
3202.7529403354347,1466
3204.4409293115523,1523
3206.1286442247647,1527
3207.816085396229,1494
3209.5032531471825,1549
3211.190147798936,1482
3212.8767696728846,1482
3214.5631190905015,1524
3216.2491963733373,1559
3217.9350018430214,1533
3219.6205358212637,1525
3221.305798629851,1490
3222.990790590651,1472
3224.6755120256103,1466
3226.359963256751,1519
3228.0441446061795,1560
3229.7280563960758,1474
3231.411698948703,1542
3233.0950725863995,1463
3234.778177631587,1426
3236.461014406761,1496
3238.1435832345005,1585
3239.8258844374595,1503
3241.507918338374,1550
3243.1896852600576,1552
3244.8711855254023,1523
3246.552419457381,1494
3248.233387379042,1519
3249.914089613516,1560
3251.59452648401,1523
3253.274698313813,1543
3254.95460542629,1503
3256.6342481448855,1535
3258.313626793125,1483
3259.9927416946084,1458
3261.6715931730196,1469
3263.3501815521176,1521
3265.0285071557437,1472
3266.706570307815,1493
3268.3843713323286,1542
3270.0619105533615,1493
3271.739188295068,1525
3273.4162048816834,1515
3275.0929606375184,1512
3276.769455886966,1572
3278.445690954498,1590
3280.1216661646613,1562
3281.797381842087,1554
3283.4728383114807,1532
3285.1480358976296,1442
3286.8229749253996,1470
3288.4976557197333,1488
3290.172078605655,1493
3291.846243908266,1453
3293.5201519527463,1450
3295.193803064357,1446
3296.8671975684374,1529
3298.5403357904024,1529
3300.21321805575,1532
3301.8858446900567,1448
3303.558216018975,1485
3305.23033236824,1481
3306.9021940636603,1453
3308.57380143113,1511
3310.2451547966184,1504
3311.916254486174,1497
3313.5871008259246,1507
3315.2576941420766,1547
3316.9280347609147,1501
3318.5981230088046,1470
3320.2679592121895,1465
3321.9375436975924,1445
3323.606876791612,1458
3325.27595882093,1441
3326.944790112305,1449
3328.6133709925753,1466
3330.2817017886573,1483
3331.949782827547,1474
3333.617614436319,1438
3335.2851969421245,1508
3336.952530672199,1488
3338.619615953853,1522
3340.286453114475,1482
3341.9530424815357,1480
3343.619384382583,1578
3345.2854791452437,1526
3346.951327097224,1579
3348.6169285663073,1568
3350.2822838803577,1464
3351.947393367319,1556
3353.61225735521,1539
3355.2768761721345,1515
3356.9412501462693,1508
3358.605379605873,1491
3360.2692648792827,1464
3361.9329062949146,1501
3363.596304181263,1487
