CollectionTime,9/19/2024 11:57:36 AM
ExposureUsed,3
CalibratedSpectrum
-962.7078968117929,490
-959.9714848408522,559
-957.2358232597828,561
-954.5009119013725,539
-951.7667505983302,571
-949.0333391832855,589
-946.3006774887896,602
-943.5687653473143,565
-940.837602591253,605
-938.1071890529199,543
-935.3775245645503,561
-932.6486089583007,538
-929.9204420662485,553
-927.1930237203925,547
-924.4663537526524,569
-921.7404319948689,581
-919.0152582788041,594
-916.2908324361409,584
-913.5671542984834,557
-910.8442236973568,569
-908.1220404642074,559
-905.4006044304027,568
-902.679915427231,548
-899.959973285902,513
-897.2407778375464,536
-894.5223289132158,542
-891.8046263438832,545
-889.0876699604426,560
-886.3714595937089,530
-883.6559950744183,527
-880.9412762332282,531
-878.2273029007168,529
-875.5140749073835,563
-872.8015920836489,538
-870.0898542598545,530
-867.3788612662631,528
-864.6686129330585,524
-861.9591090903457,527
-859.2503495681506,526
-856.5423341964203,537
-853.8350628050229,501
-851.1285352237478,557
-848.4227512823054,558
-845.7177108103272,543
-843.0134136373656,546
-840.3098595928943,551
-837.6070485063082,555
-834.9049802069229,566
-832.2036545239757,538
-829.5030712866244,566
-826.8032303239481,551
-824.1041314649472,548
-821.4057745385428,542
-818.7081593735775,554
-816.0112857988148,564
-813.3151536429393,566
-810.6197627345566,560
-807.9251129021936,549
-805.2312039742981,531
-802.5380357792392,529
-799.8456081453069,549
-797.1539209007124,558
-794.462973873588,578
-791.772766891987,567
-789.083299783884,537
-786.3945723771743,560
-783.7065844996748,567
-781.0193359791231,526
-778.3328266431781,545
-775.6470563194197,524
-772.9620248353489,545
-770.2777320183878,586
-767.5941776958798,569
-764.9113616950891,564
-762.2292838432011,554
-759.5479439673222,543
-756.8673418944801,565
-754.1874774516235,546
-751.5083504656222,546
-748.8299607632671,544
-746.15230817127,572
-743.475392516264,565
-740.7992136248035,580
-738.1237713233636,600
-735.4490654383407,559
-732.7750957960521,572
-730.1018622227365,568
-727.4293645445534,565
-724.7576025875837,551
-722.0865761778291,563
-719.4162851412126,604
-716.7467293035781,585
-714.0779084906909,587
-711.409822528237,572
-708.7424712418238,559
-706.0758544569796,614
-703.4099719991541,586
-700.7448236937178,581
-698.0804093659622,602
-695.4167288411002,593
-692.7537819442656,612
-690.0915685005134,593
-687.4300883348199,587
-684.7693412720819,625
-682.1093271371178,614
-679.4500457546669,603
-676.7914969493897,601
-674.1336805458676,600
-671.4765963686034,610
-668.8202442420206,605
-666.1646239904642,582
-663.5097354382001,607
-660.8555784094151,583
-658.2021527282176,597
-655.5494582186366,607
-652.8974947046223,604
-650.2462620100463,643
-647.5957599587009,637
-644.9459883742998,633
-642.2969470804776,669
-639.6486359007902,674
-637.0010546587141,711
-634.3542031776476,671
-631.7080812809096,641
-629.0626887917401,646
-626.4180255333008,648
-623.7740913286734,712
-621.1308860008619,665
-618.4884093727904,625
-615.8466612673046,672
-613.2056415071715,642
-610.5653499150785,630
-607.9257863136347,675
-605.28695052537,684
-602.6488423727357,643
-600.0114616781036,630
-597.3748082637674,684
-594.7388819519412,729
-592.1036825647604,719
-589.4692099242818,690
-586.8354638524829,663
-584.2024441712624,674
-581.5701507024403,677
-578.9385832677575,639
-576.3077416888759,684
-573.6776257873787,671
-571.0482353847704,662
-568.4195703024757,676
-565.7916303618415,659
-563.164415384135,680
-560.5379251905453,668
-557.9121596021815,693
-555.2871184400748,672
-552.6628015251767,663
-550.0392086783606,688
-547.4163397204204,739
-544.794194472071,736
-542.1727727539491,749
-539.5520743866118,732
-536.9320991905377,734
-534.3128469861261,759
-531.6943175936979,780
-529.0765108334947,837
-526.4594265256793,890
-523.8430644903358,1055
-521.2274245474689,1175
-518.612506517005,1192
-515.9983102187913,1113
-513.3848354725959,1161
-510.77208209810846,1218
-508.16004991493924,1270
-505.5487387426199,1285
-502.9381484006032,1277
-500.3282787082628,1237
-497.71912948489364,1208
-495.1107005497117,1045
-492.5029917218539,1015
-489.8960028203786,928
-487.28973366426493,831
-484.68418407241325,769
-482.07935386364494,787
-479.47524285670266,819
-476.87185087025,785
-474.2691777228715,791
-471.66722323307334,820
-469.0659872192821,833
-466.4654694998459,821
-463.86566989303384,839
-461.26658821703614,884
-458.66822428996414,828
-456.07057792985,788
-453.4736489546475,808
-450.877437182231,834
-448.28194243039627,808
-445.68716451686,756
-443.09310325926003,820
-440.49975847515555,806
-437.9071299820263,782
-435.31521759727354,783
-432.72402113821954,810
-430.13354042210767,809
-427.5437752661022,857
-424.95472548728867,871
-422.36639090267386,859
-419.7787713291855,873
-417.1918665836721,856
-414.60567648290385,823
-412.0202008435715,881
-409.4354394822874,889
-406.8513922155845,885
-404.26805885991723,835
-401.685439231661,911
-399.103533147112,892
-396.522340422488,801
-393.9418608739278,856
-391.3620943174908,898
-388.7830405691583,858
-386.2046994448317,798
-383.6270707603344,789
-381.05015433141045,767
-378.473949973725,770
-375.8984575028645,706
-373.32367673433623,653
-370.74960748356875,663
-368.1762495659117,644
-365.60360279663576,575
-363.03166699093265,514
-360.4604419639154,514
-357.8899275306178,501
-355.32012350599507,493
-352.7510297049233,498
-350.1826459421999,523
-347.61497203254316,484
-345.04800779059235,461
-342.4817530309082,473
-339.91620756797226,573
-337.35137121618743,548
-334.7872437898774,526
-332.22382510328725,482
-329.66111497058273,466
-327.09911320585127,484
-324.53781962310075,495
-321.9772340362607,469
-319.4173562591816,496
-316.8581861056348,459
-314.2997233893127,474
-311.7419679238294,482
-309.1849195227194,510
-306.62857799943856,530
-304.0729431673641,498
-301.51801483979375,499
-298.963792829947,475
-296.41027695096386,519
-293.85746701590574,590
-291.3053628377552,575
-288.7539642294155,571
-286.2032710037115,559
-283.65328297338897,635
-281.1039999511146,671
-278.5554217494762,591
-276.007548180983,531
-273.4603790580651,543
-270.9139141930734,572
-268.3681533982807,596
-265.8230964858798,611
-263.27874326798565,629
-260.7350935566336,707
-258.1921471637804,643
-255.6499039013039,660
-253.10836358100266,696
-250.56752601459698,673
-248.02739101372765,684
-245.48795838995704,682
-242.94922795476816,680
-240.41119951956557,689
-237.8738728956746,660
-235.33724789434166,710
-232.80132432673452,622
-230.2661020039418,599
-227.73158073697357,693
-225.19776033676033,723
-222.66464061415422,649
-220.1322213799284,659
-217.60050244477725,698
-215.06948361931552,751
-212.53916471408013,920
-210.00954553952818,868
-207.48062590603843,741
-204.9524056239104,787
-202.4248845033651,840
-199.8980623545441,873
-197.37193898751036,929
-194.84651421224817,884
-192.32178783866232,891
-189.79775967657952,880
-187.27442953574644,1025
-184.7517972258321,984
-182.2298625564256,854
-179.7086253370378,800
-177.18808537710026,937
-174.66824248596583,1077
-172.14909647290835,894
-169.6306471471229,725
-167.11289431772548,764
-164.59583779375328,913
-162.07947738416453,1128
-159.5638128978386,1350
-157.04884414357605,1395
-154.53457093009854,1234
-152.02099306604828,958
-149.50811035998936,1001
-146.99592262040665,1517
-144.48442965570587,1562
-141.97363127421409,1548
-139.46352728417958,1396
-136.95411749377126,1317
-134.44540171107985,1051
-131.93737974411636,1041
-129.43005140081357,1298
-126.92341648902493,1627
-124.41747481652521,1878
-121.91222619101006,1947
-119.40767042009657,1733
-116.90380731132257,1652
-114.40063667214702,2087
-111.8981583099503,2994
-109.3963720320337,4354
-106.89527764561933,7125
-104.39487495785067,10299
-101.89516377579241,13522
-99.39614390642998,17408
-96.89781515667039,19947
-94.40017733334128,19686
-91.90323024319173,13730
-89.40697369289148,7930
-86.91140748903172,5747
-84.41653143812482,8805
-81.92234534660395,17196
-79.42884902082358,26031
-76.93604226705907,30074
-74.4439248915071,29122
-71.95249670028534,25490
-69.46175749943245,19442
-66.97170709490854,14499
-64.48234529259423,9591
-61.99367189829195,8178
-59.50568671772464,9437
-57.01838955653636,9359
-54.53178022029283,9253
-52.045858514480074,9219
-49.560624244506016,11269
-47.07607721569923,11902
-44.59221723330904,8884
-42.10904410250669,8736
-39.62655762838392,9971
-37.14475761595372,10480
-34.66364387015028,13462
-32.18321619582866,18909
-29.70347439776515,20335
-27.224418280657005,19931
-24.74604764912317,25704
-22.26836230770266,39719
-19.7913620608565,65035
-17.315046712966478,65035
-14.83941606833514,65035
-12.36446993118659,65035
-9.89020810566592,65035
-7.416630395839093,65035
-4.94373660569363,65035
-2.471526539137585,65035
-6.821210263296962E-13,65035
2.47084320796705,65035
4.941003281093458,65035
7.410480415786196,65035
9.879274808531363,65035
12.347386655893956,65035
14.814816154518212,65035
17.28156350112681,65035
19.74762889252179,65035
22.21301252558385,24839
24.67771459727237,6765
27.141735304626195,6307
29.605074844762612,6541
32.06773341487792,6282
34.52971121224755,6504
36.99100843422559,5437
39.45162527824516,3564
41.91156194181792,3350
44.370818622535126,4312
46.82939551806646,3415
49.287292826160524,5352
51.74451074464503,6239
54.201049471426245,4001
56.65690920448981,2848
59.112090141899785,2055
61.56659248179983,2122
64.02041642241159,2581
66.4735621620365,2822
68.92602989905402,3091
71.37781983192338,3374
73.82893215918205,2485
76.27936707944684,1728
78.72912479141326,2000
81.17820549385567,2256
83.62660938562783,2253
86.07433666566146,1752
88.5213875329681,1278
90.96776218663751,1589
93.41346082583925,1944
95.85848364982041,2203
98.30283085790859,2098
100.7465026495089,1595
103.18949922410604,1368
105.63182078126385,1365
108.07346752062438,1390
110.51443964190923,1256
112.95473734491827,1100
115.39436082953114,1128
117.83331029570547,1022
120.27158594347827,1204
122.7091879729652,1329
125.1461165843615,1126
127.58237197794062,1021
130.01795435405518,1012
132.4528639131364,1176
134.88710085569494,1064
137.32066538231982,1153
139.75355769367923,1370
142.1857779905207,1233
144.61732647366978,983
147.04820334403132,962
149.47840880258934,918
151.90794305040674,927
154.33680628862487,1182
156.76499871846443,1301
159.19252054122433,1335
161.61937195828352,1386
164.04555317109896,1435
166.47106438120693,1545
168.89590579022217,1728
171.320077599839,1849
173.7435800118302,1936
176.16641322804742,2006
178.58857745042144,2168
181.01007288096173,2186
183.43089972175687,2185
185.85105817497413,2205
188.27054844285988,2230
190.6893707277394,2122
193.10752523201643,2123
195.5250121581745,2165
197.9418317087751,2243
200.3579840864594,2178
202.7734694939469,2173
205.18828813403627,2280
207.6024402096051,2415
210.01592592360964,2292
212.42874547908548,2356
214.84089907914665,2270
217.2523869269868,2200
219.66320922587727,2261
222.0733661791695,2276
224.48285799029293,2232
226.8916848627572,2295
229.29984700014882,2450
231.7073446061355,2408
234.11417788446204,2366
236.520347038953,2393
238.92585227351185,2457
241.33069379212054,2526
243.73487179884035,2630
246.1383864978112,2562
248.541238093252,2602
250.9434267894609,2746
253.34495279081432,2642
255.74581630176783,2586
258.1460175268563,2637
260.54555667069314,2595
262.9444339379703,2601
265.3426495334594,2694
267.7402036620107,2677
270.1370965285529,2621
272.53332833809407,2430
274.9288992957214,2263
277.32380960660055,2291
279.718059475976,2231
282.1116491091717,2225
284.5045787115897,2256
286.89684848871195,2140
289.2884586460981,2104
291.67940938938807,2220
294.0697009242996,2342
296.4593334566299,2190
298.84830719225477,2181
301.23662233712923,2211
303.6242790972866,2163
306.01127767884,2071
308.39761828798066,2085
310.78330113097934,2119
313.16832641418534,2080
315.5526943440269,1962
317.9364051270112,2026
320.3194589697242,2080
322.70185607883093,2010
325.0835966610754,1963
327.4646809232805,1956
329.8451090723478,1966
332.2248813152577,1982
334.6039978590701,1908
336.9824589109231,1927
339.36026467803447,1918
341.7374153677,1856
344.113911187295,1802
346.48975234427337,1845
348.8649390461686,1827
351.2394715005918,1860
353.61334991523415,1839
355.9865744978655,1721
358.35914545633375,1819
360.73106299856715,1888
363.10232733257146,1826
365.47293866643247,1848
367.84289720831396,1860
370.2122031664593,1810
372.5808567491905,1791
374.9488581649083,1792
377.31620762209275,1732
379.6829053293021,1787
382.0489514951745,1661
384.4143463284262,1768
386.7790900378528,1699
389.14318283232853,1704
391.50662492080653,1786
393.86941651231916,1743
396.23155781597745,1774
398.5930490409713,1849
400.9538903965696,1793
403.3140820921202,1827
405.6736243370498,1677
408.03251734086336,1711
410.3907613131465,1720
412.74835646356166,1701
415.10530300185144,1677
417.4616011378372,1668
419.81725108141893,1719
422.1722530425758,1687
424.5266072313656,1649
426.880313857925,1719
429.2333731324701,1667
431.58578526529516,1698
433.9375504667738,1702
436.2886689473588,1667
438.63914091758113,1657
440.9889665880513,1630
443.33814616945835,1652
445.68667987257015,1712
448.03456790823395,1683
450.3818104873759,1660
452.72840782100013,1672
455.07436012019105,1638
457.41966759611057,1632
459.7643304600007,1656
462.10834892318155,1643
464.4517231970525,1666
466.79445349309174,1649
469.1365400228566,1671
471.4779829979826,1607
473.81878263018564,1574
476.15893913125876,1592
478.4984527130747,1652
480.8373235875855,1689
483.17555196682144,1735
485.5131380628919,1765
487.8500820879857,1820
490.1863842543697,1837
492.52204477439034,1912
494.8570638604725,1976
497.1914417251204,2149
499.52517858091653,2311
501.85827464052306,2631
504.19073011668036,2813
506.5225452222086,2790
508.85372017000566,2926
511.18425517304956,3116
513.514150444396,3524
515.8434061971808,4574
518.1720226446176,5382
520.4999999999999,5430
522.8273384766991,5143
525.1540382881666,4891
527.480099647932,4346
529.8055227696037,3410
532.1303078668694,2628
534.454455153496,2094
536.777964843328,1929
539.1008371502907,1772
541.4230722883866,1827
543.744670471698,1771
546.0656319143858,1738
548.3859568306899,1748
550.7056454349294,1797
553.0246979415016,1734
555.3431145648834,1669
557.6608955196306,1612
559.978041020377,1543
562.2945512818363,1632
564.6104265188006,1692
566.9256669461412,1661
569.2402727788082,1685
571.5542442318302,1697
573.8675815203156,1688
576.1802848594508,1687
578.4923544645015,1684
580.8037905508126,1709
583.114593333807,1743
585.4247630289875,1711
587.7342998519354,1643
590.0432040183106,1654
592.3514757438526,1752
594.6591152443794,1720
596.9661227357875,1664
599.2724984340531,1635
601.578242555231,1667
603.8833553154542,1674
606.1878369309362,1688
608.4916876179676,1620
610.7949075929192,1638
613.0974970722403,1629
615.3994562724587,1739
617.7007854101818,1682
620.0014847020951,1730
622.3015543649641,1712
624.6009946156324,1723
626.8998056710224,1645
629.1979877481361,1720
631.4955410640538,1712
633.7924658359349,1733
636.0887622810175,1671
638.3844306166192,1684
640.6794710601358,1657
642.9738838290426,1669
645.2676691408932,1714
647.5608272133207,1696
649.853358264037,1696
652.1452625108324,1711
654.4365401715764,1691
656.7271914642178,1710
659.0172166067838,1693
661.3066158173809,1714
663.5953893141935,1731
665.8835373154867,1716
668.1710600396028,1736
670.4579577049639,1799
672.7442305300709,1806
675.0298787335033,1827
677.3149025339197,1831
679.599302150058,1711
681.8830778007342,1720
684.1662297048437,1691
686.4487580813608,1720
688.7306631493387,1798
691.0119451279091,1761
693.2926042362834,1765
695.5726406937516,1712
697.8520547196814,1750
700.1308465335215,1698
702.4090163547982,1698
704.6865644031171,1728
706.9634908981619,1657
709.2397960596965,1702
711.5154801075631,1764
713.7905432616823,1719
716.0649857420548,1731
718.3388077687592,1778
720.612009561953,1682
722.8845913418733,1743
725.1565533288352,1715
727.427895743234,1717
729.6986188055427,1736
731.9687227363137,1621
734.238207756178,1698
736.5070740858458,1669
738.7753219461066,1679
741.0429515578281,1681
743.3099631419569,1700
745.5763569195191,1679
747.8421331116193,1704
750.1072919394409,1715
752.3718336242467,1794
754.6357583873777,1778
756.8990664502545,1754
759.1617580343765,1751
761.423833361321,1697
763.6852926527457,1693
765.9461361303862,1728
768.206364016058,1740
770.4659765316536,1749
772.7249738991469,1682
774.9833563405886,1749
777.2411240781092,1754
779.4982773339183,1676
781.7548163303044,1668
784.010741289634,1773
786.2660524343538,1824
788.5207499869881,1784
790.7748341701416,1782
793.0283052064964,1778
795.2811633188143,1701
797.5334087299362,1711
799.7850416627813,1702
802.0360623403484,1787
804.2864709857143,1705
806.5362678220353,1755
808.7854530725468,1715
811.0340269605625,1711
813.2819897094754,1762
815.5293415427581,1802
817.77608268396,1856
820.0222133567116,1770
822.2677337847211,1746
824.5126441917765,1781
826.7569448017433,1783
829.0006358385675,1747
831.2437175262731,1766
833.4861900889629,1782
835.7280537508192,1793
837.9693087361026,1802
840.2099552691533,1783
842.4499935743896,1815
844.689423876309,1818
846.9282463994886,1809
849.1664613685833,1734
851.4040690083276,1834
853.6410695435349,1755
855.877463199097,1747
858.1132501999847,1730
860.3484307712487,1727
862.5830051380175,1756
864.8169735254988,1791
867.0503361589791,1786
869.2830932638243,1808
871.5152450654786,1745
873.7467917894654,1789
875.9777336613873,1795
878.2080709069252,1759
880.4378037518389,1812
882.666932421968,1779
884.8954571432301,1814
887.1233781416219,1730
889.3506956432192,1857
891.5774098741766,1780
893.803521060728,1759
896.0290294291852,1769
898.2539352059397,1731
900.4782386174619,1841
902.7019398903011,1823
904.925039251085,1768
907.147536926521,1801
909.3694331433943,1705
911.59072812857,1723
913.8114221089921,1756
916.0315153116827,1702
918.2510079637437,1725
920.4699002923547,1759
922.6881925247761,1765
924.905884888345,1773
927.1229776104793,1785
929.3394709186747,1702
931.555365040506,1762
933.7706602036275,1800
935.9853566357709,1741
938.1994545647489,1882
940.4129542184515,1843
942.6258558248488,1773
944.8381596119883,1764
947.0498658079974,1830
949.2609746410825,1753
951.4714863395287,1756
953.6814011316998,1820
955.8907192460387,1781
958.0994409110671,1737
960.3075663553858,1781
962.5150958076741,1804
964.7220294966913,1848
966.928367651274,1796
969.1341105003388,1768
971.3392582728806,1760
973.5438111979742,1760
975.747769504772,1794
977.9511334225061,1751
980.153903180487,1708
982.3560790081052,1846
984.5576611348289,1776
986.7586497902058,1751
988.9590452038618,1605
991.158847605503,1636
993.3580572249133,1718
995.5566742919558,1691
997.7546990365728,1592
999.952131688785,1596
1002.1489724786926,1561
1004.3452216364743,1550
1006.5408793923874,1587
1008.7359459767691,1558
1010.9304216200343,1511
1013.1243065526781,1535
1015.3176010052733,1486
1017.510305208472,1484
1019.7024193930064,1482
1021.8939437896848,1506
1024.0848786293977,1556
1026.2752241431122,1550
1028.4649805618747,1501
1030.6541481168115,1539
1032.842727039127,1468
1035.0307175601051,1478
1037.2181199111074,1480
1039.4049343235752,1439
1041.591161029029,1438
1043.7768002590683,1444
1045.9618522453698,1447
1048.1463172196918,1475
1050.3301954138697,1451
1052.513487059818,1464
1054.69619238953,1448
1056.8783116350783,1453
1059.0598450286152,1352
1061.2407928023704,1388
1063.4211551886528,1427
1065.6009324198508,1475
1067.780124728432,1473
1069.9587323469414,1436
1072.1367555080046,1504
1074.314194444325,1451
1076.4910493886855,1441
1078.667320573947,1429
1080.843008233051,1354
1083.0181125990161,1378
1085.1926339049414,1360
1087.3665723840027,1380
1089.5399282694575,1420
1091.7127017946405,1363
1093.8848931929647,1420
1096.0565026979243,1400
1098.2275305430899,1406
1100.3979769621128,1350
1102.567842188722,1303
1104.737126456726,1338
1106.9058300000124,1421
1109.0739530525475,1378
1111.2414958483764,1367
1113.4084586216231,1370
1115.5748416064907,1379
1117.7406450372605,1395
1119.9058691482942,1352
1122.0705141740304,1393
1124.2345803489884,1390
1126.3980679077658,1322
1128.5609770850388,1366
1130.7233081155623,1363
1132.8850612341707,1313
1135.0462366757774,1331
1137.2068346753745,1355
1139.3668554680326,1362
1141.526299288901,1358
1143.68516637321,1303
1145.8434569562655,1367
1148.001171273455,1318
1150.158309560244,1409
1152.3148720521767,1370
1154.470858984876,1338
1156.626270594044,1342
1158.7811071154629,1315
1160.9353687849912,1396
1163.089055838569,1394
1165.242168512213,1362
1167.3947070420209,1402
1169.5466716641677,1359
1171.6980626149075,1357
1173.8488801305748,1310
1175.9991244475814,1321
1178.1487958024186,1363
1180.2978944316555,1370
1182.4464205719428,1300
1184.5943744600072,1274
1186.7417563326567,1354
1188.8885664267755,1282
1191.0348049793297,1334
1193.1804722273619,1286
1195.325568407995,1317
1197.4700937584303,1389
1199.614048515948,1306
1201.7574329179074,1299
1203.900247201746,1345
1206.042491604982,1367
1208.1841663652099,1325
1210.3252717201053,1321
1212.465807907422,1359
1214.6057751649923,1392
1216.7451737307279,1370
1218.8840038426192,1343
1221.0222657387353,1438
1223.1599596572241,1317
1225.2970858363137,1347
1227.4336445143094,1366
1229.5696359295966,1336
1231.705060320639,1406
1233.8399179259786,1368
1235.9742089842384,1350
1238.107933734118,1420
1240.2410924143974,1415
1242.373685263935,1398
1244.5057125216676,1432
1246.6371744266116,1424
1248.7680712178621,1418
1250.898403134593,1364
1253.028170416058,1470
1255.1573733015875,1447
1257.2860120305932,1406
1259.4140868425648,1427
1261.54159797707,1466
1263.6685456737569,1450
1265.7949301723515,1484
1267.9207517126597,1433
1270.046010534565,1493
1272.1707068780306,1480
1274.2948409830983,1477
1276.4184130898889,1475
1278.541423438603,1529
1280.6638722695184,1450
1282.785759822993,1488
1284.9070863394636,1504
1287.0278520594447,1498
1289.1480572235314,1460
1291.2677020723963,1530
1293.3867868467923,1480
1295.5053117875495,1550
1297.623277135579,1554
1299.740683131868,1511
1301.8575300174857,1576
1303.973818033578,1635
1306.0895474213703,1631
1308.2047184221678,1586
1310.3193312773528,1683
1312.4333862283888,1607
1314.5468835168163,1554
1316.659823384255,1581
1318.7722060724045,1673
1320.8840318230418,1605
1322.9953008780249,1609
1325.1060134792888,1617
1327.2161698688478,1588
1329.3257702887959,1583
1331.4348149813054,1616
1333.5433041886276,1610
1335.6512381530933,1617
1337.7586171171101,1627
1339.8654413231675,1613
1341.9717110138317,1616
1344.0774264317488,1581
1346.1825878196432,1612
1348.2871954203192,1579
1350.3912494766587,1581
1352.4947502316231,1590
1354.5976979282532,1580
1356.7000928096686,1492
1358.8019351190665,1515
1360.9032250997243,1534
1363.0039629949988,1527
1365.1041490483235,1552
1367.2037835032133,1562
1369.3028666032606,1573
1371.401398592137,1570
1373.4993797135926,1519
1375.5968102114575,1503
1377.6936903296396,1560
1379.7900203121262,1518
1381.8858004029835,1530
1383.9810308463561,1527
1386.075711886469,1528
1388.1698437676241,1567
1390.2634267342032,1539
1392.356461030667,1609
1394.4489469015557,1549
1396.5408845914872,1552
1398.6322743451592,1525
1400.7231164073469,1520
1402.813411022907,1604
1404.903158436773,1599
1406.9923588939578,1580
1409.0810126395531,1574
1411.1691199187303,1586
1413.2566809767386,1543
1415.343696058907,1570
1417.4301654106425,1602
1419.5160892774315,1645
1421.6014679048399,1603
1423.6863015385125,1635
1425.7705904241707,1626
1427.8543348076178,1629
1429.9375349347342,1735
1432.0201910514802,1708
1434.102303403894,1697
1436.1838722380944,1693
1438.2648978002767,1727
1440.3453803367174,1714
1442.4253200937692,1770
1444.5047173178677,1671
1446.5835722555234,1744
1448.6618851533285,1779
1450.739656257952,1835
1452.8168858161434,1822
1454.8935740747306,1783
1456.96972128062,1865
1459.045327680797,1836
1461.120393522327,1956
1463.1949190523528,1925
1465.2689045180973,1955
1467.3423501668608,1929
1469.415256246024,1990
1471.4876230030463,2013
1473.559450685465,2035
1475.6307395408976,1966
1477.7014898170391,2080
1479.771701761665,2123
1481.8413756226287,2101
1483.9105116478618,2136
1485.9791100853772,2087
1488.0471711832643,2195
1490.1146951896926,2246
1492.1816823529098,2216
1494.2481329212433,2189
1496.3140471430984,2205
1498.3794252669609,2236
1500.4442675413939,2332
1502.5085742150404,2316
1504.572345536622,2342
1506.6355817549388,2435
1508.6982831188702,2383
1510.7604498773744,2362
1512.8220822794883,2235
1514.8831805743293,2332
1516.9437450110909,2355
1519.003775839048,2372
1521.0632733075522,2401
1523.1222376660367,2355
1525.1806691640113,2421
1527.2385680510652,2499
1529.2959345768668,2484
1531.3527689911643,2420
1533.4090715437833,2555
1535.4648424846291,2502
1537.5200820636855,2587
1539.5747905310159,2541
1541.6289681367616,2532
1543.6826151311434,2598
1545.7357317644614,2655
1547.7883182870937,2655
1549.8403749494987,2714
1551.8919020022113,2755
1553.9428996958477,2807
1555.9933682811015,2895
1558.0433080087469,2961
1560.0927191296346,2911
1562.1416018946961,3005
1564.1899565549415,3015
1566.2377833614592,2982
1568.2850825654164,3037
1570.3318544180606,2857
1572.3780991707158,2818
1574.423817074788,2901
1576.4690083817595,2685
1578.5136733431923,2751
1580.5578122107272,2608
1582.601425236085,2497
1584.6445126710646,2386
1586.6870747675434,2314
1588.7291117774776,2188
1590.7706239529034,2195
1592.8116115459347,2106
1594.8520748087658,2122
1596.8920139936686,2045
1598.9314293529933,1952
1600.9703211391711,1896
1603.008689604711,1933
1605.0465350022005,1918
1607.0838575843068,1839
1609.1206576037753,1801
1611.1569353134305,1735
1613.1926909661765,1676
1615.2279248149953,1698
1617.2626371129481,1643
1619.2968281131757,1646
1621.3304980688963,1566
1623.3636472334088,1558
1625.39627586009,1581
1627.428384202396,1543
1629.459972513861,1490
1631.4910410480993,1552
1633.5215900588028,1529
1635.551619799744,1537
1637.5811305247717,1511
1639.6101224878166,1506
1641.6385959428862,1427
1643.6665511440683,1509
1645.693988345528,1448
1647.7209078015112,1484
1649.7473097663405,1442
1651.7731944944203,1454
1653.7985622402307,1449
1655.823413258333,1396
1657.847747803366,1376
1659.8715661300494,1380
1661.8948684931793,1432
1663.9176551476316,1432
1665.9399263483624,1371
1667.9616823504057,1382
1669.982923408873,1394
1672.0036497789574,1411
1674.0238617159293,1387
1676.043559475138,1371
1678.0627433120121,1365
1680.081413482059,1360
1682.0995702408654,1363
1684.117213844096,1433
1686.134344547495,1385
1688.1509626068864,1410
1690.1670682781705,1318
1692.182661817329,1395
1694.1977434804217,1351
1696.2123135235875,1376
1698.226372203043,1487
1700.2399197750851,1397
1702.2529564960905,1396
1704.2654826225112,1382
1706.277498410882,1345
1708.2890041178139,1378
1710.2999999999988,1362
1712.3104863142066,1356
1714.3204633172854,1351
1716.329931266163,1402
1718.3388904178469,1375
1720.3473410294214,1352
1722.3552833580516,1373
1724.3627176609807,1387
1726.3696441955308,1390
1728.3760632191033,1374
1730.3819749891782,1345
1732.3873797633146,1326
1734.3922777991502,1362
1736.3966693544012,1350
1738.4005546868639,1322
1740.4039340544127,1334
1742.406807715001,1307
1744.4091759266616,1348
1746.4110389475054,1287
1748.4123970357223,1308
1750.413250449582,1314
1752.4135994474318,1374
1754.4134442876993,1325
1756.4127852288902,1314
1758.4116225295893,1314
1760.4099564484595,1340
1762.407787244244,1358
1764.405115175764,1294
1766.4019405019203,1325
1768.3982634816916,1316
1770.3940843741357,1322
1772.3894034383907,1319
1774.3842209336717,1260
1776.378537119274,1272
1778.372352254571,1275
1780.3656665990156,1269
1782.3584804121397,1259
1784.3507939535534,1261
1786.3426074829463,1330
1788.3339212600863,1263
1790.3247355448211,1296
1792.3150505970766,1286
1794.3048666768573,1279
1796.2941840442477,1286
1798.2830029594106,1249
1800.2713236825884,1295
1802.2591464741004,1240
1804.2464715943465,1287
1806.2332993038058,1237
1808.2196298630352,1228
1810.2054635326708,1282
1812.190800573428,1241
1814.175641246101,1339
1816.1599858115628,1289
1818.1438345307652,1245
1820.127187664738,1240
1822.1100454745924,1287
1824.092408221516,1255
1826.0742761667766,1239
1828.055649571721,1246
1830.0365286977735,1265
1832.0169138064398,1249
1833.9968051593014,1243
1835.9762030180214,1332
1837.9551076443408,1226
1839.9335193000788,1244
1841.9114382471344,1250
1843.888864747485,1262
1845.8657990631878,1235
1847.842241456378,1286
1849.8181921892697,1303
1851.7936515241558,1210
1853.7686197234098,1287
1855.7430970494815,1270
1857.7170837649014,1297
1859.6905801322787,1295
1861.6635864143004,1277
1863.6361028737338,1244
1865.608129773424,1243
1867.5796673762961,1307
1869.5507159453537,1299
1871.521275743678,1282
1873.4913470344313,1295
1875.4609300808534,1291
1877.4300251462632,1278
1879.3986324940588,1304
1881.366752387717,1319
1883.3343850907936,1320
1885.3015308669228,1262
1887.268189979819,1308
1889.2343626932739,1314
1891.2000492711595,1289
1893.1652499774254,1319
1895.1299650761011,1288
1897.0941948312952,1305
1899.0579395071945,1289
1901.0211993680641,1302
1902.98397467825,1254
1904.9462657021745,1338
1906.9080727043415,1318
1908.869395949332,1335
1910.8302357018065,1299
1912.790592226504,1294
1914.7504657882428,1310
1916.7098566519212,1310
1918.6687650825133,1287
1920.6271913450764,1336
1922.5851357047422,1248
1924.5425984267245,1257
1926.499579776314,1260
1928.4560800188833,1391
1930.4120994198802,1304
1932.367638244833,1281
1934.32269675935,1255
1936.2772752291175,1370
1938.231373919899,1257
1940.1849930975404,1279
1942.1381330279637,1324
1944.0907939771696,1246
1946.0429762112412,1235
1947.9946799963363,1218
1949.9459055986945,1290
1951.896653284633,1254
1953.8469233205478,1299
1955.7967159729142,1295
1957.7460315082863,1275
1959.6948701932974,1323
1961.6432322946594,1315
1963.5911180791632,1283
1965.5385278136787,1261
1967.4854617651545,1264
1969.4319202006182,1279
1971.377903387176,1267
1973.3234115920136,1294
1975.268445082395,1292
1977.2130041256642,1237
1979.1570889892423,1252
1981.1006999406304,1246
1983.04383724741,1256
1984.986501177238,1239
1986.928691997853,1244
1988.8704099770712,1234
1990.811655382789,1211
1992.7524284829801,1202
1994.692729545698,1226
1996.6325588390755,1267
1998.5719166313224,1273
2000.5108031907307,1266
2002.4492187856677,1267
2004.387163684583,1218
2006.3246381560011,1308
2008.2616424685298,1234
2010.1981768908527,1225
2012.1342416917332,1216
2014.069837140014,1305
2016.0049635046162,1194
2017.9396210545406,1191
2019.8738100588666,1226
2021.8075307867502,1209
2023.740783507431,1291
2025.6735684902228,1216
2027.6058860045214,1252
2029.5377363198004,1234
2031.4691197056118,1201
2033.4000364315875,1240
2035.3304867674374,1249
2037.260470982952,1231
2039.189989347998,1265
2041.1190421325232,1207
2043.047629606554,1162
2044.9757520401945,1262
2046.9034097036288,1228
2048.8306028671195,1224
2050.7573318010086,1231
2052.683596775716,1227
2054.609398061742,1183
2056.5347359296647,1212
2058.4596106501403,1242
2060.384022493906,1229
2062.3079717317764,1169
2064.231458634646,1215
2066.1544834734873,1225
2068.077046519352,1219
2069.99914804337,1229
2071.9207883167524,1225
2073.8419676107865,1241
2075.7626861968406,1236
2077.6829443463607,1211
2079.6027423308715,1219
2081.522080421977,1248
2083.440958891362,1173
2085.359378010786,1274
2087.2773380520907,1222
2089.194839287196,1201
2091.111881988101,1216
2093.0284664268825,1207
2094.9445928756973,1258
2096.86026160678,1189
2098.775472892446,1213
2100.690227005088,1213
2102.604524217178,1204
2104.5183648012676,1224
2106.431749029985,1235
2108.34467717604,1250
2110.2571495122206,1151
2112.169166311393,1225
2114.080727846503,1207
2115.9918343905747,1196
2117.902486216711,1203
2119.8126835980956,1224
2121.722426807987,1265
2123.6317161197285,1201
2125.5405518067364,1235
2127.448934142509,1250
2129.356863400624,1307
2131.264339854737,1257
2133.1713637785815,1274
2135.077935445972,1265
2136.9840551308002,1229
2138.889723107037,1241
2140.7949396487334,1288
2142.699705030018,1237
2144.6040195250994,1213
2146.507883408264,1219
2148.4112969538774,1242
2150.3142604363848,1219
2152.2167741303097,1263
2154.1188383102535,1208
2156.0204532508997,1240
2157.9216192270064,1284
2159.822336513414,1289
2161.7226053850413,1281
2163.622426116884,1242
2165.5217989840185,1222
2167.4207242616,1265
2169.319202224862,1277
2171.2172331491165,1264
2173.1148173097563,1244
2175.0119549822507,1269
2176.90864644215,1220
2178.8048919650823,1270
2180.7006918267534,1270
2182.596046302952,1307
2184.4909556695407,1311
2186.3854202024645,1306
2188.279440177746,1255
2190.173015871487,1248
2192.066147559868,1308
2193.958835519149,1290
2195.851080025667,1249
2197.7428813558417,1300
2199.6342397861667,1257
2201.5251555932186,1281
2203.415629053651,1342
2205.3056604441986,1266
2207.19525004167,1263
2209.084398122958,1283
2210.9731049650327,1294
2212.861370844941,1303
2214.749196039812,1390
2216.636580826851,1247
2218.523525483344,1319
2220.410030286655,1295
2222.296095514226,1295
2224.1817214435805,1320
2226.066908352319,1290
2227.951656518121,1303
2229.835966218746,1320
2231.71983773203,1283
2233.6032713358913,1313
2235.486267308324,1275
2237.3688259274036,1301
2239.2509474712824,1334
2241.132632218193,1314
2243.013880446447,1310
2244.8946924344323,1284
2246.7750684606203,1364
2248.6550088035574,1330
2250.534513741871,1339
2252.413583554265,1326
2254.292218519526,1342
2256.170418916517,1278
2258.0481850241786,1291
2259.925517121534,1319
2261.8024154876825,1275
2263.678880401803,1290
2265.5549121431536,1371
2267.430510991071,1295
2269.305677224971,1275
2271.180411124348,1215
2273.0547129687766,1284
2274.9285830379076,1270
2276.8020216114737,1345
2278.6750289692845,1278
2280.5476053912294,1311
2282.4197511572766,1309
2284.2914665474727,1357
2286.162751841943,1331
2288.0336073208937,1378
2289.904033264608,1298
2291.774029953448,1323
2293.6435976678554,1277
2295.5127366883517,1264
2297.381447295534,1240
2299.2497297700825,1264
2301.1175843927526,1240
2302.9850114443825,1181
2304.852011205885,1152
2306.7185839582553,1146
2308.5847299825664,1225
2310.4504495599676,1104
2312.3157429716925,1175
2314.1806104990483,1133
2316.0450524234247,1092
2317.9090690262888,1167
2319.772660589186,1155
2321.635827393742,1165
2323.498569721661,1135
2325.3608878547248,1108
2327.2227820747967,1127
2329.0842526638157,1154
2330.945299903803,1127
2332.805924076857,1149
2334.6661254651535,1163
2336.525904350951,1097
2338.3852610165827,1123
2340.244195744464,1162
2342.102708817088,1127
2343.9608005170253,1129
2345.8184711269287,1163
2347.675720929526,1132
2349.532550207628,1174
2351.38895924412,1193
2353.24494832197,1167
2355.100517724223,1152
2356.955667734004,1163
2358.810398634514,1153
2360.664710709037,1103
2362.5186042409337,1209
2364.3720795136437,1142
2366.225136810686,1183
2368.0777764156583,1189
2369.929998612237,1155
2371.7818036841777,1171
2373.633191915315,1150
2375.484163589562,1145
2377.3347189909114,1180
2379.184858403434,1158
2381.03458211128,1161
2382.8838903986775,1180
2384.732783549936,1171
2386.5812618494406,1169
2388.4293255816588,1157
2390.2769750311327,1189
2392.1242104824883,1161
2393.971032220427,1174
2395.8174405297295,1145
2397.6634356952563,1172
2399.509018001947,1128
2401.3541877348193,1148
2403.1989451789705,1211
2405.043290619576,1166
2406.8872243418905,1167
2408.730746631247,1148
2410.5738577730594,1185
2412.4165580528183,1207
2414.258847756095,1201
2416.100727168537,1105
2417.9421965758734,1160
2419.783256263912,1198
2421.623906518538,1214
2423.4641476257157,1220
2425.303979871491,1156
2427.143403541984,1150
2428.9824189233977,1178
2430.821026302012,1257
2432.6592259641866,1183
2434.497018196361,1243
2436.33440328505,1167
2438.171381516851,1139
2440.00795317844,1155
2441.844118556569,1232
2443.6798779380724,1236
2445.5152316098606,1191
2447.3501798589255,1159
2449.1847229723357,1182
2451.0188612372403,1170
2452.8525949408663,1184
2454.6859243705203,1170
2456.518849813587,1220
2458.3513715575314,1202
2460.183489889895,1183
2462.015205098301,1235
2463.8465174704493,1207
2465.67742729412,1177
2467.5079348571717,1199
2469.338040447542,1208
2471.1677443532476,1212
2472.9970468623833,1177
2474.825948263123,1191
2476.6544488437207,1226
2478.482548892508,1153
2480.310248697896,1216
2482.137548548374,1215
2483.9644487325118,1179
2485.790949538956,1189
2487.617051256433,1208
2489.44275417375,1231
2491.26805857979,1185
2493.0929647635157,1215
2494.917473013971,1221
2496.741583620276,1237
2498.5652968716304,1191
2500.3886130573137,1212
2502.2115324666834,1247
2504.0340553891765,1243
2505.856182114308,1182
2507.6779129316733,1236
2509.499248130945,1237
2511.3201880018764,1258
2513.140732834298,1208
2514.9608829181198,1237
2516.780638543331,1221
2518.6,1212
2520.418967578273,1290
2522.237541568376,1232
2524.0557222606144,1257
2525.8735099453706,1181
2527.6909049131086,1256
2529.507907454368,1203
2531.32451785977,1273
2533.140736420014,1222
2534.9565634258774,1247
2536.771999168218,1301
2538.5870439379714,1316
2540.4016980261526,1284
2542.2159617238544,1326
2544.02983532225,1297
2545.8433191125914,1299
2547.656413386209,1307
2549.4691184345115,1345
2551.2814345489874,1345
2553.093362021204,1353
2554.904901142808,1326
2556.716052205523,1356
2558.526815501153,1391
2560.3371913215824,1351
2562.147179958771,1425
2563.956781704761,1375
2565.7659968516705,1419
2567.5748256916986,1365
2569.3832685171224,1389
2571.1913256202984,1427
2572.9989972936614,1430
2574.806283829725,1428
2576.613185521084,1506
2578.4197026604074,1459
2580.2258355404483,1457
2582.031584454035,1443
2583.836949694077,1465
2585.6419315535613,1462
2587.4465303255533,1464
2589.2507463032002,1446
2591.0545797797245,1403
2592.8580310484303,1471
2594.6611004026995,1440
2596.463788135992,1498
2598.266094541849,1485
2600.0680199138874,1474
2601.869564545807,1460
2603.670728731383,1440
2605.4715127644704,1443
2607.2719169390048,1480
2609.071941548998,1495
2610.8715868885433,1463
2612.670853251811,1510
2614.469740933052,1465
2616.268250226594,1484
2618.0663814268455,1418
2619.864134828292,1486
2621.6615107255006,1425
2623.458509413115,1419
2625.2551311858597,1376
2627.0513763385347,1390
2628.8472451660223,1420
2630.6427379632833,1377
2632.4378550253564,1356
2634.232596647359,1403
2636.026963124488,1375
2637.8209547520187,1410
2639.6145718253065,1360
2641.407814639785,1338
2643.200683490966,1391
2644.9931786744414,1346
2646.7853004858807,1371
2648.577049221034,1358
2650.3684251757277,1329
2652.1594286458712,1369
2653.9500599274484,1267
2655.740319316525,1285
2657.5302071092437,1257
2659.3197236018286,1289
2661.10886909058,1312
2662.8976438718782,1291
2664.686048242183,1311
2666.4740824980327,1327
2668.2617469360443,1276
2670.0490418529134,1267
2671.8359675454153,1309
2673.622524310403,1230
2675.408712444811,1262
2677.1945322456495,1253
2678.979984010009,1263
2680.76506803506,1246
2682.5497846180497,1217
2684.334134056306,1236
2686.1181166472343,1202
2687.9017326883213,1211
2689.6849824771293,1227
2691.4678663113013,1224
2693.2503844885596,1240
2695.032537306705,1202
2696.8143250636167,1256
2698.5957480572542,1224
2700.3768065856534,1228
2702.1575009469316,1191
2703.937831439283,1207
2705.717798360982,1236
2707.4974020103837,1162
2709.276642685917,1172
2711.055520686095,1158
2712.834036309506,1227
2714.612189854819,1112
2716.389981620782,1191
2718.1674119062204,1130
2719.944481010041,1175
2721.721189231226,1179
2723.4975368688415,1175
2725.273524222027,1218
2727.0491515900053,1138
2728.824419272075,1183
2730.5993275676146,1154
2732.3738767760838,1137
2734.148067197016,1146
2735.921899130031,1113
2737.6953728748194,1117
2739.468488731156,1154
2741.2412469988926,1132
2743.0136479779617,1205
2744.785691968372,1155
2746.5573792702116,1116
2748.3287101836504,1154
2750.099685008934,1142
2751.870304046388,1181
2753.640567596418,1129
2755.4104759595057,1148
2757.1800294362156,1189
2758.949228327187,1137
2760.7180729331412,1106
2762.486563554877,1104
2764.254700493272,1107
2766.022484049284,1196
2767.789914523947,1145
2769.5569922183786,1116
2771.3237174337705,1118
2773.090090471394,1174
2774.8561116326036,1083
2776.6217812188274,1072
2778.3870995315756,1078
2780.1520668724356,1125
2781.9166835430747,1137
2783.6809498452394,1115
2785.444866080754,1168
2787.2084325515225,1116
2788.971649559527,1135
2790.73451740683,1083
2792.4970363955713,1129
2794.2592068279705,1137
2796.0210290063264,1145
2797.7825032330147,1071
2799.543629810493,1174
2801.304409041296,1166
2803.0648412280366,1161
2804.8249266734088,1127
2806.5846656801846,1178
2808.344058551212,1113
2810.1031055894246,1106
2811.8618070978273,1179
2813.6201633795085,1224
2815.378174737636,1125
2817.1358414754536,1097
2818.893163896285,1139
2820.6501423035334,1178
2822.4067770006814,1122
2824.1630682912883,1146
2825.9190164789957,1125
2827.6746218675207,1131
2829.429884760661,1100
2831.184805462294,1092
2832.9393842763743,1111
2834.693621506936,1129
2836.4475174580916,1137
2838.201072434034,1147
2839.954286739034,1088
2841.707160677441,1101
2843.459694553685,1138
2845.2118886722724,1115
2846.96374333779,1148
2848.7152588549034,1121
2850.4664355283567,1155
2852.217273662973,1138
2853.9677735636546,1161
2855.7179355353833,1131
2857.4677598832186,1107
2859.217246912299,1139
2860.9663969278427,1119
2862.715210235146,1136
2864.4636871395846,1149
2866.211827946614,1079
2867.9596329617652,1077
2869.7071024906536,1082
2871.4542368389684,1138
2873.20103631248,1136
2874.947501217038,1114
2876.6936318585695,1102
2878.4394285430812,1084
2880.1848915766604,1101
2881.9300212654707,1100
2883.6748179157553,1066
2885.4192818338374,1096
2887.1634133261173,1092
2888.907212699077,1151
2890.6506802592744,1085
2892.393816313348,1130
2894.1366211680142,1093
2895.8790951300693,1082
2897.621238506388,1140
2899.363051603925,1119
2901.1045347297118,1167
2902.8456881908596,1143
2904.58651229456,1124
2906.327007348081,1109
2908.067173658772,1151
2909.8070115340597,1074
2911.5465212814497,1090
2913.285703208527,1103
2915.0245576229563,1127
2916.7630848324807,1152
2918.5012851449196,1126
2920.2391588681758,1118
2921.976706310227,1119
2923.7139277791334,1113
2925.4508235830313,1085
2927.187394030137,1115
2928.923639428745,1130
2930.6595600872306,1118
2932.395156314046,1109
2934.1304284177218,1095
2935.8653767068713,1159
2937.6000014901815,1091
2939.3343030764227,1164
2941.068281774442,1184
2942.8019378931644,1085
2944.5352717415976,1135
2946.2682836288236,1130
2948.0009738640065,1085
2949.7333427563885,1104
2951.465390615289,1109
2953.1971177501086,1160
2954.9285244703265,1089
2956.6596110855,1147
2958.3903779052657,1120
2960.1208252393385,1110
2961.8509533975125,1092
2963.5807626896617,1078
2965.3102534257378,1124
2967.0394259157715,1082
2968.768280469873,1101
2970.496817398232,1148
2972.2250370111146,1167
2973.952939618869,1110
2975.6805255319196,1130
2977.4077950607707,1147
2979.134748516006,1134
2980.861386208289,1133
2982.587708448359,1132
2984.313715547037,1147
2986.039407815222,1099
2987.764785563891,1112
2989.489849104102,1080
2991.2145987469908,1097
2992.9390348037705,1113
2994.6631575857346,1059
2996.3869674042576,1058
2998.1104645707887,1135
2999.83364939686,1087
3001.5565221940783,1045
3003.2790832741334,1112
3005.0013329487924,1100
3006.7232715298996,1100
3008.4448993293804,1101
3010.166216659239,1109
3011.887223831558,1137
3013.607921158498,1091
3015.3283089522993,1079
3017.0483875252826,1097
3018.7681571898443,1066
3020.4876182584626,1083
3022.2067710436927,1077
3023.9256158581707,1143
3025.644153014609,1116
3027.362382825801,1086
3029.0803056046193,1050
3030.797921664012,1075
3032.5152313170106,1115
3034.2322348767225,1096
3035.9489326563353,1075
3037.665324969115,1096
3039.3814121284063,1084
3041.097194447633,1103
3042.812672240299,1107
3044.5278458199855,1104
3046.2427155003525,1061
3047.9572815951406,1118
3049.671544418167,1097
3051.38550428333,1097
3053.0991615046073,1109
3054.812516396051,1117
3056.5255692717974,1075
3058.2383204460575,1112
3059.9507702331257,1119
3061.662918947372,1122
3063.3747669032446,1099
3065.0863144152736,1057
3066.7975617980674,1060
3068.508509366309,1112
3070.219157434767,1130
3071.9295063182844,1089
3073.639556331785,1102
3075.3493077902704,1122
3077.058761008821,1125
3078.7679163025964,1093
3080.476773986837,1088
3082.1853343768594,1105
3083.89359778806,1129
3085.6015645359153,1090
3087.3092349359786,1079
3089.016609303884,1083
3090.7236879553434,1116
3092.4304712061476,1046
3094.136959372166,1107
3095.843152769349,1132
3097.5490517137237,1073
3099.2546565213966,1131
3100.959967508554,1141
3102.66498499146,1093
3104.3697092864577,1054
3106.0741407099695,1102
3107.778279578498,1103
3109.482126208622,1084
3111.1856809170004,1079
3112.8889440203716,1119
3114.5919158355528,1127
3116.294596679439,1132
3117.996986869006,1047
3119.6990867213062,1115
3121.4008965534726,1073
3123.102416682717,1142
3124.803647426329,1139
3126.5045891016784,1097
3128.205242026213,1091
3129.90560651746,1086
3131.605682893025,1110
3133.3054714705922,1086
3135.0049725679282,1096
3136.7041865028714,1079
3138.4031135933465,1080
3140.101754157353,1114
3141.800108512971,1085
3143.498176978357,1082
3145.1959598717494,1062
3146.8934575114636,1104
3148.5906702158954,1081
3150.2875983035183,1099
3151.9842420928853,1042
3153.680601902627,1059
3155.376678051456,1082
3157.07247085816,1066
3158.767980641609,1112
3160.463207720748,1112
3162.158152414606,1102
3163.8528150422862,1061
3165.5471959229726,1089
3167.2412953759303,1151
3168.9351137204976,1116
3170.628651276098,1110
3172.3219083622307,1121
3174.014885298474,1088
3175.707582404485,1096
3177.4000000000005,1053
3179.092138404835,1089
3180.7839979388846,1075
3182.47557892212,1093
3184.166881674594,1120
3185.8579065164386,1110
3187.5486537678626,1061
3189.2391237491547,1095
3190.9293167806827,1075
3192.6192331828934,1059
3194.3088732763117,1101
3195.998237381542,1053
3197.687325819268,1042
3199.376138910251,1114
3201.064676975334,1099
3202.7529403354347,1043
3204.4409293115523,1070
3206.1286442247647,1097
3207.816085396229,1071
3209.5032531471825,1107
3211.190147798936,1061
3212.8767696728846,1051
3214.5631190905015,1083
3216.2491963733373,1084
3217.9350018430214,1081
3219.6205358212637,1031
3221.305798629851,1085
3222.990790590651,1070
3224.6755120256103,1020
3226.359963256751,1072
3228.0441446061795,1051
3229.7280563960758,1031
3231.411698948703,1054
3233.0950725863995,1077
3234.778177631587,1031
3236.461014406761,1101
3238.1435832345005,1102
3239.8258844374595,1064
3241.507918338374,1033
3243.1896852600576,1098
3244.8711855254023,1040
3246.552419457381,1105
3248.233387379042,1064
3249.914089613516,1092
3251.59452648401,1140
3253.274698313813,1054
3254.95460542629,1046
3256.6342481448855,1084
3258.313626793125,1113
3259.9927416946084,1100
3261.6715931730196,1064
3263.3501815521176,1042
3265.0285071557437,1027
3266.706570307815,1084
3268.3843713323286,1117
3270.0619105533615,1074
3271.739188295068,1058
3273.4162048816834,1031
3275.0929606375184,1103
3276.769455886966,1085
3278.445690954498,1062
3280.1216661646613,1089
3281.797381842087,1068
3283.4728383114807,1075
3285.1480358976296,1110
3286.8229749253996,1098
3288.4976557197333,1066
3290.172078605655,1069
3291.846243908266,1039
3293.5201519527463,1061
3295.193803064357,1101
3296.8671975684374,1068
3298.5403357904024,1074
3300.21321805575,1044
3301.8858446900567,1093
3303.558216018975,1066
3305.23033236824,1078
3306.9021940636603,1045
3308.57380143113,1076
3310.2451547966184,1082
3311.916254486174,1034
3313.5871008259246,1071
3315.2576941420766,1082
3316.9280347609147,1056
3318.5981230088046,1073
3320.2679592121895,1017
3321.9375436975924,1072
3323.606876791612,1049
3325.27595882093,1065
3326.944790112305,1044
3328.6133709925753,1068
3330.2817017886573,1069
3331.949782827547,1069
3333.617614436319,1051
3335.2851969421245,1045
3336.952530672199,1051
3338.619615953853,1055
3340.286453114475,1076
3341.9530424815357,1113
3343.619384382583,1103
3345.2854791452437,1118
3346.951327097224,1067
3348.6169285663073,1051
3350.2822838803577,1111
3351.947393367319,1093
3353.61225735521,1074
3355.2768761721345,1123
3356.9412501462693,1052
3358.605379605873,1045
3360.2692648792827,1048
3361.9329062949146,1044
3363.596304181263,1043
