CollectionTime,9/19/2024 11:58:36 AM
ExposureUsed,3
CalibratedSpectrum
-962.7078968117929,554
-959.9714848408522,591
-957.2358232597828,613
-954.5009119013725,632
-951.7667505983302,580
-949.0333391832855,639
-946.3006774887896,600
-943.5687653473143,586
-940.837602591253,593
-938.1071890529199,629
-935.3775245645503,600
-932.6486089583007,597
-929.9204420662485,608
-927.1930237203925,611
-924.4663537526524,652
-921.7404319948689,614
-919.0152582788041,664
-916.2908324361409,653
-913.5671542984834,607
-910.8442236973568,627
-908.1220404642074,613
-905.4006044304027,610
-902.679915427231,594
-899.959973285902,595
-897.2407778375464,588
-894.5223289132158,604
-891.8046263438832,575
-889.0876699604426,592
-886.3714595937089,580
-883.6559950744183,602
-880.9412762332282,569
-878.2273029007168,573
-875.5140749073835,608
-872.8015920836489,587
-870.0898542598545,582
-867.3788612662631,589
-864.6686129330585,586
-861.9591090903457,609
-859.2503495681506,567
-856.5423341964203,602
-853.8350628050229,596
-851.1285352237478,599
-848.4227512823054,619
-845.7177108103272,606
-843.0134136373656,604
-840.3098595928943,630
-837.6070485063082,603
-834.9049802069229,587
-832.2036545239757,619
-829.5030712866244,584
-826.8032303239481,621
-824.1041314649472,590
-821.4057745385428,615
-818.7081593735775,611
-816.0112857988148,589
-813.3151536429393,622
-810.6197627345566,636
-807.9251129021936,592
-805.2312039742981,594
-802.5380357792392,623
-799.8456081453069,607
-797.1539209007124,617
-794.462973873588,616
-791.772766891987,645
-789.083299783884,591
-786.3945723771743,623
-783.7065844996748,643
-781.0193359791231,620
-778.3328266431781,608
-775.6470563194197,586
-772.9620248353489,615
-770.2777320183878,653
-767.5941776958798,643
-764.9113616950891,654
-762.2292838432011,599
-759.5479439673222,625
-756.8673418944801,623
-754.1874774516235,603
-751.5083504656222,599
-748.8299607632671,638
-746.15230817127,669
-743.475392516264,644
-740.7992136248035,610
-738.1237713233636,636
-735.4490654383407,618
-732.7750957960521,660
-730.1018622227365,657
-727.4293645445534,618
-724.7576025875837,661
-722.0865761778291,629
-719.4162851412126,651
-716.7467293035781,660
-714.0779084906909,643
-711.409822528237,652
-708.7424712418238,657
-706.0758544569796,676
-703.4099719991541,655
-700.7448236937178,647
-698.0804093659622,655
-695.4167288411002,637
-692.7537819442656,647
-690.0915685005134,617
-687.4300883348199,660
-684.7693412720819,642
-682.1093271371178,682
-679.4500457546669,643
-676.7914969493897,661
-674.1336805458676,705
-671.4765963686034,672
-668.8202442420206,684
-666.1646239904642,687
-663.5097354382001,655
-660.8555784094151,669
-658.2021527282176,680
-655.5494582186366,691
-652.8974947046223,694
-650.2462620100463,714
-647.5957599587009,693
-644.9459883742998,682
-642.2969470804776,711
-639.6486359007902,701
-637.0010546587141,751
-634.3542031776476,738
-631.7080812809096,683
-629.0626887917401,706
-626.4180255333008,673
-623.7740913286734,818
-621.1308860008619,786
-618.4884093727904,709
-615.8466612673046,698
-613.2056415071715,715
-610.5653499150785,705
-607.9257863136347,762
-605.28695052537,756
-602.6488423727357,703
-600.0114616781036,717
-597.3748082637674,747
-594.7388819519412,783
-592.1036825647604,842
-589.4692099242818,772
-586.8354638524829,744
-584.2024441712624,771
-581.5701507024403,756
-578.9385832677575,734
-576.3077416888759,770
-573.6776257873787,692
-571.0482353847704,741
-568.4195703024757,771
-565.7916303618415,778
-563.164415384135,749
-560.5379251905453,754
-557.9121596021815,721
-555.2871184400748,764
-552.6628015251767,746
-550.0392086783606,805
-547.4163397204204,761
-544.794194472071,805
-542.1727727539491,858
-539.5520743866118,777
-536.9320991905377,807
-534.3128469861261,846
-531.6943175936979,844
-529.0765108334947,833
-526.4594265256793,943
-523.8430644903358,997
-521.2274245474689,1142
-518.612506517005,1247
-515.9983102187913,1158
-513.3848354725959,1251
-510.77208209810846,1267
-508.16004991493924,1333
-505.5487387426199,1314
-502.9381484006032,1330
-500.3282787082628,1288
-497.71912948489364,1169
-495.1107005497117,1086
-492.5029917218539,1040
-489.8960028203786,933
-487.28973366426493,875
-484.68418407241325,851
-482.07935386364494,866
-479.47524285670266,843
-476.87185087025,864
-474.2691777228715,908
-471.66722323307334,847
-469.0659872192821,860
-466.4654694998459,863
-463.86566989303384,872
-461.26658821703614,885
-458.66822428996414,889
-456.07057792985,932
-453.4736489546475,883
-450.877437182231,881
-448.28194243039627,886
-445.68716451686,871
-443.09310325926003,895
-440.49975847515555,874
-437.9071299820263,838
-435.31521759727354,827
-432.72402113821954,869
-430.13354042210767,918
-427.5437752661022,934
-424.95472548728867,931
-422.36639090267386,912
-419.7787713291855,971
-417.1918665836721,946
-414.60567648290385,948
-412.0202008435715,962
-409.4354394822874,942
-406.8513922155845,930
-404.26805885991723,1024
-401.685439231661,1024
-399.103533147112,947
-396.522340422488,947
-393.9418608739278,945
-391.3620943174908,942
-388.7830405691583,915
-386.2046994448317,908
-383.6270707603344,860
-381.05015433141045,805
-378.473949973725,832
-375.8984575028645,823
-373.32367673433623,692
-370.74960748356875,703
-368.1762495659117,631
-365.60360279663576,560
-363.03166699093265,542
-360.4604419639154,534
-357.8899275306178,512
-355.32012350599507,480
-352.7510297049233,503
-350.1826459421999,513
-347.61497203254316,491
-345.04800779059235,455
-342.4817530309082,482
-339.91620756797226,532
-337.35137121618743,614
-334.7872437898774,545
-332.22382510328725,494
-329.66111497058273,502
-327.09911320585127,509
-324.53781962310075,474
-321.9772340362607,499
-319.4173562591816,481
-316.8581861056348,503
-314.2997233893127,465
-311.7419679238294,431
-309.1849195227194,471
-306.62857799943856,513
-304.0729431673641,528
-301.51801483979375,500
-298.963792829947,463
-296.41027695096386,527
-293.85746701590574,595
-291.3053628377552,612
-288.7539642294155,566
-286.2032710037115,646
-283.65328297338897,658
-281.1039999511146,632
-278.5554217494762,577
-276.007548180983,578
-273.4603790580651,612
-270.9139141930734,602
-268.3681533982807,567
-265.8230964858798,649
-263.27874326798565,696
-260.7350935566336,717
-258.1921471637804,730
-255.6499039013039,681
-253.10836358100266,738
-250.56752601459698,732
-248.02739101372765,719
-245.48795838995704,738
-242.94922795476816,657
-240.41119951956557,678
-237.8738728956746,688
-235.33724789434166,711
-232.80132432673452,610
-230.2661020039418,602
-227.73158073697357,684
-225.19776033676033,763
-222.66464061415422,764
-220.1322213799284,703
-217.60050244477725,744
-215.06948361931552,770
-212.53916471408013,963
-210.00954553952818,957
-207.48062590603843,784
-204.9524056239104,868
-202.4248845033651,882
-199.8980623545441,893
-197.37193898751036,929
-194.84651421224817,946
-192.32178783866232,874
-189.79775967657952,906
-187.27442953574644,1134
-184.7517972258321,992
-182.2298625564256,881
-179.7086253370378,952
-177.18808537710026,1087
-174.66824248596583,1104
-172.14909647290835,973
-169.6306471471229,798
-167.11289431772548,916
-164.59583779375328,1029
-162.07947738416453,1195
-159.5638128978386,1333
-157.04884414357605,1382
-154.53457093009854,1354
-152.02099306604828,1007
-149.50811035998936,1024
-146.99592262040665,1463
-144.48442965570587,1655
-141.97363127421409,1705
-139.46352728417958,1598
-136.95411749377126,1365
-134.44540171107985,1012
-131.93737974411636,1026
-129.43005140081357,1311
-126.92341648902493,1627
-124.41747481652521,1903
-121.91222619101006,1957
-119.40767042009657,1833
-116.90380731132257,1595
-114.40063667214702,1784
-111.8981583099503,2832
-109.3963720320337,4279
-106.89527764561933,6865
-104.39487495785067,10265
-101.89516377579241,13755
-99.39614390642998,17844
-96.89781515667039,19679
-94.40017733334128,18822
-91.90323024319173,13119
-89.40697369289148,8296
-86.91140748903172,5498
-84.41653143812482,8237
-81.92234534660395,16746
-79.42884902082358,25246
-76.93604226705907,30079
-74.4439248915071,30054
-71.95249670028534,26280
-69.46175749943245,20178
-66.97170709490854,15535
-64.48234529259423,9969
-61.99367189829195,8767
-59.50568671772464,9831
-57.01838955653636,9022
-54.53178022029283,8220
-52.045858514480074,7944
-49.560624244506016,9256
-47.07607721569923,10743
-44.59221723330904,10153
-42.10904410250669,11019
-39.62655762838392,10938
-37.14475761595372,10316
-34.66364387015028,12424
-32.18321619582866,16053
-29.70347439776515,15927
-27.224418280657005,15876
-24.74604764912317,22260
-22.26836230770266,39752
-19.7913620608565,65035
-17.315046712966478,65035
-14.83941606833514,65035
-12.36446993118659,65035
-9.89020810566592,65035
-7.416630395839093,65035
-4.94373660569363,65035
-2.471526539137585,65035
-6.821210263296962E-13,65035
2.47084320796705,65035
4.941003281093458,65035
7.410480415786196,65035
9.879274808531363,65035
12.347386655893956,65035
14.814816154518212,65035
17.28156350112681,65035
19.74762889252179,65035
22.21301252558385,24461
24.67771459727237,6127
27.141735304626195,5995
29.605074844762612,8179
32.06773341487792,6742
34.52971121224755,5455
36.99100843422559,4769
39.45162527824516,3458
41.91156194181792,3717
44.370818622535126,5218
46.82939551806646,3708
49.287292826160524,5439
51.74451074464503,7659
54.201049471426245,4822
56.65690920448981,2625
59.112090141899785,1851
61.56659248179983,2057
64.02041642241159,2804
66.4735621620365,2886
68.92602989905402,3252
71.37781983192338,3641
73.82893215918205,2836
76.27936707944684,2230
78.72912479141326,2469
81.17820549385567,2564
83.62660938562783,2762
86.07433666566146,1855
88.5213875329681,1299
90.96776218663751,1568
93.41346082583925,2004
95.85848364982041,2281
98.30283085790859,2310
100.7465026495089,1861
103.18949922410604,1839
105.63182078126385,1646
108.07346752062438,1500
110.51443964190923,1355
112.95473734491827,1164
115.39436082953114,1140
117.83331029570547,1072
120.27158594347827,1311
122.7091879729652,1375
125.1461165843615,1341
127.58237197794062,1389
130.01795435405518,1492
132.4528639131364,1360
134.88710085569494,1130
137.32066538231982,1274
139.75355769367923,1619
142.1857779905207,1287
144.61732647366978,932
147.04820334403132,840
149.47840880258934,1006
151.90794305040674,1025
154.33680628862487,1266
156.76499871846443,1381
159.19252054122433,1313
161.61937195828352,1292
164.04555317109896,1380
166.47106438120693,1527
168.89590579022217,1630
171.320077599839,1904
173.7435800118302,1953
176.16641322804742,2096
178.58857745042144,2246
181.01007288096173,2133
183.43089972175687,2060
185.85105817497413,2087
188.27054844285988,2204
190.6893707277394,2068
193.10752523201643,2151
195.5250121581745,2136
197.9418317087751,2150
200.3579840864594,2128
202.7734694939469,2251
205.18828813403627,2344
207.6024402096051,2359
210.01592592360964,2479
212.42874547908548,2361
214.84089907914665,2263
217.2523869269868,2239
219.66320922587727,2343
222.0733661791695,2258
224.48285799029293,2221
226.8916848627572,2370
229.29984700014882,2449
231.7073446061355,2414
234.11417788446204,2350
236.520347038953,2468
238.92585227351185,2558
241.33069379212054,2629
243.73487179884035,2580
246.1383864978112,2575
248.541238093252,2664
250.9434267894609,2683
253.34495279081432,2635
255.74581630176783,2636
258.1460175268563,2756
260.54555667069314,2658
262.9444339379703,2647
265.3426495334594,2750
267.7402036620107,2751
270.1370965285529,2672
272.53332833809407,2420
274.9288992957214,2331
277.32380960660055,2329
279.718059475976,2325
282.1116491091717,2428
284.5045787115897,2305
286.89684848871195,2218
289.2884586460981,2199
291.67940938938807,2340
294.0697009242996,2358
296.4593334566299,2308
298.84830719225477,2276
301.23662233712923,2199
303.6242790972866,2175
306.01127767884,2182
308.39761828798066,2176
310.78330113097934,2065
313.16832641418534,2061
315.5526943440269,2115
317.9364051270112,2110
320.3194589697242,2109
322.70185607883093,2122
325.0835966610754,2056
327.4646809232805,1993
329.8451090723478,2010
332.2248813152577,1968
334.6039978590701,1958
336.9824589109231,2005
339.36026467803447,2023
341.7374153677,1933
344.113911187295,1921
346.48975234427337,1969
348.8649390461686,1972
351.2394715005918,2017
353.61334991523415,1965
355.9865744978655,1988
358.35914545633375,1902
360.73106299856715,1927
363.10232733257146,1957
365.47293866643247,1910
367.84289720831396,1951
370.2122031664593,1931
372.5808567491905,1916
374.9488581649083,1829
377.31620762209275,1844
379.6829053293021,1808
382.0489514951745,1852
384.4143463284262,1839
386.7790900378528,1838
389.14318283232853,1828
391.50662492080653,1850
393.86941651231916,1834
396.23155781597745,1834
398.5930490409713,1908
400.9538903965696,1901
403.3140820921202,1832
405.6736243370498,1780
408.03251734086336,1752
410.3907613131465,1860
412.74835646356166,1844
415.10530300185144,1819
417.4616011378372,1826
419.81725108141893,1820
422.1722530425758,1719
424.5266072313656,1805
426.880313857925,1840
429.2333731324701,1705
431.58578526529516,1798
433.9375504667738,1852
436.2886689473588,1831
438.63914091758113,1734
440.9889665880513,1720
443.33814616945835,1742
445.68667987257015,1787
448.03456790823395,1748
450.3818104873759,1666
452.72840782100013,1727
455.07436012019105,1749
457.41966759611057,1778
459.7643304600007,1731
462.10834892318155,1698
464.4517231970525,1710
466.79445349309174,1694
469.1365400228566,1663
471.4779829979826,1819
473.81878263018564,1795
476.15893913125876,1748
478.4984527130747,1808
480.8373235875855,1813
483.17555196682144,1794
485.5131380628919,1768
487.8500820879857,1864
490.1863842543697,1891
492.52204477439034,1973
494.8570638604725,2077
497.1914417251204,2177
499.52517858091653,2353
501.85827464052306,2584
504.19073011668036,2767
506.5225452222086,2973
508.85372017000566,2963
511.18425517304956,3243
513.514150444396,3651
515.8434061971808,4645
518.1720226446176,5178
520.4999999999999,5178
522.8273384766991,4991
525.1540382881666,4850
527.480099647932,4402
529.8055227696037,3452
532.1303078668694,2696
534.454455153496,2201
536.777964843328,1980
539.1008371502907,1913
541.4230722883866,1855
543.744670471698,1870
546.0656319143858,1825
548.3859568306899,1787
550.7056454349294,1760
553.0246979415016,1802
555.3431145648834,1844
557.6608955196306,1845
559.978041020377,1680
562.2945512818363,1756
564.6104265188006,1742
566.9256669461412,1709
569.2402727788082,1724
571.5542442318302,1787
573.8675815203156,1805
576.1802848594508,1811
578.4923544645015,1856
580.8037905508126,1859
583.114593333807,1737
585.4247630289875,1766
587.7342998519354,1765
590.0432040183106,1764
592.3514757438526,1900
594.6591152443794,1794
596.9661227357875,1727
599.2724984340531,1784
601.578242555231,1787
603.8833553154542,1769
606.1878369309362,1763
608.4916876179676,1736
610.7949075929192,1775
613.0974970722403,1773
615.3994562724587,1737
617.7007854101818,1736
620.0014847020951,1774
622.3015543649641,1800
624.6009946156324,1794
626.8998056710224,1770
629.1979877481361,1828
631.4955410640538,1810
633.7924658359349,1831
636.0887622810175,1808
638.3844306166192,1799
640.6794710601358,1841
642.9738838290426,1813
645.2676691408932,1823
647.5608272133207,1826
649.853358264037,1776
652.1452625108324,1801
654.4365401715764,1765
656.7271914642178,1882
659.0172166067838,1847
661.3066158173809,1819
663.5953893141935,1892
665.8835373154867,1855
668.1710600396028,1858
670.4579577049639,1779
672.7442305300709,1874
675.0298787335033,1797
677.3149025339197,1899
679.599302150058,1836
681.8830778007342,1889
684.1662297048437,1890
686.4487580813608,1784
688.7306631493387,1845
691.0119451279091,1822
693.2926042362834,1876
695.5726406937516,1879
697.8520547196814,1906
700.1308465335215,1832
702.4090163547982,1899
704.6865644031171,1840
706.9634908981619,1808
709.2397960596965,1816
711.5154801075631,1843
713.7905432616823,1855
716.0649857420548,1869
718.3388077687592,1717
720.612009561953,1895
722.8845913418733,1815
725.1565533288352,1757
727.427895743234,1843
729.6986188055427,1741
731.9687227363137,1794
734.238207756178,1828
736.5070740858458,1800
738.7753219461066,1807
741.0429515578281,1864
743.3099631419569,1830
745.5763569195191,1842
747.8421331116193,1801
750.1072919394409,1769
752.3718336242467,1829
754.6357583873777,1848
756.8990664502545,1773
759.1617580343765,1822
761.423833361321,1837
763.6852926527457,1832
765.9461361303862,1879
768.206364016058,1879
770.4659765316536,1837
772.7249738991469,1835
774.9833563405886,1832
777.2411240781092,1849
779.4982773339183,1902
781.7548163303044,1843
784.010741289634,1871
786.2660524343538,1974
788.5207499869881,1876
790.7748341701416,1903
793.0283052064964,1842
795.2811633188143,1859
797.5334087299362,1821
799.7850416627813,1817
802.0360623403484,1912
804.2864709857143,1880
806.5362678220353,1959
808.7854530725468,1884
811.0340269605625,1869
813.2819897094754,1864
815.5293415427581,1915
817.77608268396,1981
820.0222133567116,1898
822.2677337847211,1883
824.5126441917765,1847
826.7569448017433,1944
829.0006358385675,1825
831.2437175262731,1851
833.4861900889629,1838
835.7280537508192,1845
837.9693087361026,1951
840.2099552691533,1867
842.4499935743896,1830
844.689423876309,1876
846.9282463994886,1951
849.1664613685833,1904
851.4040690083276,1941
853.6410695435349,1879
855.877463199097,1897
858.1132501999847,1937
860.3484307712487,1883
862.5830051380175,1913
864.8169735254988,1903
867.0503361589791,1944
869.2830932638243,1865
871.5152450654786,1914
873.7467917894654,1858
875.9777336613873,1904
878.2080709069252,1902
880.4378037518389,1920
882.666932421968,1868
884.8954571432301,1910
887.1233781416219,1922
889.3506956432192,1976
891.5774098741766,1912
893.803521060728,1890
896.0290294291852,1911
898.2539352059397,1867
900.4782386174619,1895
902.7019398903011,1936
904.925039251085,1930
907.147536926521,1863
909.3694331433943,1962
911.59072812857,1901
913.8114221089921,1870
916.0315153116827,1882
918.2510079637437,1914
920.4699002923547,1886
922.6881925247761,1877
924.905884888345,1865
927.1229776104793,1914
929.3394709186747,1898
931.555365040506,1859
933.7706602036275,1889
935.9853566357709,1939
938.1994545647489,1910
940.4129542184515,1964
942.6258558248488,1949
944.8381596119883,1959
947.0498658079974,1953
949.2609746410825,1920
951.4714863395287,1913
953.6814011316998,1975
955.8907192460387,1935
958.0994409110671,1914
960.3075663553858,1973
962.5150958076741,1956
964.7220294966913,1918
966.928367651274,1921
969.1341105003388,1830
971.3392582728806,1824
973.5438111979742,1942
975.747769504772,1885
977.9511334225061,1889
980.153903180487,1923
982.3560790081052,1910
984.5576611348289,1825
986.7586497902058,1889
988.9590452038618,1831
991.158847605503,1851
993.3580572249133,1753
995.5566742919558,1790
997.7546990365728,1709
999.952131688785,1730
1002.1489724786926,1681
1004.3452216364743,1695
1006.5408793923874,1648
1008.7359459767691,1725
1010.9304216200343,1719
1013.1243065526781,1649
1015.3176010052733,1750
1017.510305208472,1666
1019.7024193930064,1692
1021.8939437896848,1661
1024.0848786293977,1678
1026.2752241431122,1679
1028.4649805618747,1679
1030.6541481168115,1675
1032.842727039127,1678
1035.0307175601051,1565
1037.2181199111074,1646
1039.4049343235752,1614
1041.591161029029,1620
1043.7768002590683,1622
1045.9618522453698,1638
1048.1463172196918,1571
1050.3301954138697,1594
1052.513487059818,1636
1054.69619238953,1598
1056.8783116350783,1610
1059.0598450286152,1574
1061.2407928023704,1642
1063.4211551886528,1627
1065.6009324198508,1577
1067.780124728432,1584
1069.9587323469414,1636
1072.1367555080046,1673
1074.314194444325,1581
1076.4910493886855,1603
1078.667320573947,1621
1080.843008233051,1600
1083.0181125990161,1605
1085.1926339049414,1533
1087.3665723840027,1578
1089.5399282694575,1591
1091.7127017946405,1594
1093.8848931929647,1579
1096.0565026979243,1631
1098.2275305430899,1620
1100.3979769621128,1561
1102.567842188722,1564
1104.737126456726,1570
1106.9058300000124,1573
1109.0739530525475,1492
1111.2414958483764,1595
1113.4084586216231,1521
1115.5748416064907,1542
1117.7406450372605,1469
1119.9058691482942,1552
1122.0705141740304,1554
1124.2345803489884,1512
1126.3980679077658,1543
1128.5609770850388,1554
1130.7233081155623,1501
1132.8850612341707,1533
1135.0462366757774,1506
1137.2068346753745,1509
1139.3668554680326,1515
1141.526299288901,1500
1143.68516637321,1572
1145.8434569562655,1517
1148.001171273455,1491
1150.158309560244,1495
1152.3148720521767,1444
1154.470858984876,1537
1156.626270594044,1550
1158.7811071154629,1543
1160.9353687849912,1533
1163.089055838569,1523
1165.242168512213,1496
1167.3947070420209,1527
1169.5466716641677,1545
1171.6980626149075,1496
1173.8488801305748,1566
1175.9991244475814,1571
1178.1487958024186,1587
1180.2978944316555,1545
1182.4464205719428,1509
1184.5943744600072,1513
1186.7417563326567,1537
1188.8885664267755,1512
1191.0348049793297,1526
1193.1804722273619,1444
1195.325568407995,1620
1197.4700937584303,1529
1199.614048515948,1513
1201.7574329179074,1547
1203.900247201746,1568
1206.042491604982,1581
1208.1841663652099,1572
1210.3252717201053,1558
1212.465807907422,1549
1214.6057751649923,1546
1216.7451737307279,1583
1218.8840038426192,1564
1221.0222657387353,1510
1223.1599596572241,1593
1225.2970858363137,1555
1227.4336445143094,1581
1229.5696359295966,1516
1231.705060320639,1550
1233.8399179259786,1597
1235.9742089842384,1640
1238.107933734118,1602
1240.2410924143974,1601
1242.373685263935,1574
1244.5057125216676,1609
1246.6371744266116,1599
1248.7680712178621,1652
1250.898403134593,1605
1253.028170416058,1578
1255.1573733015875,1619
1257.2860120305932,1660
1259.4140868425648,1702
1261.54159797707,1621
1263.6685456737569,1691
1265.7949301723515,1701
1267.9207517126597,1659
1270.046010534565,1682
1272.1707068780306,1671
1274.2948409830983,1690
1276.4184130898889,1700
1278.541423438603,1644
1280.6638722695184,1655
1282.785759822993,1750
1284.9070863394636,1698
1287.0278520594447,1731
1289.1480572235314,1668
1291.2677020723963,1713
1293.3867868467923,1705
1295.5053117875495,1724
1297.623277135579,1767
1299.740683131868,1788
1301.8575300174857,1745
1303.973818033578,1892
1306.0895474213703,1854
1308.2047184221678,1873
1310.3193312773528,1866
1312.4333862283888,1801
1314.5468835168163,1791
1316.659823384255,1801
1318.7722060724045,1823
1320.8840318230418,1833
1322.9953008780249,1882
1325.1060134792888,1856
1327.2161698688478,1837
1329.3257702887959,1825
1331.4348149813054,1889
1333.5433041886276,1868
1335.6512381530933,1863
1337.7586171171101,1839
1339.8654413231675,1853
1341.9717110138317,1806
1344.0774264317488,1809
1346.1825878196432,1846
1348.2871954203192,1834
1350.3912494766587,1781
1352.4947502316231,1832
1354.5976979282532,1838
1356.7000928096686,1805
1358.8019351190665,1837
1360.9032250997243,1752
1363.0039629949988,1744
1365.1041490483235,1782
1367.2037835032133,1762
1369.3028666032606,1798
1371.401398592137,1750
1373.4993797135926,1758
1375.5968102114575,1781
1377.6936903296396,1791
1379.7900203121262,1735
1381.8858004029835,1694
1383.9810308463561,1718
1386.075711886469,1755
1388.1698437676241,1770
1390.2634267342032,1721
1392.356461030667,1784
1394.4489469015557,1730
1396.5408845914872,1810
1398.6322743451592,1826
1400.7231164073469,1758
1402.813411022907,1728
1404.903158436773,1763
1406.9923588939578,1801
1409.0810126395531,1857
1411.1691199187303,1762
1413.2566809767386,1780
1415.343696058907,1843
1417.4301654106425,1846
1419.5160892774315,1833
1421.6014679048399,1842
1423.6863015385125,1844
1425.7705904241707,1852
1427.8543348076178,1867
1429.9375349347342,1826
1432.0201910514802,1851
1434.102303403894,1897
1436.1838722380944,1881
1438.2648978002767,1912
1440.3453803367174,1923
1442.4253200937692,1829
1444.5047173178677,1938
1446.5835722555234,2008
1448.6618851533285,1977
1450.739656257952,1953
1452.8168858161434,2054
1454.8935740747306,2031
1456.96972128062,2086
1459.045327680797,2079
1461.120393522327,2056
1463.1949190523528,2123
1465.2689045180973,2078
1467.3423501668608,2188
1469.415256246024,2116
1471.4876230030463,2232
1473.559450685465,2243
1475.6307395408976,2232
1477.7014898170391,2320
1479.771701761665,2344
1481.8413756226287,2328
1483.9105116478618,2352
1485.9791100853772,2371
1488.0471711832643,2371
1490.1146951896926,2412
1492.1816823529098,2486
1494.2481329212433,2450
1496.3140471430984,2409
1498.3794252669609,2418
1500.4442675413939,2455
1502.5085742150404,2508
1504.572345536622,2486
1506.6355817549388,2482
1508.6982831188702,2580
1510.7604498773744,2557
1512.8220822794883,2588
1514.8831805743293,2613
1516.9437450110909,2615
1519.003775839048,2580
1521.0632733075522,2570
1523.1222376660367,2560
1525.1806691640113,2622
1527.2385680510652,2581
1529.2959345768668,2648
1531.3527689911643,2753
1533.4090715437833,2705
1535.4648424846291,2752
1537.5200820636855,2749
1539.5747905310159,2736
1541.6289681367616,2815
1543.6826151311434,2827
1545.7357317644614,2806
1547.7883182870937,2854
1549.8403749494987,2894
1551.8919020022113,2936
1553.9428996958477,3016
1555.9933682811015,3051
1558.0433080087469,3082
1560.0927191296346,3173
1562.1416018946961,3180
1564.1899565549415,3194
1566.2377833614592,3245
1568.2850825654164,3267
1570.3318544180606,3144
1572.3780991707158,3142
1574.423817074788,3058
1576.4690083817595,3024
1578.5136733431923,2912
1580.5578122107272,2795
1582.601425236085,2699
1584.6445126710646,2607
1586.6870747675434,2626
1588.7291117774776,2557
1590.7706239529034,2527
1592.8116115459347,2406
1594.8520748087658,2303
1596.8920139936686,2225
1598.9314293529933,2202
1600.9703211391711,2183
1603.008689604711,2198
1605.0465350022005,2115
1607.0838575843068,2048
1609.1206576037753,1974
1611.1569353134305,1944
1613.1926909661765,1943
1615.2279248149953,1920
1617.2626371129481,1961
1619.2968281131757,1864
1621.3304980688963,1836
1623.3636472334088,1729
1625.39627586009,1789
1627.428384202396,1742
1629.459972513861,1796
1631.4910410480993,1741
1633.5215900588028,1686
1635.551619799744,1745
1637.5811305247717,1743
1639.6101224878166,1713
1641.6385959428862,1705
1643.6665511440683,1686
1645.693988345528,1714
1647.7209078015112,1723
1649.7473097663405,1675
1651.7731944944203,1671
1653.7985622402307,1677
1655.823413258333,1623
1657.847747803366,1671
1659.8715661300494,1686
1661.8948684931793,1644
1663.9176551476316,1650
1665.9399263483624,1646
1667.9616823504057,1660
1669.982923408873,1614
1672.0036497789574,1645
1674.0238617159293,1576
1676.043559475138,1618
1678.0627433120121,1690
1680.081413482059,1670
1682.0995702408654,1678
1684.117213844096,1635
1686.134344547495,1657
1688.1509626068864,1627
1690.1670682781705,1591
1692.182661817329,1651
1694.1977434804217,1624
1696.2123135235875,1665
1698.226372203043,1682
1700.2399197750851,1586
1702.2529564960905,1621
1704.2654826225112,1671
1706.277498410882,1636
1708.2890041178139,1644
1710.2999999999988,1630
1712.3104863142066,1546
1714.3204633172854,1578
1716.329931266163,1565
1718.3388904178469,1568
1720.3473410294214,1598
1722.3552833580516,1598
1724.3627176609807,1625
1726.3696441955308,1634
1728.3760632191033,1601
1730.3819749891782,1590
1732.3873797633146,1638
1734.3922777991502,1574
1736.3966693544012,1531
1738.4005546868639,1591
1740.4039340544127,1574
1742.406807715001,1508
1744.4091759266616,1595
1746.4110389475054,1544
1748.4123970357223,1554
1750.413250449582,1535
1752.4135994474318,1554
1754.4134442876993,1551
1756.4127852288902,1616
1758.4116225295893,1479
1760.4099564484595,1595
1762.407787244244,1601
1764.405115175764,1467
1766.4019405019203,1584
1768.3982634816916,1530
1770.3940843741357,1550
1772.3894034383907,1491
1774.3842209336717,1529
1776.378537119274,1525
1778.372352254571,1510
1780.3656665990156,1485
1782.3584804121397,1557
1784.3507939535534,1517
1786.3426074829463,1504
1788.3339212600863,1511
1790.3247355448211,1525
1792.3150505970766,1527
1794.3048666768573,1571
1796.2941840442477,1527
1798.2830029594106,1523
1800.2713236825884,1505
1802.2591464741004,1528
1804.2464715943465,1502
1806.2332993038058,1483
1808.2196298630352,1535
1810.2054635326708,1527
1812.190800573428,1512
1814.175641246101,1572
1816.1599858115628,1487
1818.1438345307652,1525
1820.127187664738,1567
1822.1100454745924,1495
1824.092408221516,1478
1826.0742761667766,1506
1828.055649571721,1497
1830.0365286977735,1470
1832.0169138064398,1467
1833.9968051593014,1498
1835.9762030180214,1498
1837.9551076443408,1477
1839.9335193000788,1549
1841.9114382471344,1529
1843.888864747485,1460
1845.8657990631878,1532
1847.842241456378,1512
1849.8181921892697,1475
1851.7936515241558,1432
1853.7686197234098,1526
1855.7430970494815,1499
1857.7170837649014,1441
1859.6905801322787,1475
1861.6635864143004,1460
1863.6361028737338,1500
1865.608129773424,1556
1867.5796673762961,1489
1869.5507159453537,1503
1871.521275743678,1484
1873.4913470344313,1456
1875.4609300808534,1490
1877.4300251462632,1583
1879.3986324940588,1544
1881.366752387717,1530
1883.3343850907936,1492
1885.3015308669228,1487
1887.268189979819,1535
1889.2343626932739,1528
1891.2000492711595,1512
1893.1652499774254,1578
1895.1299650761011,1492
1897.0941948312952,1577
1899.0579395071945,1515
1901.0211993680641,1548
1902.98397467825,1528
1904.9462657021745,1494
1906.9080727043415,1564
1908.869395949332,1545
1910.8302357018065,1609
1912.790592226504,1524
1914.7504657882428,1506
1916.7098566519212,1586
1918.6687650825133,1490
1920.6271913450764,1567
1922.5851357047422,1551
1924.5425984267245,1566
1926.499579776314,1544
1928.4560800188833,1526
1930.4120994198802,1528
1932.367638244833,1528
1934.32269675935,1597
1936.2772752291175,1482
1938.231373919899,1515
1940.1849930975404,1553
1942.1381330279637,1560
1944.0907939771696,1511
1946.0429762112412,1527
1947.9946799963363,1491
1949.9459055986945,1513
1951.896653284633,1432
1953.8469233205478,1530
1955.7967159729142,1500
1957.7460315082863,1531
1959.6948701932974,1520
1961.6432322946594,1556
1963.5911180791632,1536
1965.5385278136787,1488
1967.4854617651545,1540
1969.4319202006182,1543
1971.377903387176,1596
1973.3234115920136,1569
1975.268445082395,1531
1977.2130041256642,1485
1979.1570889892423,1503
1981.1006999406304,1508
1983.04383724741,1518
1984.986501177238,1583
1986.928691997853,1555
1988.8704099770712,1496
1990.811655382789,1530
1992.7524284829801,1522
1994.692729545698,1503
1996.6325588390755,1491
1998.5719166313224,1479
2000.5108031907307,1437
2002.4492187856677,1486
2004.387163684583,1536
2006.3246381560011,1479
2008.2616424685298,1449
2010.1981768908527,1518
2012.1342416917332,1465
2014.069837140014,1479
2016.0049635046162,1458
2017.9396210545406,1464
2019.8738100588666,1437
2021.8075307867502,1432
2023.740783507431,1504
2025.6735684902228,1516
2027.6058860045214,1500
2029.5377363198004,1477
2031.4691197056118,1528
2033.4000364315875,1546
2035.3304867674374,1503
2037.260470982952,1456
2039.189989347998,1477
2041.1190421325232,1468
2043.047629606554,1425
2044.9757520401945,1471
2046.9034097036288,1486
2048.8306028671195,1475
2050.7573318010086,1455
2052.683596775716,1447
2054.609398061742,1466
2056.5347359296647,1486
2058.4596106501403,1465
2060.384022493906,1546
2062.3079717317764,1468
2064.231458634646,1489
2066.1544834734873,1425
2068.077046519352,1466
2069.99914804337,1446
2071.9207883167524,1501
2073.8419676107865,1404
2075.7626861968406,1516
2077.6829443463607,1479
2079.6027423308715,1415
2081.522080421977,1506
2083.440958891362,1486
2085.359378010786,1537
2087.2773380520907,1485
2089.194839287196,1483
2091.111881988101,1452
2093.0284664268825,1527
2094.9445928756973,1495
2096.86026160678,1467
2098.775472892446,1475
2100.690227005088,1470
2102.604524217178,1460
2104.5183648012676,1524
2106.431749029985,1500
2108.34467717604,1435
2110.2571495122206,1483
2112.169166311393,1487
2114.080727846503,1494
2115.9918343905747,1529
2117.902486216711,1487
2119.8126835980956,1440
2121.722426807987,1445
2123.6317161197285,1535
2125.5405518067364,1532
2127.448934142509,1504
2129.356863400624,1494
2131.264339854737,1455
2133.1713637785815,1580
2135.077935445972,1562
2136.9840551308002,1463
2138.889723107037,1522
2140.7949396487334,1537
2142.699705030018,1535
2144.6040195250994,1515
2146.507883408264,1534
2148.4112969538774,1545
2150.3142604363848,1527
2152.2167741303097,1463
2154.1188383102535,1498
2156.0204532508997,1513
2157.9216192270064,1541
2159.822336513414,1488
2161.7226053850413,1507
2163.622426116884,1499
2165.5217989840185,1526
2167.4207242616,1483
2169.319202224862,1482
2171.2172331491165,1612
2173.1148173097563,1545
2175.0119549822507,1537
2176.90864644215,1567
2178.8048919650823,1524
2180.7006918267534,1563
2182.596046302952,1562
2184.4909556695407,1540
2186.3854202024645,1557
2188.279440177746,1507
2190.173015871487,1621
2192.066147559868,1588
2193.958835519149,1541
2195.851080025667,1529
2197.7428813558417,1508
2199.6342397861667,1506
2201.5251555932186,1601
2203.415629053651,1543
2205.3056604441986,1526
2207.19525004167,1519
2209.084398122958,1524
2210.9731049650327,1651
2212.861370844941,1504
2214.749196039812,1597
2216.636580826851,1541
2218.523525483344,1566
2220.410030286655,1575
2222.296095514226,1612
2224.1817214435805,1565
2226.066908352319,1615
2227.951656518121,1545
2229.835966218746,1558
2231.71983773203,1572
2233.6032713358913,1579
2235.486267308324,1607
2237.3688259274036,1574
2239.2509474712824,1513
2241.132632218193,1578
2243.013880446447,1563
2244.8946924344323,1526
2246.7750684606203,1508
2248.6550088035574,1523
2250.534513741871,1641
2252.413583554265,1534
2254.292218519526,1532
2256.170418916517,1498
2258.0481850241786,1513
2259.925517121534,1512
2261.8024154876825,1523
2263.678880401803,1470
2265.5549121431536,1542
2267.430510991071,1512
2269.305677224971,1509
2271.180411124348,1490
2273.0547129687766,1506
2274.9285830379076,1531
2276.8020216114737,1546
2278.6750289692845,1513
2280.5476053912294,1537
2282.4197511572766,1583
2284.2914665474727,1622
2286.162751841943,1593
2288.0336073208937,1591
2289.904033264608,1578
2291.774029953448,1613
2293.6435976678554,1507
2295.5127366883517,1587
2297.381447295534,1415
2299.2497297700825,1466
2301.1175843927526,1468
2302.9850114443825,1383
2304.852011205885,1463
2306.7185839582553,1473
2308.5847299825664,1470
2310.4504495599676,1429
2312.3157429716925,1437
2314.1806104990483,1422
2316.0450524234247,1426
2317.9090690262888,1371
2319.772660589186,1458
2321.635827393742,1422
2323.498569721661,1380
2325.3608878547248,1441
2327.2227820747967,1452
2329.0842526638157,1430
2330.945299903803,1438
2332.805924076857,1328
2334.6661254651535,1454
2336.525904350951,1418
2338.3852610165827,1431
2340.244195744464,1479
2342.102708817088,1501
2343.9608005170253,1447
2345.8184711269287,1459
2347.675720929526,1453
2349.532550207628,1444
2351.38895924412,1432
2353.24494832197,1471
2355.100517724223,1445
2356.955667734004,1516
2358.810398634514,1487
2360.664710709037,1435
2362.5186042409337,1496
2364.3720795136437,1485
2366.225136810686,1449
2368.0777764156583,1448
2369.929998612237,1451
2371.7818036841777,1465
2373.633191915315,1439
2375.484163589562,1444
2377.3347189909114,1491
2379.184858403434,1442
2381.03458211128,1507
2382.8838903986775,1445
2384.732783549936,1486
2386.5812618494406,1481
2388.4293255816588,1501
2390.2769750311327,1436
2392.1242104824883,1490
2393.971032220427,1443
2395.8174405297295,1456
2397.6634356952563,1493
2399.509018001947,1527
2401.3541877348193,1465
2403.1989451789705,1482
2405.043290619576,1506
2406.8872243418905,1462
2408.730746631247,1454
2410.5738577730594,1405
2412.4165580528183,1496
2414.258847756095,1478
2416.100727168537,1407
2417.9421965758734,1481
2419.783256263912,1427
2421.623906518538,1469
2423.4641476257157,1479
2425.303979871491,1467
2427.143403541984,1506
2428.9824189233977,1492
2430.821026302012,1453
2432.6592259641866,1480
2434.497018196361,1472
2436.33440328505,1467
2438.171381516851,1514
2440.00795317844,1477
2441.844118556569,1492
2443.6798779380724,1458
2445.5152316098606,1443
2447.3501798589255,1460
2449.1847229723357,1489
2451.0188612372403,1533
2452.8525949408663,1484
2454.6859243705203,1436
2456.518849813587,1493
2458.3513715575314,1520
2460.183489889895,1488
2462.015205098301,1435
2463.8465174704493,1444
2465.67742729412,1495
2467.5079348571717,1524
2469.338040447542,1481
2471.1677443532476,1510
2472.9970468623833,1452
2474.825948263123,1474
2476.6544488437207,1476
2478.482548892508,1522
2480.310248697896,1468
2482.137548548374,1506
2483.9644487325118,1479
2485.790949538956,1541
2487.617051256433,1478
2489.44275417375,1520
2491.26805857979,1498
2493.0929647635157,1451
2494.917473013971,1577
2496.741583620276,1511
2498.5652968716304,1475
2500.3886130573137,1513
2502.2115324666834,1570
2504.0340553891765,1560
2505.856182114308,1510
2507.6779129316733,1524
2509.499248130945,1527
2511.3201880018764,1490
2513.140732834298,1545
2514.9608829181198,1491
2516.780638543331,1528
2518.6,1545
2520.418967578273,1543
2522.237541568376,1575
2524.0557222606144,1563
2525.8735099453706,1443
2527.6909049131086,1481
2529.507907454368,1604
2531.32451785977,1590
2533.140736420014,1598
2534.9565634258774,1576
2536.771999168218,1606
2538.5870439379714,1597
2540.4016980261526,1500
2542.2159617238544,1582
2544.02983532225,1612
2545.8433191125914,1594
2547.656413386209,1608
2549.4691184345115,1627
2551.2814345489874,1556
2553.093362021204,1589
2554.904901142808,1556
2556.716052205523,1665
2558.526815501153,1607
2560.3371913215824,1691
2562.147179958771,1706
2563.956781704761,1689
2565.7659968516705,1629
2567.5748256916986,1663
2569.3832685171224,1716
2571.1913256202984,1705
2572.9989972936614,1660
2574.806283829725,1700
2576.613185521084,1681
2578.4197026604074,1742
2580.2258355404483,1698
2582.031584454035,1726
2583.836949694077,1690
2585.6419315535613,1732
2587.4465303255533,1721
2589.2507463032002,1719
2591.0545797797245,1727
2592.8580310484303,1673
2594.6611004026995,1752
2596.463788135992,1697
2598.266094541849,1732
2600.0680199138874,1695
2601.869564545807,1844
2603.670728731383,1712
2605.4715127644704,1779
2607.2719169390048,1758
2609.071941548998,1753
2610.8715868885433,1803
2612.670853251811,1698
2614.469740933052,1678
2616.268250226594,1688
2618.0663814268455,1690
2619.864134828292,1702
2621.6615107255006,1703
2623.458509413115,1733
2625.2551311858597,1699
2627.0513763385347,1727
2628.8472451660223,1640
2630.6427379632833,1716
2632.4378550253564,1668
2634.232596647359,1694
2636.026963124488,1612
2637.8209547520187,1712
2639.6145718253065,1626
2641.407814639785,1641
2643.200683490966,1638
2644.9931786744414,1618
2646.7853004858807,1602
2648.577049221034,1646
2650.3684251757277,1663
2652.1594286458712,1587
2653.9500599274484,1649
2655.740319316525,1647
2657.5302071092437,1548
2659.3197236018286,1583
2661.10886909058,1569
2662.8976438718782,1556
2664.686048242183,1521
2666.4740824980327,1573
2668.2617469360443,1587
2670.0490418529134,1540
2671.8359675454153,1505
2673.622524310403,1521
2675.408712444811,1489
2677.1945322456495,1535
2678.979984010009,1520
2680.76506803506,1548
2682.5497846180497,1487
2684.334134056306,1513
2686.1181166472343,1480
2687.9017326883213,1520
2689.6849824771293,1495
2691.4678663113013,1484
2693.2503844885596,1497
2695.032537306705,1584
2696.8143250636167,1491
2698.5957480572542,1489
2700.3768065856534,1484
2702.1575009469316,1486
2703.937831439283,1476
2705.717798360982,1468
2707.4974020103837,1420
2709.276642685917,1423
2711.055520686095,1440
2712.834036309506,1450
2714.612189854819,1456
2716.389981620782,1430
2718.1674119062204,1420
2719.944481010041,1418
2721.721189231226,1472
2723.4975368688415,1406
2725.273524222027,1468
2727.0491515900053,1498
2728.824419272075,1442
2730.5993275676146,1400
2732.3738767760838,1402
2734.148067197016,1419
2735.921899130031,1429
2737.6953728748194,1389
2739.468488731156,1387
2741.2412469988926,1413
2743.0136479779617,1395
2744.785691968372,1470
2746.5573792702116,1399
2748.3287101836504,1421
2750.099685008934,1401
2751.870304046388,1415
2753.640567596418,1443
2755.4104759595057,1391
2757.1800294362156,1367
2758.949228327187,1434
2760.7180729331412,1394
2762.486563554877,1399
2764.254700493272,1400
2766.022484049284,1421
2767.789914523947,1453
2769.5569922183786,1425
2771.3237174337705,1390
2773.090090471394,1389
2774.8561116326036,1392
2776.6217812188274,1417
2778.3870995315756,1442
2780.1520668724356,1452
2781.9166835430747,1406
2783.6809498452394,1394
2785.444866080754,1446
2787.2084325515225,1401
2788.971649559527,1427
2790.73451740683,1379
2792.4970363955713,1371
2794.2592068279705,1369
2796.0210290063264,1404
2797.7825032330147,1447
2799.543629810493,1388
2801.304409041296,1401
2803.0648412280366,1367
2804.8249266734088,1391
2806.5846656801846,1425
2808.344058551212,1425
2810.1031055894246,1441
2811.8618070978273,1415
2813.6201633795085,1330
2815.378174737636,1411
2817.1358414754536,1363
2818.893163896285,1378
2820.6501423035334,1427
2822.4067770006814,1438
2824.1630682912883,1405
2825.9190164789957,1432
2827.6746218675207,1374
2829.429884760661,1363
2831.184805462294,1456
2832.9393842763743,1434
2834.693621506936,1399
2836.4475174580916,1435
2838.201072434034,1414
2839.954286739034,1462
2841.707160677441,1388
2843.459694553685,1425
2845.2118886722724,1427
2846.96374333779,1458
2848.7152588549034,1473
2850.4664355283567,1376
2852.217273662973,1436
2853.9677735636546,1388
2855.7179355353833,1430
2857.4677598832186,1402
2859.217246912299,1417
2860.9663969278427,1418
2862.715210235146,1451
2864.4636871395846,1391
2866.211827946614,1382
2867.9596329617652,1433
2869.7071024906536,1349
2871.4542368389684,1418
2873.20103631248,1398
2874.947501217038,1440
2876.6936318585695,1406
2878.4394285430812,1383
2880.1848915766604,1416
2881.9300212654707,1388
2883.6748179157553,1394
2885.4192818338374,1373
2887.1634133261173,1390
2888.907212699077,1400
2890.6506802592744,1412
2892.393816313348,1455
2894.1366211680142,1359
2895.8790951300693,1382
2897.621238506388,1428
2899.363051603925,1409
2901.1045347297118,1377
2902.8456881908596,1405
2904.58651229456,1427
2906.327007348081,1351
2908.067173658772,1370
2909.8070115340597,1352
2911.5465212814497,1423
2913.285703208527,1411
2915.0245576229563,1367
2916.7630848324807,1359
2918.5012851449196,1355
2920.2391588681758,1348
2921.976706310227,1306
2923.7139277791334,1380
2925.4508235830313,1372
2927.187394030137,1379
2928.923639428745,1412
2930.6595600872306,1415
2932.395156314046,1410
2934.1304284177218,1375
2935.8653767068713,1414
2937.6000014901815,1448
2939.3343030764227,1379
2941.068281774442,1421
2942.8019378931644,1378
2944.5352717415976,1409
2946.2682836288236,1364
2948.0009738640065,1345
2949.7333427563885,1375
2951.465390615289,1388
2953.1971177501086,1464
2954.9285244703265,1439
2956.6596110855,1374
2958.3903779052657,1384
2960.1208252393385,1327
2961.8509533975125,1375
2963.5807626896617,1356
2965.3102534257378,1356
2967.0394259157715,1379
2968.768280469873,1358
2970.496817398232,1401
2972.2250370111146,1372
2973.952939618869,1430
2975.6805255319196,1393
2977.4077950607707,1408
2979.134748516006,1430
2980.861386208289,1434
2982.587708448359,1475
2984.313715547037,1385
2986.039407815222,1397
2987.764785563891,1394
2989.489849104102,1333
2991.2145987469908,1403
2992.9390348037705,1329
2994.6631575857346,1447
2996.3869674042576,1436
2998.1104645707887,1368
2999.83364939686,1389
3001.5565221940783,1383
3003.2790832741334,1378
3005.0013329487924,1361
3006.7232715298996,1354
3008.4448993293804,1380
3010.166216659239,1390
3011.887223831558,1402
3013.607921158498,1361
3015.3283089522993,1391
3017.0483875252826,1366
3018.7681571898443,1383
3020.4876182584626,1367
3022.2067710436927,1417
3023.9256158581707,1362
3025.644153014609,1331
3027.362382825801,1337
3029.0803056046193,1330
3030.797921664012,1339
3032.5152313170106,1340
3034.2322348767225,1401
3035.9489326563353,1354
3037.665324969115,1399
3039.3814121284063,1373
3041.097194447633,1350
3042.812672240299,1347
3044.5278458199855,1371
3046.2427155003525,1384
3047.9572815951406,1381
3049.671544418167,1386
3051.38550428333,1420
3053.0991615046073,1457
3054.812516396051,1414
3056.5255692717974,1394
3058.2383204460575,1329
3059.9507702331257,1358
3061.662918947372,1403
3063.3747669032446,1353
3065.0863144152736,1348
3066.7975617980674,1358
3068.508509366309,1355
3070.219157434767,1362
3071.9295063182844,1345
3073.639556331785,1376
3075.3493077902704,1336
3077.058761008821,1367
3078.7679163025964,1331
3080.476773986837,1420
3082.1853343768594,1383
3083.89359778806,1352
3085.6015645359153,1310
3087.3092349359786,1345
3089.016609303884,1342
3090.7236879553434,1373
3092.4304712061476,1374
3094.136959372166,1312
3095.843152769349,1334
3097.5490517137237,1362
3099.2546565213966,1394
3100.959967508554,1365
3102.66498499146,1369
3104.3697092864577,1359
3106.0741407099695,1378
3107.778279578498,1401
3109.482126208622,1402
3111.1856809170004,1389
3112.8889440203716,1373
3114.5919158355528,1390
3116.294596679439,1439
3117.996986869006,1362
3119.6990867213062,1420
3121.4008965534726,1389
3123.102416682717,1424
3124.803647426329,1423
3126.5045891016784,1441
3128.205242026213,1456
3129.90560651746,1308
3131.605682893025,1334
3133.3054714705922,1380
3135.0049725679282,1373
3136.7041865028714,1347
3138.4031135933465,1355
3140.101754157353,1366
3141.800108512971,1377
3143.498176978357,1383
3145.1959598717494,1392
3146.8934575114636,1400
3148.5906702158954,1298
3150.2875983035183,1355
3151.9842420928853,1376
3153.680601902627,1378
3155.376678051456,1332
3157.07247085816,1386
3158.767980641609,1364
3160.463207720748,1366
3162.158152414606,1322
3163.8528150422862,1407
3165.5471959229726,1364
3167.2412953759303,1371
3168.9351137204976,1340
3170.628651276098,1324
3172.3219083622307,1364
3174.014885298474,1357
3175.707582404485,1393
3177.4000000000005,1363
3179.092138404835,1326
3180.7839979388846,1443
3182.47557892212,1398
3184.166881674594,1423
3185.8579065164386,1357
3187.5486537678626,1390
3189.2391237491547,1388
3190.9293167806827,1413
3192.6192331828934,1334
3194.3088732763117,1335
3195.998237381542,1371
3197.687325819268,1379
3199.376138910251,1386
3201.064676975334,1392
3202.7529403354347,1381
3204.4409293115523,1376
3206.1286442247647,1407
3207.816085396229,1365
3209.5032531471825,1360
3211.190147798936,1335
3212.8767696728846,1384
3214.5631190905015,1364
3216.2491963733373,1356
3217.9350018430214,1320
3219.6205358212637,1332
3221.305798629851,1316
3222.990790590651,1370
3224.6755120256103,1315
3226.359963256751,1290
3228.0441446061795,1320
3229.7280563960758,1355
3231.411698948703,1348
3233.0950725863995,1350
3234.778177631587,1372
3236.461014406761,1384
3238.1435832345005,1383
3239.8258844374595,1397
3241.507918338374,1374
3243.1896852600576,1367
3244.8711855254023,1345
3246.552419457381,1375
3248.233387379042,1393
3249.914089613516,1386
3251.59452648401,1424
3253.274698313813,1359
3254.95460542629,1383
3256.6342481448855,1334
3258.313626793125,1352
3259.9927416946084,1300
3261.6715931730196,1300
3263.3501815521176,1335
3265.0285071557437,1378
3266.706570307815,1361
3268.3843713323286,1375
3270.0619105533615,1337
3271.739188295068,1341
3273.4162048816834,1335
3275.0929606375184,1354
3276.769455886966,1287
3278.445690954498,1359
3280.1216661646613,1380
3281.797381842087,1357
3283.4728383114807,1310
3285.1480358976296,1434
3286.8229749253996,1322
3288.4976557197333,1324
3290.172078605655,1358
3291.846243908266,1390
3293.5201519527463,1355
3295.193803064357,1314
3296.8671975684374,1331
3298.5403357904024,1339
3300.21321805575,1359
3301.8858446900567,1375
3303.558216018975,1397
3305.23033236824,1343
3306.9021940636603,1329
3308.57380143113,1332
3310.2451547966184,1372
3311.916254486174,1312
3313.5871008259246,1377
3315.2576941420766,1368
3316.9280347609147,1395
3318.5981230088046,1315
3320.2679592121895,1323
3321.9375436975924,1336
3323.606876791612,1355
3325.27595882093,1333
3326.944790112305,1333
3328.6133709925753,1371
3330.2817017886573,1350
3331.949782827547,1314
3333.617614436319,1308
3335.2851969421245,1321
3336.952530672199,1352
3338.619615953853,1320
3340.286453114475,1368
3341.9530424815357,1362
3343.619384382583,1369
3345.2854791452437,1318
3346.951327097224,1393
3348.6169285663073,1386
3350.2822838803577,1371
3351.947393367319,1419
3353.61225735521,1347
3355.2768761721345,1335
3356.9412501462693,1352
3358.605379605873,1379
3360.2692648792827,1376
3361.9329062949146,1348
3363.596304181263,1344
