CollectionTime,9/19/2024 11:55:08 AM
ExposureUsed,3
CalibratedSpectrum
-962.7078968117929,539
-959.9714848408522,584
-957.2358232597828,581
-954.5009119013725,580
-951.7667505983302,601
-949.0333391832855,613
-946.3006774887896,621
-943.5687653473143,579
-940.837602591253,618
-938.1071890529199,584
-935.3775245645503,600
-932.6486089583007,598
-929.9204420662485,600
-927.1930237203925,624
-924.4663537526524,647
-921.7404319948689,631
-919.0152582788041,617
-916.2908324361409,670
-913.5671542984834,595
-910.8442236973568,573
-908.1220404642074,599
-905.4006044304027,581
-902.679915427231,580
-899.959973285902,606
-897.2407778375464,584
-894.5223289132158,596
-891.8046263438832,602
-889.0876699604426,581
-886.3714595937089,584
-883.6559950744183,576
-880.9412762332282,561
-878.2273029007168,595
-875.5140749073835,561
-872.8015920836489,584
-870.0898542598545,575
-867.3788612662631,547
-864.6686129330585,587
-861.9591090903457,577
-859.2503495681506,551
-856.5423341964203,585
-853.8350628050229,552
-851.1285352237478,603
-848.4227512823054,629
-845.7177108103272,598
-843.0134136373656,601
-840.3098595928943,566
-837.6070485063082,605
-834.9049802069229,591
-832.2036545239757,581
-829.5030712866244,588
-826.8032303239481,573
-824.1041314649472,573
-821.4057745385428,594
-818.7081593735775,573
-816.0112857988148,617
-813.3151536429393,588
-810.6197627345566,612
-807.9251129021936,564
-805.2312039742981,576
-802.5380357792392,557
-799.8456081453069,575
-797.1539209007124,612
-794.462973873588,571
-791.772766891987,615
-789.083299783884,624
-786.3945723771743,629
-783.7065844996748,591
-781.0193359791231,592
-778.3328266431781,581
-775.6470563194197,573
-772.9620248353489,581
-770.2777320183878,572
-767.5941776958798,632
-764.9113616950891,642
-762.2292838432011,620
-759.5479439673222,581
-756.8673418944801,603
-754.1874774516235,590
-751.5083504656222,602
-748.8299607632671,615
-746.15230817127,609
-743.475392516264,569
-740.7992136248035,603
-738.1237713233636,600
-735.4490654383407,621
-732.7750957960521,605
-730.1018622227365,617
-727.4293645445534,632
-724.7576025875837,601
-722.0865761778291,615
-719.4162851412126,628
-716.7467293035781,632
-714.0779084906909,634
-711.409822528237,596
-708.7424712418238,651
-706.0758544569796,632
-703.4099719991541,624
-700.7448236937178,689
-698.0804093659622,639
-695.4167288411002,604
-692.7537819442656,630
-690.0915685005134,630
-687.4300883348199,655
-684.7693412720819,664
-682.1093271371178,689
-679.4500457546669,652
-676.7914969493897,650
-674.1336805458676,640
-671.4765963686034,670
-668.8202442420206,689
-666.1646239904642,659
-663.5097354382001,657
-660.8555784094151,677
-658.2021527282176,663
-655.5494582186366,654
-652.8974947046223,632
-650.2462620100463,691
-647.5957599587009,701
-644.9459883742998,691
-642.2969470804776,742
-639.6486359007902,749
-637.0010546587141,746
-634.3542031776476,743
-631.7080812809096,699
-629.0626887917401,704
-626.4180255333008,684
-623.7740913286734,721
-621.1308860008619,723
-618.4884093727904,733
-615.8466612673046,750
-613.2056415071715,722
-610.5653499150785,701
-607.9257863136347,774
-605.28695052537,795
-602.6488423727357,733
-600.0114616781036,739
-597.3748082637674,703
-594.7388819519412,710
-592.1036825647604,772
-589.4692099242818,753
-586.8354638524829,729
-584.2024441712624,713
-581.5701507024403,707
-578.9385832677575,764
-576.3077416888759,778
-573.6776257873787,755
-571.0482353847704,743
-568.4195703024757,740
-565.7916303618415,754
-563.164415384135,755
-560.5379251905453,803
-557.9121596021815,755
-555.2871184400748,700
-552.6628015251767,743
-550.0392086783606,788
-547.4163397204204,805
-544.794194472071,854
-542.1727727539491,819
-539.5520743866118,834
-536.9320991905377,852
-534.3128469861261,842
-531.6943175936979,899
-529.0765108334947,946
-526.4594265256793,977
-523.8430644903358,1205
-521.2274245474689,1308
-518.612506517005,1351
-515.9983102187913,1387
-513.3848354725959,1446
-510.77208209810846,1486
-508.16004991493924,1574
-505.5487387426199,1697
-502.9381484006032,1724
-500.3282787082628,1761
-497.71912948489364,1699
-495.1107005497117,1530
-492.5029917218539,1369
-489.8960028203786,1148
-487.28973366426493,1096
-484.68418407241325,1055
-482.07935386364494,956
-479.47524285670266,927
-476.87185087025,949
-474.2691777228715,928
-471.66722323307334,924
-469.0659872192821,910
-466.4654694998459,937
-463.86566989303384,921
-461.26658821703614,944
-458.66822428996414,927
-456.07057792985,952
-453.4736489546475,906
-450.877437182231,914
-448.28194243039627,933
-445.68716451686,864
-443.09310325926003,891
-440.49975847515555,924
-437.9071299820263,920
-435.31521759727354,858
-432.72402113821954,885
-430.13354042210767,939
-427.5437752661022,949
-424.95472548728867,980
-422.36639090267386,1020
-419.7787713291855,1033
-417.1918665836721,1036
-414.60567648290385,974
-412.0202008435715,966
-409.4354394822874,975
-406.8513922155845,985
-404.26805885991723,996
-401.685439231661,959
-399.103533147112,1049
-396.522340422488,958
-393.9418608739278,998
-391.3620943174908,919
-388.7830405691583,1007
-386.2046994448317,907
-383.6270707603344,898
-381.05015433141045,848
-378.473949973725,866
-375.8984575028645,821
-373.32367673433623,818
-370.74960748356875,739
-368.1762495659117,672
-365.60360279663576,625
-363.03166699093265,623
-360.4604419639154,612
-357.8899275306178,555
-355.32012350599507,531
-352.7510297049233,555
-350.1826459421999,530
-347.61497203254316,537
-345.04800779059235,566
-342.4817530309082,564
-339.91620756797226,579
-337.35137121618743,615
-334.7872437898774,560
-332.22382510328725,578
-329.66111497058273,542
-327.09911320585127,523
-324.53781962310075,525
-321.9772340362607,525
-319.4173562591816,506
-316.8581861056348,537
-314.2997233893127,522
-311.7419679238294,526
-309.1849195227194,560
-306.62857799943856,558
-304.0729431673641,593
-301.51801483979375,602
-298.963792829947,530
-296.41027695096386,562
-293.85746701590574,590
-291.3053628377552,660
-288.7539642294155,645
-286.2032710037115,688
-283.65328297338897,668
-281.1039999511146,622
-278.5554217494762,635
-276.007548180983,620
-273.4603790580651,634
-270.9139141930734,664
-268.3681533982807,648
-265.8230964858798,706
-263.27874326798565,717
-260.7350935566336,841
-258.1921471637804,804
-255.6499039013039,878
-253.10836358100266,868
-250.56752601459698,862
-248.02739101372765,777
-245.48795838995704,825
-242.94922795476816,753
-240.41119951956557,754
-237.8738728956746,766
-235.33724789434166,863
-232.80132432673452,723
-230.2661020039418,712
-227.73158073697357,771
-225.19776033676033,892
-222.66464061415422,904
-220.1322213799284,828
-217.60050244477725,851
-215.06948361931552,908
-212.53916471408013,1037
-210.00954553952818,991
-207.48062590603843,854
-204.9524056239104,909
-202.4248845033651,960
-199.8980623545441,967
-197.37193898751036,980
-194.84651421224817,1004
-192.32178783866232,982
-189.79775967657952,1098
-187.27442953574644,1156
-184.7517972258321,1055
-182.2298625564256,997
-179.7086253370378,996
-177.18808537710026,1090
-174.66824248596583,1237
-172.14909647290835,1143
-169.6306471471229,1073
-167.11289431772548,1040
-164.59583779375328,1184
-162.07947738416453,1450
-159.5638128978386,1665
-157.04884414357605,1680
-154.53457093009854,1637
-152.02099306604828,1337
-149.50811035998936,1223
-146.99592262040665,1629
-144.48442965570587,1811
-141.97363127421409,1875
-139.46352728417958,1760
-136.95411749377126,1565
-134.44540171107985,1241
-131.93737974411636,1249
-129.43005140081357,1589
-126.92341648902493,1986
-124.41747481652521,2209
-121.91222619101006,2131
-119.40767042009657,2185
-116.90380731132257,2359
-114.40063667214702,2654
-111.8981583099503,4091
-109.3963720320337,6494
-106.89527764561933,9131
-104.39487495785067,11044
-101.89516377579241,14821
-99.39614390642998,19691
-96.89781515667039,26007
-94.40017733334128,26404
-91.90323024319173,18433
-89.40697369289148,10326
-86.91140748903172,6404
-84.41653143812482,8695
-81.92234534660395,16293
-79.42884902082358,22168
-76.93604226705907,24519
-74.4439248915071,21605
-71.95249670028534,17304
-69.46175749943245,14745
-66.97170709490854,10934
-64.48234529259423,7703
-61.99367189829195,6738
-59.50568671772464,8325
-57.01838955653636,7973
-54.53178022029283,8535
-52.045858514480074,10392
-49.560624244506016,11859
-47.07607721569923,14226
-44.59221723330904,14424
-42.10904410250669,16128
-39.62655762838392,17088
-37.14475761595372,17515
-34.66364387015028,20197
-32.18321619582866,24654
-29.70347439776515,24407
-27.224418280657005,22704
-24.74604764912317,29619
-22.26836230770266,50340
-19.7913620608565,65033
-17.315046712966478,65033
-14.83941606833514,65033
-12.36446993118659,65033
-9.89020810566592,65033
-7.416630395839093,65033
-4.94373660569363,65033
-2.471526539137585,65033
-6.821210263296962E-13,65033
2.47084320796705,65033
4.941003281093458,65033
7.410480415786196,65033
9.879274808531363,65033
12.347386655893956,65033
14.814816154518212,65033
17.28156350112681,65033
19.74762889252179,65033
22.21301252558385,65033
24.67771459727237,23458
27.141735304626195,8146
29.605074844762612,8038
32.06773341487792,6842
34.52971121224755,6214
36.99100843422559,6187
39.45162527824516,5225
41.91156194181792,4790
44.370818622535126,4390
46.82939551806646,3795
49.287292826160524,6198
51.74451074464503,7409
54.201049471426245,4615
56.65690920448981,2499
59.112090141899785,2338
61.56659248179983,3141
64.02041642241159,3374
66.4735621620365,3682
68.92602989905402,4424
71.37781983192338,4719
73.82893215918205,3553
76.27936707944684,2781
78.72912479141326,2391
81.17820549385567,2417
83.62660938562783,2202
86.07433666566146,1884
88.5213875329681,1887
90.96776218663751,2151
93.41346082583925,2422
95.85848364982041,2651
98.30283085790859,2538
100.7465026495089,1835
103.18949922410604,1652
105.63182078126385,1632
108.07346752062438,1738
110.51443964190923,1832
112.95473734491827,1618
115.39436082953114,1482
117.83331029570547,1266
120.27158594347827,1346
122.7091879729652,1406
125.1461165843615,1470
127.58237197794062,1443
130.01795435405518,1613
132.4528639131364,1639
134.88710085569494,1469
137.32066538231982,1554
139.75355769367923,1770
142.1857779905207,1419
144.61732647366978,1162
147.04820334403132,1089
149.47840880258934,1281
151.90794305040674,1298
154.33680628862487,1572
156.76499871846443,1617
159.19252054122433,1610
161.61937195828352,1580
164.04555317109896,1714
166.47106438120693,1868
168.89590579022217,2023
171.320077599839,2211
173.7435800118302,2243
176.16641322804742,2496
178.58857745042144,2613
181.01007288096173,2468
183.43089972175687,2420
185.85105817497413,2392
188.27054844285988,2404
190.6893707277394,2389
193.10752523201643,2490
195.5250121581745,2546
197.9418317087751,2574
200.3579840864594,2570
202.7734694939469,2627
205.18828813403627,2765
207.6024402096051,2666
210.01592592360964,2650
212.42874547908548,2748
214.84089907914665,2634
217.2523869269868,2505
219.66320922587727,2603
222.0733661791695,2626
224.48285799029293,2584
226.8916848627572,2646
229.29984700014882,2679
231.7073446061355,2788
234.11417788446204,2657
236.520347038953,2834
238.92585227351185,2878
241.33069379212054,2881
243.73487179884035,3002
246.1383864978112,2949
248.541238093252,3054
250.9434267894609,2938
253.34495279081432,2926
255.74581630176783,2967
258.1460175268563,2905
260.54555667069314,2907
262.9444339379703,2979
265.3426495334594,2932
267.7402036620107,3030
270.1370965285529,2931
272.53332833809407,2859
274.9288992957214,2746
277.32380960660055,2686
279.718059475976,2615
282.1116491091717,2714
284.5045787115897,2599
286.89684848871195,2548
289.2884586460981,2722
291.67940938938807,2692
294.0697009242996,2746
296.4593334566299,2759
298.84830719225477,2681
301.23662233712923,2653
303.6242790972866,2522
306.01127767884,2570
308.39761828798066,2503
310.78330113097934,2473
313.16832641418534,2499
315.5526943440269,2418
317.9364051270112,2467
320.3194589697242,2407
322.70185607883093,2519
325.0835966610754,2424
327.4646809232805,2279
329.8451090723478,2305
332.2248813152577,2302
334.6039978590701,2348
336.9824589109231,2356
339.36026467803447,2249
341.7374153677,2129
344.113911187295,2160
346.48975234427337,2234
348.8649390461686,2194
351.2394715005918,2313
353.61334991523415,2256
355.9865744978655,2162
358.35914545633375,2220
360.73106299856715,2250
363.10232733257146,2174
365.47293866643247,2070
367.84289720831396,2117
370.2122031664593,2175
372.5808567491905,2080
374.9488581649083,2049
377.31620762209275,2038
379.6829053293021,2094
382.0489514951745,2108
384.4143463284262,2071
386.7790900378528,1947
389.14318283232853,2052
391.50662492080653,2045
393.86941651231916,1958
396.23155781597745,1985
398.5930490409713,2066
400.9538903965696,2069
403.3140820921202,2016
405.6736243370498,2038
408.03251734086336,2010
410.3907613131465,1999
412.74835646356166,2081
415.10530300185144,2106
417.4616011378372,2019
419.81725108141893,2022
422.1722530425758,1916
424.5266072313656,1945
426.880313857925,2031
429.2333731324701,1954
431.58578526529516,2023
433.9375504667738,1911
436.2886689473588,1981
438.63914091758113,1938
440.9889665880513,2024
443.33814616945835,1952
445.68667987257015,1906
448.03456790823395,1913
450.3818104873759,1889
452.72840782100013,1966
455.07436012019105,1898
457.41966759611057,1981
459.7643304600007,1927
462.10834892318155,1890
464.4517231970525,1853
466.79445349309174,2007
469.1365400228566,1941
471.4779829979826,1952
473.81878263018564,1867
476.15893913125876,2007
478.4984527130747,2053
480.8373235875855,2071
483.17555196682144,2157
485.5131380628919,2177
487.8500820879857,2185
490.1863842543697,2348
492.52204477439034,2445
494.8570638604725,2639
497.1914417251204,3042
499.52517858091653,3342
501.85827464052306,3633
504.19073011668036,3718
506.5225452222086,3745
508.85372017000566,3810
511.18425517304956,3841
513.514150444396,4559
515.8434061971808,5666
518.1720226446176,6747
520.4999999999999,6646
522.8273384766991,6458
525.1540382881666,6071
527.480099647932,5443
529.8055227696037,4252
532.1303078668694,3053
534.454455153496,2559
536.777964843328,2285
539.1008371502907,2155
541.4230722883866,2104
543.744670471698,2086
546.0656319143858,2026
548.3859568306899,1966
550.7056454349294,1916
553.0246979415016,1992
555.3431145648834,1978
557.6608955196306,1906
559.978041020377,1954
562.2945512818363,1977
564.6104265188006,2015
566.9256669461412,1981
569.2402727788082,1944
571.5542442318302,2017
573.8675815203156,2068
576.1802848594508,2051
578.4923544645015,2081
580.8037905508126,2069
583.114593333807,1991
585.4247630289875,1960
587.7342998519354,1998
590.0432040183106,2004
592.3514757438526,2080
594.6591152443794,2036
596.9661227357875,1998
599.2724984340531,2002
601.578242555231,2008
603.8833553154542,1971
606.1878369309362,1961
608.4916876179676,1914
610.7949075929192,1951
613.0974970722403,1985
615.3994562724587,2012
617.7007854101818,1975
620.0014847020951,1967
622.3015543649641,2022
624.6009946156324,2090
626.8998056710224,2045
629.1979877481361,2028
631.4955410640538,1983
633.7924658359349,1974
636.0887622810175,1994
638.3844306166192,2017
640.6794710601358,2018
642.9738838290426,2088
645.2676691408932,2078
647.5608272133207,2047
649.853358264037,2044
652.1452625108324,2045
654.4365401715764,2003
656.7271914642178,2077
659.0172166067838,2097
661.3066158173809,2105
663.5953893141935,2044
665.8835373154867,1955
668.1710600396028,1995
670.4579577049639,2073
672.7442305300709,2091
675.0298787335033,2051
677.3149025339197,1951
679.599302150058,2027
681.8830778007342,2020
684.1662297048437,2059
686.4487580813608,2035
688.7306631493387,2130
691.0119451279091,2042
693.2926042362834,1987
695.5726406937516,2057
697.8520547196814,1975
700.1308465335215,1971
702.4090163547982,1957
704.6865644031171,2041
706.9634908981619,2012
709.2397960596965,1992
711.5154801075631,2098
713.7905432616823,1986
716.0649857420548,2003
718.3388077687592,2056
720.612009561953,2009
722.8845913418733,2055
725.1565533288352,1925
727.427895743234,2031
729.6986188055427,2008
731.9687227363137,1907
734.238207756178,2004
736.5070740858458,1991
738.7753219461066,1973
741.0429515578281,2013
743.3099631419569,2020
745.5763569195191,1981
747.8421331116193,2022
750.1072919394409,1901
752.3718336242467,1991
754.6357583873777,1969
756.8990664502545,1981
759.1617580343765,1998
761.423833361321,2002
763.6852926527457,1996
765.9461361303862,1986
768.206364016058,2006
770.4659765316536,1934
772.7249738991469,2026
774.9833563405886,1997
777.2411240781092,2010
779.4982773339183,2028
781.7548163303044,2049
784.010741289634,2045
786.2660524343538,2081
788.5207499869881,1992
790.7748341701416,2036
793.0283052064964,2046
795.2811633188143,2086
797.5334087299362,2064
799.7850416627813,2040
802.0360623403484,1981
804.2864709857143,2054
806.5362678220353,2037
808.7854530725468,2090
811.0340269605625,2060
813.2819897094754,2000
815.5293415427581,2132
817.77608268396,2079
820.0222133567116,1999
822.2677337847211,1966
824.5126441917765,2046
826.7569448017433,2033
829.0006358385675,2025
831.2437175262731,2094
833.4861900889629,2054
835.7280537508192,1990
837.9693087361026,1946
840.2099552691533,2104
842.4499935743896,2118
844.689423876309,2008
846.9282463994886,1997
849.1664613685833,1998
851.4040690083276,2042
853.6410695435349,2070
855.877463199097,2116
858.1132501999847,2084
860.3484307712487,2022
862.5830051380175,1981
864.8169735254988,2070
867.0503361589791,1993
869.2830932638243,2057
871.5152450654786,2126
873.7467917894654,2079
875.9777336613873,2147
878.2080709069252,2117
880.4378037518389,2081
882.666932421968,2078
884.8954571432301,2200
887.1233781416219,2159
889.3506956432192,2177
891.5774098741766,2064
893.803521060728,2148
896.0290294291852,2162
898.2539352059397,2156
900.4782386174619,2114
902.7019398903011,2130
904.925039251085,2061
907.147536926521,2102
909.3694331433943,2052
911.59072812857,2147
913.8114221089921,2079
916.0315153116827,2046
918.2510079637437,1997
920.4699002923547,1988
922.6881925247761,2054
924.905884888345,2141
927.1229776104793,2032
929.3394709186747,2048
931.555365040506,2053
933.7706602036275,2092
935.9853566357709,2107
938.1994545647489,2148
940.4129542184515,2083
942.6258558248488,2171
944.8381596119883,2133
947.0498658079974,2142
949.2609746410825,2064
951.4714863395287,2101
953.6814011316998,2136
955.8907192460387,2159
958.0994409110671,2121
960.3075663553858,2028
962.5150958076741,2062
964.7220294966913,2104
966.928367651274,2102
969.1341105003388,1981
971.3392582728806,2037
973.5438111979742,2022
975.747769504772,2040
977.9511334225061,1981
980.153903180487,2039
982.3560790081052,2071
984.5576611348289,1981
986.7586497902058,1956
988.9590452038618,1980
991.158847605503,1872
993.3580572249133,1800
995.5566742919558,1840
997.7546990365728,1823
999.952131688785,1789
1002.1489724786926,1728
1004.3452216364743,1742
1006.5408793923874,1730
1008.7359459767691,1757
1010.9304216200343,1749
1013.1243065526781,1777
1015.3176010052733,1744
1017.510305208472,1673
1019.7024193930064,1715
1021.8939437896848,1749
1024.0848786293977,1689
1026.2752241431122,1628
1028.4649805618747,1698
1030.6541481168115,1685
1032.842727039127,1676
1035.0307175601051,1636
1037.2181199111074,1678
1039.4049343235752,1601
1041.591161029029,1640
1043.7768002590683,1603
1045.9618522453698,1716
1048.1463172196918,1648
1050.3301954138697,1645
1052.513487059818,1588
1054.69619238953,1630
1056.8783116350783,1622
1059.0598450286152,1592
1061.2407928023704,1594
1063.4211551886528,1629
1065.6009324198508,1658
1067.780124728432,1709
1069.9587323469414,1573
1072.1367555080046,1594
1074.314194444325,1640
1076.4910493886855,1627
1078.667320573947,1599
1080.843008233051,1572
1083.0181125990161,1594
1085.1926339049414,1621
1087.3665723840027,1584
1089.5399282694575,1666
1091.7127017946405,1569
1093.8848931929647,1532
1096.0565026979243,1586
1098.2275305430899,1561
1100.3979769621128,1627
1102.567842188722,1559
1104.737126456726,1546
1106.9058300000124,1531
1109.0739530525475,1595
1111.2414958483764,1542
1113.4084586216231,1543
1115.5748416064907,1537
1117.7406450372605,1516
1119.9058691482942,1526
1122.0705141740304,1560
1124.2345803489884,1482
1126.3980679077658,1527
1128.5609770850388,1543
1130.7233081155623,1560
1132.8850612341707,1567
1135.0462366757774,1475
1137.2068346753745,1593
1139.3668554680326,1529
1141.526299288901,1478
1143.68516637321,1571
1145.8434569562655,1557
1148.001171273455,1537
1150.158309560244,1543
1152.3148720521767,1492
1154.470858984876,1503
1156.626270594044,1526
1158.7811071154629,1478
1160.9353687849912,1572
1163.089055838569,1566
1165.242168512213,1530
1167.3947070420209,1512
1169.5466716641677,1532
1171.6980626149075,1568
1173.8488801305748,1511
1175.9991244475814,1560
1178.1487958024186,1502
1180.2978944316555,1493
1182.4464205719428,1466
1184.5943744600072,1446
1186.7417563326567,1516
1188.8885664267755,1534
1191.0348049793297,1494
1193.1804722273619,1505
1195.325568407995,1520
1197.4700937584303,1494
1199.614048515948,1536
1201.7574329179074,1511
1203.900247201746,1539
1206.042491604982,1500
1208.1841663652099,1460
1210.3252717201053,1543
1212.465807907422,1581
1214.6057751649923,1501
1216.7451737307279,1541
1218.8840038426192,1535
1221.0222657387353,1601
1223.1599596572241,1520
1225.2970858363137,1473
1227.4336445143094,1598
1229.5696359295966,1507
1231.705060320639,1563
1233.8399179259786,1601
1235.9742089842384,1638
1238.107933734118,1645
1240.2410924143974,1597
1242.373685263935,1548
1244.5057125216676,1582
1246.6371744266116,1541
1248.7680712178621,1583
1250.898403134593,1597
1253.028170416058,1563
1255.1573733015875,1601
1257.2860120305932,1583
1259.4140868425648,1603
1261.54159797707,1570
1263.6685456737569,1590
1265.7949301723515,1579
1267.9207517126597,1592
1270.046010534565,1632
1272.1707068780306,1628
1274.2948409830983,1610
1276.4184130898889,1626
1278.541423438603,1649
1280.6638722695184,1687
1282.785759822993,1611
1284.9070863394636,1691
1287.0278520594447,1636
1289.1480572235314,1659
1291.2677020723963,1648
1293.3867868467923,1699
1295.5053117875495,1762
1297.623277135579,1703
1299.740683131868,1745
1301.8575300174857,1668
1303.973818033578,1765
1306.0895474213703,1763
1308.2047184221678,1790
1310.3193312773528,1741
1312.4333862283888,1773
1314.5468835168163,1686
1316.659823384255,1669
1318.7722060724045,1790
1320.8840318230418,1753
1322.9953008780249,1789
1325.1060134792888,1781
1327.2161698688478,1780
1329.3257702887959,1787
1331.4348149813054,1692
1333.5433041886276,1761
1335.6512381530933,1685
1337.7586171171101,1758
1339.8654413231675,1752
1341.9717110138317,1827
1344.0774264317488,1731
1346.1825878196432,1663
1348.2871954203192,1782
1350.3912494766587,1670
1352.4947502316231,1668
1354.5976979282532,1758
1356.7000928096686,1680
1358.8019351190665,1656
1360.9032250997243,1742
1363.0039629949988,1681
1365.1041490483235,1679
1367.2037835032133,1685
1369.3028666032606,1698
1371.401398592137,1719
1373.4993797135926,1731
1375.5968102114575,1729
1377.6936903296396,1646
1379.7900203121262,1660
1381.8858004029835,1724
1383.9810308463561,1678
1386.075711886469,1663
1388.1698437676241,1600
1390.2634267342032,1727
1392.356461030667,1737
1394.4489469015557,1652
1396.5408845914872,1712
1398.6322743451592,1711
1400.7231164073469,1663
1402.813411022907,1723
1404.903158436773,1770
1406.9923588939578,1666
1409.0810126395531,1725
1411.1691199187303,1730
1413.2566809767386,1800
1415.343696058907,1739
1417.4301654106425,1761
1419.5160892774315,1748
1421.6014679048399,1749
1423.6863015385125,1716
1425.7705904241707,1812
1427.8543348076178,1745
1429.9375349347342,1775
1432.0201910514802,1829
1434.102303403894,1797
1436.1838722380944,1819
1438.2648978002767,1792
1440.3453803367174,1819
1442.4253200937692,1811
1444.5047173178677,1793
1446.5835722555234,1869
1448.6618851533285,1934
1450.739656257952,1933
1452.8168858161434,1892
1454.8935740747306,1863
1456.96972128062,1955
1459.045327680797,1981
1461.120393522327,1971
1463.1949190523528,2000
1465.2689045180973,1940
1467.3423501668608,2086
1469.415256246024,2025
1471.4876230030463,2027
1473.559450685465,2028
1475.6307395408976,2088
1477.7014898170391,2053
1479.771701761665,2082
1481.8413756226287,2134
1483.9105116478618,2172
1485.9791100853772,2091
1488.0471711832643,2163
1490.1146951896926,2201
1492.1816823529098,2162
1494.2481329212433,2214
1496.3140471430984,2222
1498.3794252669609,2192
1500.4442675413939,2237
1502.5085742150404,2236
1504.572345536622,2230
1506.6355817549388,2217
1508.6982831188702,2285
1510.7604498773744,2310
1512.8220822794883,2273
1514.8831805743293,2324
1516.9437450110909,2348
1519.003775839048,2347
1521.0632733075522,2356
1523.1222376660367,2393
1525.1806691640113,2339
1527.2385680510652,2404
1529.2959345768668,2301
1531.3527689911643,2398
1533.4090715437833,2427
1535.4648424846291,2512
1537.5200820636855,2401
1539.5747905310159,2476
1541.6289681367616,2488
1543.6826151311434,2427
1545.7357317644614,2542
1547.7883182870937,2559
1549.8403749494987,2572
1551.8919020022113,2624
1553.9428996958477,2742
1555.9933682811015,2661
1558.0433080087469,2761
1560.0927191296346,2660
1562.1416018946961,2776
1564.1899565549415,2681
1566.2377833614592,2751
1568.2850825654164,2744
1570.3318544180606,2705
1572.3780991707158,2536
1574.423817074788,2614
1576.4690083817595,2529
1578.5136733431923,2403
1580.5578122107272,2304
1582.601425236085,2202
1584.6445126710646,2210
1586.6870747675434,2203
1588.7291117774776,2131
1590.7706239529034,2184
1592.8116115459347,2095
1594.8520748087658,2071
1596.8920139936686,2021
1598.9314293529933,1944
1600.9703211391711,1912
1603.008689604711,1953
1605.0465350022005,1926
1607.0838575843068,1866
1609.1206576037753,1765
1611.1569353134305,1802
1613.1926909661765,1821
1615.2279248149953,1832
1617.2626371129481,1738
1619.2968281131757,1678
1621.3304980688963,1724
1623.3636472334088,1734
1625.39627586009,1665
1627.428384202396,1693
1629.459972513861,1674
1631.4910410480993,1597
1633.5215900588028,1632
1635.551619799744,1605
1637.5811305247717,1618
1639.6101224878166,1613
1641.6385959428862,1588
1643.6665511440683,1580
1645.693988345528,1575
1647.7209078015112,1567
1649.7473097663405,1591
1651.7731944944203,1559
1653.7985622402307,1591
1655.823413258333,1554
1657.847747803366,1637
1659.8715661300494,1569
1661.8948684931793,1485
1663.9176551476316,1597
1665.9399263483624,1563
1667.9616823504057,1552
1669.982923408873,1545
1672.0036497789574,1534
1674.0238617159293,1554
1676.043559475138,1622
1678.0627433120121,1538
1680.081413482059,1571
1682.0995702408654,1512
1684.117213844096,1537
1686.134344547495,1526
1688.1509626068864,1464
1690.1670682781705,1580
1692.182661817329,1543
1694.1977434804217,1564
1696.2123135235875,1539
1698.226372203043,1591
1700.2399197750851,1568
1702.2529564960905,1526
1704.2654826225112,1515
1706.277498410882,1543
1708.2890041178139,1530
1710.2999999999988,1508
1712.3104863142066,1505
1714.3204633172854,1518
1716.329931266163,1548
1718.3388904178469,1540
1720.3473410294214,1540
1722.3552833580516,1516
1724.3627176609807,1538
1726.3696441955308,1565
1728.3760632191033,1596
1730.3819749891782,1538
1732.3873797633146,1517
1734.3922777991502,1533
1736.3966693544012,1567
1738.4005546868639,1512
1740.4039340544127,1527
1742.406807715001,1521
1744.4091759266616,1483
1746.4110389475054,1520
1748.4123970357223,1510
1750.413250449582,1547
1752.4135994474318,1466
1754.4134442876993,1494
1756.4127852288902,1536
1758.4116225295893,1502
1760.4099564484595,1488
1762.407787244244,1542
1764.405115175764,1503
1766.4019405019203,1492
1768.3982634816916,1455
1770.3940843741357,1482
1772.3894034383907,1503
1774.3842209336717,1486
1776.378537119274,1505
1778.372352254571,1451
1780.3656665990156,1533
1782.3584804121397,1526
1784.3507939535534,1564
1786.3426074829463,1484
1788.3339212600863,1481
1790.3247355448211,1494
1792.3150505970766,1515
1794.3048666768573,1532
1796.2941840442477,1494
1798.2830029594106,1413
1800.2713236825884,1528
1802.2591464741004,1494
1804.2464715943465,1452
1806.2332993038058,1466
1808.2196298630352,1539
1810.2054635326708,1476
1812.190800573428,1515
1814.175641246101,1481
1816.1599858115628,1477
1818.1438345307652,1517
1820.127187664738,1461
1822.1100454745924,1397
1824.092408221516,1482
1826.0742761667766,1445
1828.055649571721,1486
1830.0365286977735,1507
1832.0169138064398,1470
1833.9968051593014,1490
1835.9762030180214,1433
1837.9551076443408,1509
1839.9335193000788,1505
1841.9114382471344,1501
1843.888864747485,1542
1845.8657990631878,1532
1847.842241456378,1503
1849.8181921892697,1533
1851.7936515241558,1455
1853.7686197234098,1457
1855.7430970494815,1453
1857.7170837649014,1470
1859.6905801322787,1453
1861.6635864143004,1549
1863.6361028737338,1468
1865.608129773424,1468
1867.5796673762961,1453
1869.5507159453537,1445
1871.521275743678,1462
1873.4913470344313,1457
1875.4609300808534,1459
1877.4300251462632,1496
1879.3986324940588,1492
1881.366752387717,1487
1883.3343850907936,1541
1885.3015308669228,1492
1887.268189979819,1502
1889.2343626932739,1496
1891.2000492711595,1571
1893.1652499774254,1526
1895.1299650761011,1580
1897.0941948312952,1529
1899.0579395071945,1518
1901.0211993680641,1453
1902.98397467825,1491
1904.9462657021745,1501
1906.9080727043415,1505
1908.869395949332,1524
1910.8302357018065,1534
1912.790592226504,1435
1914.7504657882428,1516
1916.7098566519212,1527
1918.6687650825133,1506
1920.6271913450764,1449
1922.5851357047422,1490
1924.5425984267245,1462
1926.499579776314,1462
1928.4560800188833,1501
1930.4120994198802,1442
1932.367638244833,1480
1934.32269675935,1550
1936.2772752291175,1447
1938.231373919899,1493
1940.1849930975404,1475
1942.1381330279637,1477
1944.0907939771696,1463
1946.0429762112412,1467
1947.9946799963363,1476
1949.9459055986945,1371
1951.896653284633,1447
1953.8469233205478,1434
1955.7967159729142,1458
1957.7460315082863,1413
1959.6948701932974,1525
1961.6432322946594,1477
1963.5911180791632,1437
1965.5385278136787,1439
1967.4854617651545,1450
1969.4319202006182,1484
1971.377903387176,1484
1973.3234115920136,1461
1975.268445082395,1446
1977.2130041256642,1448
1979.1570889892423,1413
1981.1006999406304,1440
1983.04383724741,1476
1984.986501177238,1455
1986.928691997853,1461
1988.8704099770712,1454
1990.811655382789,1470
1992.7524284829801,1471
1994.692729545698,1453
1996.6325588390755,1443
1998.5719166313224,1446
2000.5108031907307,1518
2002.4492187856677,1416
2004.387163684583,1414
2006.3246381560011,1393
2008.2616424685298,1407
2010.1981768908527,1364
2012.1342416917332,1425
2014.069837140014,1426
2016.0049635046162,1489
2017.9396210545406,1468
2019.8738100588666,1408
2021.8075307867502,1459
2023.740783507431,1424
2025.6735684902228,1430
2027.6058860045214,1475
2029.5377363198004,1474
2031.4691197056118,1440
2033.4000364315875,1458
2035.3304867674374,1429
2037.260470982952,1448
2039.189989347998,1449
2041.1190421325232,1407
2043.047629606554,1406
2044.9757520401945,1467
2046.9034097036288,1423
2048.8306028671195,1449
2050.7573318010086,1424
2052.683596775716,1485
2054.609398061742,1432
2056.5347359296647,1431
2058.4596106501403,1413
2060.384022493906,1440
2062.3079717317764,1465
2064.231458634646,1437
2066.1544834734873,1395
2068.077046519352,1428
2069.99914804337,1413
2071.9207883167524,1390
2073.8419676107865,1377
2075.7626861968406,1429
2077.6829443463607,1410
2079.6027423308715,1406
2081.522080421977,1383
2083.440958891362,1424
2085.359378010786,1382
2087.2773380520907,1373
2089.194839287196,1398
2091.111881988101,1457
2093.0284664268825,1425
2094.9445928756973,1409
2096.86026160678,1400
2098.775472892446,1350
2100.690227005088,1439
2102.604524217178,1452
2104.5183648012676,1437
2106.431749029985,1425
2108.34467717604,1461
2110.2571495122206,1404
2112.169166311393,1420
2114.080727846503,1466
2115.9918343905747,1439
2117.902486216711,1361
2119.8126835980956,1390
2121.722426807987,1461
2123.6317161197285,1477
2125.5405518067364,1528
2127.448934142509,1500
2129.356863400624,1489
2131.264339854737,1498
2133.1713637785815,1481
2135.077935445972,1403
2136.9840551308002,1508
2138.889723107037,1503
2140.7949396487334,1440
2142.699705030018,1516
2144.6040195250994,1480
2146.507883408264,1514
2148.4112969538774,1452
2150.3142604363848,1470
2152.2167741303097,1494
2154.1188383102535,1409
2156.0204532508997,1493
2157.9216192270064,1526
2159.822336513414,1484
2161.7226053850413,1494
2163.622426116884,1438
2165.5217989840185,1458
2167.4207242616,1518
2169.319202224862,1529
2171.2172331491165,1522
2173.1148173097563,1529
2175.0119549822507,1464
2176.90864644215,1509
2178.8048919650823,1498
2180.7006918267534,1582
2182.596046302952,1493
2184.4909556695407,1447
2186.3854202024645,1550
2188.279440177746,1529
2190.173015871487,1542
2192.066147559868,1541
2193.958835519149,1502
2195.851080025667,1540
2197.7428813558417,1523
2199.6342397861667,1461
2201.5251555932186,1475
2203.415629053651,1551
2205.3056604441986,1493
2207.19525004167,1530
2209.084398122958,1567
2210.9731049650327,1560
2212.861370844941,1613
2214.749196039812,1534
2216.636580826851,1538
2218.523525483344,1557
2220.410030286655,1539
2222.296095514226,1509
2224.1817214435805,1502
2226.066908352319,1547
2227.951656518121,1589
2229.835966218746,1595
2231.71983773203,1501
2233.6032713358913,1588
2235.486267308324,1520
2237.3688259274036,1530
2239.2509474712824,1553
2241.132632218193,1491
2243.013880446447,1553
2244.8946924344323,1559
2246.7750684606203,1492
2248.6550088035574,1521
2250.534513741871,1510
2252.413583554265,1533
2254.292218519526,1548
2256.170418916517,1507
2258.0481850241786,1449
2259.925517121534,1472
2261.8024154876825,1528
2263.678880401803,1517
2265.5549121431536,1515
2267.430510991071,1476
2269.305677224971,1527
2271.180411124348,1537
2273.0547129687766,1441
2274.9285830379076,1461
2276.8020216114737,1475
2278.6750289692845,1549
2280.5476053912294,1510
2282.4197511572766,1483
2284.2914665474727,1535
2286.162751841943,1568
2288.0336073208937,1584
2289.904033264608,1550
2291.774029953448,1462
2293.6435976678554,1558
2295.5127366883517,1453
2297.381447295534,1461
2299.2497297700825,1437
2301.1175843927526,1375
2302.9850114443825,1426
2304.852011205885,1386
2306.7185839582553,1389
2308.5847299825664,1326
2310.4504495599676,1341
2312.3157429716925,1312
2314.1806104990483,1293
2316.0450524234247,1257
2317.9090690262888,1331
2319.772660589186,1253
2321.635827393742,1261
2323.498569721661,1291
2325.3608878547248,1279
2327.2227820747967,1277
2329.0842526638157,1278
2330.945299903803,1320
2332.805924076857,1220
2334.6661254651535,1301
2336.525904350951,1273
2338.3852610165827,1333
2340.244195744464,1299
2342.102708817088,1249
2343.9608005170253,1274
2345.8184711269287,1314
2347.675720929526,1246
2349.532550207628,1261
2351.38895924412,1342
2353.24494832197,1276
2355.100517724223,1309
2356.955667734004,1288
2358.810398634514,1290
2360.664710709037,1369
2362.5186042409337,1314
2364.3720795136437,1296
2366.225136810686,1272
2368.0777764156583,1325
2369.929998612237,1319
2371.7818036841777,1333
2373.633191915315,1310
2375.484163589562,1286
2377.3347189909114,1289
2379.184858403434,1343
2381.03458211128,1305
2382.8838903986775,1292
2384.732783549936,1321
2386.5812618494406,1282
2388.4293255816588,1340
2390.2769750311327,1295
2392.1242104824883,1305
2393.971032220427,1272
2395.8174405297295,1301
2397.6634356952563,1331
2399.509018001947,1353
2401.3541877348193,1320
2403.1989451789705,1329
2405.043290619576,1319
2406.8872243418905,1274
2408.730746631247,1296
2410.5738577730594,1322
2412.4165580528183,1345
2414.258847756095,1295
2416.100727168537,1318
2417.9421965758734,1291
2419.783256263912,1350
2421.623906518538,1363
2423.4641476257157,1354
2425.303979871491,1313
2427.143403541984,1324
2428.9824189233977,1309
2430.821026302012,1320
2432.6592259641866,1290
2434.497018196361,1316
2436.33440328505,1296
2438.171381516851,1313
2440.00795317844,1348
2441.844118556569,1325
2443.6798779380724,1333
2445.5152316098606,1334
2447.3501798589255,1318
2449.1847229723357,1296
2451.0188612372403,1361
2452.8525949408663,1293
2454.6859243705203,1301
2456.518849813587,1297
2458.3513715575314,1364
2460.183489889895,1381
2462.015205098301,1377
2463.8465174704493,1407
2465.67742729412,1336
2467.5079348571717,1317
2469.338040447542,1396
2471.1677443532476,1319
2472.9970468623833,1329
2474.825948263123,1293
2476.6544488437207,1316
2478.482548892508,1358
2480.310248697896,1308
2482.137548548374,1295
2483.9644487325118,1333
2485.790949538956,1352
2487.617051256433,1356
2489.44275417375,1317
2491.26805857979,1332
2493.0929647635157,1331
2494.917473013971,1351
2496.741583620276,1368
2498.5652968716304,1392
2500.3886130573137,1362
2502.2115324666834,1302
2504.0340553891765,1358
2505.856182114308,1385
2507.6779129316733,1357
2509.499248130945,1376
2511.3201880018764,1352
2513.140732834298,1380
2514.9608829181198,1368
2516.780638543331,1339
2518.6,1320
2520.418967578273,1330
2522.237541568376,1318
2524.0557222606144,1353
2525.8735099453706,1434
2527.6909049131086,1397
2529.507907454368,1369
2531.32451785977,1369
2533.140736420014,1353
2534.9565634258774,1411
2536.771999168218,1387
2538.5870439379714,1375
2540.4016980261526,1380
2542.2159617238544,1392
2544.02983532225,1414
2545.8433191125914,1409
2547.656413386209,1388
2549.4691184345115,1397
2551.2814345489874,1434
2553.093362021204,1459
2554.904901142808,1430
2556.716052205523,1489
2558.526815501153,1466
2560.3371913215824,1444
2562.147179958771,1481
2563.956781704761,1429
2565.7659968516705,1452
2567.5748256916986,1512
2569.3832685171224,1485
2571.1913256202984,1471
2572.9989972936614,1483
2574.806283829725,1450
2576.613185521084,1457
2578.4197026604074,1497
2580.2258355404483,1504
2582.031584454035,1502
2583.836949694077,1534
2585.6419315535613,1541
2587.4465303255533,1547
2589.2507463032002,1501
2591.0545797797245,1517
2592.8580310484303,1467
2594.6611004026995,1481
2596.463788135992,1440
2598.266094541849,1491
2600.0680199138874,1502
2601.869564545807,1509
2603.670728731383,1546
2605.4715127644704,1492
2607.2719169390048,1453
2609.071941548998,1484
2610.8715868885433,1427
2612.670853251811,1496
2614.469740933052,1542
2616.268250226594,1495
2618.0663814268455,1529
2619.864134828292,1458
2621.6615107255006,1508
2623.458509413115,1504
2625.2551311858597,1425
2627.0513763385347,1404
2628.8472451660223,1437
2630.6427379632833,1394
2632.4378550253564,1452
2634.232596647359,1409
2636.026963124488,1430
2637.8209547520187,1458
2639.6145718253065,1440
2641.407814639785,1427
2643.200683490966,1424
2644.9931786744414,1445
2646.7853004858807,1396
2648.577049221034,1394
2650.3684251757277,1419
2652.1594286458712,1390
2653.9500599274484,1422
2655.740319316525,1378
2657.5302071092437,1357
2659.3197236018286,1411
2661.10886909058,1405
2662.8976438718782,1387
2664.686048242183,1338
2666.4740824980327,1379
2668.2617469360443,1353
2670.0490418529134,1345
2671.8359675454153,1360
2673.622524310403,1339
2675.408712444811,1321
2677.1945322456495,1367
2678.979984010009,1327
2680.76506803506,1317
2682.5497846180497,1409
2684.334134056306,1340
2686.1181166472343,1350
2687.9017326883213,1307
2689.6849824771293,1301
2691.4678663113013,1283
2693.2503844885596,1319
2695.032537306705,1317
2696.8143250636167,1259
2698.5957480572542,1342
2700.3768065856534,1342
2702.1575009469316,1350
2703.937831439283,1334
2705.717798360982,1269
2707.4974020103837,1348
2709.276642685917,1252
2711.055520686095,1319
2712.834036309506,1305
2714.612189854819,1287
2716.389981620782,1349
2718.1674119062204,1273
2719.944481010041,1279
2721.721189231226,1353
2723.4975368688415,1303
2725.273524222027,1301
2727.0491515900053,1333
2728.824419272075,1315
2730.5993275676146,1319
2732.3738767760838,1274
2734.148067197016,1283
2735.921899130031,1247
2737.6953728748194,1266
2739.468488731156,1288
2741.2412469988926,1273
2743.0136479779617,1324
2744.785691968372,1284
2746.5573792702116,1305
2748.3287101836504,1248
2750.099685008934,1253
2751.870304046388,1279
2753.640567596418,1237
2755.4104759595057,1250
2757.1800294362156,1248
2758.949228327187,1272
2760.7180729331412,1305
2762.486563554877,1309
2764.254700493272,1259
2766.022484049284,1270
2767.789914523947,1309
2769.5569922183786,1270
2771.3237174337705,1278
2773.090090471394,1321
2774.8561116326036,1305
2776.6217812188274,1280
2778.3870995315756,1220
2780.1520668724356,1249
2781.9166835430747,1312
2783.6809498452394,1197
2785.444866080754,1317
2787.2084325515225,1292
2788.971649559527,1260
2790.73451740683,1325
2792.4970363955713,1276
2794.2592068279705,1222
2796.0210290063264,1287
2797.7825032330147,1274
2799.543629810493,1258
2801.304409041296,1233
2803.0648412280366,1260
2804.8249266734088,1252
2806.5846656801846,1326
2808.344058551212,1310
2810.1031055894246,1237
2811.8618070978273,1288
2813.6201633795085,1294
2815.378174737636,1308
2817.1358414754536,1266
2818.893163896285,1243
2820.6501423035334,1254
2822.4067770006814,1274
2824.1630682912883,1277
2825.9190164789957,1230
2827.6746218675207,1302
2829.429884760661,1323
2831.184805462294,1281
2832.9393842763743,1280
2834.693621506936,1298
2836.4475174580916,1375
2838.201072434034,1324
2839.954286739034,1282
2841.707160677441,1239
2843.459694553685,1305
2845.2118886722724,1247
2846.96374333779,1250
2848.7152588549034,1316
2850.4664355283567,1261
2852.217273662973,1320
2853.9677735636546,1301
2855.7179355353833,1270
2857.4677598832186,1302
2859.217246912299,1271
2860.9663969278427,1230
2862.715210235146,1288
2864.4636871395846,1275
2866.211827946614,1207
2867.9596329617652,1309
2869.7071024906536,1281
2871.4542368389684,1335
2873.20103631248,1285
2874.947501217038,1287
2876.6936318585695,1312
2878.4394285430812,1302
2880.1848915766604,1312
2881.9300212654707,1276
2883.6748179157553,1279
2885.4192818338374,1278
2887.1634133261173,1272
2888.907212699077,1273
2890.6506802592744,1244
2892.393816313348,1278
2894.1366211680142,1357
2895.8790951300693,1323
2897.621238506388,1317
2899.363051603925,1291
2901.1045347297118,1217
2902.8456881908596,1323
2904.58651229456,1259
2906.327007348081,1267
2908.067173658772,1243
2909.8070115340597,1276
2911.5465212814497,1208
2913.285703208527,1258
2915.0245576229563,1255
2916.7630848324807,1297
2918.5012851449196,1262
2920.2391588681758,1303
2921.976706310227,1277
2923.7139277791334,1242
2925.4508235830313,1251
2927.187394030137,1227
2928.923639428745,1289
2930.6595600872306,1253
2932.395156314046,1225
2934.1304284177218,1343
2935.8653767068713,1358
2937.6000014901815,1249
2939.3343030764227,1292
2941.068281774442,1320
2942.8019378931644,1318
2944.5352717415976,1276
2946.2682836288236,1273
2948.0009738640065,1255
2949.7333427563885,1224
2951.465390615289,1259
2953.1971177501086,1282
2954.9285244703265,1298
2956.6596110855,1245
2958.3903779052657,1326
2960.1208252393385,1282
2961.8509533975125,1243
2963.5807626896617,1218
2965.3102534257378,1242
2967.0394259157715,1256
2968.768280469873,1263
2970.496817398232,1288
2972.2250370111146,1265
2973.952939618869,1280
2975.6805255319196,1316
2977.4077950607707,1296
2979.134748516006,1335
2980.861386208289,1299
2982.587708448359,1285
2984.313715547037,1274
2986.039407815222,1270
2987.764785563891,1317
2989.489849104102,1297
2991.2145987469908,1276
2992.9390348037705,1263
2994.6631575857346,1262
2996.3869674042576,1231
2998.1104645707887,1244
2999.83364939686,1243
3001.5565221940783,1288
3003.2790832741334,1192
3005.0013329487924,1235
3006.7232715298996,1255
3008.4448993293804,1244
3010.166216659239,1209
3011.887223831558,1241
3013.607921158498,1209
3015.3283089522993,1269
3017.0483875252826,1261
3018.7681571898443,1237
3020.4876182584626,1293
3022.2067710436927,1241
3023.9256158581707,1266
3025.644153014609,1224
3027.362382825801,1223
3029.0803056046193,1227
3030.797921664012,1277
3032.5152313170106,1210
3034.2322348767225,1272
3035.9489326563353,1269
3037.665324969115,1198
3039.3814121284063,1261
3041.097194447633,1213
3042.812672240299,1249
3044.5278458199855,1219
3046.2427155003525,1232
3047.9572815951406,1275
3049.671544418167,1231
3051.38550428333,1316
3053.0991615046073,1282
3054.812516396051,1243
3056.5255692717974,1252
3058.2383204460575,1200
3059.9507702331257,1305
3061.662918947372,1248
3063.3747669032446,1246
3065.0863144152736,1234
3066.7975617980674,1252
3068.508509366309,1254
3070.219157434767,1266
3071.9295063182844,1252
3073.639556331785,1304
3075.3493077902704,1266
3077.058761008821,1273
3078.7679163025964,1267
3080.476773986837,1198
3082.1853343768594,1260
3083.89359778806,1273
3085.6015645359153,1240
3087.3092349359786,1238
3089.016609303884,1311
3090.7236879553434,1269
3092.4304712061476,1228
3094.136959372166,1255
3095.843152769349,1284
3097.5490517137237,1195
3099.2546565213966,1276
3100.959967508554,1223
3102.66498499146,1265
3104.3697092864577,1262
3106.0741407099695,1294
3107.778279578498,1235
3109.482126208622,1331
3111.1856809170004,1236
3112.8889440203716,1272
3114.5919158355528,1202
3116.294596679439,1239
3117.996986869006,1216
3119.6990867213062,1248
3121.4008965534726,1313
3123.102416682717,1238
3124.803647426329,1311
3126.5045891016784,1305
3128.205242026213,1227
3129.90560651746,1234
3131.605682893025,1290
3133.3054714705922,1233
3135.0049725679282,1252
3136.7041865028714,1244
3138.4031135933465,1251
3140.101754157353,1283
3141.800108512971,1231
3143.498176978357,1278
3145.1959598717494,1279
3146.8934575114636,1224
3148.5906702158954,1262
3150.2875983035183,1241
3151.9842420928853,1262
3153.680601902627,1209
3155.376678051456,1215
3157.07247085816,1251
3158.767980641609,1167
3160.463207720748,1237
3162.158152414606,1219
3163.8528150422862,1232
3165.5471959229726,1262
3167.2412953759303,1241
3168.9351137204976,1242
3170.628651276098,1310
3172.3219083622307,1260
3174.014885298474,1245
3175.707582404485,1238
3177.4000000000005,1196
3179.092138404835,1297
3180.7839979388846,1271
3182.47557892212,1257
3184.166881674594,1292
3185.8579065164386,1283
3187.5486537678626,1222
3189.2391237491547,1236
3190.9293167806827,1240
3192.6192331828934,1260
3194.3088732763117,1208
3195.998237381542,1249
3197.687325819268,1244
3199.376138910251,1195
3201.064676975334,1240
3202.7529403354347,1226
3204.4409293115523,1223
3206.1286442247647,1207
3207.816085396229,1251
3209.5032531471825,1235
3211.190147798936,1193
3212.8767696728846,1211
3214.5631190905015,1197
3216.2491963733373,1205
3217.9350018430214,1204
3219.6205358212637,1202
3221.305798629851,1207
3222.990790590651,1199
3224.6755120256103,1214
3226.359963256751,1182
3228.0441446061795,1213
3229.7280563960758,1184
3231.411698948703,1213
3233.0950725863995,1199
3234.778177631587,1202
3236.461014406761,1241
3238.1435832345005,1239
3239.8258844374595,1202
3241.507918338374,1238
3243.1896852600576,1265
3244.8711855254023,1192
3246.552419457381,1240
3248.233387379042,1230
3249.914089613516,1277
3251.59452648401,1230
3253.274698313813,1189
3254.95460542629,1212
3256.6342481448855,1237
3258.313626793125,1205
3259.9927416946084,1221
3261.6715931730196,1191
3263.3501815521176,1217
3265.0285071557437,1219
3266.706570307815,1168
3268.3843713323286,1176
3270.0619105533615,1213
3271.739188295068,1244
3273.4162048816834,1203
3275.0929606375184,1236
3276.769455886966,1211
3278.445690954498,1210
3280.1216661646613,1232
3281.797381842087,1230
3283.4728383114807,1309
3285.1480358976296,1229
3286.8229749253996,1258
3288.4976557197333,1188
3290.172078605655,1241
3291.846243908266,1171
3293.5201519527463,1186
3295.193803064357,1171
3296.8671975684374,1209
3298.5403357904024,1221
3300.21321805575,1236
3301.8858446900567,1224
3303.558216018975,1186
3305.23033236824,1204
3306.9021940636603,1194
3308.57380143113,1232
3310.2451547966184,1250
3311.916254486174,1241
3313.5871008259246,1241
3315.2576941420766,1256
3316.9280347609147,1237
3318.5981230088046,1184
3320.2679592121895,1175
3321.9375436975924,1183
3323.606876791612,1198
3325.27595882093,1193
3326.944790112305,1184
3328.6133709925753,1198
3330.2817017886573,1210
3331.949782827547,1211
3333.617614436319,1253
3335.2851969421245,1290
3336.952530672199,1263
3338.619615953853,1233
3340.286453114475,1259
3341.9530424815357,1249
3343.619384382583,1256
3345.2854791452437,1228
3346.951327097224,1212
3348.6169285663073,1222
3350.2822838803577,1238
3351.947393367319,1237
3353.61225735521,1165
3355.2768761721345,1195
3356.9412501462693,1274
3358.605379605873,1213
3360.2692648792827,1201
3361.9329062949146,1165
3363.596304181263,1187
