CollectionTime,9/19/2024 12:00:06 PM
ExposureUsed,30
CalibratedSpectrum
-962.7078968117929,770
-959.9714848408522,876
-957.2358232597828,865
-954.5009119013725,814
-951.7667505983302,791
-949.0333391832855,881
-946.3006774887896,805
-943.5687653473143,759
-940.837602591253,780
-938.1071890529199,820
-935.3775245645503,772
-932.6486089583007,781
-929.9204420662485,820
-927.1930237203925,758
-924.4663537526524,812
-921.7404319948689,814
-919.0152582788041,860
-916.2908324361409,989
-913.5671542984834,792
-910.8442236973568,794
-908.1220404642074,851
-905.4006044304027,821
-902.679915427231,767
-899.959973285902,823
-897.2407778375464,802
-894.5223289132158,799
-891.8046263438832,807
-889.0876699604426,815
-886.3714595937089,805
-883.6559950744183,800
-880.9412762332282,757
-878.2273029007168,805
-875.5140749073835,845
-872.8015920836489,838
-870.0898542598545,798
-867.3788612662631,738
-864.6686129330585,771
-861.9591090903457,725
-859.2503495681506,768
-856.5423341964203,820
-853.8350628050229,843
-851.1285352237478,766
-848.4227512823054,894
-845.7177108103272,847
-843.0134136373656,879
-840.3098595928943,884
-837.6070485063082,849
-834.9049802069229,817
-832.2036545239757,814
-829.5030712866244,819
-826.8032303239481,870
-824.1041314649472,818
-821.4057745385428,883
-818.7081593735775,822
-816.0112857988148,798
-813.3151536429393,831
-810.6197627345566,919
-807.9251129021936,832
-805.2312039742981,827
-802.5380357792392,788
-799.8456081453069,836
-797.1539209007124,862
-794.462973873588,879
-791.772766891987,937
-789.083299783884,896
-786.3945723771743,886
-783.7065844996748,847
-781.0193359791231,808
-778.3328266431781,873
-775.6470563194197,842
-772.9620248353489,858
-770.2777320183878,876
-767.5941776958798,958
-764.9113616950891,950
-762.2292838432011,848
-759.5479439673222,847
-756.8673418944801,870
-754.1874774516235,871
-751.5083504656222,863
-748.8299607632671,906
-746.15230817127,942
-743.475392516264,912
-740.7992136248035,942
-738.1237713233636,892
-735.4490654383407,951
-732.7750957960521,953
-730.1018622227365,971
-727.4293645445534,864
-724.7576025875837,910
-722.0865761778291,887
-719.4162851412126,1011
-716.7467293035781,935
-714.0779084906909,974
-711.409822528237,928
-708.7424712418238,890
-706.0758544569796,1016
-703.4099719991541,1016
-700.7448236937178,1021
-698.0804093659622,982
-695.4167288411002,919
-692.7537819442656,907
-690.0915685005134,913
-687.4300883348199,1014
-684.7693412720819,993
-682.1093271371178,1024
-679.4500457546669,948
-676.7914969493897,915
-674.1336805458676,957
-671.4765963686034,967
-668.8202442420206,1021
-666.1646239904642,1046
-663.5097354382001,965
-660.8555784094151,1011
-658.2021527282176,994
-655.5494582186366,994
-652.8974947046223,1070
-650.2462620100463,1075
-647.5957599587009,1021
-644.9459883742998,1016
-642.2969470804776,1045
-639.6486359007902,1169
-637.0010546587141,1116
-634.3542031776476,1079
-631.7080812809096,1046
-629.0626887917401,1041
-626.4180255333008,1088
-623.7740913286734,1223
-621.1308860008619,1143
-618.4884093727904,1008
-615.8466612673046,1023
-613.2056415071715,1015
-610.5653499150785,1052
-607.9257863136347,1112
-605.28695052537,1111
-602.6488423727357,1031
-600.0114616781036,1071
-597.3748082637674,1131
-594.7388819519412,1325
-592.1036825647604,1369
-589.4692099242818,1135
-586.8354638524829,1152
-584.2024441712624,1243
-581.5701507024403,1141
-578.9385832677575,1153
-576.3077416888759,1108
-573.6776257873787,1088
-571.0482353847704,1090
-568.4195703024757,1208
-565.7916303618415,1172
-563.164415384135,1143
-560.5379251905453,1107
-557.9121596021815,1152
-555.2871184400748,1169
-552.6628015251767,1140
-550.0392086783606,1281
-547.4163397204204,1314
-544.794194472071,1303
-542.1727727539491,1409
-539.5520743866118,1248
-536.9320991905377,1335
-534.3128469861261,1417
-531.6943175936979,1353
-529.0765108334947,1378
-526.4594265256793,1724
-523.8430644903358,2101
-521.2274245474689,2495
-518.612506517005,2857
-515.9983102187913,2680
-513.3848354725959,2582
-510.77208209810846,2449
-508.16004991493924,2082
-505.5487387426199,1624
-502.9381484006032,1511
-500.3282787082628,1431
-497.71912948489364,1352
-495.1107005497117,1320
-492.5029917218539,1258
-489.8960028203786,1267
-487.28973366426493,1293
-484.68418407241325,1278
-482.07935386364494,1257
-479.47524285670266,1299
-476.87185087025,1360
-474.2691777228715,1394
-471.66722323307334,1366
-469.0659872192821,1404
-466.4654694998459,1463
-463.86566989303384,1428
-461.26658821703614,1420
-458.66822428996414,1572
-456.07057792985,1621
-453.4736489546475,1506
-450.877437182231,1472
-448.28194243039627,1402
-445.68716451686,1366
-443.09310325926003,1458
-440.49975847515555,1370
-437.9071299820263,1433
-435.31521759727354,1420
-432.72402113821954,1414
-430.13354042210767,1512
-427.5437752661022,1532
-424.95472548728867,1557
-422.36639090267386,1670
-419.7787713291855,1753
-417.1918665836721,1590
-414.60567648290385,1616
-412.0202008435715,1634
-409.4354394822874,1556
-406.8513922155845,1541
-404.26805885991723,1690
-401.685439231661,1735
-399.103533147112,1655
-396.522340422488,1503
-393.9418608739278,1590
-391.3620943174908,1609
-388.7830405691583,1584
-386.2046994448317,1508
-383.6270707603344,1436
-381.05015433141045,1436
-378.473949973725,1471
-375.8984575028645,1459
-373.32367673433623,1202
-370.74960748356875,1249
-368.1762495659117,1158
-365.60360279663576,1015
-363.03166699093265,940
-360.4604419639154,955
-357.8899275306178,988
-355.32012350599507,913
-352.7510297049233,865
-350.1826459421999,916
-347.61497203254316,857
-345.04800779059235,796
-342.4817530309082,889
-339.91620756797226,1045
-337.35137121618743,1144
-334.7872437898774,1102
-332.22382510328725,907
-329.66111497058273,921
-327.09911320585127,900
-324.53781962310075,825
-321.9772340362607,781
-319.4173562591816,823
-316.8581861056348,815
-314.2997233893127,797
-311.7419679238294,847
-309.1849195227194,920
-306.62857799943856,1031
-304.0729431673641,1055
-301.51801483979375,875
-298.963792829947,871
-296.41027695096386,999
-293.85746701590574,1146
-291.3053628377552,1170
-288.7539642294155,1099
-286.2032710037115,1142
-283.65328297338897,1329
-281.1039999511146,1439
-278.5554217494762,1270
-276.007548180983,1072
-273.4603790580651,1029
-270.9139141930734,1060
-268.3681533982807,1156
-265.8230964858798,1223
-263.27874326798565,1424
-260.7350935566336,1428
-258.1921471637804,1374
-255.6499039013039,1346
-253.10836358100266,1448
-250.56752601459698,1371
-248.02739101372765,1477
-245.48795838995704,1460
-242.94922795476816,1363
-240.41119951956557,1463
-237.8738728956746,1418
-235.33724789434166,1530
-232.80132432673452,1367
-230.2661020039418,1152
-227.73158073697357,1479
-225.19776033676033,1632
-222.66464061415422,1517
-220.1322213799284,1320
-217.60050244477725,1398
-215.06948361931552,1595
-212.53916471408013,2125
-210.00954553952818,2082
-207.48062590603843,1764
-204.9524056239104,1898
-202.4248845033651,1962
-199.8980623545441,1918
-197.37193898751036,1981
-194.84651421224817,1835
-192.32178783866232,1913
-189.79775967657952,2080
-187.27442953574644,2476
-184.7517972258321,2638
-182.2298625564256,2096
-179.7086253370378,1883
-177.18808537710026,2108
-174.66824248596583,2538
-172.14909647290835,2139
-169.6306471471229,1806
-167.11289431772548,1887
-164.59583779375328,2168
-162.07947738416453,2729
-159.5638128978386,3538
-157.04884414357605,3573
-154.53457093009854,2973
-152.02099306604828,1957
-149.50811035998936,2138
-146.99592262040665,3547
-144.48442965570587,3840
-141.97363127421409,4073
-139.46352728417958,3921
-136.95411749377126,3344
-134.44540171107985,2315
-131.93737974411636,2269
-129.43005140081357,2934
-126.92341648902493,4189
-124.41747481652521,5243
-121.91222619101006,5634
-119.40767042009657,4940
-116.90380731132257,3881
-114.40063667214702,4313
-111.8981583099503,5359
-109.3963720320337,7680
-106.89527764561933,13570
-104.39487495785067,22322
-101.89516377579241,31451
-99.39614390642998,39085
-96.89781515667039,40305
-94.40017733334128,37437
-91.90323024319173,27526
-89.40697369289148,18717
-86.91140748903172,13954
-84.41653143812482,19551
-81.92234534660395,38491
-79.42884902082358,64538
-76.93604226705907,65039
-74.4439248915071,65039
-71.95249670028534,65039
-69.46175749943245,65039
-66.97170709490854,51690
-64.48234529259423,32500
-61.99367189829195,25616
-59.50568671772464,27574
-57.01838955653636,25336
-54.53178022029283,25358
-52.045858514480074,23054
-49.560624244506016,25056
-47.07607721569923,26135
-44.59221723330904,24221
-42.10904410250669,28464
-39.62655762838392,31243
-37.14475761595372,32505
-34.66364387015028,38238
-32.18321619582866,43479
-29.70347439776515,43811
-27.224418280657005,45008
-24.74604764912317,62328
-22.26836230770266,65039
-19.7913620608565,65039
-17.315046712966478,65039
-14.83941606833514,65039
-12.36446993118659,65039
-9.89020810566592,65039
-7.416630395839093,65039
-4.94373660569363,65039
-2.471526539137585,65039
-6.821210263296962E-13,65039
2.47084320796705,65039
4.941003281093458,65039
7.410480415786196,65039
9.879274808531363,65039
12.347386655893956,65039
14.814816154518212,65039
17.28156350112681,65039
19.74762889252179,65039
22.21301252558385,65039
24.67771459727237,30648
27.141735304626195,15660
29.605074844762612,19524
32.06773341487792,17030
34.52971121224755,17667
36.99100843422559,14492
39.45162527824516,9624
41.91156194181792,8629
44.370818622535126,12567
46.82939551806646,9529
49.287292826160524,13560
51.74451074464503,17806
54.201049471426245,11981
56.65690920448981,8082
59.112090141899785,5520
61.56659248179983,5235
64.02041642241159,5622
66.4735621620365,5747
68.92602989905402,6682
71.37781983192338,7735
73.82893215918205,6258
76.27936707944684,4737
78.72912479141326,5063
81.17820549385567,6193
83.62660938562783,7102
86.07433666566146,4588
88.5213875329681,2795
90.96776218663751,3215
93.41346082583925,4231
95.85848364982041,5051
98.30283085790859,5252
100.7465026495089,4593
103.18949922410604,3585
105.63182078126385,3255
108.07346752062438,3079
110.51443964190923,2979
112.95473734491827,2470
115.39436082953114,2444
117.83331029570547,2415
120.27158594347827,2842
122.7091879729652,3006
125.1461165843615,2775
127.58237197794062,2729
130.01795435405518,2962
132.4528639131364,2793
134.88710085569494,2460
137.32066538231982,2590
139.75355769367923,3132
142.1857779905207,2663
144.61732647366978,2105
147.04820334403132,2031
149.47840880258934,2084
151.90794305040674,2273
154.33680628862487,2852
156.76499871846443,3203
159.19252054122433,3221
161.61937195828352,3212
164.04555317109896,3536
166.47106438120693,4121
168.89590579022217,4481
171.320077599839,4717
173.7435800118302,4910
176.16641322804742,5107
178.58857745042144,5324
181.01007288096173,5255
183.43089972175687,5065
185.85105817497413,5308
188.27054844285988,5360
190.6893707277394,5354
193.10752523201643,5298
195.5250121581745,5488
197.9418317087751,5766
200.3579840864594,5712
202.7734694939469,5798
205.18828813403627,6083
207.6024402096051,6398
210.01592592360964,6641
212.42874547908548,6647
214.84089907914665,6895
217.2523869269868,7491
219.66320922587727,8509
222.0733661791695,9119
224.48285799029293,9648
226.8916848627572,10368
229.29984700014882,11025
231.7073446061355,10738
234.11417788446204,9890
236.520347038953,9441
238.92585227351185,8928
241.33069379212054,7928
243.73487179884035,7444
246.1383864978112,6683
248.541238093252,6596
250.9434267894609,6639
253.34495279081432,6574
255.74581630176783,6463
258.1460175268563,6778
260.54555667069314,7192
262.9444339379703,7512
265.3426495334594,7928
267.7402036620107,8309
270.1370965285529,7997
272.53332833809407,7466
274.9288992957214,6798
277.32380960660055,6405
279.718059475976,6138
282.1116491091717,6013
284.5045787115897,5479
286.89684848871195,5342
289.2884586460981,5200
291.67940938938807,5471
294.0697009242996,5462
296.4593334566299,5169
298.84830719225477,5300
301.23662233712923,5377
303.6242790972866,5290
306.01127767884,5265
308.39761828798066,5225
310.78330113097934,5208
313.16832641418534,5018
315.5526943440269,4752
317.9364051270112,4683
320.3194589697242,5023
322.70185607883093,4972
325.0835966610754,4790
327.4646809232805,4511
329.8451090723478,4564
332.2248813152577,4665
334.6039978590701,4697
336.9824589109231,4568
339.36026467803447,4480
341.7374153677,4318
344.113911187295,4359
346.48975234427337,4463
348.8649390461686,4505
351.2394715005918,4503
353.61334991523415,4507
355.9865744978655,4384
358.35914545633375,4365
360.73106299856715,4604
363.10232733257146,4423
365.47293866643247,4381
367.84289720831396,4400
370.2122031664593,4411
372.5808567491905,4272
374.9488581649083,4202
377.31620762209275,4147
379.6829053293021,4278
382.0489514951745,4272
384.4143463284262,4448
386.7790900378528,4246
389.14318283232853,4199
391.50662492080653,4162
393.86941651231916,4153
396.23155781597745,4305
398.5930490409713,4453
400.9538903965696,4406
403.3140820921202,4375
405.6736243370498,4268
408.03251734086336,4298
410.3907613131465,4255
412.74835646356166,4168
415.10530300185144,4237
417.4616011378372,4131
419.81725108141893,4216
422.1722530425758,4193
424.5266072313656,4112
426.880313857925,4205
429.2333731324701,4133
431.58578526529516,4043
433.9375504667738,4047
436.2886689473588,4151
438.63914091758113,4163
440.9889665880513,4086
443.33814616945835,4121
445.68667987257015,4101
448.03456790823395,4039
450.3818104873759,4074
452.72840782100013,4126
455.07436012019105,4277
457.41966759611057,4122
459.7643304600007,4072
462.10834892318155,3977
464.4517231970525,4117
466.79445349309174,4059
469.1365400228566,4127
471.4779829979826,4144
473.81878263018564,4129
476.15893913125876,4025
478.4984527130747,4072
480.8373235875855,4071
483.17555196682144,4098
485.5131380628919,4031
487.8500820879857,4070
490.1863842543697,4155
492.52204477439034,4123
494.8570638604725,4143
497.1914417251204,4285
499.52517858091653,4361
501.85827464052306,4306
504.19073011668036,4607
506.5225452222086,4835
508.85372017000566,5505
511.18425517304956,7004
513.514150444396,9507
515.8434061971808,12971
518.1720226446176,15208
520.4999999999999,15352
522.8273384766991,14742
525.1540382881666,13426
527.480099647932,11648
529.8055227696037,8565
532.1303078668694,6195
534.454455153496,5020
536.777964843328,4614
539.1008371502907,4398
541.4230722883866,4248
543.744670471698,4363
546.0656319143858,4136
548.3859568306899,4141
550.7056454349294,4324
553.0246979415016,4267
555.3431145648834,4210
557.6608955196306,4111
559.978041020377,4007
562.2945512818363,3890
564.6104265188006,3910
566.9256669461412,3905
569.2402727788082,3997
571.5542442318302,4034
573.8675815203156,4063
576.1802848594508,4145
578.4923544645015,4184
580.8037905508126,4293
583.114593333807,4016
585.4247630289875,3997
587.7342998519354,4038
590.0432040183106,4025
592.3514757438526,4067
594.6591152443794,4025
596.9661227357875,3933
599.2724984340531,3975
601.578242555231,3952
603.8833553154542,3910
606.1878369309362,3976
608.4916876179676,4017
610.7949075929192,3993
613.0974970722403,3975
615.3994562724587,3994
617.7007854101818,4016
620.0014847020951,4010
622.3015543649641,4074
624.6009946156324,4004
626.8998056710224,3974
629.1979877481361,4079
631.4955410640538,4023
633.7924658359349,4071
636.0887622810175,4015
638.3844306166192,4061
640.6794710601358,4098
642.9738838290426,4168
645.2676691408932,4148
647.5608272133207,4232
649.853358264037,4089
652.1452625108324,4243
654.4365401715764,4198
656.7271914642178,4156
659.0172166067838,4437
661.3066158173809,4313
663.5953893141935,4160
665.8835373154867,4259
668.1710600396028,4297
670.4579577049639,4193
672.7442305300709,4280
675.0298787335033,4290
677.3149025339197,4294
679.599302150058,4284
681.8830778007342,4313
684.1662297048437,4398
686.4487580813608,4272
688.7306631493387,4253
691.0119451279091,4332
693.2926042362834,4275
695.5726406937516,4185
697.8520547196814,4353
700.1308465335215,4227
702.4090163547982,4219
704.6865644031171,4235
706.9634908981619,4265
709.2397960596965,4156
711.5154801075631,4234
713.7905432616823,4289
716.0649857420548,4363
718.3388077687592,4337
720.612009561953,4249
722.8845913418733,4309
725.1565533288352,4290
727.427895743234,4336
729.6986188055427,4374
731.9687227363137,4215
734.238207756178,4213
736.5070740858458,4241
738.7753219461066,4293
741.0429515578281,4180
743.3099631419569,4094
745.5763569195191,4254
747.8421331116193,4370
750.1072919394409,4193
752.3718336242467,4300
754.6357583873777,4285
756.8990664502545,4284
759.1617580343765,4155
761.423833361321,4188
763.6852926527457,4163
765.9461361303862,4152
768.206364016058,4225
770.4659765316536,4369
772.7249738991469,4162
774.9833563405886,4169
777.2411240781092,4296
779.4982773339183,4244
781.7548163303044,4136
784.010741289634,4241
786.2660524343538,4675
788.5207499869881,4208
790.7748341701416,4238
793.0283052064964,4224
795.2811633188143,4314
797.5334087299362,4232
799.7850416627813,4165
802.0360623403484,4181
804.2864709857143,4300
806.5362678220353,4286
808.7854530725468,4378
811.0340269605625,4207
813.2819897094754,4259
815.5293415427581,4310
817.77608268396,4263
820.0222133567116,4265
822.2677337847211,4262
824.5126441917765,4277
826.7569448017433,4216
829.0006358385675,4224
831.2437175262731,4345
833.4861900889629,4315
835.7280537508192,4275
837.9693087361026,4361
840.2099552691533,4308
842.4499935743896,4263
844.689423876309,4297
846.9282463994886,4340
849.1664613685833,4346
851.4040690083276,4263
853.6410695435349,4247
855.877463199097,4245
858.1132501999847,4231
860.3484307712487,4232
862.5830051380175,4383
864.8169735254988,4154
867.0503361589791,4180
869.2830932638243,4225
871.5152450654786,4196
873.7467917894654,4204
875.9777336613873,4271
878.2080709069252,4309
880.4378037518389,4326
882.666932421968,4260
884.8954571432301,4261
887.1233781416219,4191
889.3506956432192,4221
891.5774098741766,4279
893.803521060728,4135
896.0290294291852,4055
898.2539352059397,4192
900.4782386174619,4048
902.7019398903011,4151
904.925039251085,4182
907.147536926521,4252
909.3694331433943,4124
911.59072812857,4046
913.8114221089921,4089
916.0315153116827,4013
918.2510079637437,4144
920.4699002923547,4173
922.6881925247761,4058
924.905884888345,4130
927.1229776104793,4143
929.3394709186747,4196
931.555365040506,4249
933.7706602036275,4228
935.9853566357709,4270
938.1994545647489,4388
940.4129542184515,4518
942.6258558248488,4434
944.8381596119883,4391
947.0498658079974,4496
949.2609746410825,4423
951.4714863395287,4335
953.6814011316998,4295
955.8907192460387,4367
958.0994409110671,4388
960.3075663553858,4319
962.5150958076741,4486
964.7220294966913,4423
966.928367651274,4364
969.1341105003388,4324
971.3392582728806,4380
973.5438111979742,4402
975.747769504772,4239
977.9511334225061,4183
980.153903180487,4225
982.3560790081052,4278
984.5576611348289,4220
986.7586497902058,4293
988.9590452038618,4140
991.158847605503,4038
993.3580572249133,3994
995.5566742919558,3969
997.7546990365728,3993
999.952131688785,3890
1002.1489724786926,3619
1004.3452216364743,3670
1006.5408793923874,3656
1008.7359459767691,3647
1010.9304216200343,3669
1013.1243065526781,3584
1015.3176010052733,3634
1017.510305208472,3463
1019.7024193930064,3567
1021.8939437896848,3604
1024.0848786293977,3580
1026.2752241431122,3538
1028.4649805618747,3648
1030.6541481168115,3587
1032.842727039127,3496
1035.0307175601051,3580
1037.2181199111074,3566
1039.4049343235752,3672
1041.591161029029,3612
1043.7768002590683,3620
1045.9618522453698,3716
1048.1463172196918,3622
1050.3301954138697,3763
1052.513487059818,3661
1054.69619238953,3652
1056.8783116350783,3614
1059.0598450286152,3673
1061.2407928023704,3633
1063.4211551886528,3497
1065.6009324198508,3463
1067.780124728432,3439
1069.9587323469414,3410
1072.1367555080046,3631
1074.314194444325,3409
1076.4910493886855,3400
1078.667320573947,3371
1080.843008233051,3332
1083.0181125990161,3395
1085.1926339049414,3346
1087.3665723840027,3302
1089.5399282694575,3340
1091.7127017946405,3293
1093.8848931929647,3324
1096.0565026979243,3377
1098.2275305430899,3351
1100.3979769621128,3282
1102.567842188722,3230
1104.737126456726,3214
1106.9058300000124,3278
1109.0739530525475,3289
1111.2414958483764,3081
1113.4084586216231,3223
1115.5748416064907,3273
1117.7406450372605,3209
1119.9058691482942,3256
1122.0705141740304,3332
1124.2345803489884,3275
1126.3980679077658,3319
1128.5609770850388,3263
1130.7233081155623,3281
1132.8850612341707,3181
1135.0462366757774,3189
1137.2068346753745,3197
1139.3668554680326,3220
1141.526299288901,3214
1143.68516637321,3295
1145.8434569562655,3339
1148.001171273455,3265
1150.158309560244,3243
1152.3148720521767,3268
1154.470858984876,3241
1156.626270594044,3325
1158.7811071154629,3193
1160.9353687849912,3248
1163.089055838569,3255
1165.242168512213,3276
1167.3947070420209,3319
1169.5466716641677,3296
1171.6980626149075,3276
1173.8488801305748,3194
1175.9991244475814,3185
1178.1487958024186,3241
1180.2978944316555,3316
1182.4464205719428,3328
1184.5943744600072,3242
1186.7417563326567,3279
1188.8885664267755,3311
1191.0348049793297,3191
1193.1804722273619,3237
1195.325568407995,3305
1197.4700937584303,3282
1199.614048515948,3300
1201.7574329179074,3290
1203.900247201746,3206
1206.042491604982,3254
1208.1841663652099,3297
1210.3252717201053,3345
1212.465807907422,3372
1214.6057751649923,3441
1216.7451737307279,3475
1218.8840038426192,3435
1221.0222657387353,3434
1223.1599596572241,3546
1225.2970858363137,3458
1227.4336445143094,3387
1229.5696359295966,3400
1231.705060320639,3508
1233.8399179259786,3471
1235.9742089842384,3631
1238.107933734118,3581
1240.2410924143974,3624
1242.373685263935,3553
1244.5057125216676,3591
1246.6371744266116,3571
1248.7680712178621,3519
1250.898403134593,3684
1253.028170416058,3672
1255.1573733015875,3609
1257.2860120305932,3576
1259.4140868425648,3562
1261.54159797707,3614
1263.6685456737569,3707
1265.7949301723515,3672
1267.9207517126597,3661
1270.046010534565,3678
1272.1707068780306,3600
1274.2948409830983,3699
1276.4184130898889,3726
1278.541423438603,3729
1280.6638722695184,3813
1282.785759822993,3845
1284.9070863394636,3832
1287.0278520594447,3923
1289.1480572235314,3993
1291.2677020723963,3945
1293.3867868467923,4062
1295.5053117875495,4047
1297.623277135579,4017
1299.740683131868,4155
1301.8575300174857,4107
1303.973818033578,4240
1306.0895474213703,4372
1308.2047184221678,4293
1310.3193312773528,4228
1312.4333862283888,4464
1314.5468835168163,4295
1316.659823384255,4377
1318.7722060724045,4480
1320.8840318230418,4519
1322.9953008780249,4561
1325.1060134792888,4502
1327.2161698688478,4619
1329.3257702887959,4467
1331.4348149813054,4611
1333.5433041886276,4611
1335.6512381530933,4482
1337.7586171171101,4533
1339.8654413231675,4521
1341.9717110138317,4607
1344.0774264317488,4534
1346.1825878196432,4536
1348.2871954203192,4536
1350.3912494766587,4393
1352.4947502316231,4325
1354.5976979282532,4446
1356.7000928096686,4431
1358.8019351190665,4398
1360.9032250997243,4314
1363.0039629949988,4358
1365.1041490483235,4252
1367.2037835032133,4283
1369.3028666032606,4357
1371.401398592137,4251
1373.4993797135926,4299
1375.5968102114575,4307
1377.6936903296396,4365
1379.7900203121262,4189
1381.8858004029835,4271
1383.9810308463561,4311
1386.075711886469,4175
1388.1698437676241,4350
1390.2634267342032,4329
1392.356461030667,4350
1394.4489469015557,4260
1396.5408845914872,4300
1398.6322743451592,4254
1400.7231164073469,4292
1402.813411022907,4418
1404.903158436773,4357
1406.9923588939578,4428
1409.0810126395531,4407
1411.1691199187303,4414
1413.2566809767386,4598
1415.343696058907,4451
1417.4301654106425,4475
1419.5160892774315,4574
1421.6014679048399,4607
1423.6863015385125,4630
1425.7705904241707,4667
1427.8543348076178,4667
1429.9375349347342,4883
1432.0201910514802,4813
1434.102303403894,4863
1436.1838722380944,4883
1438.2648978002767,4931
1440.3453803367174,4963
1442.4253200937692,5033
1444.5047173178677,5012
1446.5835722555234,5131
1448.6618851533285,5314
1450.739656257952,5270
1452.8168858161434,5400
1454.8935740747306,5405
1456.96972128062,5504
1459.045327680797,5532
1461.120393522327,5644
1463.1949190523528,5690
1465.2689045180973,5869
1467.3423501668608,5831
1469.415256246024,5953
1471.4876230030463,6044
1473.559450685465,6006
1475.6307395408976,6196
1477.7014898170391,6292
1479.771701761665,6538
1481.8413756226287,6418
1483.9105116478618,6453
1485.9791100853772,6490
1488.0471711832643,6596
1490.1146951896926,6659
1492.1816823529098,6808
1494.2481329212433,6915
1496.3140471430984,7005
1498.3794252669609,7097
1500.4442675413939,6975
1502.5085742150404,7070
1504.572345536622,7057
1506.6355817549388,7232
1508.6982831188702,7309
1510.7604498773744,7458
1512.8220822794883,7665
1514.8831805743293,7623
1516.9437450110909,7687
1519.003775839048,7705
1521.0632733075522,7698
1523.1222376660367,7631
1525.1806691640113,7563
1527.2385680510652,7587
1529.2959345768668,7478
1531.3527689911643,7570
1533.4090715437833,7978
1535.4648424846291,8071
1537.5200820636855,8209
1539.5747905310159,8341
1541.6289681367616,8320
1543.6826151311434,8288
1545.7357317644614,8318
1547.7883182870937,8005
1549.8403749494987,8033
1551.8919020022113,7955
1553.9428996958477,7822
1555.9933682811015,7989
1558.0433080087469,8208
1560.0927191296346,8079
1562.1416018946961,8305
1564.1899565549415,8487
1566.2377833614592,8863
1568.2850825654164,9084
1570.3318544180606,9410
1572.3780991707158,9713
1574.423817074788,10425
1576.4690083817595,11062
1578.5136733431923,11861
1580.5578122107272,12691
1582.601425236085,13320
1584.6445126710646,13830
1586.6870747675434,14289
1588.7291117774776,14016
1590.7706239529034,13708
1592.8116115459347,12990
1594.8520748087658,12381
1596.8920139936686,11414
1598.9314293529933,10700
1600.9703211391711,9856
1603.008689604711,9153
1605.0465350022005,8520
1607.0838575843068,7948
1609.1206576037753,7494
1611.1569353134305,7057
1613.1926909661765,6802
1615.2279248149953,6521
1617.2626371129481,6114
1619.2968281131757,5860
1621.3304980688963,5758
1623.3636472334088,5474
1625.39627586009,5197
1627.428384202396,5043
1629.459972513861,4864
1631.4910410480993,4677
1633.5215900588028,4474
1635.551619799744,4449
1637.5811305247717,4389
1639.6101224878166,4144
1641.6385959428862,4217
1643.6665511440683,3996
1645.693988345528,4003
1647.7209078015112,3967
1649.7473097663405,3887
1651.7731944944203,3834
1653.7985622402307,3786
1655.823413258333,3785
1657.847747803366,3656
1659.8715661300494,3643
1661.8948684931793,3630
1663.9176551476316,3592
1665.9399263483624,3571
1667.9616823504057,3595
1669.982923408873,3547
1672.0036497789574,3572
1674.0238617159293,3487
1676.043559475138,3475
1678.0627433120121,3476
1680.081413482059,3569
1682.0995702408654,3545
1684.117213844096,3470
1686.134344547495,3627
1688.1509626068864,3536
1690.1670682781705,3612
1692.182661817329,3590
1694.1977434804217,3706
1696.2123135235875,3609
1698.226372203043,3573
1700.2399197750851,3623
1702.2529564960905,3624
1704.2654826225112,3722
1706.277498410882,3621
1708.2890041178139,3634
1710.2999999999988,3652
1712.3104863142066,3612
1714.3204633172854,3499
1716.329931266163,3683
1718.3388904178469,3567
1720.3473410294214,3562
1722.3552833580516,3535
1724.3627176609807,3470
1726.3696441955308,3597
1728.3760632191033,3558
1730.3819749891782,3580
1732.3873797633146,3613
1734.3922777991502,3510
1736.3966693544012,3416
1738.4005546868639,3370
1740.4039340544127,3437
1742.406807715001,3299
1744.4091759266616,3477
1746.4110389475054,3436
1748.4123970357223,3394
1750.413250449582,3384
1752.4135994474318,3334
1754.4134442876993,3330
1756.4127852288902,3218
1758.4116225295893,3304
1760.4099564484595,3210
1762.407787244244,3220
1764.405115175764,3294
1766.4019405019203,3314
1768.3982634816916,3180
1770.3940843741357,3196
1772.3894034383907,3094
1774.3842209336717,3080
1776.378537119274,3003
1778.372352254571,3076
1780.3656665990156,3142
1782.3584804121397,3034
1784.3507939535534,2963
1786.3426074829463,3059
1788.3339212600863,3101
1790.3247355448211,3106
1792.3150505970766,3039
1794.3048666768573,3031
1796.2941840442477,2963
1798.2830029594106,2997
1800.2713236825884,3010
1802.2591464741004,3027
1804.2464715943465,2867
1806.2332993038058,2945
1808.2196298630352,2932
1810.2054635326708,3000
1812.190800573428,2824
1814.175641246101,2970
1816.1599858115628,2953
1818.1438345307652,2871
1820.127187664738,2845
1822.1100454745924,2849
1824.092408221516,2843
1826.0742761667766,2764
1828.055649571721,2840
1830.0365286977735,2782
1832.0169138064398,2775
1833.9968051593014,2912
1835.9762030180214,2864
1837.9551076443408,2808
1839.9335193000788,2792
1841.9114382471344,2829
1843.888864747485,2780
1845.8657990631878,2829
1847.842241456378,2798
1849.8181921892697,2723
1851.7936515241558,2861
1853.7686197234098,2730
1855.7430970494815,2776
1857.7170837649014,2854
1859.6905801322787,2799
1861.6635864143004,2827
1863.6361028737338,2844
1865.608129773424,2852
1867.5796673762961,2830
1869.5507159453537,2840
1871.521275743678,2849
1873.4913470344313,2846
1875.4609300808534,2888
1877.4300251462632,2870
1879.3986324940588,2867
1881.366752387717,2931
1883.3343850907936,2889
1885.3015308669228,2881
1887.268189979819,2861
1889.2343626932739,2930
1891.2000492711595,2962
1893.1652499774254,2853
1895.1299650761011,2944
1897.0941948312952,3069
1899.0579395071945,2993
1901.0211993680641,3097
1902.98397467825,3098
1904.9462657021745,3288
1906.9080727043415,3217
1908.869395949332,3264
1910.8302357018065,3299
1912.790592226504,3244
1914.7504657882428,3280
1916.7098566519212,3310
1918.6687650825133,3208
1920.6271913450764,3237
1922.5851357047422,3282
1924.5425984267245,3280
1926.499579776314,3315
1928.4560800188833,3269
1930.4120994198802,3292
1932.367638244833,3267
1934.32269675935,3314
1936.2772752291175,3311
1938.231373919899,3299
1940.1849930975404,3236
1942.1381330279637,3216
1944.0907939771696,3193
1946.0429762112412,3205
1947.9946799963363,3134
1949.9459055986945,3043
1951.896653284633,3035
1953.8469233205478,2972
1955.7967159729142,3109
1957.7460315082863,3037
1959.6948701932974,2951
1961.6432322946594,2967
1963.5911180791632,3003
1965.5385278136787,2953
1967.4854617651545,3032
1969.4319202006182,3001
1971.377903387176,2960
1973.3234115920136,2961
1975.268445082395,2968
1977.2130041256642,2885
1979.1570889892423,2953
1981.1006999406304,2856
1983.04383724741,2926
1984.986501177238,2936
1986.928691997853,2845
1988.8704099770712,2747
1990.811655382789,2869
1992.7524284829801,2854
1994.692729545698,2825
1996.6325588390755,2836
1998.5719166313224,2688
2000.5108031907307,2913
2002.4492187856677,2816
2004.387163684583,2726
2006.3246381560011,2816
2008.2616424685298,2718
2010.1981768908527,2705
2012.1342416917332,2743
2014.069837140014,2725
2016.0049635046162,2656
2017.9396210545406,2677
2019.8738100588666,2707
2021.8075307867502,2685
2023.740783507431,2722
2025.6735684902228,2641
2027.6058860045214,2746
2029.5377363198004,2822
2031.4691197056118,2675
2033.4000364315875,2720
2035.3304867674374,2750
2037.260470982952,2756
2039.189989347998,2719
2041.1190421325232,2717
2043.047629606554,2587
2044.9757520401945,2569
2046.9034097036288,2678
2048.8306028671195,2716
2050.7573318010086,2590
2052.683596775716,2652
2054.609398061742,2667
2056.5347359296647,2617
2058.4596106501403,2683
2060.384022493906,2674
2062.3079717317764,2693
2064.231458634646,2614
2066.1544834734873,2621
2068.077046519352,2612
2069.99914804337,2657
2071.9207883167524,2624
2073.8419676107865,2707
2075.7626861968406,2649
2077.6829443463607,2639
2079.6027423308715,2584
2081.522080421977,2648
2083.440958891362,2643
2085.359378010786,2530
2087.2773380520907,2641
2089.194839287196,2636
2091.111881988101,2654
2093.0284664268825,2585
2094.9445928756973,2596
2096.86026160678,2590
2098.775472892446,2622
2100.690227005088,2607
2102.604524217178,2685
2104.5183648012676,2582
2106.431749029985,2667
2108.34467717604,2716
2110.2571495122206,2578
2112.169166311393,2661
2114.080727846503,2729
2115.9918343905747,2603
2117.902486216711,2644
2119.8126835980956,2635
2121.722426807987,2684
2123.6317161197285,2676
2125.5405518067364,2574
2127.448934142509,2653
2129.356863400624,2706
2131.264339854737,2734
2133.1713637785815,2652
2135.077935445972,2613
2136.9840551308002,2718
2138.889723107037,2653
2140.7949396487334,2656
2142.699705030018,2586
2144.6040195250994,2746
2146.507883408264,2711
2148.4112969538774,2684
2150.3142604363848,2665
2152.2167741303097,2700
2154.1188383102535,2678
2156.0204532508997,2631
2157.9216192270064,2700
2159.822336513414,2661
2161.7226053850413,2694
2163.622426116884,2730
2165.5217989840185,2744
2167.4207242616,2711
2169.319202224862,2706
2171.2172331491165,2748
2173.1148173097563,2707
2175.0119549822507,2850
2176.90864644215,2717
2178.8048919650823,2691
2180.7006918267534,2716
2182.596046302952,2702
2184.4909556695407,2704
2186.3854202024645,2850
2188.279440177746,2713
2190.173015871487,2751
2192.066147559868,2710
2193.958835519149,2689
2195.851080025667,2612
2197.7428813558417,2685
2199.6342397861667,2739
2201.5251555932186,2787
2203.415629053651,2752
2205.3056604441986,2762
2207.19525004167,2741
2209.084398122958,2717
2210.9731049650327,2750
2212.861370844941,2760
2214.749196039812,2819
2216.636580826851,2850
2218.523525483344,2753
2220.410030286655,2757
2222.296095514226,2789
2224.1817214435805,2774
2226.066908352319,2871
2227.951656518121,2813
2229.835966218746,2702
2231.71983773203,2728
2233.6032713358913,2868
2235.486267308324,2746
2237.3688259274036,2683
2239.2509474712824,2795
2241.132632218193,2760
2243.013880446447,2770
2244.8946924344323,2772
2246.7750684606203,2772
2248.6550088035574,2758
2250.534513741871,2840
2252.413583554265,2855
2254.292218519526,2767
2256.170418916517,2752
2258.0481850241786,2733
2259.925517121534,2772
2261.8024154876825,2755
2263.678880401803,2717
2265.5549121431536,2762
2267.430510991071,2878
2269.305677224971,2786
2271.180411124348,2736
2273.0547129687766,2723
2274.9285830379076,2789
2276.8020216114737,2715
2278.6750289692845,2810
2280.5476053912294,2858
2282.4197511572766,2891
2284.2914665474727,2912
2286.162751841943,2826
2288.0336073208937,2967
2289.904033264608,2894
2291.774029953448,2923
2293.6435976678554,2815
2295.5127366883517,2773
2297.381447295534,2798
2299.2497297700825,2731
2301.1175843927526,2631
2302.9850114443825,2528
2304.852011205885,2569
2306.7185839582553,2494
2308.5847299825664,2539
2310.4504495599676,2463
2312.3157429716925,2455
2314.1806104990483,2467
2316.0450524234247,2436
2317.9090690262888,2494
2319.772660589186,2428
2321.635827393742,2466
2323.498569721661,2541
2325.3608878547248,2521
2327.2227820747967,2446
2329.0842526638157,2433
2330.945299903803,2497
2332.805924076857,2538
2334.6661254651535,2452
2336.525904350951,2472
2338.3852610165827,2487
2340.244195744464,2478
2342.102708817088,2403
2343.9608005170253,2437
2345.8184711269287,2433
2347.675720929526,2461
2349.532550207628,2465
2351.38895924412,2505
2353.24494832197,2471
2355.100517724223,2503
2356.955667734004,2435
2358.810398634514,2632
2360.664710709037,2547
2362.5186042409337,2567
2364.3720795136437,2536
2366.225136810686,2531
2368.0777764156583,2551
2369.929998612237,2594
2371.7818036841777,2580
2373.633191915315,2513
2375.484163589562,2582
2377.3347189909114,2528
2379.184858403434,2555
2381.03458211128,2653
2382.8838903986775,2634
2384.732783549936,2573
2386.5812618494406,2589
2388.4293255816588,2655
2390.2769750311327,2685
2392.1242104824883,2568
2393.971032220427,2660
2395.8174405297295,2660
2397.6634356952563,2688
2399.509018001947,2640
2401.3541877348193,2636
2403.1989451789705,2663
2405.043290619576,2760
2406.8872243418905,2720
2408.730746631247,2766
2410.5738577730594,2698
2412.4165580528183,2834
2414.258847756095,2715
2416.100727168537,2742
2417.9421965758734,2785
2419.783256263912,2873
2421.623906518538,2784
2423.4641476257157,2768
2425.303979871491,2856
2427.143403541984,2841
2428.9824189233977,2906
2430.821026302012,2895
2432.6592259641866,2908
2434.497018196361,2886
2436.33440328505,2824
2438.171381516851,2888
2440.00795317844,2922
2441.844118556569,2774
2443.6798779380724,2850
2445.5152316098606,2851
2447.3501798589255,2821
2449.1847229723357,2782
2451.0188612372403,2765
2452.8525949408663,2788
2454.6859243705203,2784
2456.518849813587,2808
2458.3513715575314,2840
2460.183489889895,2881
2462.015205098301,2809
2463.8465174704493,2819
2465.67742729412,2786
2467.5079348571717,2872
2469.338040447542,2839
2471.1677443532476,2832
2472.9970468623833,2802
2474.825948263123,2849
2476.6544488437207,2833
2478.482548892508,2829
2480.310248697896,2843
2482.137548548374,2842
2483.9644487325118,2822
2485.790949538956,2766
2487.617051256433,2786
2489.44275417375,2844
2491.26805857979,2825
2493.0929647635157,2812
2494.917473013971,2826
2496.741583620276,2861
2498.5652968716304,2820
2500.3886130573137,2841
2502.2115324666834,2866
2504.0340553891765,2815
2505.856182114308,2945
2507.6779129316733,2951
2509.499248130945,2896
2511.3201880018764,2960
2513.140732834298,2954
2514.9608829181198,2859
2516.780638543331,2898
2518.6,2881
2520.418967578273,2937
2522.237541568376,2876
2524.0557222606144,2927
2525.8735099453706,2898
2527.6909049131086,2944
2529.507907454368,2942
2531.32451785977,2966
2533.140736420014,2953
2534.9565634258774,2996
2536.771999168218,2933
2538.5870439379714,3043
2540.4016980261526,3008
2542.2159617238544,2992
2544.02983532225,3025
2545.8433191125914,3123
2547.656413386209,3098
2549.4691184345115,3178
2551.2814345489874,3228
2553.093362021204,3175
2554.904901142808,3229
2556.716052205523,3199
2558.526815501153,3241
2560.3371913215824,3250
2562.147179958771,3357
2563.956781704761,3279
2565.7659968516705,3287
2567.5748256916986,3363
2569.3832685171224,3523
2571.1913256202984,3568
2572.9989972936614,3620
2574.806283829725,3687
2576.613185521084,3741
2578.4197026604074,3854
2580.2258355404483,3788
2582.031584454035,4072
2583.836949694077,4099
2585.6419315535613,4044
2587.4465303255533,4356
2589.2507463032002,4436
2591.0545797797245,4454
2592.8580310484303,4608
2594.6611004026995,4726
2596.463788135992,4670
2598.266094541849,4937
2600.0680199138874,5066
2601.869564545807,5150
2603.670728731383,5161
2605.4715127644704,5334
2607.2719169390048,5307
2609.071941548998,5414
2610.8715868885433,5464
2612.670853251811,5387
2614.469740933052,5444
2616.268250226594,5349
2618.0663814268455,5520
2619.864134828292,5405
2621.6615107255006,5441
2623.458509413115,5298
2625.2551311858597,5385
2627.0513763385347,5134
2628.8472451660223,5233
2630.6427379632833,5116
2632.4378550253564,5108
2634.232596647359,4972
2636.026963124488,5027
2637.8209547520187,4914
2639.6145718253065,4968
2641.407814639785,4844
2643.200683490966,4806
2644.9931786744414,4776
2646.7853004858807,4717
2648.577049221034,4521
2650.3684251757277,4594
2652.1594286458712,4513
2653.9500599274484,4567
2655.740319316525,4292
2657.5302071092437,4193
2659.3197236018286,4193
2661.10886909058,4112
2662.8976438718782,4003
2664.686048242183,3949
2666.4740824980327,3860
2668.2617469360443,3975
2670.0490418529134,3802
2671.8359675454153,3730
2673.622524310403,3598
2675.408712444811,3601
2677.1945322456495,3594
2678.979984010009,3567
2680.76506803506,3476
2682.5497846180497,3515
2684.334134056306,3460
2686.1181166472343,3247
2687.9017326883213,3240
2689.6849824771293,3343
2691.4678663113013,3355
2693.2503844885596,3189
2695.032537306705,3154
2696.8143250636167,3239
2698.5957480572542,3115
2700.3768065856534,3077
2702.1575009469316,3138
2703.937831439283,3039
2705.717798360982,2982
2707.4974020103837,2980
2709.276642685917,3003
2711.055520686095,3014
2712.834036309506,2863
2714.612189854819,2890
2716.389981620782,2827
2718.1674119062204,2856
2719.944481010041,2754
2721.721189231226,2806
2723.4975368688415,2811
2725.273524222027,2840
2727.0491515900053,2732
2728.824419272075,2818
2730.5993275676146,2763
2732.3738767760838,2674
2734.148067197016,2739
2735.921899130031,2636
2737.6953728748194,2731
2739.468488731156,2705
2741.2412469988926,2819
2743.0136479779617,2709
2744.785691968372,2683
2746.5573792702116,2602
2748.3287101836504,2710
2750.099685008934,2575
2751.870304046388,2579
2753.640567596418,2617
2755.4104759595057,2549
2757.1800294362156,2503
2758.949228327187,2660
2760.7180729331412,2611
2762.486563554877,2641
2764.254700493272,2523
2766.022484049284,2567
2767.789914523947,2619
2769.5569922183786,2606
2771.3237174337705,2561
2773.090090471394,2658
2774.8561116326036,2486
2776.6217812188274,2527
2778.3870995315756,2560
2780.1520668724356,2573
2781.9166835430747,2492
2783.6809498452394,2466
2785.444866080754,2653
2787.2084325515225,2486
2788.971649559527,2484
2790.73451740683,2475
2792.4970363955713,2461
2794.2592068279705,2457
2796.0210290063264,2576
2797.7825032330147,2522
2799.543629810493,2479
2801.304409041296,2554
2803.0648412280366,2487
2804.8249266734088,2519
2806.5846656801846,2509
2808.344058551212,2506
2810.1031055894246,2544
2811.8618070978273,2516
2813.6201633795085,2551
2815.378174737636,2470
2817.1358414754536,2468
2818.893163896285,2517
2820.6501423035334,2499
2822.4067770006814,2496
2824.1630682912883,2521
2825.9190164789957,2487
2827.6746218675207,2511
2829.429884760661,2505
2831.184805462294,2535
2832.9393842763743,2573
2834.693621506936,2483
2836.4475174580916,2559
2838.201072434034,2522
2839.954286739034,2471
2841.707160677441,2477
2843.459694553685,2489
2845.2118886722724,2511
2846.96374333779,2488
2848.7152588549034,2493
2850.4664355283567,2495
2852.217273662973,2494
2853.9677735636546,2611
2855.7179355353833,2522
2857.4677598832186,2487
2859.217246912299,2449
2860.9663969278427,2543
2862.715210235146,2464
2864.4636871395846,2419
2866.211827946614,2507
2867.9596329617652,2491
2869.7071024906536,2581
2871.4542368389684,2422
2873.20103631248,2511
2874.947501217038,2492
2876.6936318585695,2460
2878.4394285430812,2533
2880.1848915766604,2563
2881.9300212654707,2419
2883.6748179157553,2515
2885.4192818338374,2547
2887.1634133261173,2509
2888.907212699077,2444
2890.6506802592744,2518
2892.393816313348,2477
2894.1366211680142,2487
2895.8790951300693,2453
2897.621238506388,2555
2899.363051603925,2469
2901.1045347297118,2604
2902.8456881908596,2458
2904.58651229456,2428
2906.327007348081,2423
2908.067173658772,2391
2909.8070115340597,2403
2911.5465212814497,2446
2913.285703208527,2517
2915.0245576229563,2459
2916.7630848324807,2357
2918.5012851449196,2487
2920.2391588681758,2466
2921.976706310227,2478
2923.7139277791334,2526
2925.4508235830313,2405
2927.187394030137,2533
2928.923639428745,2501
2930.6595600872306,2465
2932.395156314046,2450
2934.1304284177218,2564
2935.8653767068713,2540
2937.6000014901815,2485
2939.3343030764227,2531
2941.068281774442,2524
2942.8019378931644,2558
2944.5352717415976,2462
2946.2682836288236,2469
2948.0009738640065,2458
2949.7333427563885,2478
2951.465390615289,2454
2953.1971177501086,2535
2954.9285244703265,2474
2956.6596110855,2427
2958.3903779052657,2397
2960.1208252393385,2375
2961.8509533975125,2429
2963.5807626896617,2512
2965.3102534257378,2412
2967.0394259157715,2401
2968.768280469873,2445
2970.496817398232,2397
2972.2250370111146,2401
2973.952939618869,2395
2975.6805255319196,2495
2977.4077950607707,2333
2979.134748516006,2426
2980.861386208289,2445
2982.587708448359,2425
2984.313715547037,2341
2986.039407815222,2361
2987.764785563891,2394
2989.489849104102,2406
2991.2145987469908,2389
2992.9390348037705,2447
2994.6631575857346,2376
2996.3869674042576,2402
2998.1104645707887,2333
2999.83364939686,2332
3001.5565221940783,2433
3003.2790832741334,2347
3005.0013329487924,2393
3006.7232715298996,2395
3008.4448993293804,2384
3010.166216659239,2332
3011.887223831558,2321
3013.607921158498,2410
3015.3283089522993,2372
3017.0483875252826,2365
3018.7681571898443,2380
3020.4876182584626,2344
3022.2067710436927,2334
3023.9256158581707,2447
3025.644153014609,2392
3027.362382825801,2356
3029.0803056046193,2395
3030.797921664012,2307
3032.5152313170106,2318
3034.2322348767225,2303
3035.9489326563353,2310
3037.665324969115,2388
3039.3814121284063,2369
3041.097194447633,2296
3042.812672240299,2393
3044.5278458199855,2436
3046.2427155003525,2408
3047.9572815951406,2379
3049.671544418167,2439
3051.38550428333,2352
3053.0991615046073,2319
3054.812516396051,2374
3056.5255692717974,2383
3058.2383204460575,2422
3059.9507702331257,2360
3061.662918947372,2464
3063.3747669032446,2332
3065.0863144152736,2333
3066.7975617980674,2350
3068.508509366309,2414
3070.219157434767,2361
3071.9295063182844,2377
3073.639556331785,2414
3075.3493077902704,2331
3077.058761008821,2491
3078.7679163025964,2355
3080.476773986837,2425
3082.1853343768594,2372
3083.89359778806,2342
3085.6015645359153,2260
3087.3092349359786,2408
3089.016609303884,2360
3090.7236879553434,2547
3092.4304712061476,2426
3094.136959372166,2369
3095.843152769349,2478
3097.5490517137237,2404
3099.2546565213966,2391
3100.959967508554,2464
3102.66498499146,2348
3104.3697092864577,2426
3106.0741407099695,2373
3107.778279578498,2385
3109.482126208622,2408
3111.1856809170004,2418
3112.8889440203716,2374
3114.5919158355528,2384
3116.294596679439,2367
3117.996986869006,2365
3119.6990867213062,2469
3121.4008965534726,2471
3123.102416682717,2444
3124.803647426329,2525
3126.5045891016784,2462
3128.205242026213,2486
3129.90560651746,2502
3131.605682893025,2359
3133.3054714705922,2375
3135.0049725679282,2555
3136.7041865028714,2430
3138.4031135933465,2326
3140.101754157353,2412
3141.800108512971,2476
3143.498176978357,2378
3145.1959598717494,2454
3146.8934575114636,2386
3148.5906702158954,2494
3150.2875983035183,2415
3151.9842420928853,2412
3153.680601902627,2560
3155.376678051456,2466
3157.07247085816,2430
3158.767980641609,2400
3160.463207720748,2452
3162.158152414606,2491
3163.8528150422862,2506
3165.5471959229726,2402
3167.2412953759303,2454
3168.9351137204976,2415
3170.628651276098,2461
3172.3219083622307,2487
3174.014885298474,2443
3175.707582404485,2426
3177.4000000000005,2541
3179.092138404835,2431
3180.7839979388846,2466
3182.47557892212,2435
3184.166881674594,2437
3185.8579065164386,2453
3187.5486537678626,2435
3189.2391237491547,2434
3190.9293167806827,2477
3192.6192331828934,2423
3194.3088732763117,2391
3195.998237381542,2428
3197.687325819268,2469
3199.376138910251,2424
3201.064676975334,2397
3202.7529403354347,2414
3204.4409293115523,2411
3206.1286442247647,2362
3207.816085396229,2463
3209.5032531471825,2343
3211.190147798936,2365
3212.8767696728846,2404
3214.5631190905015,2351
3216.2491963733373,2390
3217.9350018430214,2328
3219.6205358212637,2323
3221.305798629851,2371
3222.990790590651,2306
3224.6755120256103,2272
3226.359963256751,2424
3228.0441446061795,2371
3229.7280563960758,2421
3231.411698948703,2393
3233.0950725863995,2275
3234.778177631587,2454
3236.461014406761,2324
3238.1435832345005,2372
3239.8258844374595,2400
3241.507918338374,2388
3243.1896852600576,2271
3244.8711855254023,2401
3246.552419457381,2296
3248.233387379042,2392
3249.914089613516,2281
3251.59452648401,2332
3253.274698313813,2303
3254.95460542629,2364
3256.6342481448855,2312
3258.313626793125,2224
3259.9927416946084,2241
3261.6715931730196,2284
3263.3501815521176,2306
3265.0285071557437,2176
3266.706570307815,2232
3268.3843713323286,2285
3270.0619105533615,2387
3271.739188295068,2347
3273.4162048816834,2393
3275.0929606375184,2300
3276.769455886966,2207
3278.445690954498,2325
3280.1216661646613,2292
3281.797381842087,2333
3283.4728383114807,2240
3285.1480358976296,2320
3286.8229749253996,2290
3288.4976557197333,2257
3290.172078605655,2353
3291.846243908266,2233
3293.5201519527463,2352
3295.193803064357,2326
3296.8671975684374,2285
3298.5403357904024,2277
3300.21321805575,2225
3301.8858446900567,2337
3303.558216018975,2300
3305.23033236824,2364
3306.9021940636603,2270
3308.57380143113,2270
3310.2451547966184,2272
3311.916254486174,2327
3313.5871008259246,2339
3315.2576941420766,2359
3316.9280347609147,2370
3318.5981230088046,2256
3320.2679592121895,2269
3321.9375436975924,2289
3323.606876791612,2224
3325.27595882093,2312
3326.944790112305,2288
3328.6133709925753,2227
3330.2817017886573,2242
3331.949782827547,2240
3333.617614436319,2331
3335.2851969421245,2361
3336.952530672199,2286
3338.619615953853,2283
3340.286453114475,2277
3341.9530424815357,2342
3343.619384382583,2485
3345.2854791452437,2320
3346.951327097224,2291
3348.6169285663073,2332
3350.2822838803577,2324
3351.947393367319,2352
3353.61225735521,2301
3355.2768761721345,2285
3356.9412501462693,2332
3358.605379605873,2304
3360.2692648792827,2329
3361.9329062949146,2232
3363.596304181263,2223
