CollectionTime,6/28/2024 3:10:33 PM
ExposureUsed,3
CalibratedSpectrum
-962.7078968117929,673
-959.9714848408522,733
-957.2358232597828,682
-954.5009119013725,675
-951.7667505983302,702
-949.0333391832855,716
-946.3006774887896,702
-943.5687653473143,692
-940.837602591253,692
-938.1071890529199,717
-935.3775245645503,709
-932.6486089583007,695
-929.9204420662485,729
-927.1930237203925,703
-924.4663537526524,745
-921.7404319948689,703
-919.0152582788041,725
-916.2908324361409,729
-913.5671542984834,707
-910.8442236973568,730
-908.1220404642074,711
-905.4006044304027,683
-902.679915427231,705
-899.959973285902,718
-897.2407778375464,689
-894.5223289132158,664
-891.8046263438832,682
-889.0876699604426,667
-886.3714595937089,661
-883.6559950744183,649
-880.9412762332282,632
-878.2273029007168,662
-875.5140749073835,640
-872.8015920836489,646
-870.0898542598545,625
-867.3788612662631,621
-864.6686129330585,657
-861.9591090903457,657
-859.2503495681506,646
-856.5423341964203,648
-853.8350628050229,668
-851.1285352237478,644
-848.4227512823054,665
-845.7177108103272,650
-843.0134136373656,673
-840.3098595928943,669
-837.6070485063082,661
-834.9049802069229,666
-832.2036545239757,667
-829.5030712866244,663
-826.8032303239481,651
-824.1041314649472,650
-821.4057745385428,655
-818.7081593735775,652
-816.0112857988148,627
-813.3151536429393,658
-810.6197627345566,656
-807.9251129021936,694
-805.2312039742981,673
-802.5380357792392,682
-799.8456081453069,679
-797.1539209007124,655
-794.462973873588,666
-791.772766891987,670
-789.083299783884,657
-786.3945723771743,664
-783.7065844996748,667
-781.0193359791231,637
-778.3328266431781,686
-775.6470563194197,687
-772.9620248353489,655
-770.2777320183878,661
-767.5941776958798,651
-764.9113616950891,675
-762.2292838432011,667
-759.5479439673222,682
-756.8673418944801,685
-754.1874774516235,672
-751.5083504656222,679
-748.8299607632671,669
-746.15230817127,645
-743.475392516264,687
-740.7992136248035,724
-738.1237713233636,698
-735.4490654383407,676
-732.7750957960521,692
-730.1018622227365,698
-727.4293645445534,669
-724.7576025875837,715
-722.0865761778291,712
-719.4162851412126,684
-716.7467293035781,692
-714.0779084906909,709
-711.409822528237,748
-708.7424712418238,681
-706.0758544569796,696
-703.4099719991541,755
-700.7448236937178,735
-698.0804093659622,720
-695.4167288411002,759
-692.7537819442656,716
-690.0915685005134,723
-687.4300883348199,727
-684.7693412720819,699
-682.1093271371178,741
-679.4500457546669,726
-676.7914969493897,751
-674.1336805458676,724
-671.4765963686034,744
-668.8202442420206,752
-666.1646239904642,749
-663.5097354382001,777
-660.8555784094151,757
-658.2021527282176,752
-655.5494582186366,755
-652.8974947046223,776
-650.2462620100463,771
-647.5957599587009,809
-644.9459883742998,815
-642.2969470804776,791
-639.6486359007902,801
-637.0010546587141,830
-634.3542031776476,793
-631.7080812809096,757
-629.0626887917401,774
-626.4180255333008,747
-623.7740913286734,737
-621.1308860008619,734
-618.4884093727904,749
-615.8466612673046,753
-613.2056415071715,740
-610.5653499150785,762
-607.9257863136347,753
-605.28695052537,700
-602.6488423727357,763
-600.0114616781036,742
-597.3748082637674,781
-594.7388819519412,764
-592.1036825647604,779
-589.4692099242818,813
-586.8354638524829,763
-584.2024441712624,777
-581.5701507024403,748
-578.9385832677575,758
-576.3077416888759,819
-573.6776257873787,760
-571.0482353847704,786
-568.4195703024757,802
-565.7916303618415,842
-563.164415384135,807
-560.5379251905453,752
-557.9121596021815,788
-555.2871184400748,749
-552.6628015251767,765
-550.0392086783606,815
-547.4163397204204,820
-544.794194472071,788
-542.1727727539491,799
-539.5520743866118,857
-536.9320991905377,861
-534.3128469861261,867
-531.6943175936979,875
-529.0765108334947,892
-526.4594265256793,1014
-523.8430644903358,1146
-521.2274245474689,1197
-518.612506517005,1334
-515.9983102187913,1432
-513.3848354725959,1556
-510.77208209810846,1722
-508.16004991493924,1754
-505.5487387426199,1965
-502.9381484006032,2082
-500.3282787082628,2062
-497.71912948489364,2043
-495.1107005497117,1988
-492.5029917218539,1705
-489.8960028203786,1467
-487.28973366426493,1321
-484.68418407241325,1167
-482.07935386364494,1078
-479.47524285670266,1070
-476.87185087025,1031
-474.2691777228715,1033
-471.66722323307334,1006
-469.0659872192821,1015
-466.4654694998459,973
-463.86566989303384,998
-461.26658821703614,1010
-458.66822428996414,934
-456.07057792985,993
-453.4736489546475,962
-450.877437182231,1000
-448.28194243039627,922
-445.68716451686,920
-443.09310325926003,953
-440.49975847515555,930
-437.9071299820263,938
-435.31521759727354,965
-432.72402113821954,961
-430.13354042210767,1027
-427.5437752661022,1032
-424.95472548728867,1018
-422.36639090267386,1020
-419.7787713291855,1013
-417.1918665836721,1011
-414.60567648290385,991
-412.0202008435715,1030
-409.4354394822874,1089
-406.8513922155845,1027
-404.26805885991723,1072
-401.685439231661,1068
-399.103533147112,1038
-396.522340422488,1045
-393.9418608739278,1034
-391.3620943174908,952
-388.7830405691583,962
-386.2046994448317,987
-383.6270707603344,911
-381.05015433141045,824
-378.473949973725,769
-375.8984575028645,706
-373.32367673433623,706
-370.74960748356875,693
-368.1762495659117,622
-365.60360279663576,570
-363.03166699093265,565
-360.4604419639154,531
-357.8899275306178,527
-355.32012350599507,497
-352.7510297049233,534
-350.1826459421999,503
-347.61497203254316,497
-345.04800779059235,484
-342.4817530309082,472
-339.91620756797226,517
-337.35137121618743,513
-334.7872437898774,504
-332.22382510328725,521
-329.66111497058273,539
-327.09911320585127,527
-324.53781962310075,547
-321.9772340362607,559
-319.4173562591816,526
-316.8581861056348,545
-314.2997233893127,516
-311.7419679238294,578
-309.1849195227194,554
-306.62857799943856,518
-304.0729431673641,521
-301.51801483979375,505
-298.963792829947,520
-296.41027695096386,541
-293.85746701590574,592
-291.3053628377552,680
-288.7539642294155,631
-286.2032710037115,625
-283.65328297338897,585
-281.1039999511146,652
-278.5554217494762,614
-276.007548180983,585
-273.4603790580651,567
-270.9139141930734,556
-268.3681533982807,598
-265.8230964858798,646
-263.27874326798565,645
-260.7350935566336,657
-258.1921471637804,587
-255.6499039013039,582
-253.10836358100266,555
-250.56752601459698,615
-248.02739101372765,678
-245.48795838995704,787
-242.94922795476816,704
-240.41119951956557,702
-237.8738728956746,677
-235.33724789434166,758
-232.80132432673452,921
-230.2661020039418,858
-227.73158073697357,680
-225.19776033676033,617
-222.66464061415422,649
-220.1322213799284,667
-217.60050244477725,724
-215.06948361931552,715
-212.53916471408013,750
-210.00954553952818,779
-207.48062590603843,718
-204.9524056239104,748
-202.4248845033651,711
-199.8980623545441,746
-197.37193898751036,663
-194.84651421224817,751
-192.32178783866232,887
-189.79775967657952,881
-187.27442953574644,838
-184.7517972258321,809
-182.2298625564256,761
-179.7086253370378,795
-177.18808537710026,846
-174.66824248596583,843
-172.14909647290835,953
-169.6306471471229,837
-167.11289431772548,806
-164.59583779375328,880
-162.07947738416453,1050
-159.5638128978386,1020
-157.04884414357605,976
-154.53457093009854,1014
-152.02099306604828,1131
-149.50811035998936,1089
-146.99592262040665,1014
-144.48442965570587,953
-141.97363127421409,1003
-139.46352728417958,1057
-136.95411749377126,948
-134.44540171107985,1027
-131.93737974411636,1063
-129.43005140081357,1174
-126.92341648902493,1160
-124.41747481652521,1304
-121.91222619101006,1310
-119.40767042009657,1262
-116.90380731132257,1183
-114.40063667214702,1199
-111.8981583099503,1283
-109.3963720320337,1344
-106.89527764561933,1390
-104.39487495785067,1583
-101.89516377579241,1476
-99.39614390642998,1556
-96.89781515667039,1462
-94.40017733334128,1680
-91.90323024319173,1582
-89.40697369289148,1553
-86.91140748903172,1588
-84.41653143812482,1473
-81.92234534660395,1616
-79.42884902082358,1950
-76.93604226705907,2050
-74.4439248915071,1700
-71.95249670028534,1813
-69.46175749943245,1953
-66.97170709490854,2353
-64.48234529259423,2538
-61.99367189829195,2208
-59.50568671772464,2311
-57.01838955653636,2482
-54.53178022029283,2377
-52.045858514480074,2598
-49.560624244506016,2835
-47.07607721569923,2818
-44.59221723330904,2830
-42.10904410250669,2862
-39.62655762838392,3389
-37.14475761595372,4189
-34.66364387015028,4878
-32.18321619582866,5675
-29.70347439776515,6341
-27.224418280657005,7638
-24.74604764912317,10725
-22.26836230770266,17145
-19.7913620608565,28161
-17.315046712966478,36995
-14.83941606833514,41458
-12.36446993118659,65029
-9.89020810566592,65029
-7.416630395839093,65029
-4.94373660569363,65029
-2.471526539137585,65029
-6.821210263296962E-13,65029
2.47084320796705,65029
4.941003281093458,65029
7.410480415786196,65029
9.879274808531363,65029
12.347386655893956,65029
14.814816154518212,65029
17.28156350112681,65029
19.74762889252179,65029
22.21301252558385,65029
24.67771459727237,45035
27.141735304626195,19043
29.605074844762612,13796
32.06773341487792,10262
34.52971121224755,7589
36.99100843422559,7490
39.45162527824516,7586
41.91156194181792,6416
44.370818622535126,7994
46.82939551806646,9815
49.287292826160524,10473
51.74451074464503,10824
54.201049471426245,8711
56.65690920448981,6004
59.112090141899785,4501
61.56659248179983,3732
64.02041642241159,2931
66.4735621620365,2894
68.92602989905402,2289
71.37781983192338,1836
73.82893215918205,2386
76.27936707944684,2705
78.72912479141326,2591
81.17820549385567,2344
83.62660938562783,1926
86.07433666566146,2073
88.5213875329681,2247
90.96776218663751,2085
93.41346082583925,1893
95.85848364982041,1995
98.30283085790859,2018
100.7465026495089,1965
103.18949922410604,1978
105.63182078126385,1709
108.07346752062438,1708
110.51443964190923,1610
112.95473734491827,1327
115.39436082953114,1471
117.83331029570547,1532
120.27158594347827,1534
122.7091879729652,1373
125.1461165843615,1253
127.58237197794062,1404
130.01795435405518,1228
132.4528639131364,1129
134.88710085569494,1172
137.32066538231982,1208
139.75355769367923,1285
142.1857779905207,1333
144.61732647366978,1357
147.04820334403132,1291
149.47840880258934,1312
151.90794305040674,1416
154.33680628862487,1607
156.76499871846443,1567
159.19252054122433,1648
161.61937195828352,1774
164.04555317109896,1930
166.47106438120693,1977
168.89590579022217,2289
171.320077599839,2398
173.7435800118302,2349
176.16641322804742,2331
178.58857745042144,2477
181.01007288096173,2477
183.43089972175687,2543
185.85105817497413,2477
188.27054844285988,2567
190.6893707277394,2516
193.10752523201643,2568
195.5250121581745,2655
197.9418317087751,2855
200.3579840864594,2636
202.7734694939469,2753
205.18828813403627,2810
207.6024402096051,2676
210.01592592360964,2626
212.42874547908548,2676
214.84089907914665,2608
217.2523869269868,2573
219.66320922587727,2684
222.0733661791695,2684
224.48285799029293,2714
226.8916848627572,2742
229.29984700014882,2973
231.7073446061355,3075
234.11417788446204,2984
236.520347038953,3040
238.92585227351185,3180
241.33069379212054,3151
243.73487179884035,3190
246.1383864978112,3172
248.541238093252,3186
250.9434267894609,3317
253.34495279081432,3499
255.74581630176783,3221
258.1460175268563,3437
260.54555667069314,3357
262.9444339379703,3388
265.3426495334594,3326
267.7402036620107,3309
270.1370965285529,3180
272.53332833809407,3003
274.9288992957214,2921
277.32380960660055,2844
279.718059475976,2629
282.1116491091717,2689
284.5045787115897,2619
286.89684848871195,2606
289.2884586460981,2539
291.67940938938807,2592
294.0697009242996,2615
296.4593334566299,2638
298.84830719225477,2621
301.23662233712923,2592
303.6242790972866,2642
306.01127767884,2583
308.39761828798066,2576
310.78330113097934,2615
313.16832641418534,2491
315.5526943440269,2432
317.9364051270112,2359
320.3194589697242,2286
322.70185607883093,2346
325.0835966610754,2287
327.4646809232805,2237
329.8451090723478,2312
332.2248813152577,2279
334.6039978590701,2311
336.9824589109231,2190
339.36026467803447,2208
341.7374153677,2107
344.113911187295,2234
346.48975234427337,2188
348.8649390461686,2151
351.2394715005918,2163
353.61334991523415,2131
355.9865744978655,2077
358.35914545633375,2104
360.73106299856715,2176
363.10232733257146,2158
365.47293866643247,2083
367.84289720831396,2085
370.2122031664593,2084
372.5808567491905,2093
374.9488581649083,2081
377.31620762209275,2077
379.6829053293021,2027
382.0489514951745,2008
384.4143463284262,2015
386.7790900378528,2025
389.14318283232853,2060
391.50662492080653,2007
393.86941651231916,1932
396.23155781597745,2028
398.5930490409713,1958
400.9538903965696,1965
403.3140820921202,1989
405.6736243370498,1967
408.03251734086336,2004
410.3907613131465,2010
412.74835646356166,2031
415.10530300185144,1977
417.4616011378372,1939
419.81725108141893,2001
422.1722530425758,2004
424.5266072313656,2018
426.880313857925,1979
429.2333731324701,1946
431.58578526529516,1956
433.9375504667738,1967
436.2886689473588,1901
438.63914091758113,1990
440.9889665880513,1950
443.33814616945835,1860
445.68667987257015,1953
448.03456790823395,1891
450.3818104873759,1852
452.72840782100013,1876
455.07436012019105,1843
457.41966759611057,1849
459.7643304600007,1875
462.10834892318155,1878
464.4517231970525,1865
466.79445349309174,1830
469.1365400228566,1896
471.4779829979826,1918
473.81878263018564,1914
476.15893913125876,1913
478.4984527130747,1964
480.8373235875855,1946
483.17555196682144,2012
485.5131380628919,1989
487.8500820879857,2170
490.1863842543697,2177
492.52204477439034,2368
494.8570638604725,2553
497.1914417251204,2831
499.52517858091653,3143
501.85827464052306,3489
504.19073011668036,3653
506.5225452222086,3844
508.85372017000566,3768
511.18425517304956,3786
513.514150444396,3904
515.8434061971808,4345
518.1720226446176,4709
520.4999999999999,5021
522.8273384766991,5128
525.1540382881666,5194
527.480099647932,4998
529.8055227696037,3921
532.1303078668694,2712
534.454455153496,2200
536.777964843328,1990
539.1008371502907,1944
541.4230722883866,1899
543.744670471698,1835
546.0656319143858,1792
548.3859568306899,1839
550.7056454349294,1780
553.0246979415016,1721
555.3431145648834,1737
557.6608955196306,1735
559.978041020377,1698
562.2945512818363,1733
564.6104265188006,1746
566.9256669461412,1769
569.2402727788082,1706
571.5542442318302,1694
573.8675815203156,1700
576.1802848594508,1689
578.4923544645015,1662
580.8037905508126,1653
583.114593333807,1658
585.4247630289875,1694
587.7342998519354,1697
590.0432040183106,1703
592.3514757438526,1742
594.6591152443794,1695
596.9661227357875,1724
599.2724984340531,1692
601.578242555231,1763
603.8833553154542,1748
606.1878369309362,1701
608.4916876179676,1753
610.7949075929192,1724
613.0974970722403,1689
615.3994562724587,1691
617.7007854101818,1672
620.0014847020951,1761
622.3015543649641,1739
624.6009946156324,1738
626.8998056710224,1729
629.1979877481361,1797
631.4955410640538,1743
633.7924658359349,1747
636.0887622810175,1785
638.3844306166192,1731
640.6794710601358,1696
642.9738838290426,1751
645.2676691408932,1762
647.5608272133207,1724
649.853358264037,1794
652.1452625108324,1757
654.4365401715764,1874
656.7271914642178,1798
659.0172166067838,1793
661.3066158173809,1837
663.5953893141935,1742
665.8835373154867,1830
668.1710600396028,1865
670.4579577049639,1837
672.7442305300709,1833
675.0298787335033,1787
677.3149025339197,1814
679.599302150058,1899
681.8830778007342,1869
684.1662297048437,1747
686.4487580813608,1816
688.7306631493387,1837
691.0119451279091,1770
693.2926042362834,1832
695.5726406937516,1883
697.8520547196814,1743
700.1308465335215,1769
702.4090163547982,1751
704.6865644031171,1723
706.9634908981619,1793
709.2397960596965,1769
711.5154801075631,1730
713.7905432616823,1788
716.0649857420548,1821
718.3388077687592,1817
720.612009561953,1781
722.8845913418733,1760
725.1565533288352,1742
727.427895743234,1839
729.6986188055427,1813
731.9687227363137,1776
734.238207756178,1758
736.5070740858458,1804
738.7753219461066,1799
741.0429515578281,1743
743.3099631419569,1745
745.5763569195191,1826
747.8421331116193,1771
750.1072919394409,1845
752.3718336242467,1717
754.6357583873777,1725
756.8990664502545,1735
759.1617580343765,1863
761.423833361321,1771
763.6852926527457,1751
765.9461361303862,1736
768.206364016058,1794
770.4659765316536,1705
772.7249738991469,1828
774.9833563405886,1774
777.2411240781092,1842
779.4982773339183,1785
781.7548163303044,1808
784.010741289634,1819
786.2660524343538,1868
788.5207499869881,1780
790.7748341701416,1847
793.0283052064964,1807
795.2811633188143,1752
797.5334087299362,1772
799.7850416627813,1828
802.0360623403484,1799
804.2864709857143,1781
806.5362678220353,1800
808.7854530725468,1814
811.0340269605625,1795
813.2819897094754,1816
815.5293415427581,1816
817.77608268396,1789
820.0222133567116,1772
822.2677337847211,1791
824.5126441917765,1837
826.7569448017433,1824
829.0006358385675,1833
831.2437175262731,1781
833.4861900889629,1723
835.7280537508192,1836
837.9693087361026,1837
840.2099552691533,1774
842.4499935743896,1746
844.689423876309,1834
846.9282463994886,1734
849.1664613685833,1768
851.4040690083276,1773
853.6410695435349,1804
855.877463199097,1773
858.1132501999847,1784
860.3484307712487,1845
862.5830051380175,1839
864.8169735254988,1766
867.0503361589791,1818
869.2830932638243,1878
871.5152450654786,1832
873.7467917894654,1836
875.9777336613873,1837
878.2080709069252,1867
880.4378037518389,1856
882.666932421968,1860
884.8954571432301,1823
887.1233781416219,1847
889.3506956432192,1878
891.5774098741766,1860
893.803521060728,1828
896.0290294291852,1861
898.2539352059397,1835
900.4782386174619,1870
902.7019398903011,1904
904.925039251085,1807
907.147536926521,1841
909.3694331433943,1871
911.59072812857,1862
913.8114221089921,1856
916.0315153116827,1861
918.2510079637437,1953
920.4699002923547,1817
922.6881925247761,1822
924.905884888345,1790
927.1229776104793,1750
929.3394709186747,1863
931.555365040506,1834
933.7706602036275,1865
935.9853566357709,1845
938.1994545647489,1856
940.4129542184515,1854
942.6258558248488,1847
944.8381596119883,1833
947.0498658079974,1826
949.2609746410825,1855
951.4714863395287,1850
953.6814011316998,1844
955.8907192460387,1781
958.0994409110671,1853
960.3075663553858,1833
962.5150958076741,1796
964.7220294966913,1772
966.928367651274,1835
969.1341105003388,1770
971.3392582728806,1786
973.5438111979742,1796
975.747769504772,1782
977.9511334225061,1780
980.153903180487,1712
982.3560790081052,1729
984.5576611348289,1718
986.7586497902058,1761
988.9590452038618,1721
991.158847605503,1657
993.3580572249133,1630
995.5566742919558,1637
997.7546990365728,1634
999.952131688785,1576
1002.1489724786926,1514
1004.3452216364743,1554
1006.5408793923874,1514
1008.7359459767691,1535
1010.9304216200343,1531
1013.1243065526781,1469
1015.3176010052733,1508
1017.510305208472,1480
1019.7024193930064,1457
1021.8939437896848,1452
1024.0848786293977,1446
1026.2752241431122,1432
1028.4649805618747,1472
1030.6541481168115,1465
1032.842727039127,1432
1035.0307175601051,1422
1037.2181199111074,1425
1039.4049343235752,1436
1041.591161029029,1429
1043.7768002590683,1371
1045.9618522453698,1471
1048.1463172196918,1464
1050.3301954138697,1466
1052.513487059818,1497
1054.69619238953,1381
1056.8783116350783,1472
1059.0598450286152,1406
1061.2407928023704,1453
1063.4211551886528,1390
1065.6009324198508,1426
1067.780124728432,1366
1069.9587323469414,1431
1072.1367555080046,1329
1074.314194444325,1382
1076.4910493886855,1338
1078.667320573947,1394
1080.843008233051,1370
1083.0181125990161,1346
1085.1926339049414,1387
1087.3665723840027,1307
1089.5399282694575,1345
1091.7127017946405,1381
1093.8848931929647,1374
1096.0565026979243,1344
1098.2275305430899,1325
1100.3979769621128,1350
1102.567842188722,1312
1104.737126456726,1303
1106.9058300000124,1316
1109.0739530525475,1328
1111.2414958483764,1367
1113.4084586216231,1345
1115.5748416064907,1351
1117.7406450372605,1299
1119.9058691482942,1310
1122.0705141740304,1371
1124.2345803489884,1364
1126.3980679077658,1313
1128.5609770850388,1342
1130.7233081155623,1335
1132.8850612341707,1317
1135.0462366757774,1297
1137.2068346753745,1325
1139.3668554680326,1310
1141.526299288901,1252
1143.68516637321,1288
1145.8434569562655,1288
1148.001171273455,1270
1150.158309560244,1341
1152.3148720521767,1291
1154.470858984876,1236
1156.626270594044,1274
1158.7811071154629,1293
1160.9353687849912,1283
1163.089055838569,1315
1165.242168512213,1276
1167.3947070420209,1299
1169.5466716641677,1288
1171.6980626149075,1228
1173.8488801305748,1297
1175.9991244475814,1268
1178.1487958024186,1253
1180.2978944316555,1321
1182.4464205719428,1299
1184.5943744600072,1269
1186.7417563326567,1231
1188.8885664267755,1221
1191.0348049793297,1247
1193.1804722273619,1234
1195.325568407995,1292
1197.4700937584303,1296
1199.614048515948,1292
1201.7574329179074,1297
1203.900247201746,1300
1206.042491604982,1327
1208.1841663652099,1300
1210.3252717201053,1261
1212.465807907422,1286
1214.6057751649923,1361
1216.7451737307279,1301
1218.8840038426192,1263
1221.0222657387353,1279
1223.1599596572241,1295
1225.2970858363137,1353
1227.4336445143094,1309
1229.5696359295966,1362
1231.705060320639,1341
1233.8399179259786,1289
1235.9742089842384,1293
1238.107933734118,1352
1240.2410924143974,1338
1242.373685263935,1354
1244.5057125216676,1285
1246.6371744266116,1294
1248.7680712178621,1285
1250.898403134593,1329
1253.028170416058,1276
1255.1573733015875,1334
1257.2860120305932,1324
1259.4140868425648,1372
1261.54159797707,1311
1263.6685456737569,1321
1265.7949301723515,1317
1267.9207517126597,1287
1270.046010534565,1366
1272.1707068780306,1334
1274.2948409830983,1377
1276.4184130898889,1358
1278.541423438603,1318
1280.6638722695184,1422
1282.785759822993,1367
1284.9070863394636,1385
1287.0278520594447,1319
1289.1480572235314,1409
1291.2677020723963,1409
1293.3867868467923,1367
1295.5053117875495,1406
1297.623277135579,1398
1299.740683131868,1391
1301.8575300174857,1405
1303.973818033578,1410
1306.0895474213703,1438
1308.2047184221678,1374
1310.3193312773528,1387
1312.4333862283888,1412
1314.5468835168163,1456
1316.659823384255,1445
1318.7722060724045,1442
1320.8840318230418,1464
1322.9953008780249,1442
1325.1060134792888,1475
1327.2161698688478,1430
1329.3257702887959,1446
1331.4348149813054,1483
1333.5433041886276,1450
1335.6512381530933,1427
1337.7586171171101,1508
1339.8654413231675,1471
1341.9717110138317,1467
1344.0774264317488,1450
1346.1825878196432,1411
1348.2871954203192,1423
1350.3912494766587,1425
1352.4947502316231,1393
1354.5976979282532,1366
1356.7000928096686,1388
1358.8019351190665,1440
1360.9032250997243,1366
1363.0039629949988,1415
1365.1041490483235,1426
1367.2037835032133,1382
1369.3028666032606,1431
1371.401398592137,1392
1373.4993797135926,1441
1375.5968102114575,1444
1377.6936903296396,1412
1379.7900203121262,1453
1381.8858004029835,1437
1383.9810308463561,1459
1386.075711886469,1427
1388.1698437676241,1529
1390.2634267342032,1442
1392.356461030667,1453
1394.4489469015557,1392
1396.5408845914872,1479
1398.6322743451592,1480
1400.7231164073469,1463
1402.813411022907,1456
1404.903158436773,1489
1406.9923588939578,1442
1409.0810126395531,1502
1411.1691199187303,1415
1413.2566809767386,1457
1415.343696058907,1453
1417.4301654106425,1500
1419.5160892774315,1553
1421.6014679048399,1526
1423.6863015385125,1542
1425.7705904241707,1498
1427.8543348076178,1572
1429.9375349347342,1567
1432.0201910514802,1582
1434.102303403894,1586
1436.1838722380944,1591
1438.2648978002767,1629
1440.3453803367174,1614
1442.4253200937692,1589
1444.5047173178677,1689
1446.5835722555234,1728
1448.6618851533285,1704
1450.739656257952,1727
1452.8168858161434,1699
1454.8935740747306,1743
1456.96972128062,1774
1459.045327680797,1742
1461.120393522327,1815
1463.1949190523528,1882
1465.2689045180973,1914
1467.3423501668608,1959
1469.415256246024,1961
1471.4876230030463,1927
1473.559450685465,2031
1475.6307395408976,2077
1477.7014898170391,2054
1479.771701761665,1963
1481.8413756226287,2023
1483.9105116478618,2099
1485.9791100853772,2190
1488.0471711832643,2165
1490.1146951896926,2244
1492.1816823529098,2222
1494.2481329212433,2314
1496.3140471430984,2292
1498.3794252669609,2273
1500.4442675413939,2242
1502.5085742150404,2239
1504.572345536622,2294
1506.6355817549388,2333
1508.6982831188702,2338
1510.7604498773744,2314
1512.8220822794883,2377
1514.8831805743293,2381
1516.9437450110909,2373
1519.003775839048,2292
1521.0632733075522,2457
1523.1222376660367,2449
1525.1806691640113,2405
1527.2385680510652,2495
1529.2959345768668,2484
1531.3527689911643,2502
1533.4090715437833,2583
1535.4648424846291,2534
1537.5200820636855,2616
1539.5747905310159,2591
1541.6289681367616,2630
1543.6826151311434,2608
1545.7357317644614,2643
1547.7883182870937,2752
1549.8403749494987,2706
1551.8919020022113,2796
1553.9428996958477,2749
1555.9933682811015,2837
1558.0433080087469,2892
1560.0927191296346,2907
1562.1416018946961,2963
1564.1899565549415,3117
1566.2377833614592,3123
1568.2850825654164,3112
1570.3318544180606,3166
1572.3780991707158,3007
1574.423817074788,2903
1576.4690083817595,2943
1578.5136733431923,2794
1580.5578122107272,2678
1582.601425236085,2627
1584.6445126710646,2393
1586.6870747675434,2397
1588.7291117774776,2313
1590.7706239529034,2144
1592.8116115459347,2067
1594.8520748087658,2005
1596.8920139936686,1910
1598.9314293529933,1903
1600.9703211391711,1851
1603.008689604711,1710
1605.0465350022005,1663
1607.0838575843068,1708
1609.1206576037753,1697
1611.1569353134305,1596
1613.1926909661765,1606
1615.2279248149953,1562
1617.2626371129481,1562
1619.2968281131757,1480
1621.3304980688963,1552
1623.3636472334088,1516
1625.39627586009,1452
1627.428384202396,1499
1629.459972513861,1461
1631.4910410480993,1497
1633.5215900588028,1491
1635.551619799744,1406
1637.5811305247717,1456
1639.6101224878166,1407
1641.6385959428862,1404
1643.6665511440683,1388
1645.693988345528,1341
1647.7209078015112,1398
1649.7473097663405,1394
1651.7731944944203,1406
1653.7985622402307,1362
1655.823413258333,1339
1657.847747803366,1343
1659.8715661300494,1349
1661.8948684931793,1395
1663.9176551476316,1323
1665.9399263483624,1345
1667.9616823504057,1379
1669.982923408873,1313
1672.0036497789574,1357
1674.0238617159293,1374
1676.043559475138,1349
1678.0627433120121,1361
1680.081413482059,1355
1682.0995702408654,1341
1684.117213844096,1250
1686.134344547495,1366
1688.1509626068864,1329
1690.1670682781705,1315
1692.182661817329,1339
1694.1977434804217,1351
1696.2123135235875,1324
1698.226372203043,1314
1700.2399197750851,1342
1702.2529564960905,1319
1704.2654826225112,1350
1706.277498410882,1357
1708.2890041178139,1370
1710.2999999999988,1321
1712.3104863142066,1305
1714.3204633172854,1302
1716.329931266163,1321
1718.3388904178469,1315
1720.3473410294214,1315
1722.3552833580516,1352
1724.3627176609807,1330
1726.3696441955308,1285
1728.3760632191033,1272
1730.3819749891782,1326
1732.3873797633146,1271
1734.3922777991502,1246
1736.3966693544012,1292
1738.4005546868639,1277
1740.4039340544127,1257
1742.406807715001,1339
1744.4091759266616,1246
1746.4110389475054,1286
1748.4123970357223,1286
1750.413250449582,1212
1752.4135994474318,1248
1754.4134442876993,1274
1756.4127852288902,1272
1758.4116225295893,1288
1760.4099564484595,1272
1762.407787244244,1249
1764.405115175764,1283
1766.4019405019203,1217
1768.3982634816916,1173
1770.3940843741357,1262
1772.3894034383907,1198
1774.3842209336717,1254
1776.378537119274,1200
1778.372352254571,1208
1780.3656665990156,1239
1782.3584804121397,1230
1784.3507939535534,1206
1786.3426074829463,1184
1788.3339212600863,1235
1790.3247355448211,1197
1792.3150505970766,1204
1794.3048666768573,1215
1796.2941840442477,1227
1798.2830029594106,1211
1800.2713236825884,1217
1802.2591464741004,1241
1804.2464715943465,1167
1806.2332993038058,1205
1808.2196298630352,1240
1810.2054635326708,1233
1812.190800573428,1226
1814.175641246101,1203
1816.1599858115628,1149
1818.1438345307652,1219
1820.127187664738,1193
1822.1100454745924,1163
1824.092408221516,1195
1826.0742761667766,1221
1828.055649571721,1194
1830.0365286977735,1141
1832.0169138064398,1191
1833.9968051593014,1165
1835.9762030180214,1165
1837.9551076443408,1206
1839.9335193000788,1149
1841.9114382471344,1196
1843.888864747485,1219
1845.8657990631878,1174
1847.842241456378,1195
1849.8181921892697,1212
1851.7936515241558,1170
1853.7686197234098,1163
1855.7430970494815,1215
1857.7170837649014,1218
1859.6905801322787,1183
1861.6635864143004,1206
1863.6361028737338,1147
1865.608129773424,1161
1867.5796673762961,1162
1869.5507159453537,1217
1871.521275743678,1196
1873.4913470344313,1145
1875.4609300808534,1201
1877.4300251462632,1243
1879.3986324940588,1165
1881.366752387717,1225
1883.3343850907936,1253
1885.3015308669228,1213
1887.268189979819,1201
1889.2343626932739,1190
1891.2000492711595,1237
1893.1652499774254,1168
1895.1299650761011,1201
1897.0941948312952,1210
1899.0579395071945,1209
1901.0211993680641,1254
1902.98397467825,1196
1904.9462657021745,1240
1906.9080727043415,1233
1908.869395949332,1254
1910.8302357018065,1234
1912.790592226504,1241
1914.7504657882428,1184
1916.7098566519212,1215
1918.6687650825133,1221
1920.6271913450764,1229
1922.5851357047422,1212
1924.5425984267245,1245
1926.499579776314,1238
1928.4560800188833,1279
1930.4120994198802,1222
1932.367638244833,1221
1934.32269675935,1247
1936.2772752291175,1260
1938.231373919899,1189
1940.1849930975404,1248
1942.1381330279637,1158
1944.0907939771696,1192
1946.0429762112412,1186
1947.9946799963363,1205
1949.9459055986945,1188
1951.896653284633,1202
1953.8469233205478,1200
1955.7967159729142,1208
1957.7460315082863,1215
1959.6948701932974,1243
1961.6432322946594,1213
1963.5911180791632,1232
1965.5385278136787,1192
1967.4854617651545,1176
1969.4319202006182,1165
1971.377903387176,1204
1973.3234115920136,1195
1975.268445082395,1250
1977.2130041256642,1151
1979.1570889892423,1249
1981.1006999406304,1266
1983.04383724741,1173
1984.986501177238,1221
1986.928691997853,1189
1988.8704099770712,1164
1990.811655382789,1214
1992.7524284829801,1141
1994.692729545698,1187
1996.6325588390755,1214
1998.5719166313224,1191
2000.5108031907307,1206
2002.4492187856677,1191
2004.387163684583,1128
2006.3246381560011,1164
2008.2616424685298,1172
2010.1981768908527,1157
2012.1342416917332,1134
2014.069837140014,1233
2016.0049635046162,1167
2017.9396210545406,1170
2019.8738100588666,1160
2021.8075307867502,1201
2023.740783507431,1170
2025.6735684902228,1130
2027.6058860045214,1124
2029.5377363198004,1174
2031.4691197056118,1164
2033.4000364315875,1154
2035.3304867674374,1181
2037.260470982952,1173
2039.189989347998,1147
2041.1190421325232,1145
2043.047629606554,1166
2044.9757520401945,1148
2046.9034097036288,1129
2048.8306028671195,1148
2050.7573318010086,1163
2052.683596775716,1166
2054.609398061742,1145
2056.5347359296647,1140
2058.4596106501403,1155
2060.384022493906,1095
2062.3079717317764,1133
2064.231458634646,1103
2066.1544834734873,1183
2068.077046519352,1226
2069.99914804337,1223
2071.9207883167524,1142
2073.8419676107865,1166
2075.7626861968406,1178
2077.6829443463607,1180
2079.6027423308715,1193
2081.522080421977,1158
2083.440958891362,1175
2085.359378010786,1167
2087.2773380520907,1209
2089.194839287196,1187
2091.111881988101,1155
2093.0284664268825,1106
2094.9445928756973,1181
2096.86026160678,1178
2098.775472892446,1159
2100.690227005088,1197
2102.604524217178,1195
2104.5183648012676,1181
2106.431749029985,1154
2108.34467717604,1161
2110.2571495122206,1150
2112.169166311393,1134
2114.080727846503,1139
2115.9918343905747,1129
2117.902486216711,1120
2119.8126835980956,1168
2121.722426807987,1151
2123.6317161197285,1150
2125.5405518067364,1155
2127.448934142509,1139
2129.356863400624,1180
2131.264339854737,1235
2133.1713637785815,1208
2135.077935445972,1186
2136.9840551308002,1197
2138.889723107037,1180
2140.7949396487334,1143
2142.699705030018,1181
2144.6040195250994,1207
2146.507883408264,1149
2148.4112969538774,1178
2150.3142604363848,1139
2152.2167741303097,1163
2154.1188383102535,1152
2156.0204532508997,1159
2157.9216192270064,1178
2159.822336513414,1212
2161.7226053850413,1146
2163.622426116884,1184
2165.5217989840185,1129
2167.4207242616,1153
2169.319202224862,1196
2171.2172331491165,1181
2173.1148173097563,1166
2175.0119549822507,1193
2176.90864644215,1174
2178.8048919650823,1172
2180.7006918267534,1148
2182.596046302952,1158
2184.4909556695407,1177
2186.3854202024645,1169
2188.279440177746,1168
2190.173015871487,1179
2192.066147559868,1189
2193.958835519149,1157
2195.851080025667,1140
2197.7428813558417,1161
2199.6342397861667,1181
2201.5251555932186,1175
2203.415629053651,1150
2205.3056604441986,1179
2207.19525004167,1142
2209.084398122958,1143
2210.9731049650327,1233
2212.861370844941,1217
2214.749196039812,1196
2216.636580826851,1149
2218.523525483344,1161
2220.410030286655,1203
2222.296095514226,1178
2224.1817214435805,1180
2226.066908352319,1223
2227.951656518121,1171
2229.835966218746,1163
2231.71983773203,1176
2233.6032713358913,1169
2235.486267308324,1110
2237.3688259274036,1129
2239.2509474712824,1158
2241.132632218193,1161
2243.013880446447,1164
2244.8946924344323,1161
2246.7750684606203,1175
2248.6550088035574,1145
2250.534513741871,1215
2252.413583554265,1192
2254.292218519526,1156
2256.170418916517,1187
2258.0481850241786,1154
2259.925517121534,1190
2261.8024154876825,1151
2263.678880401803,1230
2265.5549121431536,1126
2267.430510991071,1134
2269.305677224971,1268
2271.180411124348,1160
2273.0547129687766,1184
2274.9285830379076,1192
2276.8020216114737,1109
2278.6750289692845,1201
2280.5476053912294,1196
2282.4197511572766,1157
2284.2914665474727,1130
2286.162751841943,1130
2288.0336073208937,1174
2289.904033264608,1140
2291.774029953448,1168
2293.6435976678554,1159
2295.5127366883517,1157
2297.381447295534,1139
2299.2497297700825,1196
2301.1175843927526,1234
2302.9850114443825,1206
2304.852011205885,1138
2306.7185839582553,1158
2308.5847299825664,1155
2310.4504495599676,1186
2312.3157429716925,1193
2314.1806104990483,1173
2316.0450524234247,1148
2317.9090690262888,1161
2319.772660589186,1215
2321.635827393742,1164
2323.498569721661,1172
2325.3608878547248,1174
2327.2227820747967,1203
2329.0842526638157,1198
2330.945299903803,1202
2332.805924076857,1189
2334.6661254651535,1252
2336.525904350951,1212
2338.3852610165827,1220
2340.244195744464,1168
2342.102708817088,1195
2343.9608005170253,1178
2345.8184711269287,1175
2347.675720929526,1175
2349.532550207628,1172
2351.38895924412,1230
2353.24494832197,1203
2355.100517724223,1182
2356.955667734004,1209
2358.810398634514,1187
2360.664710709037,1248
2362.5186042409337,1196
2364.3720795136437,1244
2366.225136810686,1230
2368.0777764156583,1222
2369.929998612237,1170
2371.7818036841777,1184
2373.633191915315,1217
2375.484163589562,1229
2377.3347189909114,1184
2379.184858403434,1211
2381.03458211128,1267
2382.8838903986775,1209
2384.732783549936,1186
2386.5812618494406,1218
2388.4293255816588,1289
2390.2769750311327,1238
2392.1242104824883,1201
2393.971032220427,1207
2395.8174405297295,1219
2397.6634356952563,1267
2399.509018001947,1238
2401.3541877348193,1229
2403.1989451789705,1224
2405.043290619576,1195
2406.8872243418905,1271
2408.730746631247,1217
2410.5738577730594,1244
2412.4165580528183,1259
2414.258847756095,1195
2416.100727168537,1194
2417.9421965758734,1254
2419.783256263912,1219
2421.623906518538,1205
2423.4641476257157,1247
2425.303979871491,1205
2427.143403541984,1268
2428.9824189233977,1277
2430.821026302012,1257
2432.6592259641866,1258
2434.497018196361,1218
2436.33440328505,1294
2438.171381516851,1225
2440.00795317844,1249
2441.844118556569,1227
2443.6798779380724,1278
2445.5152316098606,1254
2447.3501798589255,1259
2449.1847229723357,1239
2451.0188612372403,1196
2452.8525949408663,1211
2454.6859243705203,1220
2456.518849813587,1210
2458.3513715575314,1230
2460.183489889895,1222
2462.015205098301,1240
2463.8465174704493,1242
2465.67742729412,1243
2467.5079348571717,1227
2469.338040447542,1270
2471.1677443532476,1222
2472.9970468623833,1259
2474.825948263123,1258
2476.6544488437207,1245
2478.482548892508,1298
2480.310248697896,1220
2482.137548548374,1286
2483.9644487325118,1253
2485.790949538956,1211
2487.617051256433,1228
2489.44275417375,1297
2491.26805857979,1291
2493.0929647635157,1248
2494.917473013971,1242
2496.741583620276,1250
2498.5652968716304,1285
2500.3886130573137,1291
2502.2115324666834,1253
2504.0340553891765,1299
2505.856182114308,1291
2507.6779129316733,1316
2509.499248130945,1293
2511.3201880018764,1270
2513.140732834298,1280
2514.9608829181198,1329
2516.780638543331,1321
2518.6,1315
2520.418967578273,1298
2522.237541568376,1341
2524.0557222606144,1250
2525.8735099453706,1284
2527.6909049131086,1318
2529.507907454368,1301
2531.32451785977,1321
2533.140736420014,1298
2534.9565634258774,1288
2536.771999168218,1332
2538.5870439379714,1316
2540.4016980261526,1331
2542.2159617238544,1350
2544.02983532225,1348
2545.8433191125914,1321
2547.656413386209,1395
2549.4691184345115,1344
2551.2814345489874,1315
2553.093362021204,1398
2554.904901142808,1395
2556.716052205523,1384
2558.526815501153,1438
2560.3371913215824,1446
2562.147179958771,1405
2563.956781704761,1414
2565.7659968516705,1467
2567.5748256916986,1391
2569.3832685171224,1453
2571.1913256202984,1414
2572.9989972936614,1481
2574.806283829725,1502
2576.613185521084,1579
2578.4197026604074,1498
2580.2258355404483,1506
2582.031584454035,1506
2583.836949694077,1511
2585.6419315535613,1523
2587.4465303255533,1470
2589.2507463032002,1493
2591.0545797797245,1563
2592.8580310484303,1522
2594.6611004026995,1510
2596.463788135992,1557
2598.266094541849,1518
2600.0680199138874,1504
2601.869564545807,1510
2603.670728731383,1583
2605.4715127644704,1546
2607.2719169390048,1592
2609.071941548998,1504
2610.8715868885433,1588
2612.670853251811,1488
2614.469740933052,1556
2616.268250226594,1554
2618.0663814268455,1560
2619.864134828292,1493
2621.6615107255006,1513
2623.458509413115,1508
2625.2551311858597,1549
2627.0513763385347,1478
2628.8472451660223,1443
2630.6427379632833,1493
2632.4378550253564,1441
2634.232596647359,1434
2636.026963124488,1486
2637.8209547520187,1403
2639.6145718253065,1461
2641.407814639785,1454
2643.200683490966,1467
2644.9931786744414,1397
2646.7853004858807,1400
2648.577049221034,1404
2650.3684251757277,1371
2652.1594286458712,1395
2653.9500599274484,1350
2655.740319316525,1408
2657.5302071092437,1394
2659.3197236018286,1384
2661.10886909058,1401
2662.8976438718782,1357
2664.686048242183,1354
2666.4740824980327,1406
2668.2617469360443,1329
2670.0490418529134,1295
2671.8359675454153,1292
2673.622524310403,1302
2675.408712444811,1301
2677.1945322456495,1277
2678.979984010009,1290
2680.76506803506,1305
2682.5497846180497,1265
2684.334134056306,1256
2686.1181166472343,1232
2687.9017326883213,1216
2689.6849824771293,1298
2691.4678663113013,1259
2693.2503844885596,1264
2695.032537306705,1248
2696.8143250636167,1261
2698.5957480572542,1275
2700.3768065856534,1199
2702.1575009469316,1231
2703.937831439283,1267
2705.717798360982,1236
2707.4974020103837,1224
2709.276642685917,1197
2711.055520686095,1216
2712.834036309506,1204
2714.612189854819,1189
2716.389981620782,1235
2718.1674119062204,1254
2719.944481010041,1234
2721.721189231226,1184
2723.4975368688415,1202
2725.273524222027,1222
2727.0491515900053,1225
2728.824419272075,1209
2730.5993275676146,1212
2732.3738767760838,1195
2734.148067197016,1183
2735.921899130031,1163
2737.6953728748194,1190
2739.468488731156,1227
2741.2412469988926,1216
2743.0136479779617,1182
2744.785691968372,1162
2746.5573792702116,1207
2748.3287101836504,1207
2750.099685008934,1168
2751.870304046388,1185
2753.640567596418,1173
2755.4104759595057,1194
2757.1800294362156,1133
2758.949228327187,1099
2760.7180729331412,1187
2762.486563554877,1165
2764.254700493272,1181
2766.022484049284,1197
2767.789914523947,1186
2769.5569922183786,1190
2771.3237174337705,1166
2773.090090471394,1152
2774.8561116326036,1185
2776.6217812188274,1165
2778.3870995315756,1178
2780.1520668724356,1185
2781.9166835430747,1149
2783.6809498452394,1107
2785.444866080754,1229
2787.2084325515225,1169
2788.971649559527,1161
2790.73451740683,1163
2792.4970363955713,1155
2794.2592068279705,1184
2796.0210290063264,1196
2797.7825032330147,1167
2799.543629810493,1181
2801.304409041296,1141
2803.0648412280366,1138
2804.8249266734088,1146
2806.5846656801846,1171
2808.344058551212,1159
2810.1031055894246,1163
2811.8618070978273,1215
2813.6201633795085,1186
2815.378174737636,1195
2817.1358414754536,1158
2818.893163896285,1181
2820.6501423035334,1121
2822.4067770006814,1146
2824.1630682912883,1124
2825.9190164789957,1133
2827.6746218675207,1147
2829.429884760661,1164
2831.184805462294,1151
2832.9393842763743,1193
2834.693621506936,1184
2836.4475174580916,1159
2838.201072434034,1144
2839.954286739034,1211
2841.707160677441,1119
2843.459694553685,1185
2845.2118886722724,1157
2846.96374333779,1212
2848.7152588549034,1189
2850.4664355283567,1201
2852.217273662973,1115
2853.9677735636546,1183
2855.7179355353833,1198
2857.4677598832186,1161
2859.217246912299,1177
2860.9663969278427,1216
2862.715210235146,1169
2864.4636871395846,1153
2866.211827946614,1182
2867.9596329617652,1183
2869.7071024906536,1160
2871.4542368389684,1122
2873.20103631248,1161
2874.947501217038,1169
2876.6936318585695,1143
2878.4394285430812,1189
2880.1848915766604,1185
2881.9300212654707,1170
2883.6748179157553,1163
2885.4192818338374,1169
2887.1634133261173,1078
2888.907212699077,1148
2890.6506802592744,1112
2892.393816313348,1132
2894.1366211680142,1162
2895.8790951300693,1168
2897.621238506388,1162
2899.363051603925,1178
2901.1045347297118,1174
2902.8456881908596,1170
2904.58651229456,1184
2906.327007348081,1169
2908.067173658772,1166
2909.8070115340597,1232
2911.5465212814497,1211
2913.285703208527,1117
2915.0245576229563,1142
2916.7630848324807,1222
2918.5012851449196,1143
2920.2391588681758,1096
2921.976706310227,1167
2923.7139277791334,1134
2925.4508235830313,1166
2927.187394030137,1153
2928.923639428745,1162
2930.6595600872306,1139
2932.395156314046,1148
2934.1304284177218,1134
2935.8653767068713,1171
2937.6000014901815,1130
2939.3343030764227,1144
2941.068281774442,1154
2942.8019378931644,1138
2944.5352717415976,1167
2946.2682836288236,1167
2948.0009738640065,1200
2949.7333427563885,1193
2951.465390615289,1180
2953.1971177501086,1160
2954.9285244703265,1159
2956.6596110855,1132
2958.3903779052657,1191
2960.1208252393385,1136
2961.8509533975125,1119
2963.5807626896617,1193
2965.3102534257378,1179
2967.0394259157715,1134
2968.768280469873,1128
2970.496817398232,1159
2972.2250370111146,1184
2973.952939618869,1148
2975.6805255319196,1171
2977.4077950607707,1165
2979.134748516006,1161
2980.861386208289,1170
2982.587708448359,1192
2984.313715547037,1167
2986.039407815222,1198
2987.764785563891,1168
2989.489849104102,1192
2991.2145987469908,1163
2992.9390348037705,1166
2994.6631575857346,1161
2996.3869674042576,1137
2998.1104645707887,1117
2999.83364939686,1148
3001.5565221940783,1159
3003.2790832741334,1079
3005.0013329487924,1172
3006.7232715298996,1159
3008.4448993293804,1119
3010.166216659239,1116
3011.887223831558,1119
3013.607921158498,1153
3015.3283089522993,1173
3017.0483875252826,1133
3018.7681571898443,1126
3020.4876182584626,1113
3022.2067710436927,1090
3023.9256158581707,1207
3025.644153014609,1130
3027.362382825801,1151
3029.0803056046193,1169
3030.797921664012,1182
3032.5152313170106,1143
3034.2322348767225,1110
3035.9489326563353,1104
3037.665324969115,1163
3039.3814121284063,1179
3041.097194447633,1196
3042.812672240299,1134
3044.5278458199855,1108
3046.2427155003525,1163
3047.9572815951406,1154
3049.671544418167,1122
3051.38550428333,1124
3053.0991615046073,1221
3054.812516396051,1102
3056.5255692717974,1167
3058.2383204460575,1181
3059.9507702331257,1119
3061.662918947372,1129
3063.3747669032446,1149
3065.0863144152736,1147
3066.7975617980674,1185
3068.508509366309,1201
3070.219157434767,1159
3071.9295063182844,1177
3073.639556331785,1153
3075.3493077902704,1135
3077.058761008821,1130
3078.7679163025964,1106
3080.476773986837,1130
3082.1853343768594,1157
3083.89359778806,1216
3085.6015645359153,1121
3087.3092349359786,1131
3089.016609303884,1155
3090.7236879553434,1139
3092.4304712061476,1150
3094.136959372166,1157
3095.843152769349,1154
3097.5490517137237,1114
3099.2546565213966,1151
3100.959967508554,1155
3102.66498499146,1160
3104.3697092864577,1189
3106.0741407099695,1132
3107.778279578498,1163
3109.482126208622,1166
3111.1856809170004,1174
3112.8889440203716,1129
3114.5919158355528,1121
3116.294596679439,1175
3117.996986869006,1149
3119.6990867213062,1152
3121.4008965534726,1189
3123.102416682717,1148
3124.803647426329,1177
3126.5045891016784,1179
3128.205242026213,1136
3129.90560651746,1172
3131.605682893025,1131
3133.3054714705922,1158
3135.0049725679282,1162
3136.7041865028714,1162
3138.4031135933465,1168
3140.101754157353,1120
3141.800108512971,1181
3143.498176978357,1130
3145.1959598717494,1169
3146.8934575114636,1144
3148.5906702158954,1156
3150.2875983035183,1114
3151.9842420928853,1096
3153.680601902627,1149
3155.376678051456,1134
3157.07247085816,1118
3158.767980641609,1148
3160.463207720748,1119
3162.158152414606,1191
3163.8528150422862,1121
3165.5471959229726,1137
3167.2412953759303,1098
3168.9351137204976,1098
3170.628651276098,1169
3172.3219083622307,1188
3174.014885298474,1143
3175.707582404485,1153
3177.4000000000005,1162
3179.092138404835,1138
3180.7839979388846,1156
3182.47557892212,1172
3184.166881674594,1181
3185.8579065164386,1146
3187.5486537678626,1173
3189.2391237491547,1102
3190.9293167806827,1189
3192.6192331828934,1165
3194.3088732763117,1165
3195.998237381542,1115
3197.687325819268,1163
3199.376138910251,1087
3201.064676975334,1154
3202.7529403354347,1138
3204.4409293115523,1144
3206.1286442247647,1179
3207.816085396229,1127
3209.5032531471825,1119
3211.190147798936,1124
3212.8767696728846,1088
3214.5631190905015,1148
3216.2491963733373,1128
3217.9350018430214,1127
3219.6205358212637,1096
3221.305798629851,1111
3222.990790590651,1133
3224.6755120256103,1111
3226.359963256751,1119
3228.0441446061795,1080
3229.7280563960758,1124
3231.411698948703,1082
3233.0950725863995,1085
3234.778177631587,1124
3236.461014406761,1153
3238.1435832345005,1109
3239.8258844374595,1139
3241.507918338374,1149
3243.1896852600576,1118
3244.8711855254023,1097
3246.552419457381,1163
3248.233387379042,1157
3249.914089613516,1139
3251.59452648401,1108
3253.274698313813,1153
3254.95460542629,1134
3256.6342481448855,1144
3258.313626793125,1102
3259.9927416946084,1060
3261.6715931730196,1126
3263.3501815521176,1138
3265.0285071557437,1112
3266.706570307815,1086
3268.3843713323286,1103
3270.0619105533615,1134
3271.739188295068,1144
3273.4162048816834,1101
3275.0929606375184,1128
3276.769455886966,1184
3278.445690954498,1116
3280.1216661646613,1156
3281.797381842087,1123
3283.4728383114807,1163
3285.1480358976296,1125
3286.8229749253996,1100
3288.4976557197333,1109
3290.172078605655,1112
3291.846243908266,1142
3293.5201519527463,1105
3295.193803064357,1128
3296.8671975684374,1120
3298.5403357904024,1108
3300.21321805575,1091
3301.8858446900567,1100
3303.558216018975,1121
3305.23033236824,1130
3306.9021940636603,1146
3308.57380143113,1112
3310.2451547966184,1086
3311.916254486174,1131
3313.5871008259246,1135
3315.2576941420766,1144
3316.9280347609147,1088
3318.5981230088046,1125
3320.2679592121895,1157
3321.9375436975924,1139
3323.606876791612,1125
3325.27595882093,1159
3326.944790112305,1135
3328.6133709925753,1129
3330.2817017886573,1150
3331.949782827547,1122
3333.617614436319,1133
3335.2851969421245,1109
3336.952530672199,1130
3338.619615953853,1153
3340.286453114475,1119
3341.9530424815357,1165
3343.619384382583,1155
3345.2854791452437,1145
3346.951327097224,1121
3348.6169285663073,1197
3350.2822838803577,1101
3351.947393367319,1127
3353.61225735521,1143
3355.2768761721345,1151
3356.9412501462693,1098
3358.605379605873,1116
3360.2692648792827,1138
3361.9329062949146,1120
3363.596304181263,1126
