CollectionTime,6/28/2024 3:13:35 PM
ExposureUsed,3
CalibratedSpectrum
-962.7078968117929,763
-959.9714848408522,764
-957.2358232597828,772
-954.5009119013725,840
-951.7667505983302,806
-949.0333391832855,807
-946.3006774887896,801
-943.5687653473143,820
-940.837602591253,790
-938.1071890529199,825
-935.3775245645503,803
-932.6486089583007,794
-929.9204420662485,788
-927.1930237203925,822
-924.4663537526524,819
-921.7404319948689,826
-919.0152582788041,838
-916.2908324361409,821
-913.5671542984834,799
-910.8442236973568,841
-908.1220404642074,817
-905.4006044304027,824
-902.679915427231,802
-899.959973285902,804
-897.2407778375464,787
-894.5223289132158,804
-891.8046263438832,777
-889.0876699604426,781
-886.3714595937089,767
-883.6559950744183,781
-880.9412762332282,757
-878.2273029007168,738
-875.5140749073835,750
-872.8015920836489,758
-870.0898542598545,754
-867.3788612662631,752
-864.6686129330585,740
-861.9591090903457,744
-859.2503495681506,741
-856.5423341964203,761
-853.8350628050229,743
-851.1285352237478,768
-848.4227512823054,770
-845.7177108103272,715
-843.0134136373656,762
-840.3098595928943,767
-837.6070485063082,782
-834.9049802069229,769
-832.2036545239757,720
-829.5030712866244,782
-826.8032303239481,742
-824.1041314649472,742
-821.4057745385428,769
-818.7081593735775,769
-816.0112857988148,774
-813.3151536429393,751
-810.6197627345566,760
-807.9251129021936,780
-805.2312039742981,770
-802.5380357792392,763
-799.8456081453069,758
-797.1539209007124,761
-794.462973873588,796
-791.772766891987,753
-789.083299783884,768
-786.3945723771743,731
-783.7065844996748,746
-781.0193359791231,756
-778.3328266431781,783
-775.6470563194197,781
-772.9620248353489,739
-770.2777320183878,735
-767.5941776958798,763
-764.9113616950891,751
-762.2292838432011,763
-759.5479439673222,780
-756.8673418944801,753
-754.1874774516235,817
-751.5083504656222,752
-748.8299607632671,769
-746.15230817127,807
-743.475392516264,803
-740.7992136248035,801
-738.1237713233636,789
-735.4490654383407,764
-732.7750957960521,810
-730.1018622227365,798
-727.4293645445534,816
-724.7576025875837,833
-722.0865761778291,817
-719.4162851412126,770
-716.7467293035781,794
-714.0779084906909,798
-711.409822528237,836
-708.7424712418238,861
-706.0758544569796,802
-703.4099719991541,854
-700.7448236937178,842
-698.0804093659622,810
-695.4167288411002,832
-692.7537819442656,860
-690.0915685005134,851
-687.4300883348199,881
-684.7693412720819,876
-682.1093271371178,861
-679.4500457546669,845
-676.7914969493897,869
-674.1336805458676,859
-671.4765963686034,873
-668.8202442420206,882
-666.1646239904642,887
-663.5097354382001,876
-660.8555784094151,824
-658.2021527282176,887
-655.5494582186366,933
-652.8974947046223,919
-650.2462620100463,963
-647.5957599587009,948
-644.9459883742998,951
-642.2969470804776,886
-639.6486359007902,949
-637.0010546587141,919
-634.3542031776476,914
-631.7080812809096,904
-629.0626887917401,877
-626.4180255333008,871
-623.7740913286734,887
-621.1308860008619,856
-618.4884093727904,871
-615.8466612673046,863
-613.2056415071715,868
-610.5653499150785,870
-607.9257863136347,923
-605.28695052537,851
-602.6488423727357,907
-600.0114616781036,853
-597.3748082637674,857
-594.7388819519412,901
-592.1036825647604,910
-589.4692099242818,871
-586.8354638524829,898
-584.2024441712624,865
-581.5701507024403,926
-578.9385832677575,901
-576.3077416888759,890
-573.6776257873787,898
-571.0482353847704,866
-568.4195703024757,894
-565.7916303618415,939
-563.164415384135,916
-560.5379251905453,900
-557.9121596021815,927
-555.2871184400748,885
-552.6628015251767,882
-550.0392086783606,911
-547.4163397204204,911
-544.794194472071,903
-542.1727727539491,901
-539.5520743866118,878
-536.9320991905377,962
-534.3128469861261,978
-531.6943175936979,986
-529.0765108334947,1001
-526.4594265256793,1158
-523.8430644903358,1222
-521.2274245474689,1326
-518.612506517005,1459
-515.9983102187913,1442
-513.3848354725959,1547
-510.77208209810846,1654
-508.16004991493924,1714
-505.5487387426199,1752
-502.9381484006032,1903
-500.3282787082628,1942
-497.71912948489364,1956
-495.1107005497117,1893
-492.5029917218539,1769
-489.8960028203786,1577
-487.28973366426493,1346
-484.68418407241325,1273
-482.07935386364494,1180
-479.47524285670266,1156
-476.87185087025,1098
-474.2691777228715,1143
-471.66722323307334,1175
-469.0659872192821,1143
-466.4654694998459,1090
-463.86566989303384,1080
-461.26658821703614,1061
-458.66822428996414,1068
-456.07057792985,1064
-453.4736489546475,1105
-450.877437182231,1054
-448.28194243039627,1032
-445.68716451686,1096
-443.09310325926003,1081
-440.49975847515555,1087
-437.9071299820263,1077
-435.31521759727354,1069
-432.72402113821954,1089
-430.13354042210767,1084
-427.5437752661022,1163
-424.95472548728867,1121
-422.36639090267386,1101
-419.7787713291855,1180
-417.1918665836721,1136
-414.60567648290385,1137
-412.0202008435715,1134
-409.4354394822874,1167
-406.8513922155845,1200
-404.26805885991723,1183
-401.685439231661,1214
-399.103533147112,1162
-396.522340422488,1138
-393.9418608739278,1112
-391.3620943174908,1049
-388.7830405691583,1072
-386.2046994448317,1022
-383.6270707603344,985
-381.05015433141045,858
-378.473949973725,815
-375.8984575028645,791
-373.32367673433623,791
-370.74960748356875,706
-368.1762495659117,653
-365.60360279663576,628
-363.03166699093265,578
-360.4604419639154,530
-357.8899275306178,540
-355.32012350599507,508
-352.7510297049233,509
-350.1826459421999,527
-347.61497203254316,508
-345.04800779059235,476
-342.4817530309082,497
-339.91620756797226,466
-337.35137121618743,487
-334.7872437898774,479
-332.22382510328725,483
-329.66111497058273,504
-327.09911320585127,508
-324.53781962310075,553
-321.9772340362607,526
-319.4173562591816,558
-316.8581861056348,577
-314.2997233893127,557
-311.7419679238294,560
-309.1849195227194,555
-306.62857799943856,510
-304.0729431673641,519
-301.51801483979375,495
-298.963792829947,532
-296.41027695096386,547
-293.85746701590574,603
-291.3053628377552,612
-288.7539642294155,573
-286.2032710037115,579
-283.65328297338897,612
-281.1039999511146,608
-278.5554217494762,553
-276.007548180983,572
-273.4603790580651,591
-270.9139141930734,605
-268.3681533982807,576
-265.8230964858798,592
-263.27874326798565,605
-260.7350935566336,612
-258.1921471637804,635
-255.6499039013039,572
-253.10836358100266,584
-250.56752601459698,577
-248.02739101372765,730
-245.48795838995704,766
-242.94922795476816,748
-240.41119951956557,759
-237.8738728956746,674
-235.33724789434166,738
-232.80132432673452,750
-230.2661020039418,756
-227.73158073697357,696
-225.19776033676033,678
-222.66464061415422,697
-220.1322213799284,686
-217.60050244477725,750
-215.06948361931552,706
-212.53916471408013,691
-210.00954553952818,718
-207.48062590603843,706
-204.9524056239104,789
-202.4248845033651,838
-199.8980623545441,785
-197.37193898751036,728
-194.84651421224817,714
-192.32178783866232,817
-189.79775967657952,836
-187.27442953574644,818
-184.7517972258321,756
-182.2298625564256,738
-179.7086253370378,764
-177.18808537710026,846
-174.66824248596583,816
-172.14909647290835,877
-169.6306471471229,764
-167.11289431772548,800
-164.59583779375328,828
-162.07947738416453,860
-159.5638128978386,838
-157.04884414357605,948
-154.53457093009854,1010
-152.02099306604828,1041
-149.50811035998936,944
-146.99592262040665,893
-144.48442965570587,867
-141.97363127421409,966
-139.46352728417958,956
-136.95411749377126,944
-134.44540171107985,1063
-131.93737974411636,1091
-129.43005140081357,1123
-126.92341648902493,1211
-124.41747481652521,1260
-121.91222619101006,1375
-119.40767042009657,1107
-116.90380731132257,1262
-114.40063667214702,1238
-111.8981583099503,1214
-109.3963720320337,1289
-106.89527764561933,1485
-104.39487495785067,1596
-101.89516377579241,1458
-99.39614390642998,1485
-96.89781515667039,1413
-94.40017733334128,1629
-91.90323024319173,1539
-89.40697369289148,1543
-86.91140748903172,1665
-84.41653143812482,1790
-81.92234534660395,1767
-79.42884902082358,1758
-76.93604226705907,1736
-74.4439248915071,1695
-71.95249670028534,1825
-69.46175749943245,1796
-66.97170709490854,2079
-64.48234529259423,2416
-61.99367189829195,2012
-59.50568671772464,2075
-57.01838955653636,2245
-54.53178022029283,2445
-52.045858514480074,2432
-49.560624244506016,2757
-47.07607721569923,2928
-44.59221723330904,2928
-42.10904410250669,2636
-39.62655762838392,3431
-37.14475761595372,4029
-34.66364387015028,4858
-32.18321619582866,5867
-29.70347439776515,6413
-27.224418280657005,7855
-24.74604764912317,11535
-22.26836230770266,19307
-19.7913620608565,31396
-17.315046712966478,39267
-14.83941606833514,43089
-12.36446993118659,65029
-9.89020810566592,65029
-7.416630395839093,65029
-4.94373660569363,65029
-2.471526539137585,65029
-6.821210263296962E-13,65029
2.47084320796705,65029
4.941003281093458,65029
7.410480415786196,65029
9.879274808531363,65029
12.347386655893956,65029
14.814816154518212,65029
17.28156350112681,65029
19.74762889252179,65029
22.21301252558385,65029
24.67771459727237,43663
27.141735304626195,16975
29.605074844762612,10974
32.06773341487792,8324
34.52971121224755,6994
36.99100843422559,6577
39.45162527824516,6279
41.91156194181792,4990
44.370818622535126,6053
46.82939551806646,7602
49.287292826160524,7988
51.74451074464503,7824
54.201049471426245,7050
56.65690920448981,5456
59.112090141899785,3670
61.56659248179983,2802
64.02041642241159,2650
66.4735621620365,2674
68.92602989905402,2077
71.37781983192338,2080
73.82893215918205,2490
76.27936707944684,2516
78.72912479141326,2265
81.17820549385567,2096
83.62660938562783,2045
86.07433666566146,2078
88.5213875329681,2314
90.96776218663751,2089
93.41346082583925,1717
95.85848364982041,1717
98.30283085790859,1841
100.7465026495089,1849
103.18949922410604,1781
105.63182078126385,1721
108.07346752062438,1725
110.51443964190923,1519
112.95473734491827,1378
115.39436082953114,1477
117.83331029570547,1468
120.27158594347827,1562
122.7091879729652,1314
125.1461165843615,1237
127.58237197794062,1335
130.01795435405518,1154
132.4528639131364,1149
134.88710085569494,1165
137.32066538231982,1218
139.75355769367923,1357
142.1857779905207,1366
144.61732647366978,1387
147.04820334403132,1515
149.47840880258934,1263
151.90794305040674,1387
154.33680628862487,1791
156.76499871846443,1712
159.19252054122433,1826
161.61937195828352,1744
164.04555317109896,1925
166.47106438120693,2129
168.89590579022217,2485
171.320077599839,2554
173.7435800118302,2519
176.16641322804742,2653
178.58857745042144,2757
181.01007288096173,2714
183.43089972175687,2768
185.85105817497413,2813
188.27054844285988,2856
190.6893707277394,2823
193.10752523201643,2814
195.5250121581745,2928
197.9418317087751,2980
200.3579840864594,2967
202.7734694939469,3101
205.18828813403627,3068
207.6024402096051,2937
210.01592592360964,2989
212.42874547908548,2998
214.84089907914665,2803
217.2523869269868,2989
219.66320922587727,3017
222.0733661791695,2951
224.48285799029293,2969
226.8916848627572,3088
229.29984700014882,3235
231.7073446061355,3331
234.11417788446204,3215
236.520347038953,3309
238.92585227351185,3427
241.33069379212054,3461
243.73487179884035,3604
246.1383864978112,3499
248.541238093252,3657
250.9434267894609,3636
253.34495279081432,3840
255.74581630176783,3727
258.1460175268563,3742
260.54555667069314,3765
262.9444339379703,3703
265.3426495334594,3622
267.7402036620107,3610
270.1370965285529,3266
272.53332833809407,3262
274.9288992957214,3116
277.32380960660055,2941
279.718059475976,2845
282.1116491091717,2959
284.5045787115897,2838
286.89684848871195,2796
289.2884586460981,2808
291.67940938938807,2841
294.0697009242996,2814
296.4593334566299,2714
298.84830719225477,2723
301.23662233712923,2812
303.6242790972866,2742
306.01127767884,2633
308.39761828798066,2692
310.78330113097934,2668
313.16832641418534,2553
315.5526943440269,2553
317.9364051270112,2457
320.3194589697242,2489
322.70185607883093,2392
325.0835966610754,2427
327.4646809232805,2375
329.8451090723478,2376
332.2248813152577,2340
334.6039978590701,2293
336.9824589109231,2327
339.36026467803447,2245
341.7374153677,2381
344.113911187295,2252
346.48975234427337,2224
348.8649390461686,2230
351.2394715005918,2226
353.61334991523415,2237
355.9865744978655,2212
358.35914545633375,2243
360.73106299856715,2190
363.10232733257146,2230
365.47293866643247,2247
367.84289720831396,2244
370.2122031664593,2267
372.5808567491905,2179
374.9488581649083,2169
377.31620762209275,2115
379.6829053293021,2181
382.0489514951745,2165
384.4143463284262,2121
386.7790900378528,2190
389.14318283232853,2066
391.50662492080653,2082
393.86941651231916,2118
396.23155781597745,2133
398.5930490409713,1997
400.9538903965696,2011
403.3140820921202,2113
405.6736243370498,2070
408.03251734086336,2129
410.3907613131465,2019
412.74835646356166,2113
415.10530300185144,2023
417.4616011378372,2031
419.81725108141893,2055
422.1722530425758,2054
424.5266072313656,2006
426.880313857925,2025
429.2333731324701,2043
431.58578526529516,1996
433.9375504667738,2036
436.2886689473588,2063
438.63914091758113,2030
440.9889665880513,2126
443.33814616945835,2039
445.68667987257015,1992
448.03456790823395,1923
450.3818104873759,1968
452.72840782100013,1990
455.07436012019105,1927
457.41966759611057,2056
459.7643304600007,1931
462.10834892318155,2051
464.4517231970525,1942
466.79445349309174,1938
469.1365400228566,2047
471.4779829979826,2148
473.81878263018564,2031
476.15893913125876,2010
478.4984527130747,2046
480.8373235875855,2065
483.17555196682144,2048
485.5131380628919,2189
487.8500820879857,2270
490.1863842543697,2371
492.52204477439034,2525
494.8570638604725,2569
497.1914417251204,2958
499.52517858091653,3253
501.85827464052306,3408
504.19073011668036,3458
506.5225452222086,3564
508.85372017000566,3481
511.18425517304956,3468
513.514150444396,3760
515.8434061971808,4197
518.1720226446176,4585
520.4999999999999,4877
522.8273384766991,5140
525.1540382881666,5212
527.480099647932,4863
529.8055227696037,3826
532.1303078668694,2777
534.454455153496,2235
536.777964843328,2047
539.1008371502907,1951
541.4230722883866,1898
543.744670471698,1929
546.0656319143858,1888
548.3859568306899,1829
550.7056454349294,1798
553.0246979415016,1866
555.3431145648834,1891
557.6608955196306,1818
559.978041020377,1844
562.2945512818363,1765
564.6104265188006,1718
566.9256669461412,1787
569.2402727788082,1749
571.5542442318302,1733
573.8675815203156,1757
576.1802848594508,1831
578.4923544645015,1797
580.8037905508126,1858
583.114593333807,1801
585.4247630289875,1733
587.7342998519354,1865
590.0432040183106,1765
592.3514757438526,1803
594.6591152443794,1834
596.9661227357875,1821
599.2724984340531,1870
601.578242555231,1843
603.8833553154542,1813
606.1878369309362,1895
608.4916876179676,1819
610.7949075929192,1876
613.0974970722403,1910
615.3994562724587,1862
617.7007854101818,1838
620.0014847020951,1842
622.3015543649641,1835
624.6009946156324,1826
626.8998056710224,1819
629.1979877481361,1801
631.4955410640538,1867
633.7924658359349,1832
636.0887622810175,1867
638.3844306166192,1904
640.6794710601358,1857
642.9738838290426,1973
645.2676691408932,1849
647.5608272133207,1902
649.853358264037,1886
652.1452625108324,1894
654.4365401715764,1835
656.7271914642178,1941
659.0172166067838,1986
661.3066158173809,1955
663.5953893141935,1911
665.8835373154867,1868
668.1710600396028,1938
670.4579577049639,1934
672.7442305300709,1921
675.0298787335033,1968
677.3149025339197,1937
679.599302150058,1912
681.8830778007342,1935
684.1662297048437,1932
686.4487580813608,1932
688.7306631493387,1933
691.0119451279091,1904
693.2926042362834,1852
695.5726406937516,1920
697.8520547196814,1934
700.1308465335215,1936
702.4090163547982,1935
704.6865644031171,1874
706.9634908981619,1934
709.2397960596965,1870
711.5154801075631,1866
713.7905432616823,1919
716.0649857420548,1844
718.3388077687592,1868
720.612009561953,1924
722.8845913418733,1899
725.1565533288352,1873
727.427895743234,1881
729.6986188055427,1860
731.9687227363137,1833
734.238207756178,1851
736.5070740858458,1848
738.7753219461066,1822
741.0429515578281,1912
743.3099631419569,1806
745.5763569195191,1826
747.8421331116193,1871
750.1072919394409,1827
752.3718336242467,1907
754.6357583873777,1868
756.8990664502545,1846
759.1617580343765,1883
761.423833361321,1880
763.6852926527457,1810
765.9461361303862,1859
768.206364016058,1833
770.4659765316536,1822
772.7249738991469,1823
774.9833563405886,1967
777.2411240781092,1827
779.4982773339183,1971
781.7548163303044,1855
784.010741289634,1923
786.2660524343538,1936
788.5207499869881,1911
790.7748341701416,1804
793.0283052064964,1903
795.2811633188143,1936
797.5334087299362,1987
799.7850416627813,1904
802.0360623403484,1875
804.2864709857143,1902
806.5362678220353,1880
808.7854530725468,1932
811.0340269605625,1932
813.2819897094754,1871
815.5293415427581,1928
817.77608268396,1851
820.0222133567116,1881
822.2677337847211,1907
824.5126441917765,1926
826.7569448017433,1877
829.0006358385675,1875
831.2437175262731,1878
833.4861900889629,1866
835.7280537508192,1851
837.9693087361026,1904
840.2099552691533,1913
842.4499935743896,1903
844.689423876309,1871
846.9282463994886,1871
849.1664613685833,1860
851.4040690083276,1883
853.6410695435349,1946
855.877463199097,1828
858.1132501999847,1902
860.3484307712487,1879
862.5830051380175,1912
864.8169735254988,1891
867.0503361589791,1915
869.2830932638243,1974
871.5152450654786,1881
873.7467917894654,1898
875.9777336613873,1905
878.2080709069252,1866
880.4378037518389,1993
882.666932421968,1859
884.8954571432301,1926
887.1233781416219,1907
889.3506956432192,1887
891.5774098741766,2008
893.803521060728,1886
896.0290294291852,1940
898.2539352059397,1893
900.4782386174619,2029
902.7019398903011,2023
904.925039251085,2013
907.147536926521,1948
909.3694331433943,2001
911.59072812857,1972
913.8114221089921,1975
916.0315153116827,1928
918.2510079637437,2007
920.4699002923547,1883
922.6881925247761,1924
924.905884888345,1938
927.1229776104793,1902
929.3394709186747,1908
931.555365040506,1899
933.7706602036275,1927
935.9853566357709,1868
938.1994545647489,2022
940.4129542184515,1993
942.6258558248488,1929
944.8381596119883,2010
947.0498658079974,1962
949.2609746410825,2008
951.4714863395287,1900
953.6814011316998,1975
955.8907192460387,1860
958.0994409110671,1880
960.3075663553858,1875
962.5150958076741,1910
964.7220294966913,1886
966.928367651274,1881
969.1341105003388,1851
971.3392582728806,1878
973.5438111979742,1896
975.747769504772,1831
977.9511334225061,1786
980.153903180487,1849
982.3560790081052,1804
984.5576611348289,1793
986.7586497902058,1764
988.9590452038618,1873
991.158847605503,1826
993.3580572249133,1675
995.5566742919558,1644
997.7546990365728,1725
999.952131688785,1645
1002.1489724786926,1659
1004.3452216364743,1677
1006.5408793923874,1642
1008.7359459767691,1654
1010.9304216200343,1612
1013.1243065526781,1639
1015.3176010052733,1641
1017.510305208472,1626
1019.7024193930064,1631
1021.8939437896848,1606
1024.0848786293977,1546
1026.2752241431122,1573
1028.4649805618747,1592
1030.6541481168115,1581
1032.842727039127,1584
1035.0307175601051,1521
1037.2181199111074,1550
1039.4049343235752,1576
1041.591161029029,1554
1043.7768002590683,1502
1045.9618522453698,1484
1048.1463172196918,1556
1050.3301954138697,1522
1052.513487059818,1490
1054.69619238953,1512
1056.8783116350783,1569
1059.0598450286152,1491
1061.2407928023704,1555
1063.4211551886528,1523
1065.6009324198508,1505
1067.780124728432,1475
1069.9587323469414,1539
1072.1367555080046,1522
1074.314194444325,1542
1076.4910493886855,1502
1078.667320573947,1488
1080.843008233051,1524
1083.0181125990161,1475
1085.1926339049414,1427
1087.3665723840027,1462
1089.5399282694575,1417
1091.7127017946405,1449
1093.8848931929647,1413
1096.0565026979243,1400
1098.2275305430899,1459
1100.3979769621128,1378
1102.567842188722,1413
1104.737126456726,1462
1106.9058300000124,1420
1109.0739530525475,1439
1111.2414958483764,1437
1113.4084586216231,1405
1115.5748416064907,1474
1117.7406450372605,1419
1119.9058691482942,1444
1122.0705141740304,1415
1124.2345803489884,1453
1126.3980679077658,1356
1128.5609770850388,1413
1130.7233081155623,1409
1132.8850612341707,1425
1135.0462366757774,1500
1137.2068346753745,1407
1139.3668554680326,1447
1141.526299288901,1422
1143.68516637321,1430
1145.8434569562655,1457
1148.001171273455,1384
1150.158309560244,1384
1152.3148720521767,1381
1154.470858984876,1360
1156.626270594044,1312
1158.7811071154629,1401
1160.9353687849912,1407
1163.089055838569,1424
1165.242168512213,1443
1167.3947070420209,1402
1169.5466716641677,1377
1171.6980626149075,1380
1173.8488801305748,1346
1175.9991244475814,1341
1178.1487958024186,1419
1180.2978944316555,1396
1182.4464205719428,1381
1184.5943744600072,1400
1186.7417563326567,1398
1188.8885664267755,1333
1191.0348049793297,1360
1193.1804722273619,1397
1195.325568407995,1362
1197.4700937584303,1372
1199.614048515948,1384
1201.7574329179074,1388
1203.900247201746,1393
1206.042491604982,1399
1208.1841663652099,1403
1210.3252717201053,1415
1212.465807907422,1353
1214.6057751649923,1359
1216.7451737307279,1413
1218.8840038426192,1358
1221.0222657387353,1373
1223.1599596572241,1433
1225.2970858363137,1367
1227.4336445143094,1448
1229.5696359295966,1370
1231.705060320639,1487
1233.8399179259786,1397
1235.9742089842384,1406
1238.107933734118,1392
1240.2410924143974,1472
1242.373685263935,1423
1244.5057125216676,1373
1246.6371744266116,1382
1248.7680712178621,1421
1250.898403134593,1387
1253.028170416058,1403
1255.1573733015875,1382
1257.2860120305932,1449
1259.4140868425648,1400
1261.54159797707,1476
1263.6685456737569,1377
1265.7949301723515,1464
1267.9207517126597,1405
1270.046010534565,1471
1272.1707068780306,1446
1274.2948409830983,1449
1276.4184130898889,1479
1278.541423438603,1483
1280.6638722695184,1453
1282.785759822993,1473
1284.9070863394636,1512
1287.0278520594447,1481
1289.1480572235314,1509
1291.2677020723963,1517
1293.3867868467923,1541
1295.5053117875495,1503
1297.623277135579,1553
1299.740683131868,1566
1301.8575300174857,1547
1303.973818033578,1539
1306.0895474213703,1519
1308.2047184221678,1514
1310.3193312773528,1549
1312.4333862283888,1575
1314.5468835168163,1537
1316.659823384255,1598
1318.7722060724045,1646
1320.8840318230418,1619
1322.9953008780249,1519
1325.1060134792888,1561
1327.2161698688478,1637
1329.3257702887959,1563
1331.4348149813054,1623
1333.5433041886276,1578
1335.6512381530933,1558
1337.7586171171101,1532
1339.8654413231675,1555
1341.9717110138317,1570
1344.0774264317488,1599
1346.1825878196432,1533
1348.2871954203192,1533
1350.3912494766587,1510
1352.4947502316231,1506
1354.5976979282532,1579
1356.7000928096686,1652
1358.8019351190665,1520
1360.9032250997243,1557
1363.0039629949988,1551
1365.1041490483235,1517
1367.2037835032133,1503
1369.3028666032606,1567
1371.401398592137,1576
1373.4993797135926,1550
1375.5968102114575,1557
1377.6936903296396,1590
1379.7900203121262,1579
1381.8858004029835,1585
1383.9810308463561,1614
1386.075711886469,1657
1388.1698437676241,1594
1390.2634267342032,1585
1392.356461030667,1657
1394.4489469015557,1621
1396.5408845914872,1584
1398.6322743451592,1623
1400.7231164073469,1624
1402.813411022907,1679
1404.903158436773,1624
1406.9923588939578,1608
1409.0810126395531,1692
1411.1691199187303,1639
1413.2566809767386,1593
1415.343696058907,1734
1417.4301654106425,1679
1419.5160892774315,1734
1421.6014679048399,1665
1423.6863015385125,1696
1425.7705904241707,1682
1427.8543348076178,1706
1429.9375349347342,1724
1432.0201910514802,1814
1434.102303403894,1707
1436.1838722380944,1838
1438.2648978002767,1833
1440.3453803367174,1890
1442.4253200937692,1896
1444.5047173178677,1873
1446.5835722555234,1855
1448.6618851533285,1991
1450.739656257952,1918
1452.8168858161434,2016
1454.8935740747306,2078
1456.96972128062,2101
1459.045327680797,2098
1461.120393522327,2155
1463.1949190523528,2163
1465.2689045180973,2183
1467.3423501668608,2192
1469.415256246024,2301
1471.4876230030463,2271
1473.559450685465,2291
1475.6307395408976,2404
1477.7014898170391,2450
1479.771701761665,2485
1481.8413756226287,2446
1483.9105116478618,2549
1485.9791100853772,2556
1488.0471711832643,2591
1490.1146951896926,2656
1492.1816823529098,2714
1494.2481329212433,2783
1496.3140471430984,2724
1498.3794252669609,2791
1500.4442675413939,2908
1502.5085742150404,2795
1504.572345536622,2902
1506.6355817549388,2795
1508.6982831188702,2817
1510.7604498773744,2845
1512.8220822794883,2812
1514.8831805743293,2907
1516.9437450110909,2971
1519.003775839048,2931
1521.0632733075522,3035
1523.1222376660367,3091
1525.1806691640113,2952
1527.2385680510652,2995
1529.2959345768668,3166
1531.3527689911643,3070
1533.4090715437833,3152
1535.4648424846291,3122
1537.5200820636855,3165
1539.5747905310159,3315
1541.6289681367616,3361
1543.6826151311434,3279
1545.7357317644614,3367
1547.7883182870937,3358
1549.8403749494987,3411
1551.8919020022113,3448
1553.9428996958477,3518
1555.9933682811015,3635
1558.0433080087469,3707
1560.0927191296346,3747
1562.1416018946961,3781
1564.1899565549415,3896
1566.2377833614592,3881
1568.2850825654164,3835
1570.3318544180606,3768
1572.3780991707158,3697
1574.423817074788,3464
1576.4690083817595,3368
1578.5136733431923,3213
1580.5578122107272,3069
1582.601425236085,2915
1584.6445126710646,2834
1586.6870747675434,2777
1588.7291117774776,2537
1590.7706239529034,2483
1592.8116115459347,2383
1594.8520748087658,2237
1596.8920139936686,2192
1598.9314293529933,2153
1600.9703211391711,2074
1603.008689604711,2023
1605.0465350022005,2008
1607.0838575843068,1906
1609.1206576037753,1888
1611.1569353134305,1806
1613.1926909661765,1840
1615.2279248149953,1757
1617.2626371129481,1725
1619.2968281131757,1698
1621.3304980688963,1706
1623.3636472334088,1655
1625.39627586009,1675
1627.428384202396,1613
1629.459972513861,1571
1631.4910410480993,1545
1633.5215900588028,1589
1635.551619799744,1636
1637.5811305247717,1560
1639.6101224878166,1515
1641.6385959428862,1481
1643.6665511440683,1534
1645.693988345528,1511
1647.7209078015112,1512
1649.7473097663405,1493
1651.7731944944203,1456
1653.7985622402307,1543
1655.823413258333,1520
1657.847747803366,1511
1659.8715661300494,1443
1661.8948684931793,1449
1663.9176551476316,1524
1665.9399263483624,1469
1667.9616823504057,1436
1669.982923408873,1477
1672.0036497789574,1441
1674.0238617159293,1451
1676.043559475138,1474
1678.0627433120121,1525
1680.081413482059,1470
1682.0995702408654,1431
1684.117213844096,1423
1686.134344547495,1486
1688.1509626068864,1454
1690.1670682781705,1396
1692.182661817329,1417
1694.1977434804217,1433
1696.2123135235875,1464
1698.226372203043,1450
1700.2399197750851,1376
1702.2529564960905,1424
1704.2654826225112,1410
1706.277498410882,1425
1708.2890041178139,1471
1710.2999999999988,1405
1712.3104863142066,1489
1714.3204633172854,1444
1716.329931266163,1391
1718.3388904178469,1448
1720.3473410294214,1436
1722.3552833580516,1391
1724.3627176609807,1387
1726.3696441955308,1430
1728.3760632191033,1367
1730.3819749891782,1321
1732.3873797633146,1366
1734.3922777991502,1362
1736.3966693544012,1353
1738.4005546868639,1388
1740.4039340544127,1403
1742.406807715001,1298
1744.4091759266616,1304
1746.4110389475054,1332
1748.4123970357223,1316
1750.413250449582,1362
1752.4135994474318,1331
1754.4134442876993,1306
1756.4127852288902,1295
1758.4116225295893,1332
1760.4099564484595,1352
1762.407787244244,1361
1764.405115175764,1251
1766.4019405019203,1319
1768.3982634816916,1302
1770.3940843741357,1321
1772.3894034383907,1313
1774.3842209336717,1284
1776.378537119274,1283
1778.372352254571,1257
1780.3656665990156,1299
1782.3584804121397,1316
1784.3507939535534,1232
1786.3426074829463,1256
1788.3339212600863,1246
1790.3247355448211,1291
1792.3150505970766,1221
1794.3048666768573,1262
1796.2941840442477,1275
1798.2830029594106,1283
1800.2713236825884,1290
1802.2591464741004,1288
1804.2464715943465,1279
1806.2332993038058,1309
1808.2196298630352,1261
1810.2054635326708,1332
1812.190800573428,1306
1814.175641246101,1260
1816.1599858115628,1318
1818.1438345307652,1253
1820.127187664738,1243
1822.1100454745924,1312
1824.092408221516,1226
1826.0742761667766,1231
1828.055649571721,1262
1830.0365286977735,1220
1832.0169138064398,1271
1833.9968051593014,1252
1835.9762030180214,1177
1837.9551076443408,1259
1839.9335193000788,1300
1841.9114382471344,1279
1843.888864747485,1187
1845.8657990631878,1254
1847.842241456378,1231
1849.8181921892697,1239
1851.7936515241558,1225
1853.7686197234098,1233
1855.7430970494815,1193
1857.7170837649014,1281
1859.6905801322787,1247
1861.6635864143004,1239
1863.6361028737338,1248
1865.608129773424,1271
1867.5796673762961,1212
1869.5507159453537,1232
1871.521275743678,1278
1873.4913470344313,1300
1875.4609300808534,1264
1877.4300251462632,1274
1879.3986324940588,1265
1881.366752387717,1270
1883.3343850907936,1248
1885.3015308669228,1299
1887.268189979819,1280
1889.2343626932739,1225
1891.2000492711595,1328
1893.1652499774254,1290
1895.1299650761011,1263
1897.0941948312952,1255
1899.0579395071945,1247
1901.0211993680641,1312
1902.98397467825,1264
1904.9462657021745,1274
1906.9080727043415,1279
1908.869395949332,1267
1910.8302357018065,1274
1912.790592226504,1285
1914.7504657882428,1314
1916.7098566519212,1334
1918.6687650825133,1237
1920.6271913450764,1271
1922.5851357047422,1285
1924.5425984267245,1284
1926.499579776314,1297
1928.4560800188833,1304
1930.4120994198802,1270
1932.367638244833,1266
1934.32269675935,1228
1936.2772752291175,1256
1938.231373919899,1246
1940.1849930975404,1253
1942.1381330279637,1231
1944.0907939771696,1263
1946.0429762112412,1265
1947.9946799963363,1293
1949.9459055986945,1298
1951.896653284633,1311
1953.8469233205478,1259
1955.7967159729142,1241
1957.7460315082863,1248
1959.6948701932974,1291
1961.6432322946594,1230
1963.5911180791632,1234
1965.5385278136787,1265
1967.4854617651545,1266
1969.4319202006182,1229
1971.377903387176,1259
1973.3234115920136,1247
1975.268445082395,1312
1977.2130041256642,1180
1979.1570889892423,1211
1981.1006999406304,1267
1983.04383724741,1236
1984.986501177238,1248
1986.928691997853,1234
1988.8704099770712,1207
1990.811655382789,1267
1992.7524284829801,1237
1994.692729545698,1245
1996.6325588390755,1273
1998.5719166313224,1155
2000.5108031907307,1227
2002.4492187856677,1242
2004.387163684583,1219
2006.3246381560011,1236
2008.2616424685298,1186
2010.1981768908527,1223
2012.1342416917332,1257
2014.069837140014,1229
2016.0049635046162,1125
2017.9396210545406,1199
2019.8738100588666,1182
2021.8075307867502,1181
2023.740783507431,1153
2025.6735684902228,1141
2027.6058860045214,1211
2029.5377363198004,1242
2031.4691197056118,1244
2033.4000364315875,1196
2035.3304867674374,1220
2037.260470982952,1272
2039.189989347998,1226
2041.1190421325232,1198
2043.047629606554,1226
2044.9757520401945,1264
2046.9034097036288,1230
2048.8306028671195,1229
2050.7573318010086,1161
2052.683596775716,1208
2054.609398061742,1181
2056.5347359296647,1253
2058.4596106501403,1191
2060.384022493906,1143
2062.3079717317764,1213
2064.231458634646,1203
2066.1544834734873,1186
2068.077046519352,1218
2069.99914804337,1224
2071.9207883167524,1216
2073.8419676107865,1174
2075.7626861968406,1187
2077.6829443463607,1171
2079.6027423308715,1204
2081.522080421977,1231
2083.440958891362,1189
2085.359378010786,1195
2087.2773380520907,1202
2089.194839287196,1212
2091.111881988101,1169
2093.0284664268825,1181
2094.9445928756973,1217
2096.86026160678,1221
2098.775472892446,1197
2100.690227005088,1190
2102.604524217178,1146
2104.5183648012676,1173
2106.431749029985,1223
2108.34467717604,1217
2110.2571495122206,1231
2112.169166311393,1228
2114.080727846503,1178
2115.9918343905747,1200
2117.902486216711,1173
2119.8126835980956,1206
2121.722426807987,1195
2123.6317161197285,1178
2125.5405518067364,1238
2127.448934142509,1238
2129.356863400624,1185
2131.264339854737,1191
2133.1713637785815,1205
2135.077935445972,1227
2136.9840551308002,1262
2138.889723107037,1197
2140.7949396487334,1169
2142.699705030018,1217
2144.6040195250994,1201
2146.507883408264,1178
2148.4112969538774,1219
2150.3142604363848,1165
2152.2167741303097,1162
2154.1188383102535,1213
2156.0204532508997,1206
2157.9216192270064,1203
2159.822336513414,1239
2161.7226053850413,1268
2163.622426116884,1209
2165.5217989840185,1183
2167.4207242616,1201
2169.319202224862,1167
2171.2172331491165,1191
2173.1148173097563,1209
2175.0119549822507,1131
2176.90864644215,1197
2178.8048919650823,1247
2180.7006918267534,1187
2182.596046302952,1208
2184.4909556695407,1188
2186.3854202024645,1180
2188.279440177746,1179
2190.173015871487,1250
2192.066147559868,1225
2193.958835519149,1199
2195.851080025667,1166
2197.7428813558417,1241
2199.6342397861667,1244
2201.5251555932186,1225
2203.415629053651,1230
2205.3056604441986,1172
2207.19525004167,1215
2209.084398122958,1197
2210.9731049650327,1176
2212.861370844941,1228
2214.749196039812,1207
2216.636580826851,1186
2218.523525483344,1209
2220.410030286655,1190
2222.296095514226,1227
2224.1817214435805,1192
2226.066908352319,1179
2227.951656518121,1234
2229.835966218746,1246
2231.71983773203,1178
2233.6032713358913,1206
2235.486267308324,1234
2237.3688259274036,1159
2239.2509474712824,1260
2241.132632218193,1243
2243.013880446447,1222
2244.8946924344323,1137
2246.7750684606203,1167
2248.6550088035574,1188
2250.534513741871,1190
2252.413583554265,1224
2254.292218519526,1163
2256.170418916517,1140
2258.0481850241786,1195
2259.925517121534,1187
2261.8024154876825,1203
2263.678880401803,1192
2265.5549121431536,1228
2267.430510991071,1189
2269.305677224971,1178
2271.180411124348,1224
2273.0547129687766,1211
2274.9285830379076,1218
2276.8020216114737,1177
2278.6750289692845,1190
2280.5476053912294,1225
2282.4197511572766,1192
2284.2914665474727,1171
2286.162751841943,1197
2288.0336073208937,1179
2289.904033264608,1165
2291.774029953448,1225
2293.6435976678554,1201
2295.5127366883517,1221
2297.381447295534,1194
2299.2497297700825,1195
2301.1175843927526,1166
2302.9850114443825,1216
2304.852011205885,1198
2306.7185839582553,1227
2308.5847299825664,1239
2310.4504495599676,1258
2312.3157429716925,1211
2314.1806104990483,1200
2316.0450524234247,1231
2317.9090690262888,1224
2319.772660589186,1212
2321.635827393742,1244
2323.498569721661,1252
2325.3608878547248,1242
2327.2227820747967,1267
2329.0842526638157,1244
2330.945299903803,1281
2332.805924076857,1246
2334.6661254651535,1252
2336.525904350951,1227
2338.3852610165827,1176
2340.244195744464,1227
2342.102708817088,1244
2343.9608005170253,1258
2345.8184711269287,1165
2347.675720929526,1219
2349.532550207628,1253
2351.38895924412,1223
2353.24494832197,1248
2355.100517724223,1269
2356.955667734004,1201
2358.810398634514,1219
2360.664710709037,1253
2362.5186042409337,1224
2364.3720795136437,1263
2366.225136810686,1264
2368.0777764156583,1211
2369.929998612237,1240
2371.7818036841777,1226
2373.633191915315,1224
2375.484163589562,1282
2377.3347189909114,1286
2379.184858403434,1312
2381.03458211128,1251
2382.8838903986775,1240
2384.732783549936,1229
2386.5812618494406,1318
2388.4293255816588,1288
2390.2769750311327,1224
2392.1242104824883,1259
2393.971032220427,1233
2395.8174405297295,1252
2397.6634356952563,1277
2399.509018001947,1281
2401.3541877348193,1334
2403.1989451789705,1273
2405.043290619576,1253
2406.8872243418905,1279
2408.730746631247,1300
2410.5738577730594,1285
2412.4165580528183,1260
2414.258847756095,1305
2416.100727168537,1326
2417.9421965758734,1327
2419.783256263912,1319
2421.623906518538,1282
2423.4641476257157,1294
2425.303979871491,1252
2427.143403541984,1295
2428.9824189233977,1283
2430.821026302012,1319
2432.6592259641866,1293
2434.497018196361,1335
2436.33440328505,1356
2438.171381516851,1294
2440.00795317844,1321
2441.844118556569,1303
2443.6798779380724,1346
2445.5152316098606,1354
2447.3501798589255,1291
2449.1847229723357,1298
2451.0188612372403,1314
2452.8525949408663,1299
2454.6859243705203,1279
2456.518849813587,1323
2458.3513715575314,1320
2460.183489889895,1299
2462.015205098301,1273
2463.8465174704493,1270
2465.67742729412,1261
2467.5079348571717,1338
2469.338040447542,1312
2471.1677443532476,1276
2472.9970468623833,1253
2474.825948263123,1311
2476.6544488437207,1255
2478.482548892508,1334
2480.310248697896,1293
2482.137548548374,1306
2483.9644487325118,1315
2485.790949538956,1307
2487.617051256433,1253
2489.44275417375,1311
2491.26805857979,1305
2493.0929647635157,1367
2494.917473013971,1345
2496.741583620276,1370
2498.5652968716304,1343
2500.3886130573137,1321
2502.2115324666834,1398
2504.0340553891765,1334
2505.856182114308,1356
2507.6779129316733,1350
2509.499248130945,1389
2511.3201880018764,1382
2513.140732834298,1362
2514.9608829181198,1353
2516.780638543331,1312
2518.6,1372
2520.418967578273,1333
2522.237541568376,1311
2524.0557222606144,1366
2525.8735099453706,1294
2527.6909049131086,1291
2529.507907454368,1431
2531.32451785977,1343
2533.140736420014,1370
2534.9565634258774,1428
2536.771999168218,1423
2538.5870439379714,1424
2540.4016980261526,1390
2542.2159617238544,1427
2544.02983532225,1456
2545.8433191125914,1473
2547.656413386209,1418
2549.4691184345115,1440
2551.2814345489874,1490
2553.093362021204,1537
2554.904901142808,1485
2556.716052205523,1534
2558.526815501153,1456
2560.3371913215824,1463
2562.147179958771,1492
2563.956781704761,1491
2565.7659968516705,1579
2567.5748256916986,1525
2569.3832685171224,1629
2571.1913256202984,1549
2572.9989972936614,1520
2574.806283829725,1574
2576.613185521084,1605
2578.4197026604074,1575
2580.2258355404483,1593
2582.031584454035,1595
2583.836949694077,1658
2585.6419315535613,1560
2587.4465303255533,1605
2589.2507463032002,1646
2591.0545797797245,1633
2592.8580310484303,1620
2594.6611004026995,1632
2596.463788135992,1591
2598.266094541849,1579
2600.0680199138874,1678
2601.869564545807,1595
2603.670728731383,1624
2605.4715127644704,1566
2607.2719169390048,1633
2609.071941548998,1653
2610.8715868885433,1674
2612.670853251811,1632
2614.469740933052,1655
2616.268250226594,1640
2618.0663814268455,1672
2619.864134828292,1624
2621.6615107255006,1638
2623.458509413115,1578
2625.2551311858597,1668
2627.0513763385347,1601
2628.8472451660223,1618
2630.6427379632833,1555
2632.4378550253564,1570
2634.232596647359,1542
2636.026963124488,1572
2637.8209547520187,1593
2639.6145718253065,1558
2641.407814639785,1469
2643.200683490966,1476
2644.9931786744414,1503
2646.7853004858807,1431
2648.577049221034,1485
2650.3684251757277,1447
2652.1594286458712,1463
2653.9500599274484,1450
2655.740319316525,1404
2657.5302071092437,1395
2659.3197236018286,1413
2661.10886909058,1421
2662.8976438718782,1391
2664.686048242183,1445
2666.4740824980327,1436
2668.2617469360443,1400
2670.0490418529134,1309
2671.8359675454153,1343
2673.622524310403,1382
2675.408712444811,1398
2677.1945322456495,1373
2678.979984010009,1391
2680.76506803506,1343
2682.5497846180497,1370
2684.334134056306,1329
2686.1181166472343,1295
2687.9017326883213,1345
2689.6849824771293,1349
2691.4678663113013,1321
2693.2503844885596,1257
2695.032537306705,1309
2696.8143250636167,1282
2698.5957480572542,1293
2700.3768065856534,1297
2702.1575009469316,1272
2703.937831439283,1292
2705.717798360982,1255
2707.4974020103837,1257
2709.276642685917,1274
2711.055520686095,1241
2712.834036309506,1306
2714.612189854819,1266
2716.389981620782,1242
2718.1674119062204,1242
2719.944481010041,1293
2721.721189231226,1232
2723.4975368688415,1203
2725.273524222027,1249
2727.0491515900053,1227
2728.824419272075,1259
2730.5993275676146,1235
2732.3738767760838,1280
2734.148067197016,1235
2735.921899130031,1213
2737.6953728748194,1224
2739.468488731156,1244
2741.2412469988926,1220
2743.0136479779617,1265
2744.785691968372,1214
2746.5573792702116,1266
2748.3287101836504,1203
2750.099685008934,1235
2751.870304046388,1233
2753.640567596418,1217
2755.4104759595057,1220
2757.1800294362156,1198
2758.949228327187,1150
2760.7180729331412,1222
2762.486563554877,1161
2764.254700493272,1173
2766.022484049284,1245
2767.789914523947,1190
2769.5569922183786,1236
2771.3237174337705,1190
2773.090090471394,1182
2774.8561116326036,1204
2776.6217812188274,1188
2778.3870995315756,1182
2780.1520668724356,1187
2781.9166835430747,1186
2783.6809498452394,1213
2785.444866080754,1212
2787.2084325515225,1186
2788.971649559527,1192
2790.73451740683,1170
2792.4970363955713,1162
2794.2592068279705,1250
2796.0210290063264,1177
2797.7825032330147,1200
2799.543629810493,1233
2801.304409041296,1198
2803.0648412280366,1228
2804.8249266734088,1146
2806.5846656801846,1208
2808.344058551212,1194
2810.1031055894246,1207
2811.8618070978273,1244
2813.6201633795085,1192
2815.378174737636,1241
2817.1358414754536,1180
2818.893163896285,1209
2820.6501423035334,1194
2822.4067770006814,1172
2824.1630682912883,1217
2825.9190164789957,1195
2827.6746218675207,1198
2829.429884760661,1133
2831.184805462294,1217
2832.9393842763743,1170
2834.693621506936,1193
2836.4475174580916,1189
2838.201072434034,1137
2839.954286739034,1147
2841.707160677441,1214
2843.459694553685,1207
2845.2118886722724,1182
2846.96374333779,1232
2848.7152588549034,1241
2850.4664355283567,1175
2852.217273662973,1231
2853.9677735636546,1191
2855.7179355353833,1230
2857.4677598832186,1182
2859.217246912299,1230
2860.9663969278427,1214
2862.715210235146,1193
2864.4636871395846,1202
2866.211827946614,1191
2867.9596329617652,1215
2869.7071024906536,1195
2871.4542368389684,1188
2873.20103631248,1195
2874.947501217038,1213
2876.6936318585695,1224
2878.4394285430812,1209
2880.1848915766604,1170
2881.9300212654707,1181
2883.6748179157553,1214
2885.4192818338374,1260
2887.1634133261173,1170
2888.907212699077,1206
2890.6506802592744,1206
2892.393816313348,1209
2894.1366211680142,1197
2895.8790951300693,1167
2897.621238506388,1195
2899.363051603925,1154
2901.1045347297118,1225
2902.8456881908596,1176
2904.58651229456,1190
2906.327007348081,1228
2908.067173658772,1182
2909.8070115340597,1198
2911.5465212814497,1171
2913.285703208527,1227
2915.0245576229563,1178
2916.7630848324807,1177
2918.5012851449196,1115
2920.2391588681758,1170
2921.976706310227,1161
2923.7139277791334,1202
2925.4508235830313,1196
2927.187394030137,1216
2928.923639428745,1187
2930.6595600872306,1183
2932.395156314046,1206
2934.1304284177218,1177
2935.8653767068713,1194
2937.6000014901815,1226
2939.3343030764227,1177
2941.068281774442,1175
2942.8019378931644,1245
2944.5352717415976,1188
2946.2682836288236,1190
2948.0009738640065,1141
2949.7333427563885,1176
2951.465390615289,1206
2953.1971177501086,1219
2954.9285244703265,1165
2956.6596110855,1186
2958.3903779052657,1173
2960.1208252393385,1193
2961.8509533975125,1118
2963.5807626896617,1146
2965.3102534257378,1241
2967.0394259157715,1192
2968.768280469873,1143
2970.496817398232,1182
2972.2250370111146,1203
2973.952939618869,1164
2975.6805255319196,1212
2977.4077950607707,1184
2979.134748516006,1166
2980.861386208289,1193
2982.587708448359,1221
2984.313715547037,1194
2986.039407815222,1165
2987.764785563891,1181
2989.489849104102,1169
2991.2145987469908,1200
2992.9390348037705,1162
2994.6631575857346,1235
2996.3869674042576,1197
2998.1104645707887,1152
2999.83364939686,1115
3001.5565221940783,1227
3003.2790832741334,1186
3005.0013329487924,1193
3006.7232715298996,1214
3008.4448993293804,1153
3010.166216659239,1156
3011.887223831558,1211
3013.607921158498,1219
3015.3283089522993,1158
3017.0483875252826,1165
3018.7681571898443,1143
3020.4876182584626,1180
3022.2067710436927,1158
3023.9256158581707,1181
3025.644153014609,1175
3027.362382825801,1167
3029.0803056046193,1169
3030.797921664012,1210
3032.5152313170106,1223
3034.2322348767225,1217
3035.9489326563353,1160
3037.665324969115,1190
3039.3814121284063,1187
3041.097194447633,1153
3042.812672240299,1161
3044.5278458199855,1138
3046.2427155003525,1185
3047.9572815951406,1171
3049.671544418167,1209
3051.38550428333,1166
3053.0991615046073,1165
3054.812516396051,1182
3056.5255692717974,1181
3058.2383204460575,1172
3059.9507702331257,1143
3061.662918947372,1164
3063.3747669032446,1135
3065.0863144152736,1189
3066.7975617980674,1148
3068.508509366309,1145
3070.219157434767,1149
3071.9295063182844,1148
3073.639556331785,1197
3075.3493077902704,1200
3077.058761008821,1193
3078.7679163025964,1192
3080.476773986837,1143
3082.1853343768594,1182
3083.89359778806,1171
3085.6015645359153,1207
3087.3092349359786,1188
3089.016609303884,1196
3090.7236879553434,1239
3092.4304712061476,1159
3094.136959372166,1128
3095.843152769349,1176
3097.5490517137237,1260
3099.2546565213966,1154
3100.959967508554,1205
3102.66498499146,1177
3104.3697092864577,1164
3106.0741407099695,1168
3107.778279578498,1171
3109.482126208622,1167
3111.1856809170004,1226
3112.8889440203716,1226
3114.5919158355528,1166
3116.294596679439,1179
3117.996986869006,1217
3119.6990867213062,1109
3121.4008965534726,1204
3123.102416682717,1206
3124.803647426329,1207
3126.5045891016784,1218
3128.205242026213,1228
3129.90560651746,1173
3131.605682893025,1184
3133.3054714705922,1214
3135.0049725679282,1228
3136.7041865028714,1238
3138.4031135933465,1189
3140.101754157353,1176
3141.800108512971,1254
3143.498176978357,1157
3145.1959598717494,1157
3146.8934575114636,1183
3148.5906702158954,1185
3150.2875983035183,1146
3151.9842420928853,1150
3153.680601902627,1221
3155.376678051456,1134
3157.07247085816,1179
3158.767980641609,1142
3160.463207720748,1172
3162.158152414606,1224
3163.8528150422862,1171
3165.5471959229726,1175
3167.2412953759303,1175
3168.9351137204976,1161
3170.628651276098,1215
3172.3219083622307,1189
3174.014885298474,1169
3175.707582404485,1179
3177.4000000000005,1175
3179.092138404835,1139
3180.7839979388846,1131
3182.47557892212,1190
3184.166881674594,1144
3185.8579065164386,1181
3187.5486537678626,1160
3189.2391237491547,1175
3190.9293167806827,1213
3192.6192331828934,1183
3194.3088732763117,1204
3195.998237381542,1137
3197.687325819268,1112
3199.376138910251,1140
3201.064676975334,1176
3202.7529403354347,1135
3204.4409293115523,1140
3206.1286442247647,1149
3207.816085396229,1150
3209.5032531471825,1180
3211.190147798936,1158
3212.8767696728846,1184
3214.5631190905015,1128
3216.2491963733373,1107
3217.9350018430214,1089
3219.6205358212637,1163
3221.305798629851,1185
3222.990790590651,1129
3224.6755120256103,1132
3226.359963256751,1088
3228.0441446061795,1109
3229.7280563960758,1121
3231.411698948703,1099
3233.0950725863995,1144
3234.778177631587,1201
3236.461014406761,1124
3238.1435832345005,1118
3239.8258844374595,1149
3241.507918338374,1142
3243.1896852600576,1174
3244.8711855254023,1169
3246.552419457381,1183
3248.233387379042,1156
3249.914089613516,1146
3251.59452648401,1149
3253.274698313813,1117
3254.95460542629,1133
3256.6342481448855,1158
3258.313626793125,1100
3259.9927416946084,1157
3261.6715931730196,1148
3263.3501815521176,1107
3265.0285071557437,1139
3266.706570307815,1085
3268.3843713323286,1119
3270.0619105533615,1096
3271.739188295068,1169
3273.4162048816834,1118
3275.0929606375184,1160
3276.769455886966,1130
3278.445690954498,1203
3280.1216661646613,1203
3281.797381842087,1161
3283.4728383114807,1163
3285.1480358976296,1189
3286.8229749253996,1138
3288.4976557197333,1156
3290.172078605655,1138
3291.846243908266,1122
3293.5201519527463,1136
3295.193803064357,1131
3296.8671975684374,1129
3298.5403357904024,1180
3300.21321805575,1160
3301.8858446900567,1184
3303.558216018975,1188
3305.23033236824,1189
3306.9021940636603,1129
3308.57380143113,1142
3310.2451547966184,1169
3311.916254486174,1172
3313.5871008259246,1175
3315.2576941420766,1150
3316.9280347609147,1135
3318.5981230088046,1102
3320.2679592121895,1188
3321.9375436975924,1161
3323.606876791612,1122
3325.27595882093,1161
3326.944790112305,1143
3328.6133709925753,1163
3330.2817017886573,1153
3331.949782827547,1170
3333.617614436319,1127
3335.2851969421245,1117
3336.952530672199,1155
3338.619615953853,1200
3340.286453114475,1125
3341.9530424815357,1097
3343.619384382583,1115
3345.2854791452437,1179
3346.951327097224,1185
3348.6169285663073,1159
3350.2822838803577,1165
3351.947393367319,1169
3353.61225735521,1165
3355.2768761721345,1139
3356.9412501462693,1127
3358.605379605873,1140
3360.2692648792827,1126
3361.9329062949146,1161
3363.596304181263,1126
