CollectionTime,6/28/2024 3:11:00 PM
ExposureUsed,3
CalibratedSpectrum
-962.7078968117929,657
-959.9714848408522,715
-957.2358232597828,756
-954.5009119013725,751
-951.7667505983302,724
-949.0333391832855,729
-946.3006774887896,725
-943.5687653473143,719
-940.837602591253,740
-938.1071890529199,708
-935.3775245645503,720
-932.6486089583007,723
-929.9204420662485,742
-927.1930237203925,719
-924.4663537526524,687
-921.7404319948689,744
-919.0152582788041,733
-916.2908324361409,752
-913.5671542984834,740
-910.8442236973568,759
-908.1220404642074,729
-905.4006044304027,672
-902.679915427231,773
-899.959973285902,712
-897.2407778375464,702
-894.5223289132158,741
-891.8046263438832,752
-889.0876699604426,715
-886.3714595937089,688
-883.6559950744183,685
-880.9412762332282,670
-878.2273029007168,688
-875.5140749073835,711
-872.8015920836489,663
-870.0898542598545,636
-867.3788612662631,653
-864.6686129330585,671
-861.9591090903457,666
-859.2503495681506,645
-856.5423341964203,674
-853.8350628050229,656
-851.1285352237478,695
-848.4227512823054,705
-845.7177108103272,671
-843.0134136373656,643
-840.3098595928943,682
-837.6070485063082,683
-834.9049802069229,679
-832.2036545239757,667
-829.5030712866244,683
-826.8032303239481,679
-824.1041314649472,653
-821.4057745385428,672
-818.7081593735775,633
-816.0112857988148,676
-813.3151536429393,654
-810.6197627345566,654
-807.9251129021936,659
-805.2312039742981,661
-802.5380357792392,666
-799.8456081453069,672
-797.1539209007124,656
-794.462973873588,659
-791.772766891987,704
-789.083299783884,692
-786.3945723771743,672
-783.7065844996748,700
-781.0193359791231,697
-778.3328266431781,706
-775.6470563194197,694
-772.9620248353489,652
-770.2777320183878,680
-767.5941776958798,689
-764.9113616950891,682
-762.2292838432011,680
-759.5479439673222,652
-756.8673418944801,707
-754.1874774516235,696
-751.5083504656222,671
-748.8299607632671,675
-746.15230817127,666
-743.475392516264,681
-740.7992136248035,696
-738.1237713233636,737
-735.4490654383407,695
-732.7750957960521,733
-730.1018622227365,707
-727.4293645445534,744
-724.7576025875837,757
-722.0865761778291,715
-719.4162851412126,714
-716.7467293035781,708
-714.0779084906909,741
-711.409822528237,726
-708.7424712418238,728
-706.0758544569796,749
-703.4099719991541,733
-700.7448236937178,747
-698.0804093659622,743
-695.4167288411002,710
-692.7537819442656,760
-690.0915685005134,740
-687.4300883348199,755
-684.7693412720819,749
-682.1093271371178,762
-679.4500457546669,784
-676.7914969493897,748
-674.1336805458676,800
-671.4765963686034,777
-668.8202442420206,795
-666.1646239904642,794
-663.5097354382001,792
-660.8555784094151,803
-658.2021527282176,792
-655.5494582186366,811
-652.8974947046223,810
-650.2462620100463,852
-647.5957599587009,837
-644.9459883742998,797
-642.2969470804776,817
-639.6486359007902,816
-637.0010546587141,828
-634.3542031776476,798
-631.7080812809096,808
-629.0626887917401,800
-626.4180255333008,805
-623.7740913286734,781
-621.1308860008619,746
-618.4884093727904,746
-615.8466612673046,747
-613.2056415071715,780
-610.5653499150785,760
-607.9257863136347,803
-605.28695052537,762
-602.6488423727357,759
-600.0114616781036,818
-597.3748082637674,797
-594.7388819519412,804
-592.1036825647604,752
-589.4692099242818,797
-586.8354638524829,796
-584.2024441712624,803
-581.5701507024403,808
-578.9385832677575,787
-576.3077416888759,818
-573.6776257873787,799
-571.0482353847704,798
-568.4195703024757,837
-565.7916303618415,882
-563.164415384135,852
-560.5379251905453,764
-557.9121596021815,837
-555.2871184400748,775
-552.6628015251767,816
-550.0392086783606,828
-547.4163397204204,789
-544.794194472071,804
-542.1727727539491,844
-539.5520743866118,847
-536.9320991905377,835
-534.3128469861261,894
-531.6943175936979,925
-529.0765108334947,958
-526.4594265256793,1030
-523.8430644903358,1134
-521.2274245474689,1265
-518.612506517005,1425
-515.9983102187913,1437
-513.3848354725959,1522
-510.77208209810846,1683
-508.16004991493924,1789
-505.5487387426199,1953
-502.9381484006032,1953
-500.3282787082628,2038
-497.71912948489364,2063
-495.1107005497117,1943
-492.5029917218539,1690
-489.8960028203786,1493
-487.28973366426493,1355
-484.68418407241325,1244
-482.07935386364494,1172
-479.47524285670266,1081
-476.87185087025,1072
-474.2691777228715,1048
-471.66722323307334,1059
-469.0659872192821,1062
-466.4654694998459,1073
-463.86566989303384,1061
-461.26658821703614,1012
-458.66822428996414,991
-456.07057792985,1026
-453.4736489546475,996
-450.877437182231,980
-448.28194243039627,994
-445.68716451686,999
-443.09310325926003,1000
-440.49975847515555,1011
-437.9071299820263,936
-435.31521759727354,1008
-432.72402113821954,1029
-430.13354042210767,1035
-427.5437752661022,1048
-424.95472548728867,1013
-422.36639090267386,1054
-419.7787713291855,1073
-417.1918665836721,1064
-414.60567648290385,1025
-412.0202008435715,1076
-409.4354394822874,1080
-406.8513922155845,1074
-404.26805885991723,1087
-401.685439231661,1085
-399.103533147112,1091
-396.522340422488,1100
-393.9418608739278,1049
-391.3620943174908,1024
-388.7830405691583,1045
-386.2046994448317,997
-383.6270707603344,921
-381.05015433141045,866
-378.473949973725,766
-375.8984575028645,764
-373.32367673433623,710
-370.74960748356875,730
-368.1762495659117,636
-365.60360279663576,582
-363.03166699093265,601
-360.4604419639154,559
-357.8899275306178,544
-355.32012350599507,524
-352.7510297049233,509
-350.1826459421999,506
-347.61497203254316,528
-345.04800779059235,503
-342.4817530309082,500
-339.91620756797226,482
-337.35137121618743,494
-334.7872437898774,496
-332.22382510328725,519
-329.66111497058273,563
-327.09911320585127,558
-324.53781962310075,602
-321.9772340362607,555
-319.4173562591816,584
-316.8581861056348,624
-314.2997233893127,589
-311.7419679238294,592
-309.1849195227194,582
-306.62857799943856,539
-304.0729431673641,496
-301.51801483979375,514
-298.963792829947,546
-296.41027695096386,599
-293.85746701590574,609
-291.3053628377552,625
-288.7539642294155,583
-286.2032710037115,578
-283.65328297338897,585
-281.1039999511146,646
-278.5554217494762,583
-276.007548180983,621
-273.4603790580651,639
-270.9139141930734,617
-268.3681533982807,644
-265.8230964858798,597
-263.27874326798565,660
-260.7350935566336,680
-258.1921471637804,693
-255.6499039013039,627
-253.10836358100266,601
-250.56752601459698,625
-248.02739101372765,740
-245.48795838995704,820
-242.94922795476816,837
-240.41119951956557,782
-237.8738728956746,815
-235.33724789434166,720
-232.80132432673452,793
-230.2661020039418,820
-227.73158073697357,745
-225.19776033676033,705
-222.66464061415422,769
-220.1322213799284,775
-217.60050244477725,791
-215.06948361931552,776
-212.53916471408013,687
-210.00954553952818,770
-207.48062590603843,877
-204.9524056239104,909
-202.4248845033651,832
-199.8980623545441,806
-197.37193898751036,747
-194.84651421224817,793
-192.32178783866232,893
-189.79775967657952,895
-187.27442953574644,898
-184.7517972258321,781
-182.2298625564256,778
-179.7086253370378,857
-177.18808537710026,861
-174.66824248596583,841
-172.14909647290835,898
-169.6306471471229,846
-167.11289431772548,935
-164.59583779375328,919
-162.07947738416453,872
-159.5638128978386,899
-157.04884414357605,1001
-154.53457093009854,1084
-152.02099306604828,1132
-149.50811035998936,1041
-146.99592262040665,977
-144.48442965570587,954
-141.97363127421409,987
-139.46352728417958,1039
-136.95411749377126,1063
-134.44540171107985,1137
-131.93737974411636,1234
-129.43005140081357,1250
-126.92341648902493,1300
-124.41747481652521,1391
-121.91222619101006,1318
-119.40767042009657,1222
-116.90380731132257,1270
-114.40063667214702,1353
-111.8981583099503,1401
-109.3963720320337,1454
-106.89527764561933,1606
-104.39487495785067,1681
-101.89516377579241,1637
-99.39614390642998,1600
-96.89781515667039,1507
-94.40017733334128,1765
-91.90323024319173,1701
-89.40697369289148,1807
-86.91140748903172,1732
-84.41653143812482,1826
-81.92234534660395,2039
-79.42884902082358,2053
-76.93604226705907,2074
-74.4439248915071,1871
-71.95249670028534,1990
-69.46175749943245,1949
-66.97170709490854,2265
-64.48234529259423,2825
-61.99367189829195,2381
-59.50568671772464,2292
-57.01838955653636,2509
-54.53178022029283,2638
-52.045858514480074,2817
-49.560624244506016,3120
-47.07607721569923,2930
-44.59221723330904,3116
-42.10904410250669,2853
-39.62655762838392,3651
-37.14475761595372,4348
-34.66364387015028,5243
-32.18321619582866,5769
-29.70347439776515,5954
-27.224418280657005,7890
-24.74604764912317,11410
-22.26836230770266,18460
-19.7913620608565,30301
-17.315046712966478,40309
-14.83941606833514,42497
-12.36446993118659,65029
-9.89020810566592,65029
-7.416630395839093,65029
-4.94373660569363,65029
-2.471526539137585,65029
-6.821210263296962E-13,65029
2.47084320796705,65029
4.941003281093458,65029
7.410480415786196,65029
9.879274808531363,65029
12.347386655893956,65029
14.814816154518212,65029
17.28156350112681,65029
19.74762889252179,65029
22.21301252558385,65029
24.67771459727237,65029
27.141735304626195,27886
29.605074844762612,13844
32.06773341487792,9317
34.52971121224755,7749
36.99100843422559,7136
39.45162527824516,7064
41.91156194181792,5925
44.370818622535126,7377
46.82939551806646,9166
49.287292826160524,9661
51.74451074464503,9665
54.201049471426245,8443
56.65690920448981,6413
59.112090141899785,4772
61.56659248179983,3406
64.02041642241159,3046
66.4735621620365,3113
68.92602989905402,2389
71.37781983192338,2122
73.82893215918205,2687
76.27936707944684,2772
78.72912479141326,2578
81.17820549385567,2441
83.62660938562783,2299
86.07433666566146,2281
88.5213875329681,2484
90.96776218663751,2438
93.41346082583925,2010
95.85848364982041,1993
98.30283085790859,1922
100.7465026495089,1973
103.18949922410604,1794
105.63182078126385,1768
108.07346752062438,1880
110.51443964190923,1690
112.95473734491827,1580
115.39436082953114,1654
117.83331029570547,1632
120.27158594347827,1631
122.7091879729652,1418
125.1461165843615,1370
127.58237197794062,1470
130.01795435405518,1302
132.4528639131364,1215
134.88710085569494,1315
137.32066538231982,1401
139.75355769367923,1613
142.1857779905207,1475
144.61732647366978,1538
147.04820334403132,1608
149.47840880258934,1396
151.90794305040674,1512
154.33680628862487,1686
156.76499871846443,1709
159.19252054122433,1696
161.61937195828352,1785
164.04555317109896,1816
166.47106438120693,2050
168.89590579022217,2456
171.320077599839,2560
173.7435800118302,2485
176.16641322804742,2541
178.58857745042144,2676
181.01007288096173,2621
183.43089972175687,2660
185.85105817497413,2665
188.27054844285988,2814
190.6893707277394,2755
193.10752523201643,2741
195.5250121581745,2729
197.9418317087751,2823
200.3579840864594,2775
202.7734694939469,2866
205.18828813403627,2836
207.6024402096051,2716
210.01592592360964,2813
212.42874547908548,2758
214.84089907914665,2763
217.2523869269868,2703
219.66320922587727,2843
222.0733661791695,2736
224.48285799029293,2856
226.8916848627572,2866
229.29984700014882,3103
231.7073446061355,3091
234.11417788446204,3011
236.520347038953,3146
238.92585227351185,3205
241.33069379212054,3272
243.73487179884035,3226
246.1383864978112,3325
248.541238093252,3439
250.9434267894609,3416
253.34495279081432,3525
255.74581630176783,3432
258.1460175268563,3520
260.54555667069314,3646
262.9444339379703,3421
265.3426495334594,3506
267.7402036620107,3457
270.1370965285529,3271
272.53332833809407,3110
274.9288992957214,2964
277.32380960660055,2918
279.718059475976,2686
282.1116491091717,2671
284.5045787115897,2697
286.89684848871195,2724
289.2884586460981,2649
291.67940938938807,2669
294.0697009242996,2698
296.4593334566299,2670
298.84830719225477,2620
301.23662233712923,2538
303.6242790972866,2701
306.01127767884,2608
308.39761828798066,2638
310.78330113097934,2525
313.16832641418534,2523
315.5526943440269,2466
317.9364051270112,2390
320.3194589697242,2470
322.70185607883093,2350
325.0835966610754,2339
327.4646809232805,2313
329.8451090723478,2327
332.2248813152577,2263
334.6039978590701,2295
336.9824589109231,2176
339.36026467803447,2235
341.7374153677,2269
344.113911187295,2162
346.48975234427337,2196
348.8649390461686,2187
351.2394715005918,2177
353.61334991523415,2121
355.9865744978655,2198
358.35914545633375,2092
360.73106299856715,2138
363.10232733257146,2225
365.47293866643247,2117
367.84289720831396,2196
370.2122031664593,2116
372.5808567491905,2123
374.9488581649083,2059
377.31620762209275,2074
379.6829053293021,2048
382.0489514951745,2120
384.4143463284262,2043
386.7790900378528,2041
389.14318283232853,1974
391.50662492080653,2057
393.86941651231916,2061
396.23155781597745,2054
398.5930490409713,1998
400.9538903965696,1954
403.3140820921202,2009
405.6736243370498,2010
408.03251734086336,1966
410.3907613131465,1969
412.74835646356166,1988
415.10530300185144,2030
417.4616011378372,1989
419.81725108141893,1960
422.1722530425758,2016
424.5266072313656,1859
426.880313857925,1977
429.2333731324701,2032
431.58578526529516,1869
433.9375504667738,1924
436.2886689473588,1949
438.63914091758113,1990
440.9889665880513,1973
443.33814616945835,1861
445.68667987257015,1994
448.03456790823395,1950
450.3818104873759,1931
452.72840782100013,1860
455.07436012019105,1885
457.41966759611057,1792
459.7643304600007,1864
462.10834892318155,1927
464.4517231970525,1893
466.79445349309174,1950
469.1365400228566,1997
471.4779829979826,1962
473.81878263018564,1927
476.15893913125876,2040
478.4984527130747,1960
480.8373235875855,1956
483.17555196682144,1981
485.5131380628919,2107
487.8500820879857,2167
490.1863842543697,2228
492.52204477439034,2365
494.8570638604725,2574
497.1914417251204,2867
499.52517858091653,3134
501.85827464052306,3514
504.19073011668036,3746
506.5225452222086,3765
508.85372017000566,3767
511.18425517304956,3679
513.514150444396,3920
515.8434061971808,4374
518.1720226446176,4719
520.4999999999999,5013
522.8273384766991,5220
525.1540382881666,5384
527.480099647932,5035
529.8055227696037,3907
532.1303078668694,2800
534.454455153496,2289
536.777964843328,2055
539.1008371502907,2004
541.4230722883866,1933
543.744670471698,1900
546.0656319143858,1808
548.3859568306899,1809
550.7056454349294,1756
553.0246979415016,1733
555.3431145648834,1769
557.6608955196306,1789
559.978041020377,1771
562.2945512818363,1737
564.6104265188006,1742
566.9256669461412,1688
569.2402727788082,1691
571.5542442318302,1785
573.8675815203156,1735
576.1802848594508,1688
578.4923544645015,1724
580.8037905508126,1772
583.114593333807,1741
585.4247630289875,1742
587.7342998519354,1709
590.0432040183106,1709
592.3514757438526,1794
594.6591152443794,1750
596.9661227357875,1643
599.2724984340531,1713
601.578242555231,1721
603.8833553154542,1743
606.1878369309362,1785
608.4916876179676,1681
610.7949075929192,1808
613.0974970722403,1741
615.3994562724587,1785
617.7007854101818,1739
620.0014847020951,1800
622.3015543649641,1709
624.6009946156324,1747
626.8998056710224,1783
629.1979877481361,1753
631.4955410640538,1714
633.7924658359349,1782
636.0887622810175,1766
638.3844306166192,1821
640.6794710601358,1857
642.9738838290426,1763
645.2676691408932,1740
647.5608272133207,1800
649.853358264037,1791
652.1452625108324,1837
654.4365401715764,1834
656.7271914642178,1842
659.0172166067838,1830
661.3066158173809,1764
663.5953893141935,1757
665.8835373154867,1829
668.1710600396028,1826
670.4579577049639,1867
672.7442305300709,1699
675.0298787335033,1806
677.3149025339197,1871
679.599302150058,1901
681.8830778007342,1865
684.1662297048437,1841
686.4487580813608,1787
688.7306631493387,1820
691.0119451279091,1765
693.2926042362834,1832
695.5726406937516,1827
697.8520547196814,1785
700.1308465335215,1724
702.4090163547982,1857
704.6865644031171,1801
706.9634908981619,1791
709.2397960596965,1875
711.5154801075631,1802
713.7905432616823,1804
716.0649857420548,1826
718.3388077687592,1764
720.612009561953,1822
722.8845913418733,1837
725.1565533288352,1848
727.427895743234,1840
729.6986188055427,1816
731.9687227363137,1826
734.238207756178,1801
736.5070740858458,1812
738.7753219461066,1841
741.0429515578281,1853
743.3099631419569,1772
745.5763569195191,1819
747.8421331116193,1767
750.1072919394409,1758
752.3718336242467,1804
754.6357583873777,1808
756.8990664502545,1777
759.1617580343765,1739
761.423833361321,1805
763.6852926527457,1721
765.9461361303862,1770
768.206364016058,1840
770.4659765316536,1812
772.7249738991469,1779
774.9833563405886,1827
777.2411240781092,1752
779.4982773339183,1794
781.7548163303044,1885
784.010741289634,1816
786.2660524343538,1869
788.5207499869881,1806
790.7748341701416,1782
793.0283052064964,1805
795.2811633188143,1870
797.5334087299362,1861
799.7850416627813,1880
802.0360623403484,1862
804.2864709857143,1877
806.5362678220353,1841
808.7854530725468,1797
811.0340269605625,1831
813.2819897094754,1812
815.5293415427581,1832
817.77608268396,1868
820.0222133567116,1788
822.2677337847211,1877
824.5126441917765,1793
826.7569448017433,1831
829.0006358385675,1842
831.2437175262731,1853
833.4861900889629,1864
835.7280537508192,1819
837.9693087361026,1837
840.2099552691533,1815
842.4499935743896,1854
844.689423876309,1798
846.9282463994886,1791
849.1664613685833,1811
851.4040690083276,1792
853.6410695435349,1769
855.877463199097,1830
858.1132501999847,1862
860.3484307712487,1775
862.5830051380175,1843
864.8169735254988,1859
867.0503361589791,1807
869.2830932638243,1959
871.5152450654786,1797
873.7467917894654,1870
875.9777336613873,1827
878.2080709069252,1867
880.4378037518389,1879
882.666932421968,1811
884.8954571432301,1879
887.1233781416219,1880
889.3506956432192,1851
891.5774098741766,1907
893.803521060728,1773
896.0290294291852,1918
898.2539352059397,1879
900.4782386174619,1927
902.7019398903011,1933
904.925039251085,1790
907.147536926521,1897
909.3694331433943,1849
911.59072812857,1861
913.8114221089921,1841
916.0315153116827,1974
918.2510079637437,1854
920.4699002923547,1803
922.6881925247761,1820
924.905884888345,1860
927.1229776104793,1810
929.3394709186747,1871
931.555365040506,1863
933.7706602036275,1960
935.9853566357709,1862
938.1994545647489,1800
940.4129542184515,1862
942.6258558248488,1984
944.8381596119883,1950
947.0498658079974,1855
949.2609746410825,1849
951.4714863395287,1878
953.6814011316998,1877
955.8907192460387,1783
958.0994409110671,1847
960.3075663553858,1844
962.5150958076741,1814
964.7220294966913,1759
966.928367651274,1891
969.1341105003388,1801
971.3392582728806,1809
973.5438111979742,1776
975.747769504772,1729
977.9511334225061,1770
980.153903180487,1736
982.3560790081052,1727
984.5576611348289,1796
986.7586497902058,1711
988.9590452038618,1719
991.158847605503,1704
993.3580572249133,1617
995.5566742919558,1671
997.7546990365728,1631
999.952131688785,1666
1002.1489724786926,1604
1004.3452216364743,1567
1006.5408793923874,1549
1008.7359459767691,1581
1010.9304216200343,1516
1013.1243065526781,1485
1015.3176010052733,1515
1017.510305208472,1510
1019.7024193930064,1474
1021.8939437896848,1467
1024.0848786293977,1454
1026.2752241431122,1417
1028.4649805618747,1429
1030.6541481168115,1481
1032.842727039127,1457
1035.0307175601051,1495
1037.2181199111074,1476
1039.4049343235752,1489
1041.591161029029,1499
1043.7768002590683,1441
1045.9618522453698,1504
1048.1463172196918,1513
1050.3301954138697,1435
1052.513487059818,1443
1054.69619238953,1414
1056.8783116350783,1443
1059.0598450286152,1392
1061.2407928023704,1479
1063.4211551886528,1476
1065.6009324198508,1375
1067.780124728432,1408
1069.9587323469414,1486
1072.1367555080046,1419
1074.314194444325,1386
1076.4910493886855,1442
1078.667320573947,1347
1080.843008233051,1421
1083.0181125990161,1398
1085.1926339049414,1376
1087.3665723840027,1382
1089.5399282694575,1398
1091.7127017946405,1367
1093.8848931929647,1382
1096.0565026979243,1344
1098.2275305430899,1386
1100.3979769621128,1337
1102.567842188722,1348
1104.737126456726,1351
1106.9058300000124,1363
1109.0739530525475,1256
1111.2414958483764,1339
1113.4084586216231,1329
1115.5748416064907,1324
1117.7406450372605,1329
1119.9058691482942,1326
1122.0705141740304,1407
1124.2345803489884,1347
1126.3980679077658,1315
1128.5609770850388,1348
1130.7233081155623,1344
1132.8850612341707,1292
1135.0462366757774,1294
1137.2068346753745,1282
1139.3668554680326,1352
1141.526299288901,1356
1143.68516637321,1367
1145.8434569562655,1352
1148.001171273455,1273
1150.158309560244,1245
1152.3148720521767,1358
1154.470858984876,1339
1156.626270594044,1319
1158.7811071154629,1348
1160.9353687849912,1334
1163.089055838569,1281
1165.242168512213,1320
1167.3947070420209,1358
1169.5466716641677,1380
1171.6980626149075,1357
1173.8488801305748,1269
1175.9991244475814,1265
1178.1487958024186,1316
1180.2978944316555,1361
1182.4464205719428,1299
1184.5943744600072,1298
1186.7417563326567,1317
1188.8885664267755,1264
1191.0348049793297,1325
1193.1804722273619,1283
1195.325568407995,1310
1197.4700937584303,1260
1199.614048515948,1318
1201.7574329179074,1328
1203.900247201746,1290
1206.042491604982,1279
1208.1841663652099,1288
1210.3252717201053,1368
1212.465807907422,1267
1214.6057751649923,1279
1216.7451737307279,1349
1218.8840038426192,1341
1221.0222657387353,1309
1223.1599596572241,1348
1225.2970858363137,1330
1227.4336445143094,1330
1229.5696359295966,1372
1231.705060320639,1337
1233.8399179259786,1340
1235.9742089842384,1323
1238.107933734118,1354
1240.2410924143974,1315
1242.373685263935,1307
1244.5057125216676,1307
1246.6371744266116,1353
1248.7680712178621,1277
1250.898403134593,1368
1253.028170416058,1282
1255.1573733015875,1319
1257.2860120305932,1327
1259.4140868425648,1313
1261.54159797707,1367
1263.6685456737569,1352
1265.7949301723515,1322
1267.9207517126597,1309
1270.046010534565,1386
1272.1707068780306,1303
1274.2948409830983,1343
1276.4184130898889,1400
1278.541423438603,1352
1280.6638722695184,1409
1282.785759822993,1398
1284.9070863394636,1375
1287.0278520594447,1432
1289.1480572235314,1409
1291.2677020723963,1460
1293.3867868467923,1421
1295.5053117875495,1436
1297.623277135579,1475
1299.740683131868,1462
1301.8575300174857,1431
1303.973818033578,1468
1306.0895474213703,1469
1308.2047184221678,1494
1310.3193312773528,1437
1312.4333862283888,1432
1314.5468835168163,1455
1316.659823384255,1433
1318.7722060724045,1486
1320.8840318230418,1400
1322.9953008780249,1539
1325.1060134792888,1481
1327.2161698688478,1474
1329.3257702887959,1583
1331.4348149813054,1489
1333.5433041886276,1486
1335.6512381530933,1454
1337.7586171171101,1412
1339.8654413231675,1440
1341.9717110138317,1516
1344.0774264317488,1471
1346.1825878196432,1470
1348.2871954203192,1396
1350.3912494766587,1436
1352.4947502316231,1453
1354.5976979282532,1492
1356.7000928096686,1477
1358.8019351190665,1438
1360.9032250997243,1428
1363.0039629949988,1490
1365.1041490483235,1408
1367.2037835032133,1414
1369.3028666032606,1440
1371.401398592137,1474
1373.4993797135926,1450
1375.5968102114575,1437
1377.6936903296396,1467
1379.7900203121262,1441
1381.8858004029835,1441
1383.9810308463561,1463
1386.075711886469,1429
1388.1698437676241,1440
1390.2634267342032,1515
1392.356461030667,1466
1394.4489469015557,1498
1396.5408845914872,1540
1398.6322743451592,1524
1400.7231164073469,1524
1402.813411022907,1487
1404.903158436773,1521
1406.9923588939578,1532
1409.0810126395531,1499
1411.1691199187303,1499
1413.2566809767386,1549
1415.343696058907,1583
1417.4301654106425,1570
1419.5160892774315,1506
1421.6014679048399,1564
1423.6863015385125,1537
1425.7705904241707,1542
1427.8543348076178,1572
1429.9375349347342,1576
1432.0201910514802,1654
1434.102303403894,1595
1436.1838722380944,1692
1438.2648978002767,1693
1440.3453803367174,1712
1442.4253200937692,1701
1444.5047173178677,1675
1446.5835722555234,1811
1448.6618851533285,1764
1450.739656257952,1722
1452.8168858161434,1804
1454.8935740747306,1807
1456.96972128062,1793
1459.045327680797,1821
1461.120393522327,1891
1463.1949190523528,1852
1465.2689045180973,1960
1467.3423501668608,1984
1469.415256246024,2005
1471.4876230030463,1997
1473.559450685465,1966
1475.6307395408976,2098
1477.7014898170391,2064
1479.771701761665,2121
1481.8413756226287,2219
1483.9105116478618,2195
1485.9791100853772,2200
1488.0471711832643,2267
1490.1146951896926,2227
1492.1816823529098,2345
1494.2481329212433,2370
1496.3140471430984,2351
1498.3794252669609,2378
1500.4442675413939,2348
1502.5085742150404,2337
1504.572345536622,2395
1506.6355817549388,2478
1508.6982831188702,2402
1510.7604498773744,2485
1512.8220822794883,2496
1514.8831805743293,2548
1516.9437450110909,2529
1519.003775839048,2452
1521.0632733075522,2557
1523.1222376660367,2443
1525.1806691640113,2621
1527.2385680510652,2545
1529.2959345768668,2540
1531.3527689911643,2556
1533.4090715437833,2573
1535.4648424846291,2630
1537.5200820636855,2714
1539.5747905310159,2705
1541.6289681367616,2745
1543.6826151311434,2767
1545.7357317644614,2855
1547.7883182870937,2872
1549.8403749494987,2838
1551.8919020022113,2798
1553.9428996958477,2901
1555.9933682811015,2983
1558.0433080087469,3055
1560.0927191296346,3100
1562.1416018946961,3277
1564.1899565549415,3216
1566.2377833614592,3297
1568.2850825654164,3262
1570.3318544180606,3192
1572.3780991707158,3146
1574.423817074788,3164
1576.4690083817595,2903
1578.5136733431923,2871
1580.5578122107272,2730
1582.601425236085,2701
1584.6445126710646,2528
1586.6870747675434,2403
1588.7291117774776,2253
1590.7706239529034,2208
1592.8116115459347,2174
1594.8520748087658,2143
1596.8920139936686,1997
1598.9314293529933,1975
1600.9703211391711,1897
1603.008689604711,1885
1605.0465350022005,1741
1607.0838575843068,1743
1609.1206576037753,1758
1611.1569353134305,1649
1613.1926909661765,1611
1615.2279248149953,1626
1617.2626371129481,1555
1619.2968281131757,1531
1621.3304980688963,1517
1623.3636472334088,1549
1625.39627586009,1509
1627.428384202396,1481
1629.459972513861,1509
1631.4910410480993,1505
1633.5215900588028,1489
1635.551619799744,1400
1637.5811305247717,1443
1639.6101224878166,1449
1641.6385959428862,1389
1643.6665511440683,1395
1645.693988345528,1436
1647.7209078015112,1420
1649.7473097663405,1357
1651.7731944944203,1368
1653.7985622402307,1402
1655.823413258333,1390
1657.847747803366,1369
1659.8715661300494,1427
1661.8948684931793,1378
1663.9176551476316,1399
1665.9399263483624,1303
1667.9616823504057,1382
1669.982923408873,1389
1672.0036497789574,1311
1674.0238617159293,1350
1676.043559475138,1383
1678.0627433120121,1319
1680.081413482059,1326
1682.0995702408654,1325
1684.117213844096,1337
1686.134344547495,1331
1688.1509626068864,1368
1690.1670682781705,1388
1692.182661817329,1398
1694.1977434804217,1351
1696.2123135235875,1336
1698.226372203043,1346
1700.2399197750851,1344
1702.2529564960905,1339
1704.2654826225112,1330
1706.277498410882,1380
1708.2890041178139,1436
1710.2999999999988,1316
1712.3104863142066,1327
1714.3204633172854,1349
1716.329931266163,1314
1718.3388904178469,1332
1720.3473410294214,1314
1722.3552833580516,1335
1724.3627176609807,1346
1726.3696441955308,1279
1728.3760632191033,1384
1730.3819749891782,1278
1732.3873797633146,1272
1734.3922777991502,1313
1736.3966693544012,1240
1738.4005546868639,1317
1740.4039340544127,1358
1742.406807715001,1278
1744.4091759266616,1286
1746.4110389475054,1263
1748.4123970357223,1326
1750.413250449582,1274
1752.4135994474318,1303
1754.4134442876993,1215
1756.4127852288902,1219
1758.4116225295893,1255
1760.4099564484595,1245
1762.407787244244,1284
1764.405115175764,1255
1766.4019405019203,1300
1768.3982634816916,1277
1770.3940843741357,1181
1772.3894034383907,1260
1774.3842209336717,1245
1776.378537119274,1229
1778.372352254571,1201
1780.3656665990156,1238
1782.3584804121397,1238
1784.3507939535534,1204
1786.3426074829463,1256
1788.3339212600863,1286
1790.3247355448211,1226
1792.3150505970766,1245
1794.3048666768573,1204
1796.2941840442477,1178
1798.2830029594106,1203
1800.2713236825884,1209
1802.2591464741004,1234
1804.2464715943465,1209
1806.2332993038058,1201
1808.2196298630352,1255
1810.2054635326708,1252
1812.190800573428,1219
1814.175641246101,1218
1816.1599858115628,1246
1818.1438345307652,1252
1820.127187664738,1190
1822.1100454745924,1200
1824.092408221516,1224
1826.0742761667766,1225
1828.055649571721,1194
1830.0365286977735,1197
1832.0169138064398,1196
1833.9968051593014,1200
1835.9762030180214,1217
1837.9551076443408,1242
1839.9335193000788,1170
1841.9114382471344,1185
1843.888864747485,1235
1845.8657990631878,1174
1847.842241456378,1206
1849.8181921892697,1131
1851.7936515241558,1197
1853.7686197234098,1184
1855.7430970494815,1235
1857.7170837649014,1252
1859.6905801322787,1220
1861.6635864143004,1154
1863.6361028737338,1169
1865.608129773424,1233
1867.5796673762961,1210
1869.5507159453537,1181
1871.521275743678,1167
1873.4913470344313,1210
1875.4609300808534,1237
1877.4300251462632,1208
1879.3986324940588,1202
1881.366752387717,1174
1883.3343850907936,1234
1885.3015308669228,1262
1887.268189979819,1233
1889.2343626932739,1273
1891.2000492711595,1173
1893.1652499774254,1238
1895.1299650761011,1222
1897.0941948312952,1201
1899.0579395071945,1285
1901.0211993680641,1277
1902.98397467825,1249
1904.9462657021745,1256
1906.9080727043415,1251
1908.869395949332,1259
1910.8302357018065,1244
1912.790592226504,1305
1914.7504657882428,1256
1916.7098566519212,1237
1918.6687650825133,1218
1920.6271913450764,1279
1922.5851357047422,1188
1924.5425984267245,1217
1926.499579776314,1267
1928.4560800188833,1170
1930.4120994198802,1261
1932.367638244833,1221
1934.32269675935,1222
1936.2772752291175,1196
1938.231373919899,1240
1940.1849930975404,1213
1942.1381330279637,1215
1944.0907939771696,1240
1946.0429762112412,1175
1947.9946799963363,1223
1949.9459055986945,1251
1951.896653284633,1232
1953.8469233205478,1226
1955.7967159729142,1212
1957.7460315082863,1235
1959.6948701932974,1236
1961.6432322946594,1276
1963.5911180791632,1216
1965.5385278136787,1179
1967.4854617651545,1227
1969.4319202006182,1201
1971.377903387176,1223
1973.3234115920136,1213
1975.268445082395,1209
1977.2130041256642,1186
1979.1570889892423,1225
1981.1006999406304,1221
1983.04383724741,1199
1984.986501177238,1242
1986.928691997853,1231
1988.8704099770712,1198
1990.811655382789,1161
1992.7524284829801,1145
1994.692729545698,1185
1996.6325588390755,1190
1998.5719166313224,1191
2000.5108031907307,1199
2002.4492187856677,1174
2004.387163684583,1172
2006.3246381560011,1173
2008.2616424685298,1156
2010.1981768908527,1167
2012.1342416917332,1170
2014.069837140014,1173
2016.0049635046162,1198
2017.9396210545406,1188
2019.8738100588666,1208
2021.8075307867502,1148
2023.740783507431,1206
2025.6735684902228,1195
2027.6058860045214,1159
2029.5377363198004,1166
2031.4691197056118,1172
2033.4000364315875,1209
2035.3304867674374,1185
2037.260470982952,1169
2039.189989347998,1205
2041.1190421325232,1198
2043.047629606554,1113
2044.9757520401945,1165
2046.9034097036288,1194
2048.8306028671195,1132
2050.7573318010086,1138
2052.683596775716,1204
2054.609398061742,1167
2056.5347359296647,1134
2058.4596106501403,1200
2060.384022493906,1188
2062.3079717317764,1195
2064.231458634646,1182
2066.1544834734873,1186
2068.077046519352,1181
2069.99914804337,1190
2071.9207883167524,1138
2073.8419676107865,1189
2075.7626861968406,1130
2077.6829443463607,1165
2079.6027423308715,1171
2081.522080421977,1193
2083.440958891362,1171
2085.359378010786,1209
2087.2773380520907,1202
2089.194839287196,1183
2091.111881988101,1177
2093.0284664268825,1180
2094.9445928756973,1175
2096.86026160678,1120
2098.775472892446,1184
2100.690227005088,1230
2102.604524217178,1165
2104.5183648012676,1119
2106.431749029985,1155
2108.34467717604,1175
2110.2571495122206,1195
2112.169166311393,1178
2114.080727846503,1198
2115.9918343905747,1163
2117.902486216711,1167
2119.8126835980956,1133
2121.722426807987,1144
2123.6317161197285,1236
2125.5405518067364,1134
2127.448934142509,1172
2129.356863400624,1238
2131.264339854737,1162
2133.1713637785815,1185
2135.077935445972,1155
2136.9840551308002,1139
2138.889723107037,1157
2140.7949396487334,1148
2142.699705030018,1212
2144.6040195250994,1163
2146.507883408264,1113
2148.4112969538774,1131
2150.3142604363848,1162
2152.2167741303097,1132
2154.1188383102535,1185
2156.0204532508997,1161
2157.9216192270064,1130
2159.822336513414,1226
2161.7226053850413,1111
2163.622426116884,1173
2165.5217989840185,1200
2167.4207242616,1168
2169.319202224862,1114
2171.2172331491165,1176
2173.1148173097563,1218
2175.0119549822507,1194
2176.90864644215,1152
2178.8048919650823,1229
2180.7006918267534,1158
2182.596046302952,1175
2184.4909556695407,1151
2186.3854202024645,1160
2188.279440177746,1196
2190.173015871487,1190
2192.066147559868,1151
2193.958835519149,1124
2195.851080025667,1170
2197.7428813558417,1106
2199.6342397861667,1196
2201.5251555932186,1198
2203.415629053651,1233
2205.3056604441986,1185
2207.19525004167,1225
2209.084398122958,1223
2210.9731049650327,1243
2212.861370844941,1170
2214.749196039812,1153
2216.636580826851,1193
2218.523525483344,1185
2220.410030286655,1191
2222.296095514226,1208
2224.1817214435805,1169
2226.066908352319,1163
2227.951656518121,1164
2229.835966218746,1228
2231.71983773203,1165
2233.6032713358913,1162
2235.486267308324,1147
2237.3688259274036,1124
2239.2509474712824,1188
2241.132632218193,1162
2243.013880446447,1151
2244.8946924344323,1164
2246.7750684606203,1195
2248.6550088035574,1180
2250.534513741871,1177
2252.413583554265,1160
2254.292218519526,1202
2256.170418916517,1234
2258.0481850241786,1150
2259.925517121534,1176
2261.8024154876825,1148
2263.678880401803,1192
2265.5549121431536,1154
2267.430510991071,1145
2269.305677224971,1172
2271.180411124348,1221
2273.0547129687766,1154
2274.9285830379076,1185
2276.8020216114737,1182
2278.6750289692845,1186
2280.5476053912294,1158
2282.4197511572766,1159
2284.2914665474727,1164
2286.162751841943,1166
2288.0336073208937,1193
2289.904033264608,1207
2291.774029953448,1231
2293.6435976678554,1209
2295.5127366883517,1164
2297.381447295534,1182
2299.2497297700825,1151
2301.1175843927526,1191
2302.9850114443825,1149
2304.852011205885,1140
2306.7185839582553,1172
2308.5847299825664,1241
2310.4504495599676,1163
2312.3157429716925,1167
2314.1806104990483,1220
2316.0450524234247,1184
2317.9090690262888,1206
2319.772660589186,1190
2321.635827393742,1188
2323.498569721661,1171
2325.3608878547248,1229
2327.2227820747967,1174
2329.0842526638157,1176
2330.945299903803,1210
2332.805924076857,1215
2334.6661254651535,1211
2336.525904350951,1212
2338.3852610165827,1180
2340.244195744464,1213
2342.102708817088,1218
2343.9608005170253,1198
2345.8184711269287,1241
2347.675720929526,1219
2349.532550207628,1202
2351.38895924412,1152
2353.24494832197,1191
2355.100517724223,1217
2356.955667734004,1140
2358.810398634514,1217
2360.664710709037,1245
2362.5186042409337,1210
2364.3720795136437,1182
2366.225136810686,1210
2368.0777764156583,1245
2369.929998612237,1199
2371.7818036841777,1236
2373.633191915315,1218
2375.484163589562,1274
2377.3347189909114,1199
2379.184858403434,1222
2381.03458211128,1224
2382.8838903986775,1266
2384.732783549936,1224
2386.5812618494406,1277
2388.4293255816588,1243
2390.2769750311327,1200
2392.1242104824883,1211
2393.971032220427,1229
2395.8174405297295,1203
2397.6634356952563,1206
2399.509018001947,1232
2401.3541877348193,1216
2403.1989451789705,1253
2405.043290619576,1206
2406.8872243418905,1266
2408.730746631247,1186
2410.5738577730594,1213
2412.4165580528183,1285
2414.258847756095,1261
2416.100727168537,1207
2417.9421965758734,1190
2419.783256263912,1281
2421.623906518538,1278
2423.4641476257157,1302
2425.303979871491,1295
2427.143403541984,1250
2428.9824189233977,1216
2430.821026302012,1271
2432.6592259641866,1204
2434.497018196361,1266
2436.33440328505,1289
2438.171381516851,1246
2440.00795317844,1344
2441.844118556569,1278
2443.6798779380724,1226
2445.5152316098606,1239
2447.3501798589255,1275
2449.1847229723357,1275
2451.0188612372403,1214
2452.8525949408663,1236
2454.6859243705203,1255
2456.518849813587,1218
2458.3513715575314,1230
2460.183489889895,1255
2462.015205098301,1217
2463.8465174704493,1258
2465.67742729412,1177
2467.5079348571717,1256
2469.338040447542,1236
2471.1677443532476,1256
2472.9970468623833,1248
2474.825948263123,1206
2476.6544488437207,1226
2478.482548892508,1264
2480.310248697896,1248
2482.137548548374,1238
2483.9644487325118,1319
2485.790949538956,1301
2487.617051256433,1255
2489.44275417375,1251
2491.26805857979,1307
2493.0929647635157,1287
2494.917473013971,1274
2496.741583620276,1320
2498.5652968716304,1277
2500.3886130573137,1287
2502.2115324666834,1265
2504.0340553891765,1246
2505.856182114308,1238
2507.6779129316733,1297
2509.499248130945,1296
2511.3201880018764,1265
2513.140732834298,1280
2514.9608829181198,1281
2516.780638543331,1294
2518.6,1331
2520.418967578273,1288
2522.237541568376,1334
2524.0557222606144,1325
2525.8735099453706,1339
2527.6909049131086,1301
2529.507907454368,1351
2531.32451785977,1355
2533.140736420014,1349
2534.9565634258774,1342
2536.771999168218,1332
2538.5870439379714,1386
2540.4016980261526,1427
2542.2159617238544,1406
2544.02983532225,1383
2545.8433191125914,1379
2547.656413386209,1379
2549.4691184345115,1447
2551.2814345489874,1400
2553.093362021204,1385
2554.904901142808,1347
2556.716052205523,1403
2558.526815501153,1389
2560.3371913215824,1385
2562.147179958771,1427
2563.956781704761,1431
2565.7659968516705,1420
2567.5748256916986,1465
2569.3832685171224,1455
2571.1913256202984,1523
2572.9989972936614,1426
2574.806283829725,1455
2576.613185521084,1494
2578.4197026604074,1535
2580.2258355404483,1457
2582.031584454035,1513
2583.836949694077,1577
2585.6419315535613,1524
2587.4465303255533,1558
2589.2507463032002,1536
2591.0545797797245,1545
2592.8580310484303,1531
2594.6611004026995,1534
2596.463788135992,1523
2598.266094541849,1523
2600.0680199138874,1539
2601.869564545807,1568
2603.670728731383,1569
2605.4715127644704,1584
2607.2719169390048,1524
2609.071941548998,1540
2610.8715868885433,1556
2612.670853251811,1538
2614.469740933052,1605
2616.268250226594,1511
2618.0663814268455,1481
2619.864134828292,1530
2621.6615107255006,1569
2623.458509413115,1555
2625.2551311858597,1530
2627.0513763385347,1513
2628.8472451660223,1517
2630.6427379632833,1533
2632.4378550253564,1481
2634.232596647359,1431
2636.026963124488,1497
2637.8209547520187,1490
2639.6145718253065,1423
2641.407814639785,1442
2643.200683490966,1413
2644.9931786744414,1456
2646.7853004858807,1396
2648.577049221034,1373
2650.3684251757277,1366
2652.1594286458712,1370
2653.9500599274484,1375
2655.740319316525,1388
2657.5302071092437,1423
2659.3197236018286,1427
2661.10886909058,1315
2662.8976438718782,1340
2664.686048242183,1298
2666.4740824980327,1310
2668.2617469360443,1333
2670.0490418529134,1331
2671.8359675454153,1333
2673.622524310403,1355
2675.408712444811,1295
2677.1945322456495,1260
2678.979984010009,1317
2680.76506803506,1305
2682.5497846180497,1279
2684.334134056306,1293
2686.1181166472343,1256
2687.9017326883213,1243
2689.6849824771293,1230
2691.4678663113013,1217
2693.2503844885596,1172
2695.032537306705,1275
2696.8143250636167,1242
2698.5957480572542,1288
2700.3768065856534,1212
2702.1575009469316,1195
2703.937831439283,1207
2705.717798360982,1241
2707.4974020103837,1254
2709.276642685917,1265
2711.055520686095,1272
2712.834036309506,1178
2714.612189854819,1208
2716.389981620782,1155
2718.1674119062204,1173
2719.944481010041,1215
2721.721189231226,1235
2723.4975368688415,1221
2725.273524222027,1209
2727.0491515900053,1223
2728.824419272075,1221
2730.5993275676146,1192
2732.3738767760838,1260
2734.148067197016,1209
2735.921899130031,1199
2737.6953728748194,1161
2739.468488731156,1164
2741.2412469988926,1163
2743.0136479779617,1159
2744.785691968372,1162
2746.5573792702116,1246
2748.3287101836504,1186
2750.099685008934,1112
2751.870304046388,1218
2753.640567596418,1191
2755.4104759595057,1180
2757.1800294362156,1159
2758.949228327187,1172
2760.7180729331412,1125
2762.486563554877,1155
2764.254700493272,1148
2766.022484049284,1157
2767.789914523947,1101
2769.5569922183786,1149
2771.3237174337705,1157
2773.090090471394,1185
2774.8561116326036,1229
2776.6217812188274,1244
2778.3870995315756,1177
2780.1520668724356,1159
2781.9166835430747,1143
2783.6809498452394,1155
2785.444866080754,1215
2787.2084325515225,1137
2788.971649559527,1150
2790.73451740683,1169
2792.4970363955713,1186
2794.2592068279705,1180
2796.0210290063264,1157
2797.7825032330147,1181
2799.543629810493,1121
2801.304409041296,1175
2803.0648412280366,1147
2804.8249266734088,1222
2806.5846656801846,1181
2808.344058551212,1144
2810.1031055894246,1152
2811.8618070978273,1149
2813.6201633795085,1169
2815.378174737636,1123
2817.1358414754536,1196
2818.893163896285,1145
2820.6501423035334,1186
2822.4067770006814,1164
2824.1630682912883,1203
2825.9190164789957,1148
2827.6746218675207,1190
2829.429884760661,1156
2831.184805462294,1207
2832.9393842763743,1189
2834.693621506936,1216
2836.4475174580916,1146
2838.201072434034,1205
2839.954286739034,1216
2841.707160677441,1186
2843.459694553685,1206
2845.2118886722724,1141
2846.96374333779,1142
2848.7152588549034,1130
2850.4664355283567,1162
2852.217273662973,1142
2853.9677735636546,1166
2855.7179355353833,1168
2857.4677598832186,1153
2859.217246912299,1146
2860.9663969278427,1104
2862.715210235146,1179
2864.4636871395846,1192
2866.211827946614,1164
2867.9596329617652,1140
2869.7071024906536,1203
2871.4542368389684,1175
2873.20103631248,1175
2874.947501217038,1163
2876.6936318585695,1217
2878.4394285430812,1119
2880.1848915766604,1172
2881.9300212654707,1169
2883.6748179157553,1160
2885.4192818338374,1147
2887.1634133261173,1130
2888.907212699077,1159
2890.6506802592744,1151
2892.393816313348,1119
2894.1366211680142,1154
2895.8790951300693,1143
2897.621238506388,1148
2899.363051603925,1172
2901.1045347297118,1195
2902.8456881908596,1175
2904.58651229456,1150
2906.327007348081,1161
2908.067173658772,1211
2909.8070115340597,1160
2911.5465212814497,1151
2913.285703208527,1152
2915.0245576229563,1172
2916.7630848324807,1149
2918.5012851449196,1165
2920.2391588681758,1134
2921.976706310227,1191
2923.7139277791334,1175
2925.4508235830313,1150
2927.187394030137,1144
2928.923639428745,1172
2930.6595600872306,1145
2932.395156314046,1178
2934.1304284177218,1191
2935.8653767068713,1153
2937.6000014901815,1171
2939.3343030764227,1184
2941.068281774442,1191
2942.8019378931644,1200
2944.5352717415976,1152
2946.2682836288236,1145
2948.0009738640065,1127
2949.7333427563885,1171
2951.465390615289,1186
2953.1971177501086,1177
2954.9285244703265,1135
2956.6596110855,1103
2958.3903779052657,1114
2960.1208252393385,1164
2961.8509533975125,1164
2963.5807626896617,1171
2965.3102534257378,1148
2967.0394259157715,1143
2968.768280469873,1144
2970.496817398232,1167
2972.2250370111146,1151
2973.952939618869,1150
2975.6805255319196,1137
2977.4077950607707,1179
2979.134748516006,1191
2980.861386208289,1180
2982.587708448359,1124
2984.313715547037,1142
2986.039407815222,1130
2987.764785563891,1163
2989.489849104102,1163
2991.2145987469908,1194
2992.9390348037705,1145
2994.6631575857346,1181
2996.3869674042576,1115
2998.1104645707887,1158
2999.83364939686,1146
3001.5565221940783,1159
3003.2790832741334,1125
3005.0013329487924,1160
3006.7232715298996,1156
3008.4448993293804,1145
3010.166216659239,1130
3011.887223831558,1139
3013.607921158498,1117
3015.3283089522993,1188
3017.0483875252826,1193
3018.7681571898443,1107
3020.4876182584626,1209
3022.2067710436927,1187
3023.9256158581707,1163
3025.644153014609,1193
3027.362382825801,1166
3029.0803056046193,1116
3030.797921664012,1178
3032.5152313170106,1110
3034.2322348767225,1153
3035.9489326563353,1157
3037.665324969115,1134
3039.3814121284063,1193
3041.097194447633,1153
3042.812672240299,1167
3044.5278458199855,1144
3046.2427155003525,1156
3047.9572815951406,1114
3049.671544418167,1167
3051.38550428333,1147
3053.0991615046073,1143
3054.812516396051,1133
3056.5255692717974,1182
3058.2383204460575,1193
3059.9507702331257,1163
3061.662918947372,1153
3063.3747669032446,1124
3065.0863144152736,1164
3066.7975617980674,1146
3068.508509366309,1181
3070.219157434767,1161
3071.9295063182844,1185
3073.639556331785,1170
3075.3493077902704,1114
3077.058761008821,1155
3078.7679163025964,1130
3080.476773986837,1133
3082.1853343768594,1174
3083.89359778806,1175
3085.6015645359153,1174
3087.3092349359786,1167
3089.016609303884,1186
3090.7236879553434,1177
3092.4304712061476,1147
3094.136959372166,1130
3095.843152769349,1182
3097.5490517137237,1220
3099.2546565213966,1136
3100.959967508554,1137
3102.66498499146,1129
3104.3697092864577,1176
3106.0741407099695,1138
3107.778279578498,1178
3109.482126208622,1147
3111.1856809170004,1157
3112.8889440203716,1183
3114.5919158355528,1183
3116.294596679439,1176
3117.996986869006,1157
3119.6990867213062,1143
3121.4008965534726,1125
3123.102416682717,1181
3124.803647426329,1148
3126.5045891016784,1170
3128.205242026213,1173
3129.90560651746,1172
3131.605682893025,1158
3133.3054714705922,1212
3135.0049725679282,1222
3136.7041865028714,1123
3138.4031135933465,1175
3140.101754157353,1141
3141.800108512971,1168
3143.498176978357,1183
3145.1959598717494,1159
3146.8934575114636,1157
3148.5906702158954,1173
3150.2875983035183,1194
3151.9842420928853,1151
3153.680601902627,1202
3155.376678051456,1188
3157.07247085816,1142
3158.767980641609,1198
3160.463207720748,1200
3162.158152414606,1145
3163.8528150422862,1147
3165.5471959229726,1141
3167.2412953759303,1150
3168.9351137204976,1162
3170.628651276098,1170
3172.3219083622307,1151
3174.014885298474,1134
3175.707582404485,1122
3177.4000000000005,1179
3179.092138404835,1127
3180.7839979388846,1153
3182.47557892212,1112
3184.166881674594,1154
3185.8579065164386,1125
3187.5486537678626,1171
3189.2391237491547,1166
3190.9293167806827,1180
3192.6192331828934,1133
3194.3088732763117,1124
3195.998237381542,1171
3197.687325819268,1120
3199.376138910251,1106
3201.064676975334,1191
3202.7529403354347,1143
3204.4409293115523,1161
3206.1286442247647,1125
3207.816085396229,1189
3209.5032531471825,1115
3211.190147798936,1087
3212.8767696728846,1143
3214.5631190905015,1167
3216.2491963733373,1106
3217.9350018430214,1131
3219.6205358212637,1074
3221.305798629851,1113
3222.990790590651,1161
3224.6755120256103,1136
3226.359963256751,1128
3228.0441446061795,1128
3229.7280563960758,1129
3231.411698948703,1158
3233.0950725863995,1109
3234.778177631587,1119
3236.461014406761,1102
3238.1435832345005,1149
3239.8258844374595,1163
3241.507918338374,1185
3243.1896852600576,1118
3244.8711855254023,1088
3246.552419457381,1120
3248.233387379042,1132
3249.914089613516,1105
3251.59452648401,1085
3253.274698313813,1125
3254.95460542629,1139
3256.6342481448855,1146
3258.313626793125,1144
3259.9927416946084,1090
3261.6715931730196,1118
3263.3501815521176,1116
3265.0285071557437,1077
3266.706570307815,1153
3268.3843713323286,1133
3270.0619105533615,1120
3271.739188295068,1161
3273.4162048816834,1175
3275.0929606375184,1180
3276.769455886966,1086
3278.445690954498,1155
3280.1216661646613,1110
3281.797381842087,1137
3283.4728383114807,1149
3285.1480358976296,1101
3286.8229749253996,1132
3288.4976557197333,1141
3290.172078605655,1163
3291.846243908266,1107
3293.5201519527463,1064
3295.193803064357,1150
3296.8671975684374,1132
3298.5403357904024,1133
3300.21321805575,1165
3301.8858446900567,1168
3303.558216018975,1099
3305.23033236824,1138
3306.9021940636603,1123
3308.57380143113,1166
3310.2451547966184,1115
3311.916254486174,1158
3313.5871008259246,1147
3315.2576941420766,1073
3316.9280347609147,1157
3318.5981230088046,1109
3320.2679592121895,1135
3321.9375436975924,1137
3323.606876791612,1126
3325.27595882093,1075
3326.944790112305,1101
3328.6133709925753,1138
3330.2817017886573,1108
3331.949782827547,1125
3333.617614436319,1153
3335.2851969421245,1158
3336.952530672199,1103
3338.619615953853,1138
3340.286453114475,1119
3341.9530424815357,1148
3343.619384382583,1117
3345.2854791452437,1145
3346.951327097224,1147
3348.6169285663073,1087
3350.2822838803577,1147
3351.947393367319,1141
3353.61225735521,1156
3355.2768761721345,1132
3356.9412501462693,1125
3358.605379605873,1142
3360.2692648792827,1096
3361.9329062949146,1106
3363.596304181263,1132
