CollectionTime,6/28/2024 3:09:14 PM
ExposureUsed,3
CalibratedSpectrum
-962.7078968117929,518
-959.9714848408522,553
-957.2358232597828,567
-954.5009119013725,523
-951.7667505983302,554
-949.0333391832855,563
-946.3006774887896,559
-943.5687653473143,559
-940.837602591253,562
-938.1071890529199,569
-935.3775245645503,584
-932.6486089583007,556
-929.9204420662485,567
-927.1930237203925,542
-924.4663537526524,604
-921.7404319948689,576
-919.0152582788041,589
-916.2908324361409,625
-913.5671542984834,612
-910.8442236973568,600
-908.1220404642074,573
-905.4006044304027,575
-902.679915427231,620
-899.959973285902,588
-897.2407778375464,610
-894.5223289132158,582
-891.8046263438832,552
-889.0876699604426,558
-886.3714595937089,555
-883.6559950744183,562
-880.9412762332282,529
-878.2273029007168,529
-875.5140749073835,539
-872.8015920836489,518
-870.0898542598545,493
-867.3788612662631,493
-864.6686129330585,519
-861.9591090903457,547
-859.2503495681506,506
-856.5423341964203,529
-853.8350628050229,541
-851.1285352237478,543
-848.4227512823054,552
-845.7177108103272,542
-843.0134136373656,526
-840.3098595928943,541
-837.6070485063082,544
-834.9049802069229,548
-832.2036545239757,496
-829.5030712866244,537
-826.8032303239481,530
-824.1041314649472,525
-821.4057745385428,532
-818.7081593735775,520
-816.0112857988148,552
-813.3151536429393,542
-810.6197627345566,537
-807.9251129021936,526
-805.2312039742981,525
-802.5380357792392,543
-799.8456081453069,516
-797.1539209007124,538
-794.462973873588,563
-791.772766891987,562
-789.083299783884,548
-786.3945723771743,536
-783.7065844996748,517
-781.0193359791231,544
-778.3328266431781,602
-775.6470563194197,569
-772.9620248353489,552
-770.2777320183878,538
-767.5941776958798,555
-764.9113616950891,554
-762.2292838432011,514
-759.5479439673222,532
-756.8673418944801,570
-754.1874774516235,552
-751.5083504656222,526
-748.8299607632671,590
-746.15230817127,571
-743.475392516264,564
-740.7992136248035,538
-738.1237713233636,563
-735.4490654383407,561
-732.7750957960521,574
-730.1018622227365,586
-727.4293645445534,571
-724.7576025875837,573
-722.0865761778291,566
-719.4162851412126,569
-716.7467293035781,560
-714.0779084906909,568
-711.409822528237,579
-708.7424712418238,566
-706.0758544569796,538
-703.4099719991541,572
-700.7448236937178,559
-698.0804093659622,552
-695.4167288411002,544
-692.7537819442656,571
-690.0915685005134,533
-687.4300883348199,554
-684.7693412720819,566
-682.1093271371178,520
-679.4500457546669,550
-676.7914969493897,583
-674.1336805458676,545
-671.4765963686034,604
-668.8202442420206,621
-666.1646239904642,634
-663.5097354382001,566
-660.8555784094151,589
-658.2021527282176,641
-655.5494582186366,596
-652.8974947046223,656
-650.2462620100463,653
-647.5957599587009,633
-644.9459883742998,679
-642.2969470804776,648
-639.6486359007902,679
-637.0010546587141,701
-634.3542031776476,701
-631.7080812809096,621
-629.0626887917401,637
-626.4180255333008,605
-623.7740913286734,631
-621.1308860008619,628
-618.4884093727904,634
-615.8466612673046,630
-613.2056415071715,634
-610.5653499150785,635
-607.9257863136347,628
-605.28695052537,620
-602.6488423727357,618
-600.0114616781036,649
-597.3748082637674,628
-594.7388819519412,648
-592.1036825647604,656
-589.4692099242818,631
-586.8354638524829,617
-584.2024441712624,633
-581.5701507024403,601
-578.9385832677575,657
-576.3077416888759,689
-573.6776257873787,656
-571.0482353847704,659
-568.4195703024757,720
-565.7916303618415,693
-563.164415384135,680
-560.5379251905453,652
-557.9121596021815,640
-555.2871184400748,627
-552.6628015251767,676
-550.0392086783606,670
-547.4163397204204,693
-544.794194472071,683
-542.1727727539491,703
-539.5520743866118,721
-536.9320991905377,726
-534.3128469861261,793
-531.6943175936979,838
-529.0765108334947,825
-526.4594265256793,926
-523.8430644903358,1049
-521.2274245474689,1161
-518.612506517005,1383
-515.9983102187913,1518
-513.3848354725959,1602
-510.77208209810846,1809
-508.16004991493924,2052
-505.5487387426199,2192
-502.9381484006032,2380
-500.3282787082628,2485
-497.71912948489364,2477
-495.1107005497117,2368
-492.5029917218539,2065
-489.8960028203786,1742
-487.28973366426493,1400
-484.68418407241325,1177
-482.07935386364494,1075
-479.47524285670266,1024
-476.87185087025,1003
-474.2691777228715,977
-471.66722323307334,1007
-469.0659872192821,1008
-466.4654694998459,896
-463.86566989303384,953
-461.26658821703614,892
-458.66822428996414,916
-456.07057792985,890
-453.4736489546475,863
-450.877437182231,887
-448.28194243039627,879
-445.68716451686,872
-443.09310325926003,842
-440.49975847515555,837
-437.9071299820263,858
-435.31521759727354,876
-432.72402113821954,891
-430.13354042210767,907
-427.5437752661022,1003
-424.95472548728867,931
-422.36639090267386,965
-419.7787713291855,943
-417.1918665836721,880
-414.60567648290385,912
-412.0202008435715,897
-409.4354394822874,947
-406.8513922155845,938
-404.26805885991723,1038
-401.685439231661,1042
-399.103533147112,994
-396.522340422488,941
-393.9418608739278,906
-391.3620943174908,927
-388.7830405691583,937
-386.2046994448317,890
-383.6270707603344,900
-381.05015433141045,826
-378.473949973725,726
-375.8984575028645,779
-373.32367673433623,740
-370.74960748356875,729
-368.1762495659117,660
-365.60360279663576,632
-363.03166699093265,654
-360.4604419639154,595
-357.8899275306178,556
-355.32012350599507,549
-352.7510297049233,574
-350.1826459421999,558
-347.61497203254316,540
-345.04800779059235,532
-342.4817530309082,526
-339.91620756797226,511
-337.35137121618743,503
-334.7872437898774,557
-332.22382510328725,527
-329.66111497058273,614
-327.09911320585127,614
-324.53781962310075,609
-321.9772340362607,675
-319.4173562591816,653
-316.8581861056348,651
-314.2997233893127,625
-311.7419679238294,622
-309.1849195227194,625
-306.62857799943856,550
-304.0729431673641,540
-301.51801483979375,555
-298.963792829947,650
-296.41027695096386,694
-293.85746701590574,709
-291.3053628377552,735
-288.7539642294155,660
-286.2032710037115,638
-283.65328297338897,666
-281.1039999511146,683
-278.5554217494762,601
-276.007548180983,617
-273.4603790580651,725
-270.9139141930734,646
-268.3681533982807,669
-265.8230964858798,665
-263.27874326798565,701
-260.7350935566336,827
-258.1921471637804,751
-255.6499039013039,663
-253.10836358100266,608
-250.56752601459698,657
-248.02739101372765,809
-245.48795838995704,930
-242.94922795476816,870
-240.41119951956557,853
-237.8738728956746,834
-235.33724789434166,881
-232.80132432673452,1051
-230.2661020039418,1016
-227.73158073697357,786
-225.19776033676033,769
-222.66464061415422,826
-220.1322213799284,864
-217.60050244477725,863
-215.06948361931552,835
-212.53916471408013,860
-210.00954553952818,949
-207.48062590603843,1006
-204.9524056239104,1003
-202.4248845033651,895
-199.8980623545441,818
-197.37193898751036,774
-194.84651421224817,823
-192.32178783866232,995
-189.79775967657952,1018
-187.27442953574644,929
-184.7517972258321,890
-182.2298625564256,916
-179.7086253370378,988
-177.18808537710026,965
-174.66824248596583,908
-172.14909647290835,1012
-169.6306471471229,1034
-167.11289431772548,1052
-164.59583779375328,1001
-162.07947738416453,1087
-159.5638128978386,1150
-157.04884414357605,1276
-154.53457093009854,1257
-152.02099306604828,1230
-149.50811035998936,1250
-146.99592262040665,1158
-144.48442965570587,1097
-141.97363127421409,1226
-139.46352728417958,1196
-136.95411749377126,1191
-134.44540171107985,1405
-131.93737974411636,1384
-129.43005140081357,1398
-126.92341648902493,1444
-124.41747481652521,1520
-121.91222619101006,1549
-119.40767042009657,1436
-116.90380731132257,1554
-114.40063667214702,1676
-111.8981583099503,1591
-109.3963720320337,1785
-106.89527764561933,1890
-104.39487495785067,2023
-101.89516377579241,1840
-99.39614390642998,1788
-96.89781515667039,1829
-94.40017733334128,2122
-91.90323024319173,2145
-89.40697369289148,2208
-86.91140748903172,2126
-84.41653143812482,2172
-81.92234534660395,2154
-79.42884902082358,2326
-76.93604226705907,2398
-74.4439248915071,2165
-71.95249670028534,2075
-69.46175749943245,2142
-66.97170709490854,2939
-64.48234529259423,3397
-61.99367189829195,2628
-59.50568671772464,2683
-57.01838955653636,3229
-54.53178022029283,3583
-52.045858514480074,3470
-49.560624244506016,3450
-47.07607721569923,3665
-44.59221723330904,3449
-42.10904410250669,3348
-39.62655762838392,4476
-37.14475761595372,5993
-34.66364387015028,6662
-32.18321619582866,6888
-29.70347439776515,7351
-27.224418280657005,9099
-24.74604764912317,13279
-22.26836230770266,21586
-19.7913620608565,36169
-17.315046712966478,48822
-14.83941606833514,65029
-12.36446993118659,65029
-9.89020810566592,65029
-7.416630395839093,65029
-4.94373660569363,65029
-2.471526539137585,65029
-6.821210263296962E-13,65029
2.47084320796705,65029
4.941003281093458,65029
7.410480415786196,65029
9.879274808531363,65029
12.347386655893956,65029
14.814816154518212,65029
17.28156350112681,65029
19.74762889252179,65029
22.21301252558385,65029
24.67771459727237,65029
27.141735304626195,45167
29.605074844762612,18948
32.06773341487792,12993
34.52971121224755,9085
36.99100843422559,8054
39.45162527824516,8269
41.91156194181792,7511
44.370818622535126,10114
46.82939551806646,12719
49.287292826160524,13344
51.74451074464503,13565
54.201049471426245,11384
56.65690920448981,8179
59.112090141899785,5406
61.56659248179983,4166
64.02041642241159,3632
66.4735621620365,3616
68.92602989905402,2865
71.37781983192338,2700
73.82893215918205,3042
76.27936707944684,3536
78.72912479141326,3470
81.17820549385567,3070
83.62660938562783,2731
86.07433666566146,2590
88.5213875329681,2576
90.96776218663751,2622
93.41346082583925,2292
95.85848364982041,2129
98.30283085790859,2198
100.7465026495089,2387
103.18949922410604,2137
105.63182078126385,2282
108.07346752062438,2297
110.51443964190923,1861
112.95473734491827,1723
115.39436082953114,1634
117.83331029570547,1946
120.27158594347827,1799
122.7091879729652,1665
125.1461165843615,1642
127.58237197794062,1919
130.01795435405518,1609
132.4528639131364,1456
134.88710085569494,1445
137.32066538231982,1586
139.75355769367923,1546
142.1857779905207,1711
144.61732647366978,1771
147.04820334403132,1715
149.47840880258934,1486
151.90794305040674,1686
154.33680628862487,1836
156.76499871846443,1677
159.19252054122433,1776
161.61937195828352,1681
164.04555317109896,1785
166.47106438120693,2033
168.89590579022217,2343
171.320077599839,2330
173.7435800118302,2283
176.16641322804742,2264
178.58857745042144,2267
181.01007288096173,2184
183.43089972175687,2245
185.85105817497413,2209
188.27054844285988,2346
190.6893707277394,2322
193.10752523201643,2346
195.5250121581745,2322
197.9418317087751,2402
200.3579840864594,2486
202.7734694939469,2529
205.18828813403627,2465
207.6024402096051,2409
210.01592592360964,2462
212.42874547908548,2407
214.84089907914665,2305
217.2523869269868,2332
219.66320922587727,2487
222.0733661791695,2505
224.48285799029293,2415
226.8916848627572,2511
229.29984700014882,2681
231.7073446061355,2735
234.11417788446204,2579
236.520347038953,2709
238.92585227351185,2702
241.33069379212054,2650
243.73487179884035,2520
246.1383864978112,2611
248.541238093252,2522
250.9434267894609,2585
253.34495279081432,2637
255.74581630176783,2614
258.1460175268563,2636
260.54555667069314,2596
262.9444339379703,2451
265.3426495334594,2556
267.7402036620107,2616
270.1370965285529,2469
272.53332833809407,2561
274.9288992957214,2606
277.32380960660055,2553
279.718059475976,2569
282.1116491091717,2681
284.5045787115897,2561
286.89684848871195,2464
289.2884586460981,2460
291.67940938938807,2582
294.0697009242996,2575
296.4593334566299,2577
298.84830719225477,2554
301.23662233712923,2529
303.6242790972866,2575
306.01127767884,2597
308.39761828798066,2571
310.78330113097934,2493
313.16832641418534,2516
315.5526943440269,2449
317.9364051270112,2313
320.3194589697242,2380
322.70185607883093,2280
325.0835966610754,2342
327.4646809232805,2215
329.8451090723478,2231
332.2248813152577,2231
334.6039978590701,2258
336.9824589109231,2199
339.36026467803447,2278
341.7374153677,2280
344.113911187295,2177
346.48975234427337,2092
348.8649390461686,2081
351.2394715005918,2156
353.61334991523415,2101
355.9865744978655,2140
358.35914545633375,2161
360.73106299856715,2136
363.10232733257146,2078
365.47293866643247,2143
367.84289720831396,2082
370.2122031664593,2135
372.5808567491905,2104
374.9488581649083,2096
377.31620762209275,2036
379.6829053293021,2040
382.0489514951745,2005
384.4143463284262,2082
386.7790900378528,1952
389.14318283232853,2043
391.50662492080653,2019
393.86941651231916,1977
396.23155781597745,1975
398.5930490409713,1864
400.9538903965696,1930
403.3140820921202,1960
405.6736243370498,1939
408.03251734086336,1969
410.3907613131465,1993
412.74835646356166,1973
415.10530300185144,1985
417.4616011378372,1979
419.81725108141893,2077
422.1722530425758,1914
424.5266072313656,1998
426.880313857925,1978
429.2333731324701,1905
431.58578526529516,1928
433.9375504667738,1931
436.2886689473588,1885
438.63914091758113,1877
440.9889665880513,1849
443.33814616945835,1826
445.68667987257015,1883
448.03456790823395,1839
450.3818104873759,1891
452.72840782100013,1830
455.07436012019105,1827
457.41966759611057,1823
459.7643304600007,1859
462.10834892318155,1911
464.4517231970525,1916
466.79445349309174,1874
469.1365400228566,1966
471.4779829979826,1918
473.81878263018564,2045
476.15893913125876,2030
478.4984527130747,2083
480.8373235875855,2078
483.17555196682144,2127
485.5131380628919,2140
487.8500820879857,2362
490.1863842543697,2423
492.52204477439034,2674
494.8570638604725,3042
497.1914417251204,3405
499.52517858091653,3963
501.85827464052306,4334
504.19073011668036,4571
506.5225452222086,4734
508.85372017000566,4636
511.18425517304956,4567
513.514150444396,4546
515.8434061971808,4909
518.1720226446176,5143
520.4999999999999,5462
522.8273384766991,5588
525.1540382881666,5716
527.480099647932,5219
529.8055227696037,4110
532.1303078668694,2998
534.454455153496,2328
536.777964843328,1975
539.1008371502907,1930
541.4230722883866,1893
543.744670471698,1954
546.0656319143858,1809
548.3859568306899,1801
550.7056454349294,1775
553.0246979415016,1726
555.3431145648834,1684
557.6608955196306,1700
559.978041020377,1700
562.2945512818363,1702
564.6104265188006,1679
566.9256669461412,1666
569.2402727788082,1680
571.5542442318302,1669
573.8675815203156,1666
576.1802848594508,1648
578.4923544645015,1643
580.8037905508126,1641
583.114593333807,1726
585.4247630289875,1721
587.7342998519354,1659
590.0432040183106,1635
592.3514757438526,1665
594.6591152443794,1644
596.9661227357875,1659
599.2724984340531,1732
601.578242555231,1737
603.8833553154542,1730
606.1878369309362,1635
608.4916876179676,1750
610.7949075929192,1754
613.0974970722403,1758
615.3994562724587,1642
617.7007854101818,1740
620.0014847020951,1687
622.3015543649641,1733
624.6009946156324,1698
626.8998056710224,1637
629.1979877481361,1727
631.4955410640538,1706
633.7924658359349,1672
636.0887622810175,1628
638.3844306166192,1677
640.6794710601358,1711
642.9738838290426,1697
645.2676691408932,1689
647.5608272133207,1615
649.853358264037,1636
652.1452625108324,1687
654.4365401715764,1697
656.7271914642178,1728
659.0172166067838,1704
661.3066158173809,1672
663.5953893141935,1723
665.8835373154867,1719
668.1710600396028,1678
670.4579577049639,1667
672.7442305300709,1708
675.0298787335033,1756
677.3149025339197,1790
679.599302150058,1731
681.8830778007342,1763
684.1662297048437,1781
686.4487580813608,1728
688.7306631493387,1710
691.0119451279091,1710
693.2926042362834,1758
695.5726406937516,1724
697.8520547196814,1701
700.1308465335215,1748
702.4090163547982,1673
704.6865644031171,1693
706.9634908981619,1756
709.2397960596965,1682
711.5154801075631,1767
713.7905432616823,1701
716.0649857420548,1768
718.3388077687592,1746
720.612009561953,1700
722.8845913418733,1729
725.1565533288352,1615
727.427895743234,1748
729.6986188055427,1708
731.9687227363137,1713
734.238207756178,1704
736.5070740858458,1707
738.7753219461066,1713
741.0429515578281,1742
743.3099631419569,1756
745.5763569195191,1780
747.8421331116193,1758
750.1072919394409,1715
752.3718336242467,1694
754.6357583873777,1681
756.8990664502545,1717
759.1617580343765,1721
761.423833361321,1774
763.6852926527457,1778
765.9461361303862,1749
768.206364016058,1764
770.4659765316536,1741
772.7249738991469,1731
774.9833563405886,1775
777.2411240781092,1739
779.4982773339183,1721
781.7548163303044,1771
784.010741289634,1784
786.2660524343538,1801
788.5207499869881,1758
790.7748341701416,1762
793.0283052064964,1746
795.2811633188143,1799
797.5334087299362,1750
799.7850416627813,1822
802.0360623403484,1774
804.2864709857143,1851
806.5362678220353,1791
808.7854530725468,1798
811.0340269605625,1815
813.2819897094754,1743
815.5293415427581,1752
817.77608268396,1742
820.0222133567116,1750
822.2677337847211,1719
824.5126441917765,1763
826.7569448017433,1743
829.0006358385675,1766
831.2437175262731,1781
833.4861900889629,1859
835.7280537508192,1705
837.9693087361026,1813
840.2099552691533,1723
842.4499935743896,1717
844.689423876309,1760
846.9282463994886,1740
849.1664613685833,1771
851.4040690083276,1803
853.6410695435349,1790
855.877463199097,1727
858.1132501999847,1720
860.3484307712487,1743
862.5830051380175,1781
864.8169735254988,1767
867.0503361589791,1811
869.2830932638243,1813
871.5152450654786,1833
873.7467917894654,1793
875.9777336613873,1816
878.2080709069252,1796
880.4378037518389,1854
882.666932421968,1775
884.8954571432301,1825
887.1233781416219,1817
889.3506956432192,1789
891.5774098741766,1839
893.803521060728,1807
896.0290294291852,1764
898.2539352059397,1846
900.4782386174619,1854
902.7019398903011,1813
904.925039251085,1809
907.147536926521,1845
909.3694331433943,1811
911.59072812857,1785
913.8114221089921,1854
916.0315153116827,1798
918.2510079637437,1855
920.4699002923547,1837
922.6881925247761,1802
924.905884888345,1775
927.1229776104793,1795
929.3394709186747,1799
931.555365040506,1825
933.7706602036275,1805
935.9853566357709,1776
938.1994545647489,1814
940.4129542184515,1792
942.6258558248488,1833
944.8381596119883,1742
947.0498658079974,1837
949.2609746410825,1801
951.4714863395287,1862
953.6814011316998,1806
955.8907192460387,1810
958.0994409110671,1772
960.3075663553858,1788
962.5150958076741,1763
964.7220294966913,1775
966.928367651274,1752
969.1341105003388,1646
971.3392582728806,1709
973.5438111979742,1685
975.747769504772,1618
977.9511334225061,1668
980.153903180487,1704
982.3560790081052,1667
984.5576611348289,1773
986.7586497902058,1711
988.9590452038618,1636
991.158847605503,1580
993.3580572249133,1550
995.5566742919558,1500
997.7546990365728,1532
999.952131688785,1522
1002.1489724786926,1481
1004.3452216364743,1475
1006.5408793923874,1451
1008.7359459767691,1470
1010.9304216200343,1510
1013.1243065526781,1432
1015.3176010052733,1422
1017.510305208472,1460
1019.7024193930064,1371
1021.8939437896848,1407
1024.0848786293977,1367
1026.2752241431122,1383
1028.4649805618747,1366
1030.6541481168115,1380
1032.842727039127,1304
1035.0307175601051,1380
1037.2181199111074,1321
1039.4049343235752,1335
1041.591161029029,1371
1043.7768002590683,1320
1045.9618522453698,1362
1048.1463172196918,1373
1050.3301954138697,1378
1052.513487059818,1374
1054.69619238953,1298
1056.8783116350783,1336
1059.0598450286152,1272
1061.2407928023704,1353
1063.4211551886528,1329
1065.6009324198508,1333
1067.780124728432,1324
1069.9587323469414,1292
1072.1367555080046,1317
1074.314194444325,1305
1076.4910493886855,1337
1078.667320573947,1293
1080.843008233051,1293
1083.0181125990161,1341
1085.1926339049414,1279
1087.3665723840027,1314
1089.5399282694575,1255
1091.7127017946405,1242
1093.8848931929647,1246
1096.0565026979243,1183
1098.2275305430899,1235
1100.3979769621128,1287
1102.567842188722,1289
1104.737126456726,1258
1106.9058300000124,1205
1109.0739530525475,1242
1111.2414958483764,1299
1113.4084586216231,1209
1115.5748416064907,1261
1117.7406450372605,1249
1119.9058691482942,1178
1122.0705141740304,1219
1124.2345803489884,1255
1126.3980679077658,1262
1128.5609770850388,1242
1130.7233081155623,1258
1132.8850612341707,1231
1135.0462366757774,1204
1137.2068346753745,1183
1139.3668554680326,1227
1141.526299288901,1206
1143.68516637321,1232
1145.8434569562655,1224
1148.001171273455,1225
1150.158309560244,1233
1152.3148720521767,1158
1154.470858984876,1256
1156.626270594044,1220
1158.7811071154629,1196
1160.9353687849912,1226
1163.089055838569,1228
1165.242168512213,1258
1167.3947070420209,1269
1169.5466716641677,1266
1171.6980626149075,1201
1173.8488801305748,1184
1175.9991244475814,1146
1178.1487958024186,1185
1180.2978944316555,1214
1182.4464205719428,1156
1184.5943744600072,1212
1186.7417563326567,1209
1188.8885664267755,1182
1191.0348049793297,1181
1193.1804722273619,1137
1195.325568407995,1229
1197.4700937584303,1206
1199.614048515948,1186
1201.7574329179074,1223
1203.900247201746,1182
1206.042491604982,1204
1208.1841663652099,1198
1210.3252717201053,1275
1212.465807907422,1187
1214.6057751649923,1167
1216.7451737307279,1195
1218.8840038426192,1175
1221.0222657387353,1195
1223.1599596572241,1236
1225.2970858363137,1228
1227.4336445143094,1214
1229.5696359295966,1172
1231.705060320639,1222
1233.8399179259786,1241
1235.9742089842384,1260
1238.107933734118,1236
1240.2410924143974,1274
1242.373685263935,1191
1244.5057125216676,1199
1246.6371744266116,1227
1248.7680712178621,1203
1250.898403134593,1245
1253.028170416058,1238
1255.1573733015875,1235
1257.2860120305932,1234
1259.4140868425648,1257
1261.54159797707,1253
1263.6685456737569,1261
1265.7949301723515,1232
1267.9207517126597,1196
1270.046010534565,1216
1272.1707068780306,1208
1274.2948409830983,1226
1276.4184130898889,1268
1278.541423438603,1228
1280.6638722695184,1226
1282.785759822993,1230
1284.9070863394636,1199
1287.0278520594447,1234
1289.1480572235314,1203
1291.2677020723963,1196
1293.3867868467923,1222
1295.5053117875495,1240
1297.623277135579,1249
1299.740683131868,1254
1301.8575300174857,1215
1303.973818033578,1282
1306.0895474213703,1293
1308.2047184221678,1243
1310.3193312773528,1230
1312.4333862283888,1232
1314.5468835168163,1212
1316.659823384255,1272
1318.7722060724045,1255
1320.8840318230418,1264
1322.9953008780249,1288
1325.1060134792888,1281
1327.2161698688478,1288
1329.3257702887959,1319
1331.4348149813054,1250
1333.5433041886276,1276
1335.6512381530933,1244
1337.7586171171101,1272
1339.8654413231675,1258
1341.9717110138317,1247
1344.0774264317488,1265
1346.1825878196432,1245
1348.2871954203192,1258
1350.3912494766587,1292
1352.4947502316231,1225
1354.5976979282532,1252
1356.7000928096686,1216
1358.8019351190665,1216
1360.9032250997243,1238
1363.0039629949988,1263
1365.1041490483235,1277
1367.2037835032133,1261
1369.3028666032606,1231
1371.401398592137,1278
1373.4993797135926,1250
1375.5968102114575,1263
1377.6936903296396,1225
1379.7900203121262,1311
1381.8858004029835,1268
1383.9810308463561,1226
1386.075711886469,1287
1388.1698437676241,1253
1390.2634267342032,1247
1392.356461030667,1279
1394.4489469015557,1227
1396.5408845914872,1274
1398.6322743451592,1347
1400.7231164073469,1250
1402.813411022907,1229
1404.903158436773,1244
1406.9923588939578,1246
1409.0810126395531,1236
1411.1691199187303,1296
1413.2566809767386,1283
1415.343696058907,1256
1417.4301654106425,1239
1419.5160892774315,1234
1421.6014679048399,1312
1423.6863015385125,1282
1425.7705904241707,1221
1427.8543348076178,1311
1429.9375349347342,1248
1432.0201910514802,1221
1434.102303403894,1267
1436.1838722380944,1277
1438.2648978002767,1260
1440.3453803367174,1251
1442.4253200937692,1276
1444.5047173178677,1296
1446.5835722555234,1239
1448.6618851533285,1265
1450.739656257952,1272
1452.8168858161434,1278
1454.8935740747306,1211
1456.96972128062,1310
1459.045327680797,1286
1461.120393522327,1267
1463.1949190523528,1280
1465.2689045180973,1324
1467.3423501668608,1351
1469.415256246024,1329
1471.4876230030463,1314
1473.559450685465,1317
1475.6307395408976,1285
1477.7014898170391,1281
1479.771701761665,1259
1481.8413756226287,1315
1483.9105116478618,1351
1485.9791100853772,1340
1488.0471711832643,1333
1490.1146951896926,1343
1492.1816823529098,1268
1494.2481329212433,1366
1496.3140471430984,1349
1498.3794252669609,1307
1500.4442675413939,1355
1502.5085742150404,1356
1504.572345536622,1340
1506.6355817549388,1392
1508.6982831188702,1316
1510.7604498773744,1347
1512.8220822794883,1353
1514.8831805743293,1380
1516.9437450110909,1343
1519.003775839048,1412
1521.0632733075522,1333
1523.1222376660367,1333
1525.1806691640113,1382
1527.2385680510652,1434
1529.2959345768668,1391
1531.3527689911643,1346
1533.4090715437833,1363
1535.4648424846291,1397
1537.5200820636855,1372
1539.5747905310159,1413
1541.6289681367616,1472
1543.6826151311434,1450
1545.7357317644614,1515
1547.7883182870937,1491
1549.8403749494987,1425
1551.8919020022113,1478
1553.9428996958477,1476
1555.9933682811015,1466
1558.0433080087469,1507
1560.0927191296346,1567
1562.1416018946961,1559
1564.1899565549415,1530
1566.2377833614592,1585
1568.2850825654164,1599
1570.3318544180606,1556
1572.3780991707158,1595
1574.423817074788,1570
1576.4690083817595,1604
1578.5136733431923,1592
1580.5578122107272,1570
1582.601425236085,1493
1584.6445126710646,1510
1586.6870747675434,1473
1588.7291117774776,1498
1590.7706239529034,1389
1592.8116115459347,1369
1594.8520748087658,1393
1596.8920139936686,1359
1598.9314293529933,1364
1600.9703211391711,1354
1603.008689604711,1311
1605.0465350022005,1319
1607.0838575843068,1299
1609.1206576037753,1297
1611.1569353134305,1275
1613.1926909661765,1275
1615.2279248149953,1259
1617.2626371129481,1282
1619.2968281131757,1311
1621.3304980688963,1288
1623.3636472334088,1315
1625.39627586009,1242
1627.428384202396,1314
1629.459972513861,1283
1631.4910410480993,1295
1633.5215900588028,1268
1635.551619799744,1285
1637.5811305247717,1235
1639.6101224878166,1289
1641.6385959428862,1281
1643.6665511440683,1254
1645.693988345528,1235
1647.7209078015112,1232
1649.7473097663405,1287
1651.7731944944203,1236
1653.7985622402307,1224
1655.823413258333,1257
1657.847747803366,1235
1659.8715661300494,1189
1661.8948684931793,1279
1663.9176551476316,1243
1665.9399263483624,1240
1667.9616823504057,1221
1669.982923408873,1195
1672.0036497789574,1231
1674.0238617159293,1227
1676.043559475138,1267
1678.0627433120121,1291
1680.081413482059,1226
1682.0995702408654,1235
1684.117213844096,1234
1686.134344547495,1250
1688.1509626068864,1231
1690.1670682781705,1206
1692.182661817329,1201
1694.1977434804217,1195
1696.2123135235875,1194
1698.226372203043,1198
1700.2399197750851,1196
1702.2529564960905,1182
1704.2654826225112,1188
1706.277498410882,1251
1708.2890041178139,1246
1710.2999999999988,1281
1712.3104863142066,1231
1714.3204633172854,1270
1716.329931266163,1214
1718.3388904178469,1238
1720.3473410294214,1263
1722.3552833580516,1190
1724.3627176609807,1233
1726.3696441955308,1284
1728.3760632191033,1194
1730.3819749891782,1259
1732.3873797633146,1216
1734.3922777991502,1151
1736.3966693544012,1244
1738.4005546868639,1272
1740.4039340544127,1240
1742.406807715001,1304
1744.4091759266616,1193
1746.4110389475054,1245
1748.4123970357223,1202
1750.413250449582,1225
1752.4135994474318,1230
1754.4134442876993,1266
1756.4127852288902,1199
1758.4116225295893,1195
1760.4099564484595,1248
1762.407787244244,1212
1764.405115175764,1226
1766.4019405019203,1256
1768.3982634816916,1196
1770.3940843741357,1221
1772.3894034383907,1191
1774.3842209336717,1183
1776.378537119274,1293
1778.372352254571,1201
1780.3656665990156,1229
1782.3584804121397,1193
1784.3507939535534,1216
1786.3426074829463,1224
1788.3339212600863,1245
1790.3247355448211,1189
1792.3150505970766,1195
1794.3048666768573,1250
1796.2941840442477,1261
1798.2830029594106,1207
1800.2713236825884,1201
1802.2591464741004,1266
1804.2464715943465,1276
1806.2332993038058,1222
1808.2196298630352,1228
1810.2054635326708,1216
1812.190800573428,1162
1814.175641246101,1185
1816.1599858115628,1223
1818.1438345307652,1224
1820.127187664738,1216
1822.1100454745924,1204
1824.092408221516,1209
1826.0742761667766,1230
1828.055649571721,1220
1830.0365286977735,1231
1832.0169138064398,1261
1833.9968051593014,1256
1835.9762030180214,1257
1837.9551076443408,1194
1839.9335193000788,1219
1841.9114382471344,1197
1843.888864747485,1228
1845.8657990631878,1248
1847.842241456378,1205
1849.8181921892697,1214
1851.7936515241558,1217
1853.7686197234098,1168
1855.7430970494815,1205
1857.7170837649014,1229
1859.6905801322787,1209
1861.6635864143004,1201
1863.6361028737338,1196
1865.608129773424,1206
1867.5796673762961,1229
1869.5507159453537,1216
1871.521275743678,1295
1873.4913470344313,1250
1875.4609300808534,1209
1877.4300251462632,1223
1879.3986324940588,1258
1881.366752387717,1233
1883.3343850907936,1195
1885.3015308669228,1222
1887.268189979819,1202
1889.2343626932739,1236
1891.2000492711595,1248
1893.1652499774254,1249
1895.1299650761011,1245
1897.0941948312952,1263
1899.0579395071945,1242
1901.0211993680641,1242
1902.98397467825,1231
1904.9462657021745,1223
1906.9080727043415,1292
1908.869395949332,1264
1910.8302357018065,1249
1912.790592226504,1204
1914.7504657882428,1207
1916.7098566519212,1229
1918.6687650825133,1257
1920.6271913450764,1221
1922.5851357047422,1218
1924.5425984267245,1272
1926.499579776314,1229
1928.4560800188833,1220
1930.4120994198802,1206
1932.367638244833,1253
1934.32269675935,1252
1936.2772752291175,1253
1938.231373919899,1257
1940.1849930975404,1243
1942.1381330279637,1273
1944.0907939771696,1232
1946.0429762112412,1234
1947.9946799963363,1227
1949.9459055986945,1245
1951.896653284633,1259
1953.8469233205478,1150
1955.7967159729142,1196
1957.7460315082863,1191
1959.6948701932974,1235
1961.6432322946594,1233
1963.5911180791632,1270
1965.5385278136787,1266
1967.4854617651545,1241
1969.4319202006182,1239
1971.377903387176,1241
1973.3234115920136,1268
1975.268445082395,1201
1977.2130041256642,1254
1979.1570889892423,1218
1981.1006999406304,1233
1983.04383724741,1249
1984.986501177238,1209
1986.928691997853,1292
1988.8704099770712,1248
1990.811655382789,1233
1992.7524284829801,1241
1994.692729545698,1208
1996.6325588390755,1228
1998.5719166313224,1209
2000.5108031907307,1249
2002.4492187856677,1227
2004.387163684583,1226
2006.3246381560011,1224
2008.2616424685298,1250
2010.1981768908527,1220
2012.1342416917332,1210
2014.069837140014,1222
2016.0049635046162,1215
2017.9396210545406,1256
2019.8738100588666,1162
2021.8075307867502,1262
2023.740783507431,1232
2025.6735684902228,1251
2027.6058860045214,1278
2029.5377363198004,1257
2031.4691197056118,1248
2033.4000364315875,1244
2035.3304867674374,1235
2037.260470982952,1246
2039.189989347998,1229
2041.1190421325232,1201
2043.047629606554,1250
2044.9757520401945,1228
2046.9034097036288,1208
2048.8306028671195,1233
2050.7573318010086,1245
2052.683596775716,1229
2054.609398061742,1221
2056.5347359296647,1245
2058.4596106501403,1253
2060.384022493906,1256
2062.3079717317764,1229
2064.231458634646,1168
2066.1544834734873,1248
2068.077046519352,1276
2069.99914804337,1240
2071.9207883167524,1233
2073.8419676107865,1192
2075.7626861968406,1267
2077.6829443463607,1245
2079.6027423308715,1247
2081.522080421977,1199
2083.440958891362,1203
2085.359378010786,1217
2087.2773380520907,1232
2089.194839287196,1187
2091.111881988101,1266
2093.0284664268825,1246
2094.9445928756973,1199
2096.86026160678,1212
2098.775472892446,1189
2100.690227005088,1232
2102.604524217178,1254
2104.5183648012676,1230
2106.431749029985,1223
2108.34467717604,1213
2110.2571495122206,1258
2112.169166311393,1228
2114.080727846503,1242
2115.9918343905747,1245
2117.902486216711,1246
2119.8126835980956,1250
2121.722426807987,1233
2123.6317161197285,1255
2125.5405518067364,1254
2127.448934142509,1263
2129.356863400624,1204
2131.264339854737,1263
2133.1713637785815,1255
2135.077935445972,1213
2136.9840551308002,1282
2138.889723107037,1268
2140.7949396487334,1231
2142.699705030018,1292
2144.6040195250994,1210
2146.507883408264,1212
2148.4112969538774,1237
2150.3142604363848,1254
2152.2167741303097,1271
2154.1188383102535,1208
2156.0204532508997,1240
2157.9216192270064,1233
2159.822336513414,1205
2161.7226053850413,1176
2163.622426116884,1241
2165.5217989840185,1279
2167.4207242616,1251
2169.319202224862,1196
2171.2172331491165,1277
2173.1148173097563,1279
2175.0119549822507,1231
2176.90864644215,1254
2178.8048919650823,1231
2180.7006918267534,1226
2182.596046302952,1234
2184.4909556695407,1238
2186.3854202024645,1212
2188.279440177746,1245
2190.173015871487,1234
2192.066147559868,1271
2193.958835519149,1248
2195.851080025667,1203
2197.7428813558417,1243
2199.6342397861667,1219
2201.5251555932186,1202
2203.415629053651,1222
2205.3056604441986,1211
2207.19525004167,1230
2209.084398122958,1249
2210.9731049650327,1239
2212.861370844941,1210
2214.749196039812,1184
2216.636580826851,1231
2218.523525483344,1289
2220.410030286655,1250
2222.296095514226,1252
2224.1817214435805,1225
2226.066908352319,1210
2227.951656518121,1245
2229.835966218746,1263
2231.71983773203,1246
2233.6032713358913,1215
2235.486267308324,1215
2237.3688259274036,1237
2239.2509474712824,1185
2241.132632218193,1282
2243.013880446447,1268
2244.8946924344323,1264
2246.7750684606203,1229
2248.6550088035574,1263
2250.534513741871,1209
2252.413583554265,1201
2254.292218519526,1238
2256.170418916517,1237
2258.0481850241786,1247
2259.925517121534,1203
2261.8024154876825,1229
2263.678880401803,1210
2265.5549121431536,1223
2267.430510991071,1232
2269.305677224971,1217
2271.180411124348,1249
2273.0547129687766,1213
2274.9285830379076,1244
2276.8020216114737,1218
2278.6750289692845,1213
2280.5476053912294,1213
2282.4197511572766,1203
2284.2914665474727,1269
2286.162751841943,1229
2288.0336073208937,1216
2289.904033264608,1249
2291.774029953448,1219
2293.6435976678554,1232
2295.5127366883517,1255
2297.381447295534,1248
2299.2497297700825,1210
2301.1175843927526,1265
2302.9850114443825,1246
2304.852011205885,1197
2306.7185839582553,1215
2308.5847299825664,1231
2310.4504495599676,1247
2312.3157429716925,1240
2314.1806104990483,1222
2316.0450524234247,1258
2317.9090690262888,1253
2319.772660589186,1220
2321.635827393742,1238
2323.498569721661,1289
2325.3608878547248,1253
2327.2227820747967,1195
2329.0842526638157,1210
2330.945299903803,1242
2332.805924076857,1272
2334.6661254651535,1275
2336.525904350951,1242
2338.3852610165827,1259
2340.244195744464,1247
2342.102708817088,1213
2343.9608005170253,1219
2345.8184711269287,1223
2347.675720929526,1279
2349.532550207628,1236
2351.38895924412,1266
2353.24494832197,1227
2355.100517724223,1236
2356.955667734004,1233
2358.810398634514,1260
2360.664710709037,1248
2362.5186042409337,1245
2364.3720795136437,1219
2366.225136810686,1225
2368.0777764156583,1249
2369.929998612237,1259
2371.7818036841777,1281
2373.633191915315,1273
2375.484163589562,1264
2377.3347189909114,1264
2379.184858403434,1313
2381.03458211128,1190
2382.8838903986775,1264
2384.732783549936,1205
2386.5812618494406,1244
2388.4293255816588,1300
2390.2769750311327,1303
2392.1242104824883,1225
2393.971032220427,1268
2395.8174405297295,1258
2397.6634356952563,1241
2399.509018001947,1222
2401.3541877348193,1265
2403.1989451789705,1248
2405.043290619576,1282
2406.8872243418905,1270
2408.730746631247,1254
2410.5738577730594,1295
2412.4165580528183,1273
2414.258847756095,1257
2416.100727168537,1322
2417.9421965758734,1252
2419.783256263912,1210
2421.623906518538,1214
2423.4641476257157,1278
2425.303979871491,1273
2427.143403541984,1243
2428.9824189233977,1239
2430.821026302012,1242
2432.6592259641866,1304
2434.497018196361,1275
2436.33440328505,1243
2438.171381516851,1290
2440.00795317844,1240
2441.844118556569,1288
2443.6798779380724,1258
2445.5152316098606,1256
2447.3501798589255,1309
2449.1847229723357,1248
2451.0188612372403,1266
2452.8525949408663,1277
2454.6859243705203,1262
2456.518849813587,1308
2458.3513715575314,1202
2460.183489889895,1275
2462.015205098301,1277
2463.8465174704493,1288
2465.67742729412,1249
2467.5079348571717,1308
2469.338040447542,1232
2471.1677443532476,1297
2472.9970468623833,1252
2474.825948263123,1264
2476.6544488437207,1250
2478.482548892508,1282
2480.310248697896,1265
2482.137548548374,1268
2483.9644487325118,1251
2485.790949538956,1287
2487.617051256433,1229
2489.44275417375,1257
2491.26805857979,1266
2493.0929647635157,1261
2494.917473013971,1258
2496.741583620276,1293
2498.5652968716304,1280
2500.3886130573137,1240
2502.2115324666834,1275
2504.0340553891765,1272
2505.856182114308,1284
2507.6779129316733,1280
2509.499248130945,1269
2511.3201880018764,1260
2513.140732834298,1272
2514.9608829181198,1250
2516.780638543331,1225
2518.6,1298
2520.418967578273,1263
2522.237541568376,1261
2524.0557222606144,1242
2525.8735099453706,1254
2527.6909049131086,1247
2529.507907454368,1252
2531.32451785977,1287
2533.140736420014,1277
2534.9565634258774,1291
2536.771999168218,1225
2538.5870439379714,1245
2540.4016980261526,1284
2542.2159617238544,1233
2544.02983532225,1264
2545.8433191125914,1273
2547.656413386209,1291
2549.4691184345115,1305
2551.2814345489874,1256
2553.093362021204,1308
2554.904901142808,1278
2556.716052205523,1264
2558.526815501153,1291
2560.3371913215824,1287
2562.147179958771,1308
2563.956781704761,1275
2565.7659968516705,1198
2567.5748256916986,1303
2569.3832685171224,1329
2571.1913256202984,1319
2572.9989972936614,1347
2574.806283829725,1305
2576.613185521084,1287
2578.4197026604074,1320
2580.2258355404483,1277
2582.031584454035,1264
2583.836949694077,1261
2585.6419315535613,1321
2587.4465303255533,1345
2589.2507463032002,1333
2591.0545797797245,1344
2592.8580310484303,1305
2594.6611004026995,1358
2596.463788135992,1327
2598.266094541849,1313
2600.0680199138874,1255
2601.869564545807,1323
2603.670728731383,1312
2605.4715127644704,1312
2607.2719169390048,1336
2609.071941548998,1293
2610.8715868885433,1284
2612.670853251811,1334
2614.469740933052,1346
2616.268250226594,1284
2618.0663814268455,1307
2619.864134828292,1299
2621.6615107255006,1267
2623.458509413115,1256
2625.2551311858597,1287
2627.0513763385347,1277
2628.8472451660223,1301
2630.6427379632833,1260
2632.4378550253564,1306
2634.232596647359,1275
2636.026963124488,1314
2637.8209547520187,1281
2639.6145718253065,1249
2641.407814639785,1317
2643.200683490966,1298
2644.9931786744414,1259
2646.7853004858807,1289
2648.577049221034,1310
2650.3684251757277,1282
2652.1594286458712,1302
2653.9500599274484,1342
2655.740319316525,1242
2657.5302071092437,1244
2659.3197236018286,1277
2661.10886909058,1296
2662.8976438718782,1277
2664.686048242183,1189
2666.4740824980327,1211
2668.2617469360443,1248
2670.0490418529134,1281
2671.8359675454153,1216
2673.622524310403,1240
2675.408712444811,1241
2677.1945322456495,1278
2678.979984010009,1265
2680.76506803506,1237
2682.5497846180497,1198
2684.334134056306,1224
2686.1181166472343,1233
2687.9017326883213,1258
2689.6849824771293,1236
2691.4678663113013,1253
2693.2503844885596,1231
2695.032537306705,1213
2696.8143250636167,1256
2698.5957480572542,1209
2700.3768065856534,1246
2702.1575009469316,1244
2703.937831439283,1285
2705.717798360982,1243
2707.4974020103837,1279
2709.276642685917,1267
2711.055520686095,1215
2712.834036309506,1269
2714.612189854819,1231
2716.389981620782,1202
2718.1674119062204,1183
2719.944481010041,1276
2721.721189231226,1283
2723.4975368688415,1240
2725.273524222027,1242
2727.0491515900053,1231
2728.824419272075,1252
2730.5993275676146,1261
2732.3738767760838,1215
2734.148067197016,1165
2735.921899130031,1182
2737.6953728748194,1221
2739.468488731156,1286
2741.2412469988926,1270
2743.0136479779617,1269
2744.785691968372,1215
2746.5573792702116,1252
2748.3287101836504,1263
2750.099685008934,1276
2751.870304046388,1226
2753.640567596418,1291
2755.4104759595057,1212
2757.1800294362156,1235
2758.949228327187,1210
2760.7180729331412,1245
2762.486563554877,1194
2764.254700493272,1200
2766.022484049284,1214
2767.789914523947,1225
2769.5569922183786,1226
2771.3237174337705,1192
2773.090090471394,1238
2774.8561116326036,1231
2776.6217812188274,1231
2778.3870995315756,1240
2780.1520668724356,1190
2781.9166835430747,1226
2783.6809498452394,1212
2785.444866080754,1229
2787.2084325515225,1254
2788.971649559527,1251
2790.73451740683,1270
2792.4970363955713,1248
2794.2592068279705,1193
2796.0210290063264,1214
2797.7825032330147,1203
2799.543629810493,1238
2801.304409041296,1215
2803.0648412280366,1190
2804.8249266734088,1187
2806.5846656801846,1240
2808.344058551212,1229
2810.1031055894246,1217
2811.8618070978273,1223
2813.6201633795085,1325
2815.378174737636,1247
2817.1358414754536,1201
2818.893163896285,1273
2820.6501423035334,1178
2822.4067770006814,1279
2824.1630682912883,1237
2825.9190164789957,1267
2827.6746218675207,1236
2829.429884760661,1263
2831.184805462294,1265
2832.9393842763743,1234
2834.693621506936,1249
2836.4475174580916,1190
2838.201072434034,1242
2839.954286739034,1268
2841.707160677441,1210
2843.459694553685,1261
2845.2118886722724,1234
2846.96374333779,1208
2848.7152588549034,1238
2850.4664355283567,1243
2852.217273662973,1273
2853.9677735636546,1266
2855.7179355353833,1245
2857.4677598832186,1198
2859.217246912299,1215
2860.9663969278427,1242
2862.715210235146,1265
2864.4636871395846,1235
2866.211827946614,1254
2867.9596329617652,1183
2869.7071024906536,1190
2871.4542368389684,1221
2873.20103631248,1221
2874.947501217038,1252
2876.6936318585695,1296
2878.4394285430812,1255
2880.1848915766604,1286
2881.9300212654707,1219
2883.6748179157553,1252
2885.4192818338374,1227
2887.1634133261173,1256
2888.907212699077,1232
2890.6506802592744,1217
2892.393816313348,1206
2894.1366211680142,1193
2895.8790951300693,1278
2897.621238506388,1229
2899.363051603925,1184
2901.1045347297118,1269
2902.8456881908596,1240
2904.58651229456,1249
2906.327007348081,1245
2908.067173658772,1256
2909.8070115340597,1236
2911.5465212814497,1239
2913.285703208527,1189
2915.0245576229563,1209
2916.7630848324807,1227
2918.5012851449196,1294
2920.2391588681758,1248
2921.976706310227,1202
2923.7139277791334,1225
2925.4508235830313,1242
2927.187394030137,1226
2928.923639428745,1213
2930.6595600872306,1268
2932.395156314046,1227
2934.1304284177218,1310
2935.8653767068713,1282
2937.6000014901815,1201
2939.3343030764227,1244
2941.068281774442,1206
2942.8019378931644,1223
2944.5352717415976,1251
2946.2682836288236,1255
2948.0009738640065,1233
2949.7333427563885,1258
2951.465390615289,1211
2953.1971177501086,1216
2954.9285244703265,1259
2956.6596110855,1197
2958.3903779052657,1210
2960.1208252393385,1227
2961.8509533975125,1216
2963.5807626896617,1263
2965.3102534257378,1268
2967.0394259157715,1262
2968.768280469873,1233
2970.496817398232,1224
2972.2250370111146,1208
2973.952939618869,1264
2975.6805255319196,1275
2977.4077950607707,1326
2979.134748516006,1226
2980.861386208289,1280
2982.587708448359,1226
2984.313715547037,1259
2986.039407815222,1243
2987.764785563891,1238
2989.489849104102,1277
2991.2145987469908,1273
2992.9390348037705,1247
2994.6631575857346,1263
2996.3869674042576,1253
2998.1104645707887,1242
2999.83364939686,1228
3001.5565221940783,1182
3003.2790832741334,1225
3005.0013329487924,1251
3006.7232715298996,1204
3008.4448993293804,1225
3010.166216659239,1204
3011.887223831558,1152
3013.607921158498,1174
3015.3283089522993,1187
3017.0483875252826,1190
3018.7681571898443,1220
3020.4876182584626,1248
3022.2067710436927,1171
3023.9256158581707,1237
3025.644153014609,1233
3027.362382825801,1230
3029.0803056046193,1168
3030.797921664012,1219
3032.5152313170106,1233
3034.2322348767225,1233
3035.9489326563353,1204
3037.665324969115,1256
3039.3814121284063,1241
3041.097194447633,1206
3042.812672240299,1227
3044.5278458199855,1230
3046.2427155003525,1274
3047.9572815951406,1240
3049.671544418167,1207
3051.38550428333,1271
3053.0991615046073,1274
3054.812516396051,1206
3056.5255692717974,1216
3058.2383204460575,1274
3059.9507702331257,1203
3061.662918947372,1241
3063.3747669032446,1212
3065.0863144152736,1212
3066.7975617980674,1224
3068.508509366309,1205
3070.219157434767,1239
3071.9295063182844,1215
3073.639556331785,1256
3075.3493077902704,1246
3077.058761008821,1218
3078.7679163025964,1210
3080.476773986837,1215
3082.1853343768594,1178
3083.89359778806,1253
3085.6015645359153,1216
3087.3092349359786,1236
3089.016609303884,1230
3090.7236879553434,1228
3092.4304712061476,1228
3094.136959372166,1208
3095.843152769349,1244
3097.5490517137237,1228
3099.2546565213966,1200
3100.959967508554,1214
3102.66498499146,1285
3104.3697092864577,1236
3106.0741407099695,1217
3107.778279578498,1260
3109.482126208622,1247
3111.1856809170004,1221
3112.8889440203716,1209
3114.5919158355528,1222
3116.294596679439,1233
3117.996986869006,1222
3119.6990867213062,1276
3121.4008965534726,1219
3123.102416682717,1302
3124.803647426329,1223
3126.5045891016784,1232
3128.205242026213,1242
3129.90560651746,1255
3131.605682893025,1236
3133.3054714705922,1228
3135.0049725679282,1216
3136.7041865028714,1235
3138.4031135933465,1244
3140.101754157353,1211
3141.800108512971,1240
3143.498176978357,1223
3145.1959598717494,1194
3146.8934575114636,1173
3148.5906702158954,1207
3150.2875983035183,1256
3151.9842420928853,1248
3153.680601902627,1246
3155.376678051456,1250
3157.07247085816,1208
3158.767980641609,1175
3160.463207720748,1231
3162.158152414606,1236
3163.8528150422862,1163
3165.5471959229726,1238
3167.2412953759303,1200
3168.9351137204976,1221
3170.628651276098,1263
3172.3219083622307,1204
3174.014885298474,1275
3175.707582404485,1279
3177.4000000000005,1247
3179.092138404835,1318
3180.7839979388846,1248
3182.47557892212,1255
3184.166881674594,1265
3185.8579065164386,1263
3187.5486537678626,1231
3189.2391237491547,1277
3190.9293167806827,1249
3192.6192331828934,1200
3194.3088732763117,1211
3195.998237381542,1228
3197.687325819268,1213
3199.376138910251,1237
3201.064676975334,1243
3202.7529403354347,1215
3204.4409293115523,1198
3206.1286442247647,1201
3207.816085396229,1186
3209.5032531471825,1275
3211.190147798936,1200
3212.8767696728846,1227
3214.5631190905015,1254
3216.2491963733373,1215
3217.9350018430214,1157
3219.6205358212637,1195
3221.305798629851,1251
3222.990790590651,1204
3224.6755120256103,1207
3226.359963256751,1184
3228.0441446061795,1218
3229.7280563960758,1176
3231.411698948703,1189
3233.0950725863995,1206
3234.778177631587,1207
3236.461014406761,1228
3238.1435832345005,1214
3239.8258844374595,1289
3241.507918338374,1222
3243.1896852600576,1244
3244.8711855254023,1206
3246.552419457381,1258
3248.233387379042,1208
3249.914089613516,1224
3251.59452648401,1252
3253.274698313813,1265
3254.95460542629,1245
3256.6342481448855,1187
3258.313626793125,1222
3259.9927416946084,1197
3261.6715931730196,1193
3263.3501815521176,1221
3265.0285071557437,1225
3266.706570307815,1256
3268.3843713323286,1234
3270.0619105533615,1219
3271.739188295068,1229
3273.4162048816834,1228
3275.0929606375184,1197
3276.769455886966,1225
3278.445690954498,1257
3280.1216661646613,1219
3281.797381842087,1264
3283.4728383114807,1240
3285.1480358976296,1264
3286.8229749253996,1177
3288.4976557197333,1235
3290.172078605655,1192
3291.846243908266,1207
3293.5201519527463,1238
3295.193803064357,1227
3296.8671975684374,1207
3298.5403357904024,1162
3300.21321805575,1249
3301.8858446900567,1228
3303.558216018975,1241
3305.23033236824,1207
3306.9021940636603,1245
3308.57380143113,1215
3310.2451547966184,1302
3311.916254486174,1225
3313.5871008259246,1224
3315.2576941420766,1142
3316.9280347609147,1217
3318.5981230088046,1247
3320.2679592121895,1153
3321.9375436975924,1220
3323.606876791612,1157
3325.27595882093,1200
3326.944790112305,1198
3328.6133709925753,1234
3330.2817017886573,1214
3331.949782827547,1201
3333.617614436319,1214
3335.2851969421245,1194
3336.952530672199,1237
3338.619615953853,1210
3340.286453114475,1198
3341.9530424815357,1238
3343.619384382583,1244
3345.2854791452437,1209
3346.951327097224,1256
3348.6169285663073,1248
3350.2822838803577,1214
3351.947393367319,1225
3353.61225735521,1189
3355.2768761721345,1223
3356.9412501462693,1241
3358.605379605873,1194
3360.2692648792827,1229
3361.9329062949146,1192
3363.596304181263,1244
