CollectionTime,7/3/2024 2:16:11 PM
ExposureUsed,3
CalibratedSpectrum
-962.7078968117929,561
-959.9714848408522,597
-957.2358232597828,576
-954.5009119013725,579
-951.7667505983302,593
-949.0333391832855,609
-946.3006774887896,577
-943.5687653473143,636
-940.837602591253,630
-938.1071890529199,598
-935.3775245645503,598
-932.6486089583007,612
-929.9204420662485,669
-927.1930237203925,583
-924.4663537526524,597
-921.7404319948689,605
-919.0152582788041,603
-916.2908324361409,649
-913.5671542984834,587
-910.8442236973568,557
-908.1220404642074,575
-905.4006044304027,577
-902.679915427231,641
-899.959973285902,581
-897.2407778375464,566
-894.5223289132158,544
-891.8046263438832,561
-889.0876699604426,588
-886.3714595937089,571
-883.6559950744183,588
-880.9412762332282,566
-878.2273029007168,581
-875.5140749073835,522
-872.8015920836489,597
-870.0898542598545,619
-867.3788612662631,553
-864.6686129330585,594
-861.9591090903457,555
-859.2503495681506,580
-856.5423341964203,573
-853.8350628050229,596
-851.1285352237478,612
-848.4227512823054,650
-845.7177108103272,667
-843.0134136373656,656
-840.3098595928943,609
-837.6070485063082,617
-834.9049802069229,596
-832.2036545239757,594
-829.5030712866244,586
-826.8032303239481,616
-824.1041314649472,597
-821.4057745385428,583
-818.7081593735775,606
-816.0112857988148,584
-813.3151536429393,599
-810.6197627345566,616
-807.9251129021936,653
-805.2312039742981,597
-802.5380357792392,623
-799.8456081453069,638
-797.1539209007124,673
-794.462973873588,649
-791.772766891987,607
-789.083299783884,617
-786.3945723771743,607
-783.7065844996748,617
-781.0193359791231,561
-778.3328266431781,644
-775.6470563194197,642
-772.9620248353489,587
-770.2777320183878,605
-767.5941776958798,641
-764.9113616950891,619
-762.2292838432011,660
-759.5479439673222,642
-756.8673418944801,637
-754.1874774516235,626
-751.5083504656222,630
-748.8299607632671,667
-746.15230817127,628
-743.475392516264,670
-740.7992136248035,639
-738.1237713233636,604
-735.4490654383407,669
-732.7750957960521,678
-730.1018622227365,663
-727.4293645445534,646
-724.7576025875837,614
-722.0865761778291,676
-719.4162851412126,696
-716.7467293035781,680
-714.0779084906909,631
-711.409822528237,668
-708.7424712418238,606
-706.0758544569796,647
-703.4099719991541,713
-700.7448236937178,704
-698.0804093659622,657
-695.4167288411002,658
-692.7537819442656,696
-690.0915685005134,647
-687.4300883348199,643
-684.7693412720819,677
-682.1093271371178,685
-679.4500457546669,706
-676.7914969493897,683
-674.1336805458676,642
-671.4765963686034,662
-668.8202442420206,673
-666.1646239904642,703
-663.5097354382001,653
-660.8555784094151,668
-658.2021527282176,660
-655.5494582186366,667
-652.8974947046223,669
-650.2462620100463,707
-647.5957599587009,726
-644.9459883742998,746
-642.2969470804776,721
-639.6486359007902,797
-637.0010546587141,811
-634.3542031776476,688
-631.7080812809096,736
-629.0626887917401,714
-626.4180255333008,701
-623.7740913286734,765
-621.1308860008619,781
-618.4884093727904,691
-615.8466612673046,703
-613.2056415071715,688
-610.5653499150785,732
-607.9257863136347,747
-605.28695052537,751
-602.6488423727357,666
-600.0114616781036,665
-597.3748082637674,704
-594.7388819519412,793
-592.1036825647604,822
-589.4692099242818,829
-586.8354638524829,767
-584.2024441712624,794
-581.5701507024403,836
-578.9385832677575,766
-576.3077416888759,783
-573.6776257873787,706
-571.0482353847704,725
-568.4195703024757,765
-565.7916303618415,765
-563.164415384135,731
-560.5379251905453,761
-557.9121596021815,780
-555.2871184400748,739
-552.6628015251767,769
-550.0392086783606,812
-547.4163397204204,805
-544.794194472071,812
-542.1727727539491,809
-539.5520743866118,855
-536.9320991905377,867
-534.3128469861261,849
-531.6943175936979,864
-529.0765108334947,870
-526.4594265256793,919
-523.8430644903358,1047
-521.2274245474689,1172
-518.612506517005,1268
-515.9983102187913,1212
-513.3848354725959,1206
-510.77208209810846,1239
-508.16004991493924,1436
-505.5487387426199,1641
-502.9381484006032,1731
-500.3282787082628,1682
-497.71912948489364,1573
-495.1107005497117,1427
-492.5029917218539,1277
-489.8960028203786,1090
-487.28973366426493,1029
-484.68418407241325,1003
-482.07935386364494,964
-479.47524285670266,945
-476.87185087025,931
-474.2691777228715,960
-471.66722323307334,1003
-469.0659872192821,920
-466.4654694998459,973
-463.86566989303384,941
-461.26658821703614,977
-458.66822428996414,983
-456.07057792985,949
-453.4736489546475,1021
-450.877437182231,933
-448.28194243039627,924
-445.68716451686,877
-443.09310325926003,877
-440.49975847515555,977
-437.9071299820263,889
-435.31521759727354,961
-432.72402113821954,1050
-430.13354042210767,1019
-427.5437752661022,1024
-424.95472548728867,975
-422.36639090267386,977
-419.7787713291855,985
-417.1918665836721,1078
-414.60567648290385,1060
-412.0202008435715,1024
-409.4354394822874,1055
-406.8513922155845,1103
-404.26805885991723,1102
-401.685439231661,1043
-399.103533147112,1091
-396.522340422488,1128
-393.9418608739278,991
-391.3620943174908,1035
-388.7830405691583,950
-386.2046994448317,935
-383.6270707603344,985
-381.05015433141045,969
-378.473949973725,886
-375.8984575028645,861
-373.32367673433623,811
-370.74960748356875,825
-368.1762495659117,765
-365.60360279663576,698
-363.03166699093265,638
-360.4604419639154,610
-357.8899275306178,638
-355.32012350599507,593
-352.7510297049233,591
-350.1826459421999,577
-347.61497203254316,602
-345.04800779059235,598
-342.4817530309082,622
-339.91620756797226,615
-337.35137121618743,671
-334.7872437898774,742
-332.22382510328725,708
-329.66111497058273,672
-327.09911320585127,645
-324.53781962310075,629
-321.9772340362607,645
-319.4173562591816,650
-316.8581861056348,613
-314.2997233893127,561
-311.7419679238294,643
-309.1849195227194,733
-306.62857799943856,702
-304.0729431673641,748
-301.51801483979375,729
-298.963792829947,697
-296.41027695096386,771
-293.85746701590574,789
-291.3053628377552,796
-288.7539642294155,791
-286.2032710037115,751
-283.65328297338897,757
-281.1039999511146,862
-278.5554217494762,1100
-276.007548180983,1066
-273.4603790580651,921
-270.9139141930734,899
-268.3681533982807,984
-265.8230964858798,1034
-263.27874326798565,1060
-260.7350935566336,974
-258.1921471637804,923
-255.6499039013039,966
-253.10836358100266,991
-250.56752601459698,897
-248.02739101372765,994
-245.48795838995704,1061
-242.94922795476816,909
-240.41119951956557,1015
-237.8738728956746,1074
-235.33724789434166,1099
-232.80132432673452,1132
-230.2661020039418,862
-227.73158073697357,988
-225.19776033676033,1146
-222.66464061415422,1270
-220.1322213799284,1066
-217.60050244477725,816
-215.06948361931552,882
-212.53916471408013,1180
-210.00954553952818,1429
-207.48062590603843,1301
-204.9524056239104,1141
-202.4248845033651,1249
-199.8980623545441,1437
-197.37193898751036,1358
-194.84651421224817,1194
-192.32178783866232,1181
-189.79775967657952,1295
-187.27442953574644,1533
-184.7517972258321,1494
-182.2298625564256,1392
-179.7086253370378,1276
-177.18808537710026,1083
-174.66824248596583,1420
-172.14909647290835,1649
-169.6306471471229,1602
-167.11289431772548,1413
-164.59583779375328,1534
-162.07947738416453,1673
-159.5638128978386,2076
-157.04884414357605,2719
-154.53457093009854,2625
-152.02099306604828,1845
-149.50811035998936,1483
-146.99592262040665,1772
-144.48442965570587,2121
-141.97363127421409,3036
-139.46352728417958,3408
-136.95411749377126,3036
-134.44540171107985,2453
-131.93737974411636,2163
-129.43005140081357,2115
-126.92341648902493,2649
-124.41747481652521,3636
-121.91222619101006,5228
-119.40767042009657,6949
-116.90380731132257,6914
-114.40063667214702,5296
-111.8981583099503,3353
-109.3963720320337,2485
-106.89527764561933,2693
-104.39487495785067,4453
-101.89516377579241,7165
-99.39614390642998,7793
-96.89781515667039,6641
-94.40017733334128,7644
-91.90323024319173,13021
-89.40697369289148,17596
-86.91140748903172,19580
-84.41653143812482,13736
-81.92234534660395,8800
-79.42884902082358,14532
-76.93604226705907,31956
-74.4439248915071,48136
-71.95249670028534,56742
-69.46175749943245,49273
-66.97170709490854,36570
-64.48234529259423,24039
-61.99367189829195,15866
-59.50568671772464,12365
-57.01838955653636,10783
-54.53178022029283,10109
-52.045858514480074,13312
-49.560624244506016,17160
-47.07607721569923,20767
-44.59221723330904,24221
-42.10904410250669,24860
-39.62655762838392,22469
-37.14475761595372,23495
-34.66364387015028,27969
-32.18321619582866,29288
-29.70347439776515,29181
-27.224418280657005,30954
-24.74604764912317,36123
-22.26836230770266,51492
-19.7913620608565,65041
-17.315046712966478,65041
-14.83941606833514,65041
-12.36446993118659,65041
-9.89020810566592,65041
-7.416630395839093,65041
-4.94373660569363,65041
-2.471526539137585,65041
-6.821210263296962E-13,65041
2.47084320796705,65041
4.941003281093458,65041
7.410480415786196,65041
9.879274808531363,65041
12.347386655893956,65041
14.814816154518212,65041
17.28156350112681,65041
19.74762889252179,65041
22.21301252558385,65041
24.67771459727237,22926
27.141735304626195,6340
29.605074844762612,5304
32.06773341487792,4615
34.52971121224755,3811
36.99100843422559,3911
39.45162527824516,3276
41.91156194181792,3210
44.370818622535126,2656
46.82939551806646,2895
49.287292826160524,3687
51.74451074464503,4126
54.201049471426245,4099
56.65690920448981,2948
59.112090141899785,2405
61.56659248179983,2455
64.02041642241159,2407
66.4735621620365,1814
68.92602989905402,2073
71.37781983192338,2724
73.82893215918205,3201
76.27936707944684,3103
78.72912479141326,2579
81.17820549385567,2541
83.62660938562783,2821
86.07433666566146,2326
88.5213875329681,1778
90.96776218663751,1718
93.41346082583925,2250
95.85848364982041,2676
98.30283085790859,2633
100.7465026495089,3036
103.18949922410604,2404
105.63182078126385,1930
108.07346752062438,1786
110.51443964190923,1695
112.95473734491827,1463
115.39436082953114,1759
117.83331029570547,1861
120.27158594347827,2478
122.7091879729652,2853
125.1461165843615,2352
127.58237197794062,2159
130.01795435405518,1880
132.4528639131364,1666
134.88710085569494,1605
137.32066538231982,1925
139.75355769367923,2150
142.1857779905207,1712
144.61732647366978,1547
147.04820334403132,1468
149.47840880258934,1531
151.90794305040674,1551
154.33680628862487,1736
156.76499871846443,1693
159.19252054122433,1657
161.61937195828352,1763
164.04555317109896,1888
166.47106438120693,1973
168.89590579022217,2350
171.320077599839,2564
173.7435800118302,2884
176.16641322804742,2881
178.58857745042144,2996
181.01007288096173,2878
183.43089972175687,2701
185.85105817497413,2946
188.27054844285988,2916
190.6893707277394,3011
193.10752523201643,2903
195.5250121581745,2888
197.9418317087751,2776
200.3579840864594,2860
202.7734694939469,2864
205.18828813403627,2889
207.6024402096051,3037
210.01592592360964,3005
212.42874547908548,3166
214.84089907914665,3008
217.2523869269868,2953
219.66320922587727,2969
222.0733661791695,2925
224.48285799029293,2966
226.8916848627572,3012
229.29984700014882,3252
231.7073446061355,3047
234.11417788446204,2865
236.520347038953,3065
238.92585227351185,3243
241.33069379212054,3192
243.73487179884035,3203
246.1383864978112,3149
248.541238093252,3120
250.9434267894609,3219
253.34495279081432,3346
255.74581630176783,3275
258.1460175268563,3016
260.54555667069314,2992
262.9444339379703,3084
265.3426495334594,3034
267.7402036620107,3318
270.1370965285529,3186
272.53332833809407,2947
274.9288992957214,2886
277.32380960660055,2944
279.718059475976,2945
282.1116491091717,2790
284.5045787115897,2812
286.89684848871195,2815
289.2884586460981,2768
291.67940938938807,2788
294.0697009242996,2900
296.4593334566299,2806
298.84830719225477,2659
301.23662233712923,2759
303.6242790972866,2709
306.01127767884,2729
308.39761828798066,2546
310.78330113097934,2629
313.16832641418534,2540
315.5526943440269,2476
317.9364051270112,2432
320.3194589697242,2488
322.70185607883093,2472
325.0835966610754,2465
327.4646809232805,2472
329.8451090723478,2445
332.2248813152577,2370
334.6039978590701,2323
336.9824589109231,2387
339.36026467803447,2431
341.7374153677,2368
344.113911187295,2326
346.48975234427337,2271
348.8649390461686,2269
351.2394715005918,2341
353.61334991523415,2339
355.9865744978655,2286
358.35914545633375,2233
360.73106299856715,2371
363.10232733257146,2300
365.47293866643247,2249
367.84289720831396,2227
370.2122031664593,2265
372.5808567491905,2234
374.9488581649083,2189
377.31620762209275,2102
379.6829053293021,2094
382.0489514951745,2108
384.4143463284262,2103
386.7790900378528,2133
389.14318283232853,2140
391.50662492080653,2129
393.86941651231916,2124
396.23155781597745,2175
398.5930490409713,2205
400.9538903965696,2199
403.3140820921202,2168
405.6736243370498,2194
408.03251734086336,2037
410.3907613131465,2024
412.74835646356166,2112
415.10530300185144,2108
417.4616011378372,2116
419.81725108141893,2022
422.1722530425758,2052
424.5266072313656,2004
426.880313857925,2022
429.2333731324701,2141
431.58578526529516,2084
433.9375504667738,2071
436.2886689473588,2074
438.63914091758113,2011
440.9889665880513,2080
443.33814616945835,2007
445.68667987257015,1972
448.03456790823395,2007
450.3818104873759,1966
452.72840782100013,2029
455.07436012019105,1949
457.41966759611057,1987
459.7643304600007,1935
462.10834892318155,1943
464.4517231970525,1925
466.79445349309174,1992
469.1365400228566,2008
471.4779829979826,1929
473.81878263018564,1936
476.15893913125876,1968
478.4984527130747,2013
480.8373235875855,2059
483.17555196682144,2069
485.5131380628919,2107
487.8500820879857,2199
490.1863842543697,2336
492.52204477439034,2507
494.8570638604725,2709
497.1914417251204,2977
499.52517858091653,3301
501.85827464052306,3625
504.19073011668036,3850
506.5225452222086,4084
508.85372017000566,3936
511.18425517304956,3797
513.514150444396,3829
515.8434061971808,4640
518.1720226446176,5699
520.4999999999999,5845
522.8273384766991,5505
525.1540382881666,5054
527.480099647932,4254
529.8055227696037,3593
532.1303078668694,2888
534.454455153496,2376
536.777964843328,2328
539.1008371502907,2170
541.4230722883866,2127
543.744670471698,2138
546.0656319143858,2118
548.3859568306899,2138
550.7056454349294,2125
553.0246979415016,2132
555.3431145648834,2192
557.6608955196306,2161
559.978041020377,2056
562.2945512818363,2079
564.6104265188006,1942
566.9256669461412,2026
569.2402727788082,2066
571.5542442318302,2007
573.8675815203156,2087
576.1802848594508,2146
578.4923544645015,2092
580.8037905508126,2175
583.114593333807,2126
585.4247630289875,2046
587.7342998519354,2096
590.0432040183106,1989
592.3514757438526,2059
594.6591152443794,2041
596.9661227357875,2043
599.2724984340531,2093
601.578242555231,2087
603.8833553154542,2163
606.1878369309362,2033
608.4916876179676,2098
610.7949075929192,2098
613.0974970722403,2176
615.3994562724587,2014
617.7007854101818,2019
620.0014847020951,1975
622.3015543649641,2125
624.6009946156324,2094
626.8998056710224,2067
629.1979877481361,2173
631.4955410640538,2027
633.7924658359349,1976
636.0887622810175,2107
638.3844306166192,2062
640.6794710601358,2115
642.9738838290426,2107
645.2676691408932,2132
647.5608272133207,2175
649.853358264037,2114
652.1452625108324,2191
654.4365401715764,2172
656.7271914642178,2164
659.0172166067838,2120
661.3066158173809,2173
663.5953893141935,2117
665.8835373154867,2107
668.1710600396028,2198
670.4579577049639,2075
672.7442305300709,2161
675.0298787335033,2141
677.3149025339197,2065
679.599302150058,2153
681.8830778007342,2104
684.1662297048437,2177
686.4487580813608,2145
688.7306631493387,2110
691.0119451279091,2119
693.2926042362834,2120
695.5726406937516,2140
697.8520547196814,2127
700.1308465335215,2138
702.4090163547982,2132
704.6865644031171,2153
706.9634908981619,2116
709.2397960596965,2079
711.5154801075631,2124
713.7905432616823,2150
716.0649857420548,2038
718.3388077687592,2205
720.612009561953,2160
722.8845913418733,2086
725.1565533288352,2117
727.427895743234,2098
729.6986188055427,2154
731.9687227363137,2141
734.238207756178,2054
736.5070740858458,2075
738.7753219461066,2036
741.0429515578281,2038
743.3099631419569,2109
745.5763569195191,2124
747.8421331116193,2145
750.1072919394409,2080
752.3718336242467,2167
754.6357583873777,2249
756.8990664502545,2165
759.1617580343765,2212
761.423833361321,2087
763.6852926527457,2171
765.9461361303862,2136
768.206364016058,2241
770.4659765316536,2146
772.7249738991469,2113
774.9833563405886,2113
777.2411240781092,2224
779.4982773339183,2161
781.7548163303044,2176
784.010741289634,2142
786.2660524343538,2234
788.5207499869881,2137
790.7748341701416,2264
793.0283052064964,2249
795.2811633188143,2182
797.5334087299362,2180
799.7850416627813,2115
802.0360623403484,2203
804.2864709857143,2162
806.5362678220353,2161
808.7854530725468,2126
811.0340269605625,2173
813.2819897094754,2251
815.5293415427581,2230
817.77608268396,2180
820.0222133567116,2161
822.2677337847211,2110
824.5126441917765,2173
826.7569448017433,2147
829.0006358385675,2171
831.2437175262731,2114
833.4861900889629,2137
835.7280537508192,2106
837.9693087361026,2115
840.2099552691533,2133
842.4499935743896,2095
844.689423876309,2112
846.9282463994886,2270
849.1664613685833,2278
851.4040690083276,2227
853.6410695435349,2195
855.877463199097,2140
858.1132501999847,2165
860.3484307712487,2171
862.5830051380175,2125
864.8169735254988,2154
867.0503361589791,2164
869.2830932638243,2147
871.5152450654786,2195
873.7467917894654,2257
875.9777336613873,2197
878.2080709069252,2234
880.4378037518389,2227
882.666932421968,2119
884.8954571432301,2244
887.1233781416219,2189
889.3506956432192,2128
891.5774098741766,2202
893.803521060728,2155
896.0290294291852,2172
898.2539352059397,2155
900.4782386174619,2102
902.7019398903011,2066
904.925039251085,2195
907.147536926521,2160
909.3694331433943,2225
911.59072812857,2229
913.8114221089921,2218
916.0315153116827,2157
918.2510079637437,2105
920.4699002923547,2186
922.6881925247761,2106
924.905884888345,2128
927.1229776104793,2192
929.3394709186747,2147
931.555365040506,2105
933.7706602036275,2215
935.9853566357709,2258
938.1994545647489,2173
940.4129542184515,2138
942.6258558248488,2151
944.8381596119883,2202
947.0498658079974,2147
949.2609746410825,2204
951.4714863395287,2117
953.6814011316998,2089
955.8907192460387,2110
958.0994409110671,2092
960.3075663553858,2026
962.5150958076741,2062
964.7220294966913,2185
966.928367651274,2088
969.1341105003388,2061
971.3392582728806,2071
973.5438111979742,2164
975.747769504772,2030
977.9511334225061,1996
980.153903180487,2019
982.3560790081052,2010
984.5576611348289,1989
986.7586497902058,1898
988.9590452038618,1976
991.158847605503,1893
993.3580572249133,1956
995.5566742919558,1895
997.7546990365728,1847
999.952131688785,1929
1002.1489724786926,1901
1004.3452216364743,1851
1006.5408793923874,1842
1008.7359459767691,1804
1010.9304216200343,1815
1013.1243065526781,1796
1015.3176010052733,1805
1017.510305208472,1688
1019.7024193930064,1743
1021.8939437896848,1766
1024.0848786293977,1753
1026.2752241431122,1744
1028.4649805618747,1786
1030.6541481168115,1753
1032.842727039127,1739
1035.0307175601051,1760
1037.2181199111074,1752
1039.4049343235752,1765
1041.591161029029,1726
1043.7768002590683,1700
1045.9618522453698,1725
1048.1463172196918,1687
1050.3301954138697,1694
1052.513487059818,1674
1054.69619238953,1678
1056.8783116350783,1642
1059.0598450286152,1620
1061.2407928023704,1643
1063.4211551886528,1705
1065.6009324198508,1709
1067.780124728432,1661
1069.9587323469414,1613
1072.1367555080046,1658
1074.314194444325,1614
1076.4910493886855,1686
1078.667320573947,1628
1080.843008233051,1570
1083.0181125990161,1683
1085.1926339049414,1614
1087.3665723840027,1679
1089.5399282694575,1600
1091.7127017946405,1567
1093.8848931929647,1648
1096.0565026979243,1651
1098.2275305430899,1649
1100.3979769621128,1625
1102.567842188722,1634
1104.737126456726,1614
1106.9058300000124,1630
1109.0739530525475,1634
1111.2414958483764,1628
1113.4084586216231,1569
1115.5748416064907,1608
1117.7406450372605,1591
1119.9058691482942,1587
1122.0705141740304,1614
1124.2345803489884,1561
1126.3980679077658,1621
1128.5609770850388,1612
1130.7233081155623,1568
1132.8850612341707,1508
1135.0462366757774,1564
1137.2068346753745,1572
1139.3668554680326,1603
1141.526299288901,1558
1143.68516637321,1577
1145.8434569562655,1568
1148.001171273455,1521
1150.158309560244,1556
1152.3148720521767,1502
1154.470858984876,1544
1156.626270594044,1527
1158.7811071154629,1501
1160.9353687849912,1493
1163.089055838569,1529
1165.242168512213,1523
1167.3947070420209,1520
1169.5466716641677,1583
1171.6980626149075,1522
1173.8488801305748,1527
1175.9991244475814,1546
1178.1487958024186,1554
1180.2978944316555,1523
1182.4464205719428,1532
1184.5943744600072,1528
1186.7417563326567,1556
1188.8885664267755,1472
1191.0348049793297,1483
1193.1804722273619,1541
1195.325568407995,1525
1197.4700937584303,1493
1199.614048515948,1557
1201.7574329179074,1476
1203.900247201746,1568
1206.042491604982,1556
1208.1841663652099,1481
1210.3252717201053,1533
1212.465807907422,1453
1214.6057751649923,1551
1216.7451737307279,1544
1218.8840038426192,1459
1221.0222657387353,1561
1223.1599596572241,1641
1225.2970858363137,1555
1227.4336445143094,1536
1229.5696359295966,1532
1231.705060320639,1567
1233.8399179259786,1550
1235.9742089842384,1550
1238.107933734118,1575
1240.2410924143974,1516
1242.373685263935,1672
1244.5057125216676,1515
1246.6371744266116,1545
1248.7680712178621,1567
1250.898403134593,1490
1253.028170416058,1585
1255.1573733015875,1603
1257.2860120305932,1605
1259.4140868425648,1541
1261.54159797707,1621
1263.6685456737569,1610
1265.7949301723515,1551
1267.9207517126597,1648
1270.046010534565,1629
1272.1707068780306,1566
1274.2948409830983,1640
1276.4184130898889,1594
1278.541423438603,1634
1280.6638722695184,1632
1282.785759822993,1618
1284.9070863394636,1563
1287.0278520594447,1623
1289.1480572235314,1635
1291.2677020723963,1668
1293.3867868467923,1650
1295.5053117875495,1631
1297.623277135579,1613
1299.740683131868,1611
1301.8575300174857,1613
1303.973818033578,1650
1306.0895474213703,1738
1308.2047184221678,1693
1310.3193312773528,1695
1312.4333862283888,1702
1314.5468835168163,1705
1316.659823384255,1640
1318.7722060724045,1700
1320.8840318230418,1735
1322.9953008780249,1652
1325.1060134792888,1588
1327.2161698688478,1680
1329.3257702887959,1686
1331.4348149813054,1722
1333.5433041886276,1698
1335.6512381530933,1675
1337.7586171171101,1688
1339.8654413231675,1711
1341.9717110138317,1706
1344.0774264317488,1671
1346.1825878196432,1602
1348.2871954203192,1696
1350.3912494766587,1628
1352.4947502316231,1651
1354.5976979282532,1561
1356.7000928096686,1663
1358.8019351190665,1690
1360.9032250997243,1656
1363.0039629949988,1626
1365.1041490483235,1628
1367.2037835032133,1632
1369.3028666032606,1638
1371.401398592137,1651
1373.4993797135926,1633
1375.5968102114575,1737
1377.6936903296396,1708
1379.7900203121262,1707
1381.8858004029835,1648
1383.9810308463561,1650
1386.075711886469,1676
1388.1698437676241,1726
1390.2634267342032,1698
1392.356461030667,1768
1394.4489469015557,1682
1396.5408845914872,1730
1398.6322743451592,1692
1400.7231164073469,1668
1402.813411022907,1716
1404.903158436773,1724
1406.9923588939578,1724
1409.0810126395531,1773
1411.1691199187303,1741
1413.2566809767386,1727
1415.343696058907,1821
1417.4301654106425,1705
1419.5160892774315,1769
1421.6014679048399,1774
1423.6863015385125,1741
1425.7705904241707,1783
1427.8543348076178,1813
1429.9375349347342,1819
1432.0201910514802,1816
1434.102303403894,1865
1436.1838722380944,1908
1438.2648978002767,1829
1440.3453803367174,1918
1442.4253200937692,1914
1444.5047173178677,1894
1446.5835722555234,1924
1448.6618851533285,2033
1450.739656257952,2013
1452.8168858161434,1928
1454.8935740747306,1987
1456.96972128062,1976
1459.045327680797,2013
1461.120393522327,2108
1463.1949190523528,2082
1465.2689045180973,2094
1467.3423501668608,2141
1469.415256246024,2089
1471.4876230030463,2231
1473.559450685465,2252
1475.6307395408976,2264
1477.7014898170391,2250
1479.771701761665,2305
1481.8413756226287,2375
1483.9105116478618,2322
1485.9791100853772,2353
1488.0471711832643,2448
1490.1146951896926,2285
1492.1816823529098,2432
1494.2481329212433,2446
1496.3140471430984,2533
1498.3794252669609,2548
1500.4442675413939,2482
1502.5085742150404,2536
1504.572345536622,2589
1506.6355817549388,2632
1508.6982831188702,2606
1510.7604498773744,2647
1512.8220822794883,2655
1514.8831805743293,2565
1516.9437450110909,2678
1519.003775839048,2631
1521.0632733075522,2731
1523.1222376660367,2664
1525.1806691640113,2690
1527.2385680510652,2789
1529.2959345768668,2856
1531.3527689911643,2914
1533.4090715437833,2959
1535.4648424846291,3009
1537.5200820636855,3025
1539.5747905310159,2987
1541.6289681367616,2971
1543.6826151311434,3190
1545.7357317644614,3124
1547.7883182870937,3184
1549.8403749494987,3078
1551.8919020022113,3177
1553.9428996958477,3272
1555.9933682811015,3311
1558.0433080087469,3417
1560.0927191296346,3456
1562.1416018946961,3451
1564.1899565549415,3569
1566.2377833614592,3594
1568.2850825654164,3729
1570.3318544180606,3660
1572.3780991707158,3755
1574.423817074788,3645
1576.4690083817595,3536
1578.5136733431923,3450
1580.5578122107272,3236
1582.601425236085,3119
1584.6445126710646,3066
1586.6870747675434,2848
1588.7291117774776,2695
1590.7706239529034,2652
1592.8116115459347,2557
1594.8520748087658,2489
1596.8920139936686,2358
1598.9314293529933,2263
1600.9703211391711,2187
1603.008689604711,2176
1605.0465350022005,2133
1607.0838575843068,2037
1609.1206576037753,2070
1611.1569353134305,1987
1613.1926909661765,1926
1615.2279248149953,1924
1617.2626371129481,1921
1619.2968281131757,1830
1621.3304980688963,1793
1623.3636472334088,1836
1625.39627586009,1824
1627.428384202396,1790
1629.459972513861,1820
1631.4910410480993,1752
1633.5215900588028,1810
1635.551619799744,1726
1637.5811305247717,1730
1639.6101224878166,1723
1641.6385959428862,1759
1643.6665511440683,1789
1645.693988345528,1726
1647.7209078015112,1731
1649.7473097663405,1669
1651.7731944944203,1635
1653.7985622402307,1623
1655.823413258333,1695
1657.847747803366,1640
1659.8715661300494,1720
1661.8948684931793,1667
1663.9176551476316,1665
1665.9399263483624,1688
1667.9616823504057,1669
1669.982923408873,1686
1672.0036497789574,1648
1674.0238617159293,1641
1676.043559475138,1663
1678.0627433120121,1649
1680.081413482059,1663
1682.0995702408654,1690
1684.117213844096,1702
1686.134344547495,1660
1688.1509626068864,1639
1690.1670682781705,1639
1692.182661817329,1616
1694.1977434804217,1709
1696.2123135235875,1682
1698.226372203043,1691
1700.2399197750851,1647
1702.2529564960905,1634
1704.2654826225112,1676
1706.277498410882,1693
1708.2890041178139,1712
1710.2999999999988,1654
1712.3104863142066,1645
1714.3204633172854,1612
1716.329931266163,1638
1718.3388904178469,1613
1720.3473410294214,1695
1722.3552833580516,1667
1724.3627176609807,1690
1726.3696441955308,1609
1728.3760632191033,1531
1730.3819749891782,1631
1732.3873797633146,1556
1734.3922777991502,1605
1736.3966693544012,1603
1738.4005546868639,1681
1740.4039340544127,1613
1742.406807715001,1591
1744.4091759266616,1577
1746.4110389475054,1563
1748.4123970357223,1564
1750.413250449582,1586
1752.4135994474318,1570
1754.4134442876993,1607
1756.4127852288902,1555
1758.4116225295893,1581
1760.4099564484595,1598
1762.407787244244,1622
1764.405115175764,1533
1766.4019405019203,1610
1768.3982634816916,1534
1770.3940843741357,1602
1772.3894034383907,1539
1774.3842209336717,1566
1776.378537119274,1565
1778.372352254571,1538
1780.3656665990156,1562
1782.3584804121397,1581
1784.3507939535534,1509
1786.3426074829463,1565
1788.3339212600863,1498
1790.3247355448211,1527
1792.3150505970766,1554
1794.3048666768573,1565
1796.2941840442477,1583
1798.2830029594106,1515
1800.2713236825884,1580
1802.2591464741004,1571
1804.2464715943465,1540
1806.2332993038058,1509
1808.2196298630352,1604
1810.2054635326708,1617
1812.190800573428,1585
1814.175641246101,1583
1816.1599858115628,1567
1818.1438345307652,1594
1820.127187664738,1530
1822.1100454745924,1516
1824.092408221516,1530
1826.0742761667766,1524
1828.055649571721,1524
1830.0365286977735,1489
1832.0169138064398,1558
1833.9968051593014,1485
1835.9762030180214,1549
1837.9551076443408,1549
1839.9335193000788,1582
1841.9114382471344,1504
1843.888864747485,1537
1845.8657990631878,1518
1847.842241456378,1562
1849.8181921892697,1566
1851.7936515241558,1488
1853.7686197234098,1496
1855.7430970494815,1478
1857.7170837649014,1512
1859.6905801322787,1593
1861.6635864143004,1522
1863.6361028737338,1539
1865.608129773424,1496
1867.5796673762961,1515
1869.5507159453537,1554
1871.521275743678,1565
1873.4913470344313,1570
1875.4609300808534,1505
1877.4300251462632,1525
1879.3986324940588,1542
1881.366752387717,1544
1883.3343850907936,1557
1885.3015308669228,1560
1887.268189979819,1563
1889.2343626932739,1525
1891.2000492711595,1501
1893.1652499774254,1593
1895.1299650761011,1547
1897.0941948312952,1568
1899.0579395071945,1599
1901.0211993680641,1564
1902.98397467825,1574
1904.9462657021745,1505
1906.9080727043415,1529
1908.869395949332,1494
1910.8302357018065,1557
1912.790592226504,1521
1914.7504657882428,1610
1916.7098566519212,1493
1918.6687650825133,1574
1920.6271913450764,1551
1922.5851357047422,1519
1924.5425984267245,1530
1926.499579776314,1524
1928.4560800188833,1537
1930.4120994198802,1557
1932.367638244833,1546
1934.32269675935,1501
1936.2772752291175,1517
1938.231373919899,1543
1940.1849930975404,1578
1942.1381330279637,1552
1944.0907939771696,1556
1946.0429762112412,1551
1947.9946799963363,1554
1949.9459055986945,1498
1951.896653284633,1492
1953.8469233205478,1529
1955.7967159729142,1527
1957.7460315082863,1531
1959.6948701932974,1517
1961.6432322946594,1534
1963.5911180791632,1494
1965.5385278136787,1522
1967.4854617651545,1555
1969.4319202006182,1526
1971.377903387176,1525
1973.3234115920136,1560
1975.268445082395,1531
1977.2130041256642,1507
1979.1570889892423,1502
1981.1006999406304,1533
1983.04383724741,1518
1984.986501177238,1438
1986.928691997853,1533
1988.8704099770712,1525
1990.811655382789,1520
1992.7524284829801,1515
1994.692729545698,1553
1996.6325588390755,1510
1998.5719166313224,1550
2000.5108031907307,1491
2002.4492187856677,1545
2004.387163684583,1521
2006.3246381560011,1526
2008.2616424685298,1541
2010.1981768908527,1434
2012.1342416917332,1513
2014.069837140014,1461
2016.0049635046162,1518
2017.9396210545406,1499
2019.8738100588666,1503
2021.8075307867502,1517
2023.740783507431,1488
2025.6735684902228,1464
2027.6058860045214,1424
2029.5377363198004,1495
2031.4691197056118,1479
2033.4000364315875,1502
2035.3304867674374,1375
2037.260470982952,1468
2039.189989347998,1437
2041.1190421325232,1444
2043.047629606554,1529
2044.9757520401945,1464
2046.9034097036288,1422
2048.8306028671195,1469
2050.7573318010086,1461
2052.683596775716,1497
2054.609398061742,1509
2056.5347359296647,1451
2058.4596106501403,1515
2060.384022493906,1480
2062.3079717317764,1506
2064.231458634646,1477
2066.1544834734873,1508
2068.077046519352,1452
2069.99914804337,1473
2071.9207883167524,1435
2073.8419676107865,1450
2075.7626861968406,1528
2077.6829443463607,1461
2079.6027423308715,1507
2081.522080421977,1465
2083.440958891362,1395
2085.359378010786,1454
2087.2773380520907,1441
2089.194839287196,1471
2091.111881988101,1438
2093.0284664268825,1463
2094.9445928756973,1510
2096.86026160678,1448
2098.775472892446,1475
2100.690227005088,1453
2102.604524217178,1451
2104.5183648012676,1421
2106.431749029985,1502
2108.34467717604,1441
2110.2571495122206,1499
2112.169166311393,1445
2114.080727846503,1424
2115.9918343905747,1480
2117.902486216711,1541
2119.8126835980956,1485
2121.722426807987,1472
2123.6317161197285,1522
2125.5405518067364,1539
2127.448934142509,1470
2129.356863400624,1509
2131.264339854737,1445
2133.1713637785815,1546
2135.077935445972,1525
2136.9840551308002,1447
2138.889723107037,1506
2140.7949396487334,1479
2142.699705030018,1517
2144.6040195250994,1481
2146.507883408264,1534
2148.4112969538774,1561
2150.3142604363848,1499
2152.2167741303097,1532
2154.1188383102535,1498
2156.0204532508997,1481
2157.9216192270064,1489
2159.822336513414,1555
2161.7226053850413,1493
2163.622426116884,1494
2165.5217989840185,1570
2167.4207242616,1549
2169.319202224862,1538
2171.2172331491165,1553
2173.1148173097563,1442
2175.0119549822507,1565
2176.90864644215,1543
2178.8048919650823,1512
2180.7006918267534,1565
2182.596046302952,1527
2184.4909556695407,1512
2186.3854202024645,1519
2188.279440177746,1564
2190.173015871487,1542
2192.066147559868,1549
2193.958835519149,1572
2195.851080025667,1553
2197.7428813558417,1614
2199.6342397861667,1518
2201.5251555932186,1676
2203.415629053651,1551
2205.3056604441986,1568
2207.19525004167,1586
2209.084398122958,1565
2210.9731049650327,1558
2212.861370844941,1548
2214.749196039812,1576
2216.636580826851,1544
2218.523525483344,1601
2220.410030286655,1612
2222.296095514226,1593
2224.1817214435805,1557
2226.066908352319,1570
2227.951656518121,1540
2229.835966218746,1578
2231.71983773203,1520
2233.6032713358913,1519
2235.486267308324,1588
2237.3688259274036,1550
2239.2509474712824,1531
2241.132632218193,1571
2243.013880446447,1602
2244.8946924344323,1537
2246.7750684606203,1518
2248.6550088035574,1545
2250.534513741871,1575
2252.413583554265,1577
2254.292218519526,1524
2256.170418916517,1525
2258.0481850241786,1528
2259.925517121534,1520
2261.8024154876825,1560
2263.678880401803,1530
2265.5549121431536,1504
2267.430510991071,1589
2269.305677224971,1543
2271.180411124348,1540
2273.0547129687766,1554
2274.9285830379076,1521
2276.8020216114737,1566
2278.6750289692845,1579
2280.5476053912294,1507
2282.4197511572766,1580
2284.2914665474727,1588
2286.162751841943,1589
2288.0336073208937,1557
2289.904033264608,1600
2291.774029953448,1565
2293.6435976678554,1524
2295.5127366883517,1598
2297.381447295534,1536
2299.2497297700825,1494
2301.1175843927526,1433
2302.9850114443825,1466
2304.852011205885,1430
2306.7185839582553,1411
2308.5847299825664,1425
2310.4504495599676,1466
2312.3157429716925,1370
2314.1806104990483,1341
2316.0450524234247,1408
2317.9090690262888,1417
2319.772660589186,1369
2321.635827393742,1311
2323.498569721661,1395
2325.3608878547248,1329
2327.2227820747967,1342
2329.0842526638157,1357
2330.945299903803,1306
2332.805924076857,1368
2334.6661254651535,1374
2336.525904350951,1289
2338.3852610165827,1351
2340.244195744464,1368
2342.102708817088,1376
2343.9608005170253,1337
2345.8184711269287,1359
2347.675720929526,1367
2349.532550207628,1352
2351.38895924412,1334
2353.24494832197,1378
2355.100517724223,1307
2356.955667734004,1375
2358.810398634514,1392
2360.664710709037,1404
2362.5186042409337,1431
2364.3720795136437,1412
2366.225136810686,1349
2368.0777764156583,1396
2369.929998612237,1385
2371.7818036841777,1390
2373.633191915315,1407
2375.484163589562,1383
2377.3347189909114,1388
2379.184858403434,1328
2381.03458211128,1365
2382.8838903986775,1367
2384.732783549936,1449
2386.5812618494406,1388
2388.4293255816588,1398
2390.2769750311327,1341
2392.1242104824883,1364
2393.971032220427,1376
2395.8174405297295,1386
2397.6634356952563,1370
2399.509018001947,1380
2401.3541877348193,1357
2403.1989451789705,1352
2405.043290619576,1397
2406.8872243418905,1367
2408.730746631247,1354
2410.5738577730594,1394
2412.4165580528183,1368
2414.258847756095,1364
2416.100727168537,1459
2417.9421965758734,1401
2419.783256263912,1360
2421.623906518538,1453
2423.4641476257157,1426
2425.303979871491,1371
2427.143403541984,1376
2428.9824189233977,1402
2430.821026302012,1472
2432.6592259641866,1392
2434.497018196361,1396
2436.33440328505,1376
2438.171381516851,1393
2440.00795317844,1461
2441.844118556569,1449
2443.6798779380724,1472
2445.5152316098606,1411
2447.3501798589255,1414
2449.1847229723357,1398
2451.0188612372403,1429
2452.8525949408663,1407
2454.6859243705203,1487
2456.518849813587,1417
2458.3513715575314,1476
2460.183489889895,1408
2462.015205098301,1361
2463.8465174704493,1401
2465.67742729412,1439
2467.5079348571717,1396
2469.338040447542,1400
2471.1677443532476,1377
2472.9970468623833,1432
2474.825948263123,1473
2476.6544488437207,1414
2478.482548892508,1420
2480.310248697896,1430
2482.137548548374,1385
2483.9644487325118,1460
2485.790949538956,1444
2487.617051256433,1446
2489.44275417375,1453
2491.26805857979,1471
2493.0929647635157,1369
2494.917473013971,1495
2496.741583620276,1447
2498.5652968716304,1506
2500.3886130573137,1424
2502.2115324666834,1465
2504.0340553891765,1439
2505.856182114308,1433
2507.6779129316733,1507
2509.499248130945,1475
2511.3201880018764,1467
2513.140732834298,1494
2514.9608829181198,1492
2516.780638543331,1504
2518.6,1527
2520.418967578273,1511
2522.237541568376,1495
2524.0557222606144,1500
2525.8735099453706,1470
2527.6909049131086,1438
2529.507907454368,1450
2531.32451785977,1575
2533.140736420014,1502
2534.9565634258774,1529
2536.771999168218,1562
2538.5870439379714,1532
2540.4016980261526,1591
2542.2159617238544,1598
2544.02983532225,1578
2545.8433191125914,1552
2547.656413386209,1589
2549.4691184345115,1629
2551.2814345489874,1664
2553.093362021204,1632
2554.904901142808,1637
2556.716052205523,1634
2558.526815501153,1606
2560.3371913215824,1582
2562.147179958771,1612
2563.956781704761,1631
2565.7659968516705,1671
2567.5748256916986,1635
2569.3832685171224,1612
2571.1913256202984,1721
2572.9989972936614,1738
2574.806283829725,1682
2576.613185521084,1709
2578.4197026604074,1674
2580.2258355404483,1771
2582.031584454035,1728
2583.836949694077,1707
2585.6419315535613,1699
2587.4465303255533,1734
2589.2507463032002,1750
2591.0545797797245,1757
2592.8580310484303,1842
2594.6611004026995,1773
2596.463788135992,1779
2598.266094541849,1819
2600.0680199138874,1793
2601.869564545807,1803
2603.670728731383,1779
2605.4715127644704,1786
2607.2719169390048,1885
2609.071941548998,1824
2610.8715868885433,1803
2612.670853251811,1792
2614.469740933052,1812
2616.268250226594,1785
2618.0663814268455,1777
2619.864134828292,1823
2621.6615107255006,1748
2623.458509413115,1770
2625.2551311858597,1721
2627.0513763385347,1861
2628.8472451660223,1788
2630.6427379632833,1720
2632.4378550253564,1810
2634.232596647359,1741
2636.026963124488,1729
2637.8209547520187,1690
2639.6145718253065,1752
2641.407814639785,1746
2643.200683490966,1783
2644.9931786744414,1707
2646.7853004858807,1707
2648.577049221034,1654
2650.3684251757277,1661
2652.1594286458712,1629
2653.9500599274484,1633
2655.740319316525,1653
2657.5302071092437,1563
2659.3197236018286,1548
2661.10886909058,1569
2662.8976438718782,1540
2664.686048242183,1599
2666.4740824980327,1564
2668.2617469360443,1508
2670.0490418529134,1488
2671.8359675454153,1523
2673.622524310403,1488
2675.408712444811,1563
2677.1945322456495,1466
2678.979984010009,1505
2680.76506803506,1483
2682.5497846180497,1465
2684.334134056306,1448
2686.1181166472343,1458
2687.9017326883213,1460
2689.6849824771293,1485
2691.4678663113013,1452
2693.2503844885596,1448
2695.032537306705,1465
2696.8143250636167,1409
2698.5957480572542,1454
2700.3768065856534,1428
2702.1575009469316,1419
2703.937831439283,1428
2705.717798360982,1372
2707.4974020103837,1432
2709.276642685917,1468
2711.055520686095,1395
2712.834036309506,1389
2714.612189854819,1410
2716.389981620782,1384
2718.1674119062204,1416
2719.944481010041,1398
2721.721189231226,1358
2723.4975368688415,1417
2725.273524222027,1357
2727.0491515900053,1361
2728.824419272075,1348
2730.5993275676146,1327
2732.3738767760838,1370
2734.148067197016,1391
2735.921899130031,1369
2737.6953728748194,1385
2739.468488731156,1305
2741.2412469988926,1374
2743.0136479779617,1423
2744.785691968372,1328
2746.5573792702116,1390
2748.3287101836504,1385
2750.099685008934,1333
2751.870304046388,1359
2753.640567596418,1370
2755.4104759595057,1310
2757.1800294362156,1379
2758.949228327187,1347
2760.7180729331412,1322
2762.486563554877,1341
2764.254700493272,1437
2766.022484049284,1370
2767.789914523947,1355
2769.5569922183786,1354
2771.3237174337705,1375
2773.090090471394,1338
2774.8561116326036,1323
2776.6217812188274,1317
2778.3870995315756,1350
2780.1520668724356,1360
2781.9166835430747,1377
2783.6809498452394,1339
2785.444866080754,1325
2787.2084325515225,1312
2788.971649559527,1345
2790.73451740683,1372
2792.4970363955713,1333
2794.2592068279705,1349
2796.0210290063264,1340
2797.7825032330147,1321
2799.543629810493,1387
2801.304409041296,1397
2803.0648412280366,1340
2804.8249266734088,1344
2806.5846656801846,1304
2808.344058551212,1323
2810.1031055894246,1351
2811.8618070978273,1322
2813.6201633795085,1366
2815.378174737636,1361
2817.1358414754536,1365
2818.893163896285,1314
2820.6501423035334,1377
2822.4067770006814,1364
2824.1630682912883,1285
2825.9190164789957,1293
2827.6746218675207,1400
2829.429884760661,1381
2831.184805462294,1381
2832.9393842763743,1360
2834.693621506936,1348
2836.4475174580916,1364
2838.201072434034,1364
2839.954286739034,1349
2841.707160677441,1334
2843.459694553685,1334
2845.2118886722724,1378
2846.96374333779,1365
2848.7152588549034,1332
2850.4664355283567,1392
2852.217273662973,1384
2853.9677735636546,1355
2855.7179355353833,1373
2857.4677598832186,1341
2859.217246912299,1334
2860.9663969278427,1312
2862.715210235146,1349
2864.4636871395846,1334
2866.211827946614,1331
2867.9596329617652,1368
2869.7071024906536,1359
2871.4542368389684,1363
2873.20103631248,1354
2874.947501217038,1329
2876.6936318585695,1353
2878.4394285430812,1332
2880.1848915766604,1363
2881.9300212654707,1380
2883.6748179157553,1310
2885.4192818338374,1337
2887.1634133261173,1329
2888.907212699077,1370
2890.6506802592744,1362
2892.393816313348,1358
2894.1366211680142,1341
2895.8790951300693,1331
2897.621238506388,1354
2899.363051603925,1380
2901.1045347297118,1356
2902.8456881908596,1365
2904.58651229456,1353
2906.327007348081,1345
2908.067173658772,1440
2909.8070115340597,1337
2911.5465212814497,1332
2913.285703208527,1356
2915.0245576229563,1368
2916.7630848324807,1300
2918.5012851449196,1353
2920.2391588681758,1382
2921.976706310227,1354
2923.7139277791334,1326
2925.4508235830313,1315
2927.187394030137,1346
2928.923639428745,1333
2930.6595600872306,1384
2932.395156314046,1357
2934.1304284177218,1287
2935.8653767068713,1328
2937.6000014901815,1351
2939.3343030764227,1330
2941.068281774442,1322
2942.8019378931644,1331
2944.5352717415976,1354
2946.2682836288236,1319
2948.0009738640065,1360
2949.7333427563885,1388
2951.465390615289,1403
2953.1971177501086,1373
2954.9285244703265,1368
2956.6596110855,1336
2958.3903779052657,1369
2960.1208252393385,1289
2961.8509533975125,1328
2963.5807626896617,1354
2965.3102534257378,1356
2967.0394259157715,1349
2968.768280469873,1316
2970.496817398232,1416
2972.2250370111146,1341
2973.952939618869,1318
2975.6805255319196,1336
2977.4077950607707,1316
2979.134748516006,1319
2980.861386208289,1357
2982.587708448359,1319
2984.313715547037,1329
2986.039407815222,1346
2987.764785563891,1288
2989.489849104102,1302
2991.2145987469908,1300
2992.9390348037705,1376
2994.6631575857346,1367
2996.3869674042576,1316
2998.1104645707887,1396
2999.83364939686,1376
3001.5565221940783,1306
3003.2790832741334,1371
3005.0013329487924,1309
3006.7232715298996,1314
3008.4448993293804,1306
3010.166216659239,1287
3011.887223831558,1306
3013.607921158498,1364
3015.3283089522993,1318
3017.0483875252826,1303
3018.7681571898443,1356
3020.4876182584626,1293
3022.2067710436927,1269
3023.9256158581707,1317
3025.644153014609,1377
3027.362382825801,1265
3029.0803056046193,1279
3030.797921664012,1307
3032.5152313170106,1321
3034.2322348767225,1292
3035.9489326563353,1341
3037.665324969115,1291
3039.3814121284063,1304
3041.097194447633,1265
3042.812672240299,1335
3044.5278458199855,1408
3046.2427155003525,1324
3047.9572815951406,1315
3049.671544418167,1298
3051.38550428333,1306
3053.0991615046073,1301
3054.812516396051,1322
3056.5255692717974,1231
3058.2383204460575,1299
3059.9507702331257,1321
3061.662918947372,1320
3063.3747669032446,1328
3065.0863144152736,1335
3066.7975617980674,1343
3068.508509366309,1353
3070.219157434767,1250
3071.9295063182844,1326
3073.639556331785,1321
3075.3493077902704,1307
3077.058761008821,1341
3078.7679163025964,1376
3080.476773986837,1364
3082.1853343768594,1326
3083.89359778806,1319
3085.6015645359153,1330
3087.3092349359786,1327
3089.016609303884,1295
3090.7236879553434,1385
3092.4304712061476,1379
3094.136959372166,1404
3095.843152769349,1284
3097.5490517137237,1345
3099.2546565213966,1363
3100.959967508554,1351
3102.66498499146,1293
3104.3697092864577,1344
3106.0741407099695,1355
3107.778279578498,1329
3109.482126208622,1324
3111.1856809170004,1324
3112.8889440203716,1306
3114.5919158355528,1400
3116.294596679439,1356
3117.996986869006,1384
3119.6990867213062,1384
3121.4008965534726,1358
3123.102416682717,1345
3124.803647426329,1370
3126.5045891016784,1323
3128.205242026213,1313
3129.90560651746,1341
3131.605682893025,1337
3133.3054714705922,1357
3135.0049725679282,1389
3136.7041865028714,1365
3138.4031135933465,1352
3140.101754157353,1342
3141.800108512971,1354
3143.498176978357,1337
3145.1959598717494,1333
3146.8934575114636,1327
3148.5906702158954,1320
3150.2875983035183,1346
3151.9842420928853,1320
3153.680601902627,1305
3155.376678051456,1322
3157.07247085816,1326
3158.767980641609,1323
3160.463207720748,1287
3162.158152414606,1308
3163.8528150422862,1349
3165.5471959229726,1349
3167.2412953759303,1397
3168.9351137204976,1390
3170.628651276098,1379
3172.3219083622307,1318
3174.014885298474,1330
3175.707582404485,1335
3177.4000000000005,1375
3179.092138404835,1351
3180.7839979388846,1334
3182.47557892212,1326
3184.166881674594,1342
3185.8579065164386,1361
3187.5486537678626,1321
3189.2391237491547,1367
3190.9293167806827,1338
3192.6192331828934,1324
3194.3088732763117,1322
3195.998237381542,1304
3197.687325819268,1315
3199.376138910251,1302
3201.064676975334,1245
3202.7529403354347,1294
3204.4409293115523,1279
3206.1286442247647,1316
3207.816085396229,1304
3209.5032531471825,1319
3211.190147798936,1257
3212.8767696728846,1254
3214.5631190905015,1327
3216.2491963733373,1264
3217.9350018430214,1335
3219.6205358212637,1324
3221.305798629851,1295
3222.990790590651,1268
3224.6755120256103,1277
3226.359963256751,1271
3228.0441446061795,1258
3229.7280563960758,1293
3231.411698948703,1247
3233.0950725863995,1255
3234.778177631587,1262
3236.461014406761,1326
3238.1435832345005,1275
3239.8258844374595,1289
3241.507918338374,1299
3243.1896852600576,1304
3244.8711855254023,1317
3246.552419457381,1278
3248.233387379042,1311
3249.914089613516,1305
3251.59452648401,1277
3253.274698313813,1362
3254.95460542629,1290
3256.6342481448855,1276
3258.313626793125,1284
3259.9927416946084,1272
3261.6715931730196,1295
3263.3501815521176,1254
3265.0285071557437,1253
3266.706570307815,1269
3268.3843713323286,1304
3270.0619105533615,1282
3271.739188295068,1272
3273.4162048816834,1256
3275.0929606375184,1291
3276.769455886966,1314
3278.445690954498,1295
3280.1216661646613,1342
3281.797381842087,1330
3283.4728383114807,1335
3285.1480358976296,1299
3286.8229749253996,1278
3288.4976557197333,1308
3290.172078605655,1306
3291.846243908266,1295
3293.5201519527463,1327
3295.193803064357,1272
3296.8671975684374,1303
3298.5403357904024,1295
3300.21321805575,1267
3301.8858446900567,1273
3303.558216018975,1284
3305.23033236824,1324
3306.9021940636603,1288
3308.57380143113,1264
3310.2451547966184,1330
3311.916254486174,1302
3313.5871008259246,1304
3315.2576941420766,1300
3316.9280347609147,1298
3318.5981230088046,1308
3320.2679592121895,1272
3321.9375436975924,1284
3323.606876791612,1290
3325.27595882093,1289
3326.944790112305,1281
3328.6133709925753,1332
3330.2817017886573,1294
3331.949782827547,1277
3333.617614436319,1320
3335.2851969421245,1332
3336.952530672199,1256
3338.619615953853,1270
3340.286453114475,1312
3341.9530424815357,1318
3343.619384382583,1275
3345.2854791452437,1309
3346.951327097224,1254
3348.6169285663073,1318
3350.2822838803577,1323
3351.947393367319,1307
3353.61225735521,1336
3355.2768761721345,1265
3356.9412501462693,1274
3358.605379605873,1257
3360.2692648792827,1244
3361.9329062949146,1262
3363.596304181263,1297
