CollectionTime,7/3/2024 2:15:11 PM
ExposureUsed,3
CalibratedSpectrum
-962.7078968117929,509
-959.9714848408522,533
-957.2358232597828,613
-954.5009119013725,561
-951.7667505983302,549
-949.0333391832855,577
-946.3006774887896,572
-943.5687653473143,571
-940.837602591253,582
-938.1071890529199,592
-935.3775245645503,600
-932.6486089583007,640
-929.9204420662485,630
-927.1930237203925,569
-924.4663537526524,595
-921.7404319948689,582
-919.0152582788041,578
-916.2908324361409,623
-913.5671542984834,567
-910.8442236973568,542
-908.1220404642074,567
-905.4006044304027,601
-902.679915427231,584
-899.959973285902,554
-897.2407778375464,528
-894.5223289132158,539
-891.8046263438832,546
-889.0876699604426,533
-886.3714595937089,540
-883.6559950744183,538
-880.9412762332282,520
-878.2273029007168,516
-875.5140749073835,518
-872.8015920836489,569
-870.0898542598545,585
-867.3788612662631,534
-864.6686129330585,543
-861.9591090903457,556
-859.2503495681506,565
-856.5423341964203,547
-853.8350628050229,566
-851.1285352237478,585
-848.4227512823054,610
-845.7177108103272,650
-843.0134136373656,603
-840.3098595928943,559
-837.6070485063082,580
-834.9049802069229,562
-832.2036545239757,552
-829.5030712866244,566
-826.8032303239481,594
-824.1041314649472,573
-821.4057745385428,556
-818.7081593735775,607
-816.0112857988148,559
-813.3151536429393,593
-810.6197627345566,585
-807.9251129021936,589
-805.2312039742981,598
-802.5380357792392,618
-799.8456081453069,659
-797.1539209007124,691
-794.462973873588,669
-791.772766891987,616
-789.083299783884,573
-786.3945723771743,570
-783.7065844996748,527
-781.0193359791231,551
-778.3328266431781,557
-775.6470563194197,573
-772.9620248353489,570
-770.2777320183878,575
-767.5941776958798,557
-764.9113616950891,626
-762.2292838432011,602
-759.5479439673222,557
-756.8673418944801,571
-754.1874774516235,620
-751.5083504656222,648
-748.8299607632671,610
-746.15230817127,618
-743.475392516264,650
-740.7992136248035,607
-738.1237713233636,574
-735.4490654383407,634
-732.7750957960521,663
-730.1018622227365,629
-727.4293645445534,558
-724.7576025875837,575
-722.0865761778291,595
-719.4162851412126,628
-716.7467293035781,627
-714.0779084906909,637
-711.409822528237,617
-708.7424712418238,602
-706.0758544569796,607
-703.4099719991541,687
-700.7448236937178,680
-698.0804093659622,638
-695.4167288411002,642
-692.7537819442656,620
-690.0915685005134,653
-687.4300883348199,600
-684.7693412720819,684
-682.1093271371178,666
-679.4500457546669,704
-676.7914969493897,604
-674.1336805458676,618
-671.4765963686034,660
-668.8202442420206,635
-666.1646239904642,627
-663.5097354382001,583
-660.8555784094151,619
-658.2021527282176,619
-655.5494582186366,682
-652.8974947046223,695
-650.2462620100463,663
-647.5957599587009,709
-644.9459883742998,727
-642.2969470804776,705
-639.6486359007902,774
-637.0010546587141,742
-634.3542031776476,655
-631.7080812809096,708
-629.0626887917401,657
-626.4180255333008,675
-623.7740913286734,758
-621.1308860008619,754
-618.4884093727904,663
-615.8466612673046,682
-613.2056415071715,653
-610.5653499150785,707
-607.9257863136347,759
-605.28695052537,724
-602.6488423727357,670
-600.0114616781036,675
-597.3748082637674,685
-594.7388819519412,743
-592.1036825647604,816
-589.4692099242818,778
-586.8354638524829,739
-584.2024441712624,764
-581.5701507024403,806
-578.9385832677575,732
-576.3077416888759,765
-573.6776257873787,682
-571.0482353847704,684
-568.4195703024757,705
-565.7916303618415,705
-563.164415384135,694
-560.5379251905453,728
-557.9121596021815,760
-555.2871184400748,725
-552.6628015251767,718
-550.0392086783606,749
-547.4163397204204,748
-544.794194472071,809
-542.1727727539491,784
-539.5520743866118,813
-536.9320991905377,771
-534.3128469861261,809
-531.6943175936979,847
-529.0765108334947,864
-526.4594265256793,851
-523.8430644903358,994
-521.2274245474689,1105
-518.612506517005,1303
-515.9983102187913,1226
-513.3848354725959,1216
-510.77208209810846,1373
-508.16004991493924,1500
-505.5487387426199,1765
-502.9381484006032,1797
-500.3282787082628,1707
-497.71912948489364,1640
-495.1107005497117,1483
-492.5029917218539,1249
-489.8960028203786,1081
-487.28973366426493,986
-484.68418407241325,933
-482.07935386364494,919
-479.47524285670266,884
-476.87185087025,927
-474.2691777228715,899
-471.66722323307334,929
-469.0659872192821,907
-466.4654694998459,909
-463.86566989303384,912
-461.26658821703614,907
-458.66822428996414,886
-456.07057792985,882
-453.4736489546475,921
-450.877437182231,886
-448.28194243039627,908
-445.68716451686,875
-443.09310325926003,905
-440.49975847515555,939
-437.9071299820263,865
-435.31521759727354,931
-432.72402113821954,985
-430.13354042210767,973
-427.5437752661022,940
-424.95472548728867,970
-422.36639090267386,959
-419.7787713291855,1032
-417.1918665836721,1065
-414.60567648290385,1007
-412.0202008435715,1018
-409.4354394822874,1020
-406.8513922155845,1137
-404.26805885991723,1085
-401.685439231661,1034
-399.103533147112,1064
-396.522340422488,1024
-393.9418608739278,945
-391.3620943174908,912
-388.7830405691583,917
-386.2046994448317,950
-383.6270707603344,947
-381.05015433141045,930
-378.473949973725,891
-375.8984575028645,855
-373.32367673433623,828
-370.74960748356875,821
-368.1762495659117,807
-365.60360279663576,689
-363.03166699093265,678
-360.4604419639154,632
-357.8899275306178,598
-355.32012350599507,616
-352.7510297049233,596
-350.1826459421999,540
-347.61497203254316,614
-345.04800779059235,606
-342.4817530309082,625
-339.91620756797226,685
-337.35137121618743,730
-334.7872437898774,766
-332.22382510328725,779
-329.66111497058273,651
-327.09911320585127,662
-324.53781962310075,662
-321.9772340362607,700
-319.4173562591816,670
-316.8581861056348,623
-314.2997233893127,558
-311.7419679238294,618
-309.1849195227194,722
-306.62857799943856,686
-304.0729431673641,735
-301.51801483979375,744
-298.963792829947,721
-296.41027695096386,808
-293.85746701590574,803
-291.3053628377552,778
-288.7539642294155,860
-286.2032710037115,792
-283.65328297338897,790
-281.1039999511146,904
-278.5554217494762,1073
-276.007548180983,1077
-273.4603790580651,913
-270.9139141930734,957
-268.3681533982807,1014
-265.8230964858798,1042
-263.27874326798565,985
-260.7350935566336,1069
-258.1921471637804,948
-255.6499039013039,1021
-253.10836358100266,1010
-250.56752601459698,917
-248.02739101372765,1009
-245.48795838995704,1113
-242.94922795476816,968
-240.41119951956557,985
-237.8738728956746,1087
-235.33724789434166,1094
-232.80132432673452,1028
-230.2661020039418,879
-227.73158073697357,1101
-225.19776033676033,1282
-222.66464061415422,1275
-220.1322213799284,1042
-217.60050244477725,873
-215.06948361931552,874
-212.53916471408013,1325
-210.00954553952818,1540
-207.48062590603843,1347
-204.9524056239104,1158
-202.4248845033651,1358
-199.8980623545441,1395
-197.37193898751036,1369
-194.84651421224817,1149
-192.32178783866232,1139
-189.79775967657952,1381
-187.27442953574644,1582
-184.7517972258321,1528
-182.2298625564256,1535
-179.7086253370378,1366
-177.18808537710026,1138
-174.66824248596583,1531
-172.14909647290835,1816
-169.6306471471229,1709
-167.11289431772548,1443
-164.59583779375328,1410
-162.07947738416453,1624
-159.5638128978386,2276
-157.04884414357605,3207
-154.53457093009854,2844
-152.02099306604828,2028
-149.50811035998936,1672
-146.99592262040665,1838
-144.48442965570587,2285
-141.97363127421409,3189
-139.46352728417958,3631
-136.95411749377126,3154
-134.44540171107985,2520
-131.93737974411636,2226
-129.43005140081357,2158
-126.92341648902493,2848
-124.41747481652521,3737
-121.91222619101006,5428
-119.40767042009657,6985
-116.90380731132257,7210
-114.40063667214702,5286
-111.8981583099503,3509
-109.3963720320337,2523
-106.89527764561933,2663
-104.39487495785067,4649
-101.89516377579241,7183
-99.39614390642998,7604
-96.89781515667039,6459
-94.40017733334128,7886
-91.90323024319173,13183
-89.40697369289148,18283
-86.91140748903172,20003
-84.41653143812482,13869
-81.92234534660395,8747
-79.42884902082358,14326
-76.93604226705907,32317
-74.4439248915071,49165
-71.95249670028534,56579
-69.46175749943245,49562
-66.97170709490854,35977
-64.48234529259423,23494
-61.99367189829195,15912
-59.50568671772464,13232
-57.01838955653636,12312
-54.53178022029283,12045
-52.045858514480074,18169
-49.560624244506016,21938
-47.07607721569923,27155
-44.59221723330904,32654
-42.10904410250669,33710
-39.62655762838392,32903
-37.14475761595372,32610
-34.66364387015028,34836
-32.18321619582866,35993
-29.70347439776515,36712
-27.224418280657005,35357
-24.74604764912317,39101
-22.26836230770266,56062
-19.7913620608565,65041
-17.315046712966478,65041
-14.83941606833514,65041
-12.36446993118659,65041
-9.89020810566592,65041
-7.416630395839093,65041
-4.94373660569363,65041
-2.471526539137585,65041
-6.821210263296962E-13,65041
2.47084320796705,65041
4.941003281093458,65041
7.410480415786196,65041
9.879274808531363,65041
12.347386655893956,65041
14.814816154518212,65041
17.28156350112681,65041
19.74762889252179,65041
22.21301252558385,65041
24.67771459727237,22560
27.141735304626195,6162
29.605074844762612,5387
32.06773341487792,4819
34.52971121224755,3939
36.99100843422559,4390
39.45162527824516,3614
41.91156194181792,3127
44.370818622535126,2717
46.82939551806646,3116
49.287292826160524,3977
51.74451074464503,4499
54.201049471426245,3932
56.65690920448981,2866
59.112090141899785,2460
61.56659248179983,2352
64.02041642241159,2168
66.4735621620365,1681
68.92602989905402,2017
71.37781983192338,2677
73.82893215918205,3181
76.27936707944684,2973
78.72912479141326,2505
81.17820549385567,2572
83.62660938562783,2755
86.07433666566146,2164
88.5213875329681,1673
90.96776218663751,1706
93.41346082583925,2092
95.85848364982041,2426
98.30283085790859,2575
100.7465026495089,3256
103.18949922410604,2548
105.63182078126385,2004
108.07346752062438,1851
110.51443964190923,1531
112.95473734491827,1424
115.39436082953114,1910
117.83331029570547,1977
120.27158594347827,2491
122.7091879729652,2783
125.1461165843615,2118
127.58237197794062,1937
130.01795435405518,1809
132.4528639131364,1758
134.88710085569494,1632
137.32066538231982,1812
139.75355769367923,1917
142.1857779905207,1609
144.61732647366978,1467
147.04820334403132,1483
149.47840880258934,1590
151.90794305040674,1511
154.33680628862487,1753
156.76499871846443,1662
159.19252054122433,1618
161.61937195828352,1621
164.04555317109896,1736
166.47106438120693,2019
168.89590579022217,2328
171.320077599839,2380
173.7435800118302,2655
176.16641322804742,2712
178.58857745042144,2740
181.01007288096173,2530
183.43089972175687,2652
185.85105817497413,2695
188.27054844285988,2568
190.6893707277394,2661
193.10752523201643,2641
195.5250121581745,2710
197.9418317087751,2682
200.3579840864594,2612
202.7734694939469,2693
205.18828813403627,2829
207.6024402096051,2886
210.01592592360964,2873
212.42874547908548,2858
214.84089907914665,2836
217.2523869269868,2704
219.66320922587727,2746
222.0733661791695,2804
224.48285799029293,2695
226.8916848627572,2821
229.29984700014882,2804
231.7073446061355,2815
234.11417788446204,2825
236.520347038953,2737
238.92585227351185,2884
241.33069379212054,2947
243.73487179884035,2964
246.1383864978112,2967
248.541238093252,2809
250.9434267894609,2845
253.34495279081432,3049
255.74581630176783,2938
258.1460175268563,2732
260.54555667069314,2756
262.9444339379703,2659
265.3426495334594,2758
267.7402036620107,3203
270.1370965285529,3021
272.53332833809407,2893
274.9288992957214,2767
277.32380960660055,2740
279.718059475976,2666
282.1116491091717,2767
284.5045787115897,2560
286.89684848871195,2641
289.2884586460981,2691
291.67940938938807,2680
294.0697009242996,2806
296.4593334566299,2727
298.84830719225477,2724
301.23662233712923,2716
303.6242790972866,2708
306.01127767884,2586
308.39761828798066,2528
310.78330113097934,2567
313.16832641418534,2534
315.5526943440269,2363
317.9364051270112,2391
320.3194589697242,2551
322.70185607883093,2529
325.0835966610754,2505
327.4646809232805,2354
329.8451090723478,2349
332.2248813152577,2268
334.6039978590701,2313
336.9824589109231,2360
339.36026467803447,2354
341.7374153677,2249
344.113911187295,2255
346.48975234427337,2302
348.8649390461686,2184
351.2394715005918,2233
353.61334991523415,2316
355.9865744978655,2187
358.35914545633375,2174
360.73106299856715,2275
363.10232733257146,2201
365.47293866643247,2287
367.84289720831396,2159
370.2122031664593,2213
372.5808567491905,2193
374.9488581649083,2118
377.31620762209275,2111
379.6829053293021,2082
382.0489514951745,2096
384.4143463284262,2043
386.7790900378528,2055
389.14318283232853,2057
391.50662492080653,2085
393.86941651231916,2197
396.23155781597745,2198
398.5930490409713,2126
400.9538903965696,2161
403.3140820921202,2122
405.6736243370498,2119
408.03251734086336,2084
410.3907613131465,2030
412.74835646356166,1984
415.10530300185144,2129
417.4616011378372,2075
419.81725108141893,2011
422.1722530425758,2086
424.5266072313656,2032
426.880313857925,2144
429.2333731324701,2063
431.58578526529516,1991
433.9375504667738,1915
436.2886689473588,2046
438.63914091758113,2045
440.9889665880513,1966
443.33814616945835,1923
445.68667987257015,2027
448.03456790823395,1949
450.3818104873759,1948
452.72840782100013,1957
455.07436012019105,1918
457.41966759611057,1969
459.7643304600007,1919
462.10834892318155,1944
464.4517231970525,1977
466.79445349309174,1990
469.1365400228566,1969
471.4779829979826,2022
473.81878263018564,1925
476.15893913125876,1998
478.4984527130747,1992
480.8373235875855,2103
483.17555196682144,2135
485.5131380628919,2120
487.8500820879857,2196
490.1863842543697,2332
492.52204477439034,2497
494.8570638604725,2684
497.1914417251204,2979
499.52517858091653,3430
501.85827464052306,3764
504.19073011668036,4156
506.5225452222086,4243
508.85372017000566,4152
511.18425517304956,3992
513.514150444396,4055
515.8434061971808,4675
518.1720226446176,5783
520.4999999999999,6024
522.8273384766991,5487
525.1540382881666,5012
527.480099647932,4268
529.8055227696037,3626
532.1303078668694,2889
534.454455153496,2449
536.777964843328,2311
539.1008371502907,2181
541.4230722883866,2148
543.744670471698,2160
546.0656319143858,2184
548.3859568306899,2093
550.7056454349294,2112
553.0246979415016,2110
555.3431145648834,2199
557.6608955196306,2135
559.978041020377,2016
562.2945512818363,1956
564.6104265188006,1950
566.9256669461412,2028
569.2402727788082,2129
571.5542442318302,1925
573.8675815203156,2015
576.1802848594508,2090
578.4923544645015,2064
580.8037905508126,2067
583.114593333807,2099
585.4247630289875,2080
587.7342998519354,2076
590.0432040183106,2018
592.3514757438526,2022
594.6591152443794,2024
596.9661227357875,2048
599.2724984340531,2071
601.578242555231,2026
603.8833553154542,2040
606.1878369309362,2117
608.4916876179676,2101
610.7949075929192,2102
613.0974970722403,1960
615.3994562724587,1995
617.7007854101818,1976
620.0014847020951,1991
622.3015543649641,2039
624.6009946156324,2119
626.8998056710224,2114
629.1979877481361,2040
631.4955410640538,2086
633.7924658359349,2021
636.0887622810175,1995
638.3844306166192,2026
640.6794710601358,2024
642.9738838290426,2033
645.2676691408932,2139
647.5608272133207,2083
649.853358264037,2013
652.1452625108324,2149
654.4365401715764,2089
656.7271914642178,2137
659.0172166067838,2198
661.3066158173809,2212
663.5953893141935,2128
665.8835373154867,2145
668.1710600396028,2069
670.4579577049639,2012
672.7442305300709,2154
675.0298787335033,2108
677.3149025339197,2160
679.599302150058,2087
681.8830778007342,2128
684.1662297048437,2096
686.4487580813608,2161
688.7306631493387,2138
691.0119451279091,2154
693.2926042362834,2178
695.5726406937516,2091
697.8520547196814,1944
700.1308465335215,2009
702.4090163547982,2086
704.6865644031171,2095
706.9634908981619,2075
709.2397960596965,2023
711.5154801075631,2133
713.7905432616823,2130
716.0649857420548,2003
718.3388077687592,2060
720.612009561953,2084
722.8845913418733,2070
725.1565533288352,2102
727.427895743234,2027
729.6986188055427,2052
731.9687227363137,2136
734.238207756178,2004
736.5070740858458,2080
738.7753219461066,2107
741.0429515578281,2034
743.3099631419569,2138
745.5763569195191,2014
747.8421331116193,2047
750.1072919394409,2127
752.3718336242467,2106
754.6357583873777,2175
756.8990664502545,2188
759.1617580343765,2123
761.423833361321,2045
763.6852926527457,2186
765.9461361303862,2143
768.206364016058,2191
770.4659765316536,2205
772.7249738991469,2057
774.9833563405886,2044
777.2411240781092,2125
779.4982773339183,2146
781.7548163303044,2163
784.010741289634,2117
786.2660524343538,2192
788.5207499869881,2155
790.7748341701416,2182
793.0283052064964,2155
795.2811633188143,2087
797.5334087299362,2094
799.7850416627813,2128
802.0360623403484,2087
804.2864709857143,2153
806.5362678220353,2135
808.7854530725468,2158
811.0340269605625,2183
813.2819897094754,2052
815.5293415427581,2159
817.77608268396,2146
820.0222133567116,2128
822.2677337847211,2093
824.5126441917765,2127
826.7569448017433,2096
829.0006358385675,2097
831.2437175262731,2093
833.4861900889629,2065
835.7280537508192,2063
837.9693087361026,2005
840.2099552691533,2130
842.4499935743896,2052
844.689423876309,2065
846.9282463994886,2167
849.1664613685833,2144
851.4040690083276,2220
853.6410695435349,2131
855.877463199097,2083
858.1132501999847,2200
860.3484307712487,2164
862.5830051380175,2079
864.8169735254988,2144
867.0503361589791,2100
869.2830932638243,2091
871.5152450654786,2176
873.7467917894654,2144
875.9777336613873,2118
878.2080709069252,2163
880.4378037518389,2208
882.666932421968,2099
884.8954571432301,2148
887.1233781416219,2168
889.3506956432192,2182
891.5774098741766,2155
893.803521060728,2141
896.0290294291852,2171
898.2539352059397,2190
900.4782386174619,2160
902.7019398903011,2121
904.925039251085,2118
907.147536926521,2151
909.3694331433943,2105
911.59072812857,2181
913.8114221089921,2077
916.0315153116827,2122
918.2510079637437,2140
920.4699002923547,2122
922.6881925247761,2129
924.905884888345,2060
927.1229776104793,2125
929.3394709186747,1992
931.555365040506,2058
933.7706602036275,2069
935.9853566357709,2134
938.1994545647489,2123
940.4129542184515,2084
942.6258558248488,2043
944.8381596119883,2066
947.0498658079974,2172
949.2609746410825,2098
951.4714863395287,2033
953.6814011316998,2049
955.8907192460387,2055
958.0994409110671,2074
960.3075663553858,2058
962.5150958076741,2053
964.7220294966913,2106
966.928367651274,2013
969.1341105003388,2001
971.3392582728806,1971
973.5438111979742,1987
975.747769504772,2009
977.9511334225061,2026
980.153903180487,1948
982.3560790081052,1947
984.5576611348289,2030
986.7586497902058,1974
988.9590452038618,1922
991.158847605503,1880
993.3580572249133,1946
995.5566742919558,1908
997.7546990365728,1894
999.952131688785,1824
1002.1489724786926,1818
1004.3452216364743,1817
1006.5408793923874,1785
1008.7359459767691,1731
1010.9304216200343,1809
1013.1243065526781,1757
1015.3176010052733,1765
1017.510305208472,1741
1019.7024193930064,1720
1021.8939437896848,1724
1024.0848786293977,1704
1026.2752241431122,1735
1028.4649805618747,1795
1030.6541481168115,1769
1032.842727039127,1699
1035.0307175601051,1752
1037.2181199111074,1684
1039.4049343235752,1634
1041.591161029029,1641
1043.7768002590683,1666
1045.9618522453698,1668
1048.1463172196918,1578
1050.3301954138697,1659
1052.513487059818,1627
1054.69619238953,1650
1056.8783116350783,1638
1059.0598450286152,1587
1061.2407928023704,1634
1063.4211551886528,1544
1065.6009324198508,1656
1067.780124728432,1590
1069.9587323469414,1632
1072.1367555080046,1628
1074.314194444325,1606
1076.4910493886855,1613
1078.667320573947,1584
1080.843008233051,1554
1083.0181125990161,1564
1085.1926339049414,1597
1087.3665723840027,1579
1089.5399282694575,1599
1091.7127017946405,1549
1093.8848931929647,1555
1096.0565026979243,1592
1098.2275305430899,1579
1100.3979769621128,1583
1102.567842188722,1563
1104.737126456726,1498
1106.9058300000124,1529
1109.0739530525475,1516
1111.2414958483764,1550
1113.4084586216231,1487
1115.5748416064907,1497
1117.7406450372605,1574
1119.9058691482942,1637
1122.0705141740304,1567
1124.2345803489884,1553
1126.3980679077658,1528
1128.5609770850388,1577
1130.7233081155623,1526
1132.8850612341707,1481
1135.0462366757774,1548
1137.2068346753745,1465
1139.3668554680326,1540
1141.526299288901,1521
1143.68516637321,1501
1145.8434569562655,1465
1148.001171273455,1454
1150.158309560244,1519
1152.3148720521767,1514
1154.470858984876,1473
1156.626270594044,1561
1158.7811071154629,1510
1160.9353687849912,1489
1163.089055838569,1502
1165.242168512213,1518
1167.3947070420209,1504
1169.5466716641677,1547
1171.6980626149075,1510
1173.8488801305748,1502
1175.9991244475814,1511
1178.1487958024186,1524
1180.2978944316555,1547
1182.4464205719428,1550
1184.5943744600072,1524
1186.7417563326567,1441
1188.8885664267755,1470
1191.0348049793297,1485
1193.1804722273619,1491
1195.325568407995,1497
1197.4700937584303,1461
1199.614048515948,1556
1201.7574329179074,1493
1203.900247201746,1444
1206.042491604982,1522
1208.1841663652099,1486
1210.3252717201053,1498
1212.465807907422,1507
1214.6057751649923,1509
1216.7451737307279,1516
1218.8840038426192,1510
1221.0222657387353,1496
1223.1599596572241,1559
1225.2970858363137,1515
1227.4336445143094,1536
1229.5696359295966,1478
1231.705060320639,1579
1233.8399179259786,1573
1235.9742089842384,1577
1238.107933734118,1520
1240.2410924143974,1515
1242.373685263935,1518
1244.5057125216676,1514
1246.6371744266116,1496
1248.7680712178621,1538
1250.898403134593,1509
1253.028170416058,1538
1255.1573733015875,1599
1257.2860120305932,1543
1259.4140868425648,1588
1261.54159797707,1599
1263.6685456737569,1560
1265.7949301723515,1541
1267.9207517126597,1532
1270.046010534565,1571
1272.1707068780306,1553
1274.2948409830983,1508
1276.4184130898889,1521
1278.541423438603,1555
1280.6638722695184,1568
1282.785759822993,1605
1284.9070863394636,1524
1287.0278520594447,1559
1289.1480572235314,1548
1291.2677020723963,1533
1293.3867868467923,1643
1295.5053117875495,1655
1297.623277135579,1605
1299.740683131868,1599
1301.8575300174857,1594
1303.973818033578,1578
1306.0895474213703,1648
1308.2047184221678,1657
1310.3193312773528,1683
1312.4333862283888,1669
1314.5468835168163,1588
1316.659823384255,1610
1318.7722060724045,1592
1320.8840318230418,1597
1322.9953008780249,1604
1325.1060134792888,1601
1327.2161698688478,1632
1329.3257702887959,1608
1331.4348149813054,1620
1333.5433041886276,1681
1335.6512381530933,1639
1337.7586171171101,1631
1339.8654413231675,1621
1341.9717110138317,1682
1344.0774264317488,1615
1346.1825878196432,1629
1348.2871954203192,1572
1350.3912494766587,1590
1352.4947502316231,1592
1354.5976979282532,1634
1356.7000928096686,1596
1358.8019351190665,1638
1360.9032250997243,1628
1363.0039629949988,1597
1365.1041490483235,1565
1367.2037835032133,1630
1369.3028666032606,1590
1371.401398592137,1645
1373.4993797135926,1579
1375.5968102114575,1645
1377.6936903296396,1601
1379.7900203121262,1594
1381.8858004029835,1650
1383.9810308463561,1653
1386.075711886469,1650
1388.1698437676241,1648
1390.2634267342032,1630
1392.356461030667,1638
1394.4489469015557,1608
1396.5408845914872,1622
1398.6322743451592,1598
1400.7231164073469,1578
1402.813411022907,1611
1404.903158436773,1648
1406.9923588939578,1698
1409.0810126395531,1685
1411.1691199187303,1691
1413.2566809767386,1761
1415.343696058907,1682
1417.4301654106425,1736
1419.5160892774315,1701
1421.6014679048399,1740
1423.6863015385125,1676
1425.7705904241707,1725
1427.8543348076178,1714
1429.9375349347342,1698
1432.0201910514802,1652
1434.102303403894,1722
1436.1838722380944,1777
1438.2648978002767,1737
1440.3453803367174,1746
1442.4253200937692,1746
1444.5047173178677,1761
1446.5835722555234,1778
1448.6618851533285,1858
1450.739656257952,1814
1452.8168858161434,1850
1454.8935740747306,1824
1456.96972128062,1871
1459.045327680797,1861
1461.120393522327,1896
1463.1949190523528,1842
1465.2689045180973,1870
1467.3423501668608,1911
1469.415256246024,1874
1471.4876230030463,1994
1473.559450685465,1984
1475.6307395408976,2022
1477.7014898170391,2005
1479.771701761665,2008
1481.8413756226287,2085
1483.9105116478618,2084
1485.9791100853772,2075
1488.0471711832643,2087
1490.1146951896926,2142
1492.1816823529098,2067
1494.2481329212433,2080
1496.3140471430984,2090
1498.3794252669609,2167
1500.4442675413939,2183
1502.5085742150404,2196
1504.572345536622,2254
1506.6355817549388,2195
1508.6982831188702,2219
1510.7604498773744,2257
1512.8220822794883,2232
1514.8831805743293,2238
1516.9437450110909,2300
1519.003775839048,2308
1521.0632733075522,2272
1523.1222376660367,2307
1525.1806691640113,2257
1527.2385680510652,2275
1529.2959345768668,2281
1531.3527689911643,2300
1533.4090715437833,2366
1535.4648424846291,2397
1537.5200820636855,2414
1539.5747905310159,2518
1541.6289681367616,2485
1543.6826151311434,2636
1545.7357317644614,2473
1547.7883182870937,2601
1549.8403749494987,2625
1551.8919020022113,2668
1553.9428996958477,2650
1555.9933682811015,2704
1558.0433080087469,2664
1560.0927191296346,2817
1562.1416018946961,2815
1564.1899565549415,2878
1566.2377833614592,2900
1568.2850825654164,2917
1570.3318544180606,3049
1572.3780991707158,2985
1574.423817074788,2981
1576.4690083817595,2844
1578.5136733431923,2852
1580.5578122107272,2824
1582.601425236085,2745
1584.6445126710646,2642
1586.6870747675434,2489
1588.7291117774776,2460
1590.7706239529034,2314
1592.8116115459347,2263
1594.8520748087658,2236
1596.8920139936686,2137
1598.9314293529933,2004
1600.9703211391711,2017
1603.008689604711,1959
1605.0465350022005,1975
1607.0838575843068,1893
1609.1206576037753,1869
1611.1569353134305,1803
1613.1926909661765,1883
1615.2279248149953,1836
1617.2626371129481,1731
1619.2968281131757,1739
1621.3304980688963,1747
1623.3636472334088,1762
1625.39627586009,1768
1627.428384202396,1706
1629.459972513861,1741
1631.4910410480993,1681
1633.5215900588028,1658
1635.551619799744,1678
1637.5811305247717,1706
1639.6101224878166,1742
1641.6385959428862,1668
1643.6665511440683,1629
1645.693988345528,1702
1647.7209078015112,1617
1649.7473097663405,1610
1651.7731944944203,1642
1653.7985622402307,1626
1655.823413258333,1660
1657.847747803366,1619
1659.8715661300494,1698
1661.8948684931793,1651
1663.9176551476316,1649
1665.9399263483624,1634
1667.9616823504057,1663
1669.982923408873,1682
1672.0036497789574,1614
1674.0238617159293,1591
1676.043559475138,1624
1678.0627433120121,1608
1680.081413482059,1601
1682.0995702408654,1604
1684.117213844096,1641
1686.134344547495,1650
1688.1509626068864,1666
1690.1670682781705,1634
1692.182661817329,1650
1694.1977434804217,1641
1696.2123135235875,1640
1698.226372203043,1643
1700.2399197750851,1646
1702.2529564960905,1689
1704.2654826225112,1632
1706.277498410882,1627
1708.2890041178139,1684
1710.2999999999988,1620
1712.3104863142066,1577
1714.3204633172854,1606
1716.329931266163,1536
1718.3388904178469,1618
1720.3473410294214,1586
1722.3552833580516,1587
1724.3627176609807,1583
1726.3696441955308,1657
1728.3760632191033,1638
1730.3819749891782,1573
1732.3873797633146,1649
1734.3922777991502,1656
1736.3966693544012,1561
1738.4005546868639,1614
1740.4039340544127,1585
1742.406807715001,1581
1744.4091759266616,1609
1746.4110389475054,1576
1748.4123970357223,1594
1750.413250449582,1515
1752.4135994474318,1519
1754.4134442876993,1599
1756.4127852288902,1572
1758.4116225295893,1522
1760.4099564484595,1574
1762.407787244244,1546
1764.405115175764,1557
1766.4019405019203,1566
1768.3982634816916,1557
1770.3940843741357,1612
1772.3894034383907,1531
1774.3842209336717,1546
1776.378537119274,1538
1778.372352254571,1521
1780.3656665990156,1523
1782.3584804121397,1511
1784.3507939535534,1550
1786.3426074829463,1516
1788.3339212600863,1531
1790.3247355448211,1547
1792.3150505970766,1520
1794.3048666768573,1552
1796.2941840442477,1538
1798.2830029594106,1579
1800.2713236825884,1604
1802.2591464741004,1597
1804.2464715943465,1590
1806.2332993038058,1597
1808.2196298630352,1491
1810.2054635326708,1505
1812.190800573428,1547
1814.175641246101,1490
1816.1599858115628,1535
1818.1438345307652,1522
1820.127187664738,1513
1822.1100454745924,1503
1824.092408221516,1525
1826.0742761667766,1536
1828.055649571721,1541
1830.0365286977735,1512
1832.0169138064398,1509
1833.9968051593014,1535
1835.9762030180214,1497
1837.9551076443408,1505
1839.9335193000788,1544
1841.9114382471344,1495
1843.888864747485,1554
1845.8657990631878,1497
1847.842241456378,1471
1849.8181921892697,1512
1851.7936515241558,1545
1853.7686197234098,1490
1855.7430970494815,1473
1857.7170837649014,1516
1859.6905801322787,1505
1861.6635864143004,1451
1863.6361028737338,1502
1865.608129773424,1501
1867.5796673762961,1535
1869.5507159453537,1554
1871.521275743678,1468
1873.4913470344313,1483
1875.4609300808534,1482
1877.4300251462632,1457
1879.3986324940588,1531
1881.366752387717,1568
1883.3343850907936,1497
1885.3015308669228,1538
1887.268189979819,1521
1889.2343626932739,1535
1891.2000492711595,1558
1893.1652499774254,1506
1895.1299650761011,1538
1897.0941948312952,1494
1899.0579395071945,1509
1901.0211993680641,1491
1902.98397467825,1486
1904.9462657021745,1540
1906.9080727043415,1559
1908.869395949332,1529
1910.8302357018065,1547
1912.790592226504,1526
1914.7504657882428,1607
1916.7098566519212,1539
1918.6687650825133,1495
1920.6271913450764,1471
1922.5851357047422,1491
1924.5425984267245,1507
1926.499579776314,1500
1928.4560800188833,1578
1930.4120994198802,1549
1932.367638244833,1507
1934.32269675935,1554
1936.2772752291175,1541
1938.231373919899,1578
1940.1849930975404,1505
1942.1381330279637,1478
1944.0907939771696,1494
1946.0429762112412,1501
1947.9946799963363,1526
1949.9459055986945,1480
1951.896653284633,1524
1953.8469233205478,1530
1955.7967159729142,1536
1957.7460315082863,1526
1959.6948701932974,1568
1961.6432322946594,1533
1963.5911180791632,1507
1965.5385278136787,1458
1967.4854617651545,1508
1969.4319202006182,1491
1971.377903387176,1480
1973.3234115920136,1493
1975.268445082395,1489
1977.2130041256642,1565
1979.1570889892423,1495
1981.1006999406304,1576
1983.04383724741,1591
1984.986501177238,1567
1986.928691997853,1531
1988.8704099770712,1549
1990.811655382789,1492
1992.7524284829801,1528
1994.692729545698,1510
1996.6325588390755,1505
1998.5719166313224,1555
2000.5108031907307,1491
2002.4492187856677,1522
2004.387163684583,1508
2006.3246381560011,1488
2008.2616424685298,1499
2010.1981768908527,1438
2012.1342416917332,1454
2014.069837140014,1499
2016.0049635046162,1560
2017.9396210545406,1546
2019.8738100588666,1609
2021.8075307867502,1508
2023.740783507431,1522
2025.6735684902228,1502
2027.6058860045214,1536
2029.5377363198004,1515
2031.4691197056118,1549
2033.4000364315875,1507
2035.3304867674374,1464
2037.260470982952,1480
2039.189989347998,1498
2041.1190421325232,1543
2043.047629606554,1519
2044.9757520401945,1523
2046.9034097036288,1519
2048.8306028671195,1467
2050.7573318010086,1592
2052.683596775716,1501
2054.609398061742,1513
2056.5347359296647,1504
2058.4596106501403,1487
2060.384022493906,1478
2062.3079717317764,1567
2064.231458634646,1549
2066.1544834734873,1516
2068.077046519352,1545
2069.99914804337,1519
2071.9207883167524,1482
2073.8419676107865,1462
2075.7626861968406,1437
2077.6829443463607,1497
2079.6027423308715,1540
2081.522080421977,1442
2083.440958891362,1490
2085.359378010786,1566
2087.2773380520907,1452
2089.194839287196,1516
2091.111881988101,1501
2093.0284664268825,1513
2094.9445928756973,1445
2096.86026160678,1506
2098.775472892446,1573
2100.690227005088,1515
2102.604524217178,1502
2104.5183648012676,1530
2106.431749029985,1493
2108.34467717604,1511
2110.2571495122206,1579
2112.169166311393,1499
2114.080727846503,1538
2115.9918343905747,1529
2117.902486216711,1529
2119.8126835980956,1500
2121.722426807987,1448
2123.6317161197285,1503
2125.5405518067364,1523
2127.448934142509,1498
2129.356863400624,1521
2131.264339854737,1503
2133.1713637785815,1517
2135.077935445972,1569
2136.9840551308002,1561
2138.889723107037,1495
2140.7949396487334,1480
2142.699705030018,1503
2144.6040195250994,1551
2146.507883408264,1518
2148.4112969538774,1523
2150.3142604363848,1512
2152.2167741303097,1558
2154.1188383102535,1529
2156.0204532508997,1546
2157.9216192270064,1523
2159.822336513414,1526
2161.7226053850413,1584
2163.622426116884,1512
2165.5217989840185,1512
2167.4207242616,1528
2169.319202224862,1504
2171.2172331491165,1541
2173.1148173097563,1447
2175.0119549822507,1534
2176.90864644215,1467
2178.8048919650823,1552
2180.7006918267534,1564
2182.596046302952,1547
2184.4909556695407,1589
2186.3854202024645,1527
2188.279440177746,1524
2190.173015871487,1541
2192.066147559868,1581
2193.958835519149,1539
2195.851080025667,1520
2197.7428813558417,1494
2199.6342397861667,1574
2201.5251555932186,1564
2203.415629053651,1526
2205.3056604441986,1543
2207.19525004167,1578
2209.084398122958,1515
2210.9731049650327,1561
2212.861370844941,1534
2214.749196039812,1586
2216.636580826851,1615
2218.523525483344,1609
2220.410030286655,1552
2222.296095514226,1601
2224.1817214435805,1575
2226.066908352319,1562
2227.951656518121,1599
2229.835966218746,1616
2231.71983773203,1592
2233.6032713358913,1596
2235.486267308324,1580
2237.3688259274036,1546
2239.2509474712824,1622
2241.132632218193,1574
2243.013880446447,1554
2244.8946924344323,1579
2246.7750684606203,1563
2248.6550088035574,1571
2250.534513741871,1565
2252.413583554265,1580
2254.292218519526,1577
2256.170418916517,1547
2258.0481850241786,1633
2259.925517121534,1535
2261.8024154876825,1572
2263.678880401803,1549
2265.5549121431536,1586
2267.430510991071,1602
2269.305677224971,1579
2271.180411124348,1519
2273.0547129687766,1540
2274.9285830379076,1550
2276.8020216114737,1510
2278.6750289692845,1545
2280.5476053912294,1569
2282.4197511572766,1625
2284.2914665474727,1628
2286.162751841943,1571
2288.0336073208937,1581
2289.904033264608,1610
2291.774029953448,1617
2293.6435976678554,1621
2295.5127366883517,1559
2297.381447295534,1501
2299.2497297700825,1492
2301.1175843927526,1435
2302.9850114443825,1485
2304.852011205885,1457
2306.7185839582553,1423
2308.5847299825664,1349
2310.4504495599676,1458
2312.3157429716925,1419
2314.1806104990483,1390
2316.0450524234247,1335
2317.9090690262888,1349
2319.772660589186,1395
2321.635827393742,1388
2323.498569721661,1362
2325.3608878547248,1410
2327.2227820747967,1387
2329.0842526638157,1387
2330.945299903803,1315
2332.805924076857,1289
2334.6661254651535,1353
2336.525904350951,1342
2338.3852610165827,1293
2340.244195744464,1335
2342.102708817088,1372
2343.9608005170253,1386
2345.8184711269287,1385
2347.675720929526,1341
2349.532550207628,1327
2351.38895924412,1329
2353.24494832197,1308
2355.100517724223,1331
2356.955667734004,1378
2358.810398634514,1379
2360.664710709037,1344
2362.5186042409337,1379
2364.3720795136437,1369
2366.225136810686,1347
2368.0777764156583,1327
2369.929998612237,1341
2371.7818036841777,1407
2373.633191915315,1324
2375.484163589562,1362
2377.3347189909114,1399
2379.184858403434,1373
2381.03458211128,1331
2382.8838903986775,1345
2384.732783549936,1386
2386.5812618494406,1366
2388.4293255816588,1437
2390.2769750311327,1434
2392.1242104824883,1376
2393.971032220427,1441
2395.8174405297295,1394
2397.6634356952563,1358
2399.509018001947,1427
2401.3541877348193,1393
2403.1989451789705,1440
2405.043290619576,1382
2406.8872243418905,1315
2408.730746631247,1389
2410.5738577730594,1418
2412.4165580528183,1326
2414.258847756095,1367
2416.100727168537,1403
2417.9421965758734,1355
2419.783256263912,1422
2421.623906518538,1412
2423.4641476257157,1376
2425.303979871491,1416
2427.143403541984,1387
2428.9824189233977,1377
2430.821026302012,1371
2432.6592259641866,1376
2434.497018196361,1382
2436.33440328505,1387
2438.171381516851,1402
2440.00795317844,1431
2441.844118556569,1462
2443.6798779380724,1457
2445.5152316098606,1496
2447.3501798589255,1461
2449.1847229723357,1384
2451.0188612372403,1462
2452.8525949408663,1421
2454.6859243705203,1445
2456.518849813587,1370
2458.3513715575314,1442
2460.183489889895,1440
2462.015205098301,1365
2463.8465174704493,1393
2465.67742729412,1416
2467.5079348571717,1386
2469.338040447542,1411
2471.1677443532476,1433
2472.9970468623833,1346
2474.825948263123,1442
2476.6544488437207,1427
2478.482548892508,1421
2480.310248697896,1431
2482.137548548374,1422
2483.9644487325118,1377
2485.790949538956,1429
2487.617051256433,1397
2489.44275417375,1369
2491.26805857979,1424
2493.0929647635157,1449
2494.917473013971,1428
2496.741583620276,1398
2498.5652968716304,1434
2500.3886130573137,1459
2502.2115324666834,1514
2504.0340553891765,1434
2505.856182114308,1464
2507.6779129316733,1464
2509.499248130945,1465
2511.3201880018764,1425
2513.140732834298,1419
2514.9608829181198,1453
2516.780638543331,1463
2518.6,1439
2520.418967578273,1463
2522.237541568376,1525
2524.0557222606144,1514
2525.8735099453706,1512
2527.6909049131086,1503
2529.507907454368,1449
2531.32451785977,1486
2533.140736420014,1426
2534.9565634258774,1522
2536.771999168218,1541
2538.5870439379714,1472
2540.4016980261526,1444
2542.2159617238544,1479
2544.02983532225,1496
2545.8433191125914,1567
2547.656413386209,1512
2549.4691184345115,1531
2551.2814345489874,1585
2553.093362021204,1561
2554.904901142808,1530
2556.716052205523,1571
2558.526815501153,1626
2560.3371913215824,1572
2562.147179958771,1546
2563.956781704761,1594
2565.7659968516705,1625
2567.5748256916986,1582
2569.3832685171224,1603
2571.1913256202984,1693
2572.9989972936614,1630
2574.806283829725,1572
2576.613185521084,1662
2578.4197026604074,1699
2580.2258355404483,1666
2582.031584454035,1687
2583.836949694077,1629
2585.6419315535613,1711
2587.4465303255533,1665
2589.2507463032002,1689
2591.0545797797245,1791
2592.8580310484303,1723
2594.6611004026995,1671
2596.463788135992,1749
2598.266094541849,1780
2600.0680199138874,1719
2601.869564545807,1714
2603.670728731383,1748
2605.4715127644704,1711
2607.2719169390048,1734
2609.071941548998,1780
2610.8715868885433,1733
2612.670853251811,1746
2614.469740933052,1693
2616.268250226594,1706
2618.0663814268455,1690
2619.864134828292,1686
2621.6615107255006,1685
2623.458509413115,1668
2625.2551311858597,1750
2627.0513763385347,1732
2628.8472451660223,1716
2630.6427379632833,1688
2632.4378550253564,1670
2634.232596647359,1697
2636.026963124488,1656
2637.8209547520187,1660
2639.6145718253065,1650
2641.407814639785,1654
2643.200683490966,1633
2644.9931786744414,1640
2646.7853004858807,1594
2648.577049221034,1603
2650.3684251757277,1565
2652.1594286458712,1579
2653.9500599274484,1579
2655.740319316525,1562
2657.5302071092437,1596
2659.3197236018286,1607
2661.10886909058,1561
2662.8976438718782,1546
2664.686048242183,1542
2666.4740824980327,1514
2668.2617469360443,1485
2670.0490418529134,1528
2671.8359675454153,1464
2673.622524310403,1512
2675.408712444811,1413
2677.1945322456495,1482
2678.979984010009,1530
2680.76506803506,1453
2682.5497846180497,1423
2684.334134056306,1449
2686.1181166472343,1482
2687.9017326883213,1394
2689.6849824771293,1435
2691.4678663113013,1408
2693.2503844885596,1373
2695.032537306705,1438
2696.8143250636167,1398
2698.5957480572542,1404
2700.3768065856534,1444
2702.1575009469316,1412
2703.937831439283,1391
2705.717798360982,1426
2707.4974020103837,1455
2709.276642685917,1364
2711.055520686095,1395
2712.834036309506,1394
2714.612189854819,1377
2716.389981620782,1398
2718.1674119062204,1389
2719.944481010041,1389
2721.721189231226,1323
2723.4975368688415,1399
2725.273524222027,1418
2727.0491515900053,1359
2728.824419272075,1362
2730.5993275676146,1350
2732.3738767760838,1380
2734.148067197016,1314
2735.921899130031,1416
2737.6953728748194,1420
2739.468488731156,1379
2741.2412469988926,1386
2743.0136479779617,1348
2744.785691968372,1367
2746.5573792702116,1334
2748.3287101836504,1358
2750.099685008934,1320
2751.870304046388,1294
2753.640567596418,1344
2755.4104759595057,1348
2757.1800294362156,1346
2758.949228327187,1345
2760.7180729331412,1358
2762.486563554877,1406
2764.254700493272,1362
2766.022484049284,1382
2767.789914523947,1356
2769.5569922183786,1323
2771.3237174337705,1387
2773.090090471394,1401
2774.8561116326036,1328
2776.6217812188274,1331
2778.3870995315756,1330
2780.1520668724356,1377
2781.9166835430747,1353
2783.6809498452394,1356
2785.444866080754,1377
2787.2084325515225,1336
2788.971649559527,1355
2790.73451740683,1346
2792.4970363955713,1376
2794.2592068279705,1390
2796.0210290063264,1351
2797.7825032330147,1363
2799.543629810493,1305
2801.304409041296,1372
2803.0648412280366,1326
2804.8249266734088,1398
2806.5846656801846,1341
2808.344058551212,1327
2810.1031055894246,1322
2811.8618070978273,1356
2813.6201633795085,1384
2815.378174737636,1414
2817.1358414754536,1373
2818.893163896285,1358
2820.6501423035334,1316
2822.4067770006814,1342
2824.1630682912883,1380
2825.9190164789957,1359
2827.6746218675207,1319
2829.429884760661,1283
2831.184805462294,1357
2832.9393842763743,1347
2834.693621506936,1375
2836.4475174580916,1362
2838.201072434034,1424
2839.954286739034,1413
2841.707160677441,1376
2843.459694553685,1352
2845.2118886722724,1387
2846.96374333779,1375
2848.7152588549034,1358
2850.4664355283567,1332
2852.217273662973,1348
2853.9677735636546,1293
2855.7179355353833,1310
2857.4677598832186,1337
2859.217246912299,1324
2860.9663969278427,1363
2862.715210235146,1317
2864.4636871395846,1337
2866.211827946614,1364
2867.9596329617652,1366
2869.7071024906536,1386
2871.4542368389684,1396
2873.20103631248,1292
2874.947501217038,1362
2876.6936318585695,1383
2878.4394285430812,1355
2880.1848915766604,1362
2881.9300212654707,1330
2883.6748179157553,1364
2885.4192818338374,1336
2887.1634133261173,1315
2888.907212699077,1405
2890.6506802592744,1409
2892.393816313348,1369
2894.1366211680142,1393
2895.8790951300693,1363
2897.621238506388,1359
2899.363051603925,1380
2901.1045347297118,1353
2902.8456881908596,1359
2904.58651229456,1357
2906.327007348081,1409
2908.067173658772,1388
2909.8070115340597,1373
2911.5465212814497,1361
2913.285703208527,1385
2915.0245576229563,1320
2916.7630848324807,1356
2918.5012851449196,1361
2920.2391588681758,1353
2921.976706310227,1310
2923.7139277791334,1366
2925.4508235830313,1319
2927.187394030137,1360
2928.923639428745,1371
2930.6595600872306,1362
2932.395156314046,1407
2934.1304284177218,1363
2935.8653767068713,1411
2937.6000014901815,1382
2939.3343030764227,1350
2941.068281774442,1359
2942.8019378931644,1407
2944.5352717415976,1359
2946.2682836288236,1337
2948.0009738640065,1382
2949.7333427563885,1396
2951.465390615289,1324
2953.1971177501086,1347
2954.9285244703265,1333
2956.6596110855,1329
2958.3903779052657,1318
2960.1208252393385,1340
2961.8509533975125,1412
2963.5807626896617,1333
2965.3102534257378,1325
2967.0394259157715,1315
2968.768280469873,1357
2970.496817398232,1356
2972.2250370111146,1388
2973.952939618869,1328
2975.6805255319196,1378
2977.4077950607707,1335
2979.134748516006,1358
2980.861386208289,1365
2982.587708448359,1402
2984.313715547037,1374
2986.039407815222,1305
2987.764785563891,1347
2989.489849104102,1356
2991.2145987469908,1384
2992.9390348037705,1351
2994.6631575857346,1307
2996.3869674042576,1292
2998.1104645707887,1329
2999.83364939686,1335
3001.5565221940783,1325
3003.2790832741334,1335
3005.0013329487924,1391
3006.7232715298996,1271
3008.4448993293804,1299
3010.166216659239,1327
3011.887223831558,1330
3013.607921158498,1361
3015.3283089522993,1288
3017.0483875252826,1367
3018.7681571898443,1343
3020.4876182584626,1327
3022.2067710436927,1286
3023.9256158581707,1336
3025.644153014609,1325
3027.362382825801,1328
3029.0803056046193,1330
3030.797921664012,1341
3032.5152313170106,1352
3034.2322348767225,1340
3035.9489326563353,1284
3037.665324969115,1298
3039.3814121284063,1256
3041.097194447633,1323
3042.812672240299,1347
3044.5278458199855,1352
3046.2427155003525,1347
3047.9572815951406,1312
3049.671544418167,1317
3051.38550428333,1364
3053.0991615046073,1293
3054.812516396051,1334
3056.5255692717974,1258
3058.2383204460575,1316
3059.9507702331257,1323
3061.662918947372,1330
3063.3747669032446,1399
3065.0863144152736,1325
3066.7975617980674,1302
3068.508509366309,1289
3070.219157434767,1303
3071.9295063182844,1315
3073.639556331785,1310
3075.3493077902704,1281
3077.058761008821,1331
3078.7679163025964,1272
3080.476773986837,1280
3082.1853343768594,1336
3083.89359778806,1302
3085.6015645359153,1331
3087.3092349359786,1324
3089.016609303884,1314
3090.7236879553434,1301
3092.4304712061476,1304
3094.136959372166,1373
3095.843152769349,1358
3097.5490517137237,1345
3099.2546565213966,1326
3100.959967508554,1305
3102.66498499146,1387
3104.3697092864577,1414
3106.0741407099695,1353
3107.778279578498,1274
3109.482126208622,1346
3111.1856809170004,1307
3112.8889440203716,1362
3114.5919158355528,1326
3116.294596679439,1336
3117.996986869006,1321
3119.6990867213062,1384
3121.4008965534726,1379
3123.102416682717,1384
3124.803647426329,1384
3126.5045891016784,1392
3128.205242026213,1404
3129.90560651746,1327
3131.605682893025,1381
3133.3054714705922,1325
3135.0049725679282,1378
3136.7041865028714,1364
3138.4031135933465,1319
3140.101754157353,1293
3141.800108512971,1357
3143.498176978357,1331
3145.1959598717494,1294
3146.8934575114636,1332
3148.5906702158954,1300
3150.2875983035183,1289
3151.9842420928853,1273
3153.680601902627,1361
3155.376678051456,1294
3157.07247085816,1326
3158.767980641609,1348
3160.463207720748,1295
3162.158152414606,1306
3163.8528150422862,1330
3165.5471959229726,1340
3167.2412953759303,1351
3168.9351137204976,1315
3170.628651276098,1337
3172.3219083622307,1326
3174.014885298474,1327
3175.707582404485,1358
3177.4000000000005,1359
3179.092138404835,1346
3180.7839979388846,1305
3182.47557892212,1360
3184.166881674594,1297
3185.8579065164386,1356
3187.5486537678626,1343
3189.2391237491547,1305
3190.9293167806827,1327
3192.6192331828934,1313
3194.3088732763117,1325
3195.998237381542,1305
3197.687325819268,1392
3199.376138910251,1324
3201.064676975334,1289
3202.7529403354347,1312
3204.4409293115523,1293
3206.1286442247647,1293
3207.816085396229,1325
3209.5032531471825,1303
3211.190147798936,1294
3212.8767696728846,1325
3214.5631190905015,1380
3216.2491963733373,1330
3217.9350018430214,1349
3219.6205358212637,1303
3221.305798629851,1294
3222.990790590651,1321
3224.6755120256103,1299
3226.359963256751,1284
3228.0441446061795,1270
3229.7280563960758,1292
3231.411698948703,1224
3233.0950725863995,1256
3234.778177631587,1381
3236.461014406761,1334
3238.1435832345005,1321
3239.8258844374595,1317
3241.507918338374,1277
3243.1896852600576,1335
3244.8711855254023,1282
3246.552419457381,1269
3248.233387379042,1281
3249.914089613516,1318
3251.59452648401,1349
3253.274698313813,1327
3254.95460542629,1295
3256.6342481448855,1287
3258.313626793125,1358
3259.9927416946084,1302
3261.6715931730196,1347
3263.3501815521176,1269
3265.0285071557437,1258
3266.706570307815,1327
3268.3843713323286,1288
3270.0619105533615,1349
3271.739188295068,1269
3273.4162048816834,1265
3275.0929606375184,1339
3276.769455886966,1305
3278.445690954498,1329
3280.1216661646613,1346
3281.797381842087,1234
3283.4728383114807,1314
3285.1480358976296,1321
3286.8229749253996,1280
3288.4976557197333,1273
3290.172078605655,1277
3291.846243908266,1284
3293.5201519527463,1285
3295.193803064357,1318
3296.8671975684374,1334
3298.5403357904024,1295
3300.21321805575,1292
3301.8858446900567,1272
3303.558216018975,1297
3305.23033236824,1274
3306.9021940636603,1247
3308.57380143113,1279
3310.2451547966184,1311
3311.916254486174,1350
3313.5871008259246,1324
3315.2576941420766,1338
3316.9280347609147,1314
3318.5981230088046,1333
3320.2679592121895,1291
3321.9375436975924,1306
3323.606876791612,1308
3325.27595882093,1306
3326.944790112305,1273
3328.6133709925753,1317
3330.2817017886573,1287
3331.949782827547,1327
3333.617614436319,1254
3335.2851969421245,1269
3336.952530672199,1288
3338.619615953853,1368
3340.286453114475,1332
3341.9530424815357,1356
3343.619384382583,1327
3345.2854791452437,1343
3346.951327097224,1238
3348.6169285663073,1336
3350.2822838803577,1325
3351.947393367319,1309
3353.61225735521,1341
3355.2768761721345,1273
3356.9412501462693,1293
3358.605379605873,1293
3360.2692648792827,1319
3361.9329062949146,1266
3363.596304181263,1280
