CollectionTime,7/3/2024 2:15:38 PM
ExposureUsed,3
CalibratedSpectrum
-962.7078968117929,518
-959.9714848408522,592
-957.2358232597828,562
-954.5009119013725,568
-951.7667505983302,604
-949.0333391832855,571
-946.3006774887896,621
-943.5687653473143,619
-940.837602591253,575
-938.1071890529199,594
-935.3775245645503,599
-932.6486089583007,636
-929.9204420662485,656
-927.1930237203925,602
-924.4663537526524,595
-921.7404319948689,560
-919.0152582788041,574
-916.2908324361409,632
-913.5671542984834,564
-910.8442236973568,550
-908.1220404642074,565
-905.4006044304027,593
-902.679915427231,598
-899.959973285902,580
-897.2407778375464,569
-894.5223289132158,564
-891.8046263438832,550
-889.0876699604426,538
-886.3714595937089,540
-883.6559950744183,576
-880.9412762332282,537
-878.2273029007168,542
-875.5140749073835,586
-872.8015920836489,578
-870.0898542598545,607
-867.3788612662631,554
-864.6686129330585,569
-861.9591090903457,562
-859.2503495681506,540
-856.5423341964203,606
-853.8350628050229,588
-851.1285352237478,583
-848.4227512823054,644
-845.7177108103272,608
-843.0134136373656,603
-840.3098595928943,597
-837.6070485063082,583
-834.9049802069229,570
-832.2036545239757,604
-829.5030712866244,565
-826.8032303239481,590
-824.1041314649472,601
-821.4057745385428,600
-818.7081593735775,638
-816.0112857988148,594
-813.3151536429393,571
-810.6197627345566,607
-807.9251129021936,595
-805.2312039742981,588
-802.5380357792392,624
-799.8456081453069,661
-797.1539209007124,663
-794.462973873588,671
-791.772766891987,626
-789.083299783884,606
-786.3945723771743,596
-783.7065844996748,588
-781.0193359791231,560
-778.3328266431781,613
-775.6470563194197,604
-772.9620248353489,558
-770.2777320183878,616
-767.5941776958798,593
-764.9113616950891,611
-762.2292838432011,622
-759.5479439673222,590
-756.8673418944801,600
-754.1874774516235,615
-751.5083504656222,631
-748.8299607632671,616
-746.15230817127,618
-743.475392516264,696
-740.7992136248035,602
-738.1237713233636,611
-735.4490654383407,620
-732.7750957960521,681
-730.1018622227365,631
-727.4293645445534,612
-724.7576025875837,595
-722.0865761778291,627
-719.4162851412126,676
-716.7467293035781,649
-714.0779084906909,643
-711.409822528237,660
-708.7424712418238,583
-706.0758544569796,607
-703.4099719991541,617
-700.7448236937178,676
-698.0804093659622,656
-695.4167288411002,696
-692.7537819442656,667
-690.0915685005134,612
-687.4300883348199,650
-684.7693412720819,682
-682.1093271371178,709
-679.4500457546669,716
-676.7914969493897,672
-674.1336805458676,596
-671.4765963686034,651
-668.8202442420206,671
-666.1646239904642,688
-663.5097354382001,646
-660.8555784094151,604
-658.2021527282176,644
-655.5494582186366,689
-652.8974947046223,707
-650.2462620100463,688
-647.5957599587009,702
-644.9459883742998,721
-642.2969470804776,713
-639.6486359007902,816
-637.0010546587141,754
-634.3542031776476,675
-631.7080812809096,732
-629.0626887917401,665
-626.4180255333008,643
-623.7740913286734,711
-621.1308860008619,744
-618.4884093727904,688
-615.8466612673046,700
-613.2056415071715,699
-610.5653499150785,677
-607.9257863136347,762
-605.28695052537,716
-602.6488423727357,700
-600.0114616781036,667
-597.3748082637674,694
-594.7388819519412,758
-592.1036825647604,852
-589.4692099242818,808
-586.8354638524829,740
-584.2024441712624,778
-581.5701507024403,809
-578.9385832677575,783
-576.3077416888759,788
-573.6776257873787,723
-571.0482353847704,729
-568.4195703024757,792
-565.7916303618415,754
-563.164415384135,715
-560.5379251905453,739
-557.9121596021815,729
-555.2871184400748,687
-552.6628015251767,711
-550.0392086783606,738
-547.4163397204204,808
-544.794194472071,774
-542.1727727539491,844
-539.5520743866118,867
-536.9320991905377,847
-534.3128469861261,816
-531.6943175936979,863
-529.0765108334947,879
-526.4594265256793,867
-523.8430644903358,979
-521.2274245474689,1158
-518.612506517005,1282
-515.9983102187913,1286
-513.3848354725959,1179
-510.77208209810846,1339
-508.16004991493924,1515
-505.5487387426199,1625
-502.9381484006032,1742
-500.3282787082628,1721
-497.71912948489364,1582
-495.1107005497117,1468
-492.5029917218539,1225
-489.8960028203786,1105
-487.28973366426493,1002
-484.68418407241325,960
-482.07935386364494,949
-479.47524285670266,883
-476.87185087025,916
-474.2691777228715,945
-471.66722323307334,920
-469.0659872192821,924
-466.4654694998459,922
-463.86566989303384,951
-461.26658821703614,964
-458.66822428996414,920
-456.07057792985,935
-453.4736489546475,918
-450.877437182231,887
-448.28194243039627,885
-445.68716451686,891
-443.09310325926003,901
-440.49975847515555,925
-437.9071299820263,917
-435.31521759727354,926
-432.72402113821954,981
-430.13354042210767,995
-427.5437752661022,950
-424.95472548728867,1001
-422.36639090267386,983
-419.7787713291855,1013
-417.1918665836721,1111
-414.60567648290385,1088
-412.0202008435715,980
-409.4354394822874,1004
-406.8513922155845,1151
-404.26805885991723,1142
-401.685439231661,1044
-399.103533147112,1102
-396.522340422488,1062
-393.9418608739278,995
-391.3620943174908,999
-388.7830405691583,972
-386.2046994448317,981
-383.6270707603344,928
-381.05015433141045,981
-378.473949973725,877
-375.8984575028645,865
-373.32367673433623,824
-370.74960748356875,770
-368.1762495659117,779
-365.60360279663576,715
-363.03166699093265,663
-360.4604419639154,627
-357.8899275306178,659
-355.32012350599507,654
-352.7510297049233,618
-350.1826459421999,555
-347.61497203254316,609
-345.04800779059235,620
-342.4817530309082,587
-339.91620756797226,650
-337.35137121618743,733
-334.7872437898774,757
-332.22382510328725,756
-329.66111497058273,648
-327.09911320585127,693
-324.53781962310075,635
-321.9772340362607,680
-319.4173562591816,604
-316.8581861056348,616
-314.2997233893127,579
-311.7419679238294,639
-309.1849195227194,741
-306.62857799943856,701
-304.0729431673641,763
-301.51801483979375,792
-298.963792829947,722
-296.41027695096386,835
-293.85746701590574,791
-291.3053628377552,776
-288.7539642294155,778
-286.2032710037115,804
-283.65328297338897,766
-281.1039999511146,872
-278.5554217494762,1074
-276.007548180983,1160
-273.4603790580651,947
-270.9139141930734,968
-268.3681533982807,1054
-265.8230964858798,1073
-263.27874326798565,1077
-260.7350935566336,1060
-258.1921471637804,996
-255.6499039013039,1024
-253.10836358100266,1007
-250.56752601459698,923
-248.02739101372765,969
-245.48795838995704,1083
-242.94922795476816,902
-240.41119951956557,984
-237.8738728956746,1049
-235.33724789434166,1130
-232.80132432673452,1086
-230.2661020039418,924
-227.73158073697357,1066
-225.19776033676033,1230
-222.66464061415422,1316
-220.1322213799284,1088
-217.60050244477725,865
-215.06948361931552,860
-212.53916471408013,1242
-210.00954553952818,1579
-207.48062590603843,1344
-204.9524056239104,1163
-202.4248845033651,1296
-199.8980623545441,1395
-197.37193898751036,1328
-194.84651421224817,1198
-192.32178783866232,1150
-189.79775967657952,1333
-187.27442953574644,1579
-184.7517972258321,1521
-182.2298625564256,1523
-179.7086253370378,1397
-177.18808537710026,1102
-174.66824248596583,1467
-172.14909647290835,1758
-169.6306471471229,1698
-167.11289431772548,1460
-164.59583779375328,1538
-162.07947738416453,1670
-159.5638128978386,2208
-157.04884414357605,3029
-154.53457093009854,2873
-152.02099306604828,1982
-149.50811035998936,1603
-146.99592262040665,1876
-144.48442965570587,2227
-141.97363127421409,3224
-139.46352728417958,3538
-136.95411749377126,3147
-134.44540171107985,2511
-131.93737974411636,2189
-129.43005140081357,2165
-126.92341648902493,2777
-124.41747481652521,3720
-121.91222619101006,5460
-119.40767042009657,7067
-116.90380731132257,7136
-114.40063667214702,5338
-111.8981583099503,3519
-109.3963720320337,2552
-106.89527764561933,2821
-104.39487495785067,4653
-101.89516377579241,7196
-99.39614390642998,7961
-96.89781515667039,6895
-94.40017733334128,7970
-91.90323024319173,13572
-89.40697369289148,18124
-86.91140748903172,20484
-84.41653143812482,14313
-81.92234534660395,8931
-79.42884902082358,14781
-76.93604226705907,33191
-74.4439248915071,50108
-71.95249670028534,59465
-69.46175749943245,52080
-66.97170709490854,38229
-64.48234529259423,24881
-61.99367189829195,16336
-59.50568671772464,13201
-57.01838955653636,11574
-54.53178022029283,11038
-52.045858514480074,15427
-49.560624244506016,19169
-47.07607721569923,23794
-44.59221723330904,28082
-42.10904410250669,28902
-39.62655762838392,26209
-37.14475761595372,26929
-34.66364387015028,30298
-32.18321619582866,30590
-29.70347439776515,31023
-27.224418280657005,32636
-24.74604764912317,37476
-22.26836230770266,54925
-19.7913620608565,65040
-17.315046712966478,65040
-14.83941606833514,65040
-12.36446993118659,65040
-9.89020810566592,65040
-7.416630395839093,65040
-4.94373660569363,65040
-2.471526539137585,65040
-6.821210263296962E-13,65040
2.47084320796705,65040
4.941003281093458,65040
7.410480415786196,65040
9.879274808531363,65040
12.347386655893956,65040
14.814816154518212,65040
17.28156350112681,65040
19.74762889252179,65040
22.21301252558385,65040
24.67771459727237,22699
27.141735304626195,6223
29.605074844762612,5347
32.06773341487792,4755
34.52971121224755,3931
36.99100843422559,4227
39.45162527824516,3416
41.91156194181792,3157
44.370818622535126,2676
46.82939551806646,2830
49.287292826160524,3750
51.74451074464503,4420
54.201049471426245,4225
56.65690920448981,3012
59.112090141899785,2496
61.56659248179983,2573
64.02041642241159,2397
66.4735621620365,1738
68.92602989905402,2100
71.37781983192338,2841
73.82893215918205,3324
76.27936707944684,3098
78.72912479141326,2592
81.17820549385567,2638
83.62660938562783,2873
86.07433666566146,2346
88.5213875329681,1760
90.96776218663751,1764
93.41346082583925,2160
95.85848364982041,2599
98.30283085790859,2647
100.7465026495089,3164
103.18949922410604,2586
105.63182078126385,1959
108.07346752062438,1751
110.51443964190923,1608
112.95473734491827,1413
115.39436082953114,1841
117.83331029570547,1954
120.27158594347827,2502
122.7091879729652,2998
125.1461165843615,2377
127.58237197794062,2067
130.01795435405518,1918
132.4528639131364,1706
134.88710085569494,1570
137.32066538231982,1910
139.75355769367923,2112
142.1857779905207,1701
144.61732647366978,1448
147.04820334403132,1463
149.47840880258934,1557
151.90794305040674,1612
154.33680628862487,1775
156.76499871846443,1669
159.19252054122433,1622
161.61937195828352,1737
164.04555317109896,1770
166.47106438120693,1992
168.89590579022217,2288
171.320077599839,2496
173.7435800118302,2719
176.16641322804742,2830
178.58857745042144,2956
181.01007288096173,2730
183.43089972175687,2720
185.85105817497413,2760
188.27054844285988,2645
190.6893707277394,2715
193.10752523201643,2773
195.5250121581745,2667
197.9418317087751,2644
200.3579840864594,2732
202.7734694939469,2878
205.18828813403627,2861
207.6024402096051,3034
210.01592592360964,2937
212.42874547908548,3024
214.84089907914665,2958
217.2523869269868,2843
219.66320922587727,2787
222.0733661791695,2801
224.48285799029293,2855
226.8916848627572,2913
229.29984700014882,3075
231.7073446061355,2952
234.11417788446204,2804
236.520347038953,2886
238.92585227351185,2981
241.33069379212054,3059
243.73487179884035,3128
246.1383864978112,3068
248.541238093252,3096
250.9434267894609,3033
253.34495279081432,3229
255.74581630176783,3075
258.1460175268563,2979
260.54555667069314,2892
262.9444339379703,2803
265.3426495334594,2944
267.7402036620107,3141
270.1370965285529,3097
272.53332833809407,2961
274.9288992957214,2841
277.32380960660055,2859
279.718059475976,2908
282.1116491091717,2829
284.5045787115897,2715
286.89684848871195,2717
289.2884586460981,2753
291.67940938938807,2822
294.0697009242996,2895
296.4593334566299,2856
298.84830719225477,2693
301.23662233712923,2723
303.6242790972866,2742
306.01127767884,2653
308.39761828798066,2593
310.78330113097934,2645
313.16832641418534,2614
315.5526943440269,2524
317.9364051270112,2438
320.3194589697242,2538
322.70185607883093,2529
325.0835966610754,2466
327.4646809232805,2452
329.8451090723478,2320
332.2248813152577,2282
334.6039978590701,2313
336.9824589109231,2418
339.36026467803447,2350
341.7374153677,2315
344.113911187295,2342
346.48975234427337,2313
348.8649390461686,2216
351.2394715005918,2313
353.61334991523415,2268
355.9865744978655,2275
358.35914545633375,2267
360.73106299856715,2416
363.10232733257146,2340
365.47293866643247,2219
367.84289720831396,2315
370.2122031664593,2177
372.5808567491905,2245
374.9488581649083,2152
377.31620762209275,2051
379.6829053293021,2131
382.0489514951745,2185
384.4143463284262,2206
386.7790900378528,2073
389.14318283232853,2118
391.50662492080653,2190
393.86941651231916,2188
396.23155781597745,2087
398.5930490409713,2124
400.9538903965696,2192
403.3140820921202,2126
405.6736243370498,2165
408.03251734086336,2074
410.3907613131465,1992
412.74835646356166,2096
415.10530300185144,2141
417.4616011378372,2109
419.81725108141893,2141
422.1722530425758,2073
424.5266072313656,2074
426.880313857925,2070
429.2333731324701,2028
431.58578526529516,2003
433.9375504667738,2057
436.2886689473588,2002
438.63914091758113,2065
440.9889665880513,1946
443.33814616945835,2024
445.68667987257015,1954
448.03456790823395,2011
450.3818104873759,1997
452.72840782100013,1977
455.07436012019105,1993
457.41966759611057,1961
459.7643304600007,1981
462.10834892318155,1951
464.4517231970525,1980
466.79445349309174,1963
469.1365400228566,2052
471.4779829979826,1925
473.81878263018564,2005
476.15893913125876,2006
478.4984527130747,2075
480.8373235875855,2058
483.17555196682144,2203
485.5131380628919,2248
487.8500820879857,2254
490.1863842543697,2316
492.52204477439034,2555
494.8570638604725,2658
497.1914417251204,3040
499.52517858091653,3424
501.85827464052306,3810
504.19073011668036,4043
506.5225452222086,4177
508.85372017000566,4128
511.18425517304956,4012
513.514150444396,4094
515.8434061971808,4707
518.1720226446176,5747
520.4999999999999,6087
522.8273384766991,5612
525.1540382881666,5156
527.480099647932,4301
529.8055227696037,3635
532.1303078668694,2926
534.454455153496,2500
536.777964843328,2406
539.1008371502907,2218
541.4230722883866,2213
543.744670471698,2131
546.0656319143858,2219
548.3859568306899,2173
550.7056454349294,2162
553.0246979415016,2168
555.3431145648834,2290
557.6608955196306,2152
559.978041020377,2018
562.2945512818363,2052
564.6104265188006,2029
566.9256669461412,2134
569.2402727788082,2074
571.5542442318302,2173
573.8675815203156,2068
576.1802848594508,2176
578.4923544645015,2118
580.8037905508126,2116
583.114593333807,2177
585.4247630289875,2096
587.7342998519354,2094
590.0432040183106,2064
592.3514757438526,2067
594.6591152443794,2082
596.9661227357875,2108
599.2724984340531,2055
601.578242555231,2087
603.8833553154542,2123
606.1878369309362,2123
608.4916876179676,2137
610.7949075929192,2046
613.0974970722403,2061
615.3994562724587,2078
617.7007854101818,2090
620.0014847020951,2013
622.3015543649641,2079
624.6009946156324,2111
626.8998056710224,2086
629.1979877481361,2164
631.4955410640538,2076
633.7924658359349,2059
636.0887622810175,2053
638.3844306166192,2063
640.6794710601358,2093
642.9738838290426,2093
645.2676691408932,2157
647.5608272133207,2122
649.853358264037,2074
652.1452625108324,2191
654.4365401715764,2102
656.7271914642178,2197
659.0172166067838,2170
661.3066158173809,2241
663.5953893141935,2225
665.8835373154867,2141
668.1710600396028,2112
670.4579577049639,2188
672.7442305300709,2232
675.0298787335033,2118
677.3149025339197,2131
679.599302150058,2120
681.8830778007342,2125
684.1662297048437,2163
686.4487580813608,2217
688.7306631493387,2141
691.0119451279091,2136
693.2926042362834,2162
695.5726406937516,2051
697.8520547196814,2125
700.1308465335215,2095
702.4090163547982,2104
704.6865644031171,2088
706.9634908981619,2017
709.2397960596965,2154
711.5154801075631,2117
713.7905432616823,2182
716.0649857420548,2131
718.3388077687592,2160
720.612009561953,2143
722.8845913418733,2138
725.1565533288352,2221
727.427895743234,2134
729.6986188055427,2140
731.9687227363137,2084
734.238207756178,2050
736.5070740858458,2126
738.7753219461066,2142
741.0429515578281,2023
743.3099631419569,2091
745.5763569195191,2003
747.8421331116193,2084
750.1072919394409,2122
752.3718336242467,2156
754.6357583873777,2218
756.8990664502545,2195
759.1617580343765,2120
761.423833361321,2108
763.6852926527457,2165
765.9461361303862,2198
768.206364016058,2168
770.4659765316536,2127
772.7249738991469,2126
774.9833563405886,2202
777.2411240781092,2174
779.4982773339183,2236
781.7548163303044,2211
784.010741289634,2176
786.2660524343538,2187
788.5207499869881,2210
790.7748341701416,2147
793.0283052064964,2120
795.2811633188143,2179
797.5334087299362,2169
799.7850416627813,2211
802.0360623403484,2131
804.2864709857143,2147
806.5362678220353,2196
808.7854530725468,2127
811.0340269605625,2149
813.2819897094754,2217
815.5293415427581,2131
817.77608268396,2204
820.0222133567116,2150
822.2677337847211,2099
824.5126441917765,2135
826.7569448017433,2139
829.0006358385675,2192
831.2437175262731,2105
833.4861900889629,2124
835.7280537508192,2104
837.9693087361026,2159
840.2099552691533,2162
842.4499935743896,2110
844.689423876309,2101
846.9282463994886,2197
849.1664613685833,2235
851.4040690083276,2154
853.6410695435349,2230
855.877463199097,2140
858.1132501999847,2107
860.3484307712487,2209
862.5830051380175,2130
864.8169735254988,2174
867.0503361589791,2086
869.2830932638243,2190
871.5152450654786,2196
873.7467917894654,2219
875.9777336613873,2061
878.2080709069252,2225
880.4378037518389,2172
882.666932421968,2182
884.8954571432301,2110
887.1233781416219,2201
889.3506956432192,2207
891.5774098741766,2215
893.803521060728,2206
896.0290294291852,2118
898.2539352059397,2186
900.4782386174619,2116
902.7019398903011,2152
904.925039251085,2185
907.147536926521,2203
909.3694331433943,2114
911.59072812857,2148
913.8114221089921,2197
916.0315153116827,2258
918.2510079637437,2162
920.4699002923547,2157
922.6881925247761,2191
924.905884888345,2133
927.1229776104793,2170
929.3394709186747,2125
931.555365040506,2059
933.7706602036275,2118
935.9853566357709,2110
938.1994545647489,2097
940.4129542184515,2168
942.6258558248488,2128
944.8381596119883,2058
947.0498658079974,2178
949.2609746410825,2162
951.4714863395287,2075
953.6814011316998,2122
955.8907192460387,2068
958.0994409110671,2124
960.3075663553858,2061
962.5150958076741,2108
964.7220294966913,2127
966.928367651274,2127
969.1341105003388,2036
971.3392582728806,2073
973.5438111979742,2038
975.747769504772,2018
977.9511334225061,1998
980.153903180487,1923
982.3560790081052,2079
984.5576611348289,2015
986.7586497902058,1974
988.9590452038618,1958
991.158847605503,1957
993.3580572249133,1958
995.5566742919558,1901
997.7546990365728,1859
999.952131688785,1853
1002.1489724786926,1971
1004.3452216364743,1838
1006.5408793923874,1858
1008.7359459767691,1820
1010.9304216200343,1822
1013.1243065526781,1774
1015.3176010052733,1716
1017.510305208472,1767
1019.7024193930064,1816
1021.8939437896848,1704
1024.0848786293977,1805
1026.2752241431122,1754
1028.4649805618747,1780
1030.6541481168115,1753
1032.842727039127,1804
1035.0307175601051,1757
1037.2181199111074,1793
1039.4049343235752,1703
1041.591161029029,1706
1043.7768002590683,1688
1045.9618522453698,1681
1048.1463172196918,1682
1050.3301954138697,1731
1052.513487059818,1666
1054.69619238953,1714
1056.8783116350783,1601
1059.0598450286152,1637
1061.2407928023704,1662
1063.4211551886528,1624
1065.6009324198508,1664
1067.780124728432,1670
1069.9587323469414,1656
1072.1367555080046,1692
1074.314194444325,1661
1076.4910493886855,1635
1078.667320573947,1649
1080.843008233051,1617
1083.0181125990161,1583
1085.1926339049414,1616
1087.3665723840027,1616
1089.5399282694575,1655
1091.7127017946405,1666
1093.8848931929647,1626
1096.0565026979243,1693
1098.2275305430899,1684
1100.3979769621128,1581
1102.567842188722,1575
1104.737126456726,1571
1106.9058300000124,1510
1109.0739530525475,1585
1111.2414958483764,1532
1113.4084586216231,1508
1115.5748416064907,1472
1117.7406450372605,1518
1119.9058691482942,1539
1122.0705141740304,1578
1124.2345803489884,1467
1126.3980679077658,1648
1128.5609770850388,1572
1130.7233081155623,1519
1132.8850612341707,1564
1135.0462366757774,1546
1137.2068346753745,1591
1139.3668554680326,1519
1141.526299288901,1553
1143.68516637321,1538
1145.8434569562655,1545
1148.001171273455,1519
1150.158309560244,1535
1152.3148720521767,1489
1154.470858984876,1512
1156.626270594044,1513
1158.7811071154629,1545
1160.9353687849912,1522
1163.089055838569,1497
1165.242168512213,1467
1167.3947070420209,1489
1169.5466716641677,1557
1171.6980626149075,1510
1173.8488801305748,1489
1175.9991244475814,1601
1178.1487958024186,1588
1180.2978944316555,1536
1182.4464205719428,1453
1184.5943744600072,1495
1186.7417563326567,1523
1188.8885664267755,1519
1191.0348049793297,1471
1193.1804722273619,1426
1195.325568407995,1563
1197.4700937584303,1465
1199.614048515948,1581
1201.7574329179074,1520
1203.900247201746,1465
1206.042491604982,1497
1208.1841663652099,1473
1210.3252717201053,1539
1212.465807907422,1540
1214.6057751649923,1545
1216.7451737307279,1525
1218.8840038426192,1477
1221.0222657387353,1533
1223.1599596572241,1538
1225.2970858363137,1573
1227.4336445143094,1495
1229.5696359295966,1530
1231.705060320639,1522
1233.8399179259786,1556
1235.9742089842384,1543
1238.107933734118,1513
1240.2410924143974,1534
1242.373685263935,1567
1244.5057125216676,1517
1246.6371744266116,1566
1248.7680712178621,1500
1250.898403134593,1480
1253.028170416058,1567
1255.1573733015875,1582
1257.2860120305932,1560
1259.4140868425648,1603
1261.54159797707,1566
1263.6685456737569,1564
1265.7949301723515,1541
1267.9207517126597,1577
1270.046010534565,1561
1272.1707068780306,1540
1274.2948409830983,1578
1276.4184130898889,1572
1278.541423438603,1540
1280.6638722695184,1596
1282.785759822993,1583
1284.9070863394636,1663
1287.0278520594447,1606
1289.1480572235314,1596
1291.2677020723963,1643
1293.3867868467923,1639
1295.5053117875495,1730
1297.623277135579,1641
1299.740683131868,1615
1301.8575300174857,1584
1303.973818033578,1635
1306.0895474213703,1599
1308.2047184221678,1660
1310.3193312773528,1680
1312.4333862283888,1736
1314.5468835168163,1672
1316.659823384255,1711
1318.7722060724045,1596
1320.8840318230418,1622
1322.9953008780249,1645
1325.1060134792888,1668
1327.2161698688478,1683
1329.3257702887959,1648
1331.4348149813054,1629
1333.5433041886276,1655
1335.6512381530933,1651
1337.7586171171101,1644
1339.8654413231675,1625
1341.9717110138317,1677
1344.0774264317488,1630
1346.1825878196432,1657
1348.2871954203192,1619
1350.3912494766587,1653
1352.4947502316231,1648
1354.5976979282532,1643
1356.7000928096686,1624
1358.8019351190665,1642
1360.9032250997243,1569
1363.0039629949988,1549
1365.1041490483235,1607
1367.2037835032133,1645
1369.3028666032606,1587
1371.401398592137,1623
1373.4993797135926,1626
1375.5968102114575,1662
1377.6936903296396,1610
1379.7900203121262,1669
1381.8858004029835,1636
1383.9810308463561,1649
1386.075711886469,1638
1388.1698437676241,1652
1390.2634267342032,1638
1392.356461030667,1682
1394.4489469015557,1661
1396.5408845914872,1611
1398.6322743451592,1657
1400.7231164073469,1705
1402.813411022907,1701
1404.903158436773,1675
1406.9923588939578,1648
1409.0810126395531,1638
1411.1691199187303,1676
1413.2566809767386,1693
1415.343696058907,1755
1417.4301654106425,1750
1419.5160892774315,1730
1421.6014679048399,1672
1423.6863015385125,1726
1425.7705904241707,1687
1427.8543348076178,1759
1429.9375349347342,1732
1432.0201910514802,1704
1434.102303403894,1725
1436.1838722380944,1837
1438.2648978002767,1812
1440.3453803367174,1804
1442.4253200937692,1805
1444.5047173178677,1845
1446.5835722555234,1842
1448.6618851533285,1897
1450.739656257952,1862
1452.8168858161434,1855
1454.8935740747306,1879
1456.96972128062,1850
1459.045327680797,1930
1461.120393522327,1950
1463.1949190523528,1970
1465.2689045180973,1983
1467.3423501668608,2008
1469.415256246024,2041
1471.4876230030463,2073
1473.559450685465,2076
1475.6307395408976,2077
1477.7014898170391,2158
1479.771701761665,2133
1481.8413756226287,2139
1483.9105116478618,2097
1485.9791100853772,2123
1488.0471711832643,2171
1490.1146951896926,2216
1492.1816823529098,2190
1494.2481329212433,2213
1496.3140471430984,2312
1498.3794252669609,2297
1500.4442675413939,2304
1502.5085742150404,2304
1504.572345536622,2254
1506.6355817549388,2309
1508.6982831188702,2374
1510.7604498773744,2389
1512.8220822794883,2386
1514.8831805743293,2454
1516.9437450110909,2434
1519.003775839048,2428
1521.0632733075522,2450
1523.1222376660367,2408
1525.1806691640113,2378
1527.2385680510652,2503
1529.2959345768668,2515
1531.3527689911643,2532
1533.4090715437833,2642
1535.4648424846291,2662
1537.5200820636855,2609
1539.5747905310159,2713
1541.6289681367616,2670
1543.6826151311434,2729
1545.7357317644614,2736
1547.7883182870937,2800
1549.8403749494987,2766
1551.8919020022113,2881
1553.9428996958477,2884
1555.9933682811015,2943
1558.0433080087469,2913
1560.0927191296346,3000
1562.1416018946961,3003
1564.1899565549415,3076
1566.2377833614592,3132
1568.2850825654164,3215
1570.3318544180606,3244
1572.3780991707158,3263
1574.423817074788,3163
1576.4690083817595,3126
1578.5136733431923,3049
1580.5578122107272,2999
1582.601425236085,2885
1584.6445126710646,2684
1586.6870747675434,2657
1588.7291117774776,2546
1590.7706239529034,2504
1592.8116115459347,2330
1594.8520748087658,2322
1596.8920139936686,2262
1598.9314293529933,2166
1600.9703211391711,2171
1603.008689604711,2059
1605.0465350022005,2009
1607.0838575843068,1955
1609.1206576037753,1923
1611.1569353134305,1889
1613.1926909661765,1941
1615.2279248149953,1865
1617.2626371129481,1807
1619.2968281131757,1809
1621.3304980688963,1850
1623.3636472334088,1683
1625.39627586009,1779
1627.428384202396,1748
1629.459972513861,1730
1631.4910410480993,1751
1633.5215900588028,1718
1635.551619799744,1750
1637.5811305247717,1700
1639.6101224878166,1685
1641.6385959428862,1662
1643.6665511440683,1749
1645.693988345528,1748
1647.7209078015112,1745
1649.7473097663405,1651
1651.7731944944203,1625
1653.7985622402307,1631
1655.823413258333,1638
1657.847747803366,1678
1659.8715661300494,1680
1661.8948684931793,1638
1663.9176551476316,1630
1665.9399263483624,1666
1667.9616823504057,1665
1669.982923408873,1616
1672.0036497789574,1755
1674.0238617159293,1692
1676.043559475138,1563
1678.0627433120121,1630
1680.081413482059,1653
1682.0995702408654,1654
1684.117213844096,1603
1686.134344547495,1626
1688.1509626068864,1625
1690.1670682781705,1629
1692.182661817329,1701
1694.1977434804217,1678
1696.2123135235875,1645
1698.226372203043,1658
1700.2399197750851,1685
1702.2529564960905,1697
1704.2654826225112,1624
1706.277498410882,1628
1708.2890041178139,1618
1710.2999999999988,1621
1712.3104863142066,1654
1714.3204633172854,1650
1716.329931266163,1610
1718.3388904178469,1660
1720.3473410294214,1628
1722.3552833580516,1646
1724.3627176609807,1607
1726.3696441955308,1618
1728.3760632191033,1667
1730.3819749891782,1680
1732.3873797633146,1599
1734.3922777991502,1650
1736.3966693544012,1633
1738.4005546868639,1521
1740.4039340544127,1625
1742.406807715001,1585
1744.4091759266616,1559
1746.4110389475054,1573
1748.4123970357223,1587
1750.413250449582,1623
1752.4135994474318,1599
1754.4134442876993,1618
1756.4127852288902,1606
1758.4116225295893,1551
1760.4099564484595,1591
1762.407787244244,1581
1764.405115175764,1561
1766.4019405019203,1534
1768.3982634816916,1534
1770.3940843741357,1581
1772.3894034383907,1506
1774.3842209336717,1601
1776.378537119274,1620
1778.372352254571,1563
1780.3656665990156,1483
1782.3584804121397,1590
1784.3507939535534,1548
1786.3426074829463,1535
1788.3339212600863,1562
1790.3247355448211,1575
1792.3150505970766,1515
1794.3048666768573,1563
1796.2941840442477,1505
1798.2830029594106,1470
1800.2713236825884,1564
1802.2591464741004,1578
1804.2464715943465,1552
1806.2332993038058,1576
1808.2196298630352,1593
1810.2054635326708,1505
1812.190800573428,1473
1814.175641246101,1515
1816.1599858115628,1519
1818.1438345307652,1589
1820.127187664738,1497
1822.1100454745924,1485
1824.092408221516,1495
1826.0742761667766,1506
1828.055649571721,1528
1830.0365286977735,1489
1832.0169138064398,1565
1833.9968051593014,1579
1835.9762030180214,1549
1837.9551076443408,1555
1839.9335193000788,1519
1841.9114382471344,1533
1843.888864747485,1464
1845.8657990631878,1501
1847.842241456378,1480
1849.8181921892697,1505
1851.7936515241558,1515
1853.7686197234098,1515
1855.7430970494815,1446
1857.7170837649014,1498
1859.6905801322787,1503
1861.6635864143004,1488
1863.6361028737338,1554
1865.608129773424,1529
1867.5796673762961,1400
1869.5507159453537,1548
1871.521275743678,1482
1873.4913470344313,1503
1875.4609300808534,1530
1877.4300251462632,1474
1879.3986324940588,1526
1881.366752387717,1487
1883.3343850907936,1553
1885.3015308669228,1524
1887.268189979819,1533
1889.2343626932739,1516
1891.2000492711595,1511
1893.1652499774254,1552
1895.1299650761011,1473
1897.0941948312952,1456
1899.0579395071945,1502
1901.0211993680641,1561
1902.98397467825,1577
1904.9462657021745,1531
1906.9080727043415,1552
1908.869395949332,1600
1910.8302357018065,1577
1912.790592226504,1533
1914.7504657882428,1510
1916.7098566519212,1509
1918.6687650825133,1550
1920.6271913450764,1571
1922.5851357047422,1487
1924.5425984267245,1536
1926.499579776314,1533
1928.4560800188833,1532
1930.4120994198802,1572
1932.367638244833,1558
1934.32269675935,1609
1936.2772752291175,1571
1938.231373919899,1491
1940.1849930975404,1516
1942.1381330279637,1540
1944.0907939771696,1481
1946.0429762112412,1530
1947.9946799963363,1519
1949.9459055986945,1439
1951.896653284633,1496
1953.8469233205478,1597
1955.7967159729142,1546
1957.7460315082863,1565
1959.6948701932974,1488
1961.6432322946594,1537
1963.5911180791632,1557
1965.5385278136787,1510
1967.4854617651545,1574
1969.4319202006182,1550
1971.377903387176,1548
1973.3234115920136,1510
1975.268445082395,1522
1977.2130041256642,1531
1979.1570889892423,1558
1981.1006999406304,1514
1983.04383724741,1499
1984.986501177238,1531
1986.928691997853,1546
1988.8704099770712,1559
1990.811655382789,1481
1992.7524284829801,1491
1994.692729545698,1509
1996.6325588390755,1581
1998.5719166313224,1519
2000.5108031907307,1566
2002.4492187856677,1458
2004.387163684583,1482
2006.3246381560011,1548
2008.2616424685298,1519
2010.1981768908527,1493
2012.1342416917332,1488
2014.069837140014,1516
2016.0049635046162,1510
2017.9396210545406,1522
2019.8738100588666,1486
2021.8075307867502,1550
2023.740783507431,1552
2025.6735684902228,1555
2027.6058860045214,1514
2029.5377363198004,1551
2031.4691197056118,1541
2033.4000364315875,1515
2035.3304867674374,1500
2037.260470982952,1450
2039.189989347998,1481
2041.1190421325232,1497
2043.047629606554,1512
2044.9757520401945,1516
2046.9034097036288,1453
2048.8306028671195,1470
2050.7573318010086,1502
2052.683596775716,1516
2054.609398061742,1569
2056.5347359296647,1485
2058.4596106501403,1477
2060.384022493906,1470
2062.3079717317764,1533
2064.231458634646,1493
2066.1544834734873,1531
2068.077046519352,1543
2069.99914804337,1492
2071.9207883167524,1508
2073.8419676107865,1522
2075.7626861968406,1510
2077.6829443463607,1546
2079.6027423308715,1515
2081.522080421977,1458
2083.440958891362,1445
2085.359378010786,1507
2087.2773380520907,1484
2089.194839287196,1532
2091.111881988101,1496
2093.0284664268825,1459
2094.9445928756973,1539
2096.86026160678,1420
2098.775472892446,1567
2100.690227005088,1528
2102.604524217178,1495
2104.5183648012676,1474
2106.431749029985,1504
2108.34467717604,1499
2110.2571495122206,1546
2112.169166311393,1493
2114.080727846503,1464
2115.9918343905747,1529
2117.902486216711,1471
2119.8126835980956,1565
2121.722426807987,1479
2123.6317161197285,1466
2125.5405518067364,1471
2127.448934142509,1542
2129.356863400624,1500
2131.264339854737,1486
2133.1713637785815,1526
2135.077935445972,1517
2136.9840551308002,1496
2138.889723107037,1528
2140.7949396487334,1487
2142.699705030018,1497
2144.6040195250994,1480
2146.507883408264,1525
2148.4112969538774,1544
2150.3142604363848,1541
2152.2167741303097,1516
2154.1188383102535,1500
2156.0204532508997,1528
2157.9216192270064,1519
2159.822336513414,1504
2161.7226053850413,1490
2163.622426116884,1554
2165.5217989840185,1508
2167.4207242616,1512
2169.319202224862,1529
2171.2172331491165,1592
2173.1148173097563,1561
2175.0119549822507,1563
2176.90864644215,1532
2178.8048919650823,1531
2180.7006918267534,1560
2182.596046302952,1562
2184.4909556695407,1560
2186.3854202024645,1535
2188.279440177746,1559
2190.173015871487,1532
2192.066147559868,1563
2193.958835519149,1525
2195.851080025667,1546
2197.7428813558417,1506
2199.6342397861667,1489
2201.5251555932186,1547
2203.415629053651,1586
2205.3056604441986,1601
2207.19525004167,1526
2209.084398122958,1638
2210.9731049650327,1598
2212.861370844941,1554
2214.749196039812,1655
2216.636580826851,1607
2218.523525483344,1566
2220.410030286655,1562
2222.296095514226,1565
2224.1817214435805,1583
2226.066908352319,1609
2227.951656518121,1563
2229.835966218746,1557
2231.71983773203,1592
2233.6032713358913,1570
2235.486267308324,1593
2237.3688259274036,1578
2239.2509474712824,1531
2241.132632218193,1546
2243.013880446447,1541
2244.8946924344323,1515
2246.7750684606203,1552
2248.6550088035574,1567
2250.534513741871,1502
2252.413583554265,1536
2254.292218519526,1520
2256.170418916517,1463
2258.0481850241786,1497
2259.925517121534,1587
2261.8024154876825,1539
2263.678880401803,1568
2265.5549121431536,1584
2267.430510991071,1532
2269.305677224971,1607
2271.180411124348,1562
2273.0547129687766,1618
2274.9285830379076,1537
2276.8020216114737,1527
2278.6750289692845,1540
2280.5476053912294,1584
2282.4197511572766,1580
2284.2914665474727,1630
2286.162751841943,1578
2288.0336073208937,1590
2289.904033264608,1557
2291.774029953448,1624
2293.6435976678554,1567
2295.5127366883517,1587
2297.381447295534,1522
2299.2497297700825,1481
2301.1175843927526,1499
2302.9850114443825,1451
2304.852011205885,1408
2306.7185839582553,1405
2308.5847299825664,1342
2310.4504495599676,1385
2312.3157429716925,1387
2314.1806104990483,1384
2316.0450524234247,1403
2317.9090690262888,1404
2319.772660589186,1347
2321.635827393742,1302
2323.498569721661,1370
2325.3608878547248,1406
2327.2227820747967,1379
2329.0842526638157,1405
2330.945299903803,1394
2332.805924076857,1335
2334.6661254651535,1331
2336.525904350951,1354
2338.3852610165827,1296
2340.244195744464,1376
2342.102708817088,1381
2343.9608005170253,1368
2345.8184711269287,1327
2347.675720929526,1336
2349.532550207628,1360
2351.38895924412,1376
2353.24494832197,1381
2355.100517724223,1367
2356.955667734004,1399
2358.810398634514,1348
2360.664710709037,1418
2362.5186042409337,1413
2364.3720795136437,1341
2366.225136810686,1381
2368.0777764156583,1357
2369.929998612237,1416
2371.7818036841777,1385
2373.633191915315,1369
2375.484163589562,1366
2377.3347189909114,1393
2379.184858403434,1359
2381.03458211128,1449
2382.8838903986775,1399
2384.732783549936,1404
2386.5812618494406,1342
2388.4293255816588,1390
2390.2769750311327,1338
2392.1242104824883,1364
2393.971032220427,1389
2395.8174405297295,1349
2397.6634356952563,1401
2399.509018001947,1431
2401.3541877348193,1388
2403.1989451789705,1471
2405.043290619576,1381
2406.8872243418905,1376
2408.730746631247,1409
2410.5738577730594,1378
2412.4165580528183,1360
2414.258847756095,1371
2416.100727168537,1394
2417.9421965758734,1359
2419.783256263912,1364
2421.623906518538,1414
2423.4641476257157,1416
2425.303979871491,1404
2427.143403541984,1411
2428.9824189233977,1427
2430.821026302012,1413
2432.6592259641866,1468
2434.497018196361,1417
2436.33440328505,1432
2438.171381516851,1476
2440.00795317844,1413
2441.844118556569,1463
2443.6798779380724,1470
2445.5152316098606,1427
2447.3501798589255,1414
2449.1847229723357,1421
2451.0188612372403,1386
2452.8525949408663,1436
2454.6859243705203,1436
2456.518849813587,1421
2458.3513715575314,1412
2460.183489889895,1449
2462.015205098301,1432
2463.8465174704493,1404
2465.67742729412,1453
2467.5079348571717,1451
2469.338040447542,1444
2471.1677443532476,1413
2472.9970468623833,1392
2474.825948263123,1421
2476.6544488437207,1375
2478.482548892508,1421
2480.310248697896,1442
2482.137548548374,1444
2483.9644487325118,1382
2485.790949538956,1408
2487.617051256433,1410
2489.44275417375,1463
2491.26805857979,1447
2493.0929647635157,1438
2494.917473013971,1404
2496.741583620276,1480
2498.5652968716304,1425
2500.3886130573137,1468
2502.2115324666834,1459
2504.0340553891765,1449
2505.856182114308,1428
2507.6779129316733,1401
2509.499248130945,1467
2511.3201880018764,1481
2513.140732834298,1447
2514.9608829181198,1462
2516.780638543331,1483
2518.6,1450
2520.418967578273,1420
2522.237541568376,1515
2524.0557222606144,1507
2525.8735099453706,1506
2527.6909049131086,1497
2529.507907454368,1515
2531.32451785977,1529
2533.140736420014,1488
2534.9565634258774,1520
2536.771999168218,1486
2538.5870439379714,1494
2540.4016980261526,1594
2542.2159617238544,1502
2544.02983532225,1529
2545.8433191125914,1593
2547.656413386209,1518
2549.4691184345115,1554
2551.2814345489874,1602
2553.093362021204,1621
2554.904901142808,1672
2556.716052205523,1614
2558.526815501153,1608
2560.3371913215824,1559
2562.147179958771,1613
2563.956781704761,1574
2565.7659968516705,1587
2567.5748256916986,1651
2569.3832685171224,1657
2571.1913256202984,1630
2572.9989972936614,1664
2574.806283829725,1632
2576.613185521084,1723
2578.4197026604074,1634
2580.2258355404483,1742
2582.031584454035,1779
2583.836949694077,1749
2585.6419315535613,1683
2587.4465303255533,1775
2589.2507463032002,1707
2591.0545797797245,1729
2592.8580310484303,1711
2594.6611004026995,1722
2596.463788135992,1734
2598.266094541849,1757
2600.0680199138874,1666
2601.869564545807,1770
2603.670728731383,1779
2605.4715127644704,1736
2607.2719169390048,1749
2609.071941548998,1807
2610.8715868885433,1741
2612.670853251811,1751
2614.469740933052,1756
2616.268250226594,1796
2618.0663814268455,1765
2619.864134828292,1722
2621.6615107255006,1729
2623.458509413115,1786
2625.2551311858597,1734
2627.0513763385347,1726
2628.8472451660223,1745
2630.6427379632833,1720
2632.4378550253564,1730
2634.232596647359,1703
2636.026963124488,1633
2637.8209547520187,1636
2639.6145718253065,1617
2641.407814639785,1619
2643.200683490966,1636
2644.9931786744414,1636
2646.7853004858807,1628
2648.577049221034,1678
2650.3684251757277,1660
2652.1594286458712,1635
2653.9500599274484,1464
2655.740319316525,1547
2657.5302071092437,1534
2659.3197236018286,1579
2661.10886909058,1536
2662.8976438718782,1598
2664.686048242183,1499
2666.4740824980327,1467
2668.2617469360443,1469
2670.0490418529134,1512
2671.8359675454153,1485
2673.622524310403,1498
2675.408712444811,1467
2677.1945322456495,1482
2678.979984010009,1462
2680.76506803506,1485
2682.5497846180497,1436
2684.334134056306,1481
2686.1181166472343,1501
2687.9017326883213,1473
2689.6849824771293,1465
2691.4678663113013,1467
2693.2503844885596,1469
2695.032537306705,1440
2696.8143250636167,1426
2698.5957480572542,1400
2700.3768065856534,1393
2702.1575009469316,1438
2703.937831439283,1378
2705.717798360982,1411
2707.4974020103837,1402
2709.276642685917,1404
2711.055520686095,1371
2712.834036309506,1365
2714.612189854819,1425
2716.389981620782,1396
2718.1674119062204,1384
2719.944481010041,1418
2721.721189231226,1381
2723.4975368688415,1435
2725.273524222027,1395
2727.0491515900053,1389
2728.824419272075,1432
2730.5993275676146,1381
2732.3738767760838,1359
2734.148067197016,1348
2735.921899130031,1427
2737.6953728748194,1395
2739.468488731156,1376
2741.2412469988926,1357
2743.0136479779617,1303
2744.785691968372,1349
2746.5573792702116,1362
2748.3287101836504,1363
2750.099685008934,1359
2751.870304046388,1311
2753.640567596418,1407
2755.4104759595057,1428
2757.1800294362156,1353
2758.949228327187,1352
2760.7180729331412,1322
2762.486563554877,1395
2764.254700493272,1371
2766.022484049284,1419
2767.789914523947,1358
2769.5569922183786,1304
2771.3237174337705,1403
2773.090090471394,1346
2774.8561116326036,1345
2776.6217812188274,1342
2778.3870995315756,1408
2780.1520668724356,1403
2781.9166835430747,1367
2783.6809498452394,1272
2785.444866080754,1323
2787.2084325515225,1354
2788.971649559527,1392
2790.73451740683,1384
2792.4970363955713,1367
2794.2592068279705,1340
2796.0210290063264,1406
2797.7825032330147,1369
2799.543629810493,1355
2801.304409041296,1332
2803.0648412280366,1339
2804.8249266734088,1344
2806.5846656801846,1374
2808.344058551212,1328
2810.1031055894246,1288
2811.8618070978273,1380
2813.6201633795085,1389
2815.378174737636,1400
2817.1358414754536,1353
2818.893163896285,1344
2820.6501423035334,1321
2822.4067770006814,1331
2824.1630682912883,1419
2825.9190164789957,1374
2827.6746218675207,1286
2829.429884760661,1369
2831.184805462294,1318
2832.9393842763743,1399
2834.693621506936,1347
2836.4475174580916,1394
2838.201072434034,1325
2839.954286739034,1374
2841.707160677441,1310
2843.459694553685,1368
2845.2118886722724,1352
2846.96374333779,1320
2848.7152588549034,1337
2850.4664355283567,1312
2852.217273662973,1346
2853.9677735636546,1330
2855.7179355353833,1339
2857.4677598832186,1346
2859.217246912299,1335
2860.9663969278427,1333
2862.715210235146,1357
2864.4636871395846,1324
2866.211827946614,1357
2867.9596329617652,1320
2869.7071024906536,1284
2871.4542368389684,1340
2873.20103631248,1277
2874.947501217038,1361
2876.6936318585695,1312
2878.4394285430812,1342
2880.1848915766604,1332
2881.9300212654707,1329
2883.6748179157553,1282
2885.4192818338374,1324
2887.1634133261173,1331
2888.907212699077,1356
2890.6506802592744,1343
2892.393816313348,1372
2894.1366211680142,1384
2895.8790951300693,1405
2897.621238506388,1327
2899.363051603925,1357
2901.1045347297118,1341
2902.8456881908596,1388
2904.58651229456,1381
2906.327007348081,1319
2908.067173658772,1408
2909.8070115340597,1374
2911.5465212814497,1342
2913.285703208527,1352
2915.0245576229563,1390
2916.7630848324807,1343
2918.5012851449196,1300
2920.2391588681758,1362
2921.976706310227,1361
2923.7139277791334,1382
2925.4508235830313,1324
2927.187394030137,1302
2928.923639428745,1330
2930.6595600872306,1375
2932.395156314046,1359
2934.1304284177218,1404
2935.8653767068713,1323
2937.6000014901815,1377
2939.3343030764227,1401
2941.068281774442,1381
2942.8019378931644,1356
2944.5352717415976,1349
2946.2682836288236,1288
2948.0009738640065,1368
2949.7333427563885,1376
2951.465390615289,1357
2953.1971177501086,1336
2954.9285244703265,1415
2956.6596110855,1361
2958.3903779052657,1337
2960.1208252393385,1327
2961.8509533975125,1385
2963.5807626896617,1367
2965.3102534257378,1321
2967.0394259157715,1343
2968.768280469873,1293
2970.496817398232,1355
2972.2250370111146,1357
2973.952939618869,1316
2975.6805255319196,1371
2977.4077950607707,1345
2979.134748516006,1418
2980.861386208289,1345
2982.587708448359,1389
2984.313715547037,1368
2986.039407815222,1352
2987.764785563891,1324
2989.489849104102,1298
2991.2145987469908,1289
2992.9390348037705,1324
2994.6631575857346,1317
2996.3869674042576,1335
2998.1104645707887,1367
2999.83364939686,1308
3001.5565221940783,1277
3003.2790832741334,1338
3005.0013329487924,1320
3006.7232715298996,1304
3008.4448993293804,1341
3010.166216659239,1333
3011.887223831558,1312
3013.607921158498,1302
3015.3283089522993,1326
3017.0483875252826,1290
3018.7681571898443,1342
3020.4876182584626,1329
3022.2067710436927,1364
3023.9256158581707,1336
3025.644153014609,1316
3027.362382825801,1333
3029.0803056046193,1308
3030.797921664012,1329
3032.5152313170106,1337
3034.2322348767225,1356
3035.9489326563353,1311
3037.665324969115,1306
3039.3814121284063,1352
3041.097194447633,1332
3042.812672240299,1361
3044.5278458199855,1299
3046.2427155003525,1317
3047.9572815951406,1313
3049.671544418167,1337
3051.38550428333,1299
3053.0991615046073,1336
3054.812516396051,1314
3056.5255692717974,1296
3058.2383204460575,1318
3059.9507702331257,1384
3061.662918947372,1294
3063.3747669032446,1352
3065.0863144152736,1317
3066.7975617980674,1340
3068.508509366309,1279
3070.219157434767,1338
3071.9295063182844,1306
3073.639556331785,1382
3075.3493077902704,1318
3077.058761008821,1297
3078.7679163025964,1278
3080.476773986837,1360
3082.1853343768594,1341
3083.89359778806,1323
3085.6015645359153,1316
3087.3092349359786,1327
3089.016609303884,1321
3090.7236879553434,1333
3092.4304712061476,1382
3094.136959372166,1337
3095.843152769349,1323
3097.5490517137237,1338
3099.2546565213966,1322
3100.959967508554,1288
3102.66498499146,1348
3104.3697092864577,1345
3106.0741407099695,1353
3107.778279578498,1327
3109.482126208622,1327
3111.1856809170004,1303
3112.8889440203716,1376
3114.5919158355528,1348
3116.294596679439,1387
3117.996986869006,1381
3119.6990867213062,1364
3121.4008965534726,1421
3123.102416682717,1366
3124.803647426329,1367
3126.5045891016784,1345
3128.205242026213,1302
3129.90560651746,1298
3131.605682893025,1348
3133.3054714705922,1352
3135.0049725679282,1366
3136.7041865028714,1301
3138.4031135933465,1319
3140.101754157353,1367
3141.800108512971,1362
3143.498176978357,1335
3145.1959598717494,1365
3146.8934575114636,1303
3148.5906702158954,1389
3150.2875983035183,1346
3151.9842420928853,1304
3153.680601902627,1383
3155.376678051456,1336
3157.07247085816,1319
3158.767980641609,1309
3160.463207720748,1334
3162.158152414606,1320
3163.8528150422862,1286
3165.5471959229726,1390
3167.2412953759303,1330
3168.9351137204976,1351
3170.628651276098,1342
3172.3219083622307,1315
3174.014885298474,1266
3175.707582404485,1297
3177.4000000000005,1323
3179.092138404835,1386
3180.7839979388846,1308
3182.47557892212,1300
3184.166881674594,1333
3185.8579065164386,1321
3187.5486537678626,1338
3189.2391237491547,1314
3190.9293167806827,1342
3192.6192331828934,1333
3194.3088732763117,1351
3195.998237381542,1256
3197.687325819268,1319
3199.376138910251,1326
3201.064676975334,1381
3202.7529403354347,1263
3204.4409293115523,1307
3206.1286442247647,1289
3207.816085396229,1277
3209.5032531471825,1293
3211.190147798936,1280
3212.8767696728846,1301
3214.5631190905015,1290
3216.2491963733373,1292
3217.9350018430214,1304
3219.6205358212637,1295
3221.305798629851,1315
3222.990790590651,1321
3224.6755120256103,1284
3226.359963256751,1275
3228.0441446061795,1303
3229.7280563960758,1281
3231.411698948703,1264
3233.0950725863995,1271
3234.778177631587,1295
3236.461014406761,1296
3238.1435832345005,1289
3239.8258844374595,1308
3241.507918338374,1324
3243.1896852600576,1348
3244.8711855254023,1329
3246.552419457381,1363
3248.233387379042,1236
3249.914089613516,1319
3251.59452648401,1283
3253.274698313813,1325
3254.95460542629,1304
3256.6342481448855,1318
3258.313626793125,1292
3259.9927416946084,1264
3261.6715931730196,1286
3263.3501815521176,1285
3265.0285071557437,1303
3266.706570307815,1239
3268.3843713323286,1307
3270.0619105533615,1311
3271.739188295068,1260
3273.4162048816834,1239
3275.0929606375184,1264
3276.769455886966,1297
3278.445690954498,1343
3280.1216661646613,1352
3281.797381842087,1356
3283.4728383114807,1357
3285.1480358976296,1309
3286.8229749253996,1256
3288.4976557197333,1347
3290.172078605655,1321
3291.846243908266,1255
3293.5201519527463,1353
3295.193803064357,1257
3296.8671975684374,1262
3298.5403357904024,1311
3300.21321805575,1265
3301.8858446900567,1300
3303.558216018975,1301
3305.23033236824,1319
3306.9021940636603,1295
3308.57380143113,1276
3310.2451547966184,1349
3311.916254486174,1353
3313.5871008259246,1253
3315.2576941420766,1291
3316.9280347609147,1313
3318.5981230088046,1339
3320.2679592121895,1291
3321.9375436975924,1295
3323.606876791612,1309
3325.27595882093,1296
3326.944790112305,1237
3328.6133709925753,1367
3330.2817017886573,1304
3331.949782827547,1304
3333.617614436319,1277
3335.2851969421245,1291
3336.952530672199,1314
3338.619615953853,1301
3340.286453114475,1318
3341.9530424815357,1318
3343.619384382583,1296
3345.2854791452437,1364
3346.951327097224,1328
3348.6169285663073,1272
3350.2822838803577,1317
3351.947393367319,1341
3353.61225735521,1295
3355.2768761721345,1302
3356.9412501462693,1220
3358.605379605873,1270
3360.2692648792827,1313
3361.9329062949146,1257
3363.596304181263,1299
