CollectionTime,7/3/2024 2:14:35 PM
ExposureUsed,3
CalibratedSpectrum
-962.7078968117929,500
-959.9714848408522,594
-957.2358232597828,579
-954.5009119013725,543
-951.7667505983302,544
-949.0333391832855,557
-946.3006774887896,539
-943.5687653473143,597
-940.837602591253,582
-938.1071890529199,592
-935.3775245645503,572
-932.6486089583007,634
-929.9204420662485,625
-927.1930237203925,600
-924.4663537526524,549
-921.7404319948689,580
-919.0152582788041,572
-916.2908324361409,615
-913.5671542984834,531
-910.8442236973568,543
-908.1220404642074,536
-905.4006044304027,586
-902.679915427231,608
-899.959973285902,567
-897.2407778375464,534
-894.5223289132158,560
-891.8046263438832,523
-889.0876699604426,557
-886.3714595937089,540
-883.6559950744183,564
-880.9412762332282,552
-878.2273029007168,530
-875.5140749073835,546
-872.8015920836489,565
-870.0898542598545,626
-867.3788612662631,529
-864.6686129330585,551
-861.9591090903457,557
-859.2503495681506,574
-856.5423341964203,522
-853.8350628050229,582
-851.1285352237478,568
-848.4227512823054,591
-845.7177108103272,608
-843.0134136373656,604
-840.3098595928943,571
-837.6070485063082,590
-834.9049802069229,547
-832.2036545239757,590
-829.5030712866244,562
-826.8032303239481,574
-824.1041314649472,596
-821.4057745385428,595
-818.7081593735775,602
-816.0112857988148,538
-813.3151536429393,553
-810.6197627345566,570
-807.9251129021936,589
-805.2312039742981,574
-802.5380357792392,603
-799.8456081453069,638
-797.1539209007124,686
-794.462973873588,668
-791.772766891987,646
-789.083299783884,567
-786.3945723771743,589
-783.7065844996748,584
-781.0193359791231,601
-778.3328266431781,631
-775.6470563194197,588
-772.9620248353489,565
-770.2777320183878,594
-767.5941776958798,583
-764.9113616950891,556
-762.2292838432011,594
-759.5479439673222,582
-756.8673418944801,593
-754.1874774516235,622
-751.5083504656222,606
-748.8299607632671,596
-746.15230817127,618
-743.475392516264,671
-740.7992136248035,626
-738.1237713233636,585
-735.4490654383407,596
-732.7750957960521,655
-730.1018622227365,576
-727.4293645445534,590
-724.7576025875837,612
-722.0865761778291,629
-719.4162851412126,637
-716.7467293035781,602
-714.0779084906909,603
-711.409822528237,626
-708.7424712418238,576
-706.0758544569796,618
-703.4099719991541,672
-700.7448236937178,672
-698.0804093659622,634
-695.4167288411002,611
-692.7537819442656,609
-690.0915685005134,604
-687.4300883348199,624
-684.7693412720819,638
-682.1093271371178,654
-679.4500457546669,656
-676.7914969493897,623
-674.1336805458676,583
-671.4765963686034,634
-668.8202442420206,649
-666.1646239904642,632
-663.5097354382001,624
-660.8555784094151,643
-658.2021527282176,635
-655.5494582186366,642
-652.8974947046223,664
-650.2462620100463,680
-647.5957599587009,677
-644.9459883742998,707
-642.2969470804776,677
-639.6486359007902,760
-637.0010546587141,745
-634.3542031776476,681
-631.7080812809096,672
-629.0626887917401,671
-626.4180255333008,632
-623.7740913286734,713
-621.1308860008619,751
-618.4884093727904,686
-615.8466612673046,692
-613.2056415071715,650
-610.5653499150785,695
-607.9257863136347,769
-605.28695052537,660
-602.6488423727357,659
-600.0114616781036,646
-597.3748082637674,691
-594.7388819519412,753
-592.1036825647604,837
-589.4692099242818,833
-586.8354638524829,761
-584.2024441712624,746
-581.5701507024403,765
-578.9385832677575,717
-576.3077416888759,711
-573.6776257873787,699
-571.0482353847704,660
-568.4195703024757,684
-565.7916303618415,716
-563.164415384135,706
-560.5379251905453,723
-557.9121596021815,764
-555.2871184400748,688
-552.6628015251767,742
-550.0392086783606,757
-547.4163397204204,777
-544.794194472071,770
-542.1727727539491,800
-539.5520743866118,864
-536.9320991905377,855
-534.3128469861261,825
-531.6943175936979,852
-529.0765108334947,839
-526.4594265256793,910
-523.8430644903358,984
-521.2274245474689,1135
-518.612506517005,1235
-515.9983102187913,1201
-513.3848354725959,1218
-510.77208209810846,1344
-508.16004991493924,1551
-505.5487387426199,1738
-502.9381484006032,1906
-500.3282787082628,1779
-497.71912948489364,1620
-495.1107005497117,1457
-492.5029917218539,1249
-489.8960028203786,1138
-487.28973366426493,996
-484.68418407241325,972
-482.07935386364494,899
-479.47524285670266,915
-476.87185087025,920
-474.2691777228715,924
-471.66722323307334,937
-469.0659872192821,917
-466.4654694998459,927
-463.86566989303384,913
-461.26658821703614,921
-458.66822428996414,919
-456.07057792985,942
-453.4736489546475,883
-450.877437182231,914
-448.28194243039627,895
-445.68716451686,916
-443.09310325926003,892
-440.49975847515555,874
-437.9071299820263,831
-435.31521759727354,872
-432.72402113821954,944
-430.13354042210767,938
-427.5437752661022,941
-424.95472548728867,958
-422.36639090267386,990
-419.7787713291855,1000
-417.1918665836721,1057
-414.60567648290385,1023
-412.0202008435715,951
-409.4354394822874,1004
-406.8513922155845,1030
-404.26805885991723,1046
-401.685439231661,955
-399.103533147112,1036
-396.522340422488,1050
-393.9418608739278,1004
-391.3620943174908,1000
-388.7830405691583,959
-386.2046994448317,945
-383.6270707603344,997
-381.05015433141045,960
-378.473949973725,886
-375.8984575028645,864
-373.32367673433623,826
-370.74960748356875,820
-368.1762495659117,789
-365.60360279663576,705
-363.03166699093265,699
-360.4604419639154,621
-357.8899275306178,639
-355.32012350599507,628
-352.7510297049233,572
-350.1826459421999,621
-347.61497203254316,666
-345.04800779059235,626
-342.4817530309082,645
-339.91620756797226,623
-337.35137121618743,690
-334.7872437898774,702
-332.22382510328725,743
-329.66111497058273,692
-327.09911320585127,675
-324.53781962310075,636
-321.9772340362607,652
-319.4173562591816,642
-316.8581861056348,643
-314.2997233893127,568
-311.7419679238294,622
-309.1849195227194,794
-306.62857799943856,737
-304.0729431673641,809
-301.51801483979375,763
-298.963792829947,772
-296.41027695096386,937
-293.85746701590574,942
-291.3053628377552,951
-288.7539642294155,829
-286.2032710037115,763
-283.65328297338897,799
-281.1039999511146,960
-278.5554217494762,1223
-276.007548180983,1088
-273.4603790580651,980
-270.9139141930734,969
-268.3681533982807,1144
-265.8230964858798,1145
-263.27874326798565,1130
-260.7350935566336,1029
-258.1921471637804,926
-255.6499039013039,1023
-253.10836358100266,1075
-250.56752601459698,949
-248.02739101372765,1067
-245.48795838995704,1145
-242.94922795476816,1016
-240.41119951956557,1179
-237.8738728956746,1189
-235.33724789434166,1173
-232.80132432673452,1121
-230.2661020039418,914
-227.73158073697357,1105
-225.19776033676033,1244
-222.66464061415422,1368
-220.1322213799284,1096
-217.60050244477725,899
-215.06948361931552,951
-212.53916471408013,1348
-210.00954553952818,1625
-207.48062590603843,1351
-204.9524056239104,1195
-202.4248845033651,1427
-199.8980623545441,1492
-197.37193898751036,1335
-194.84651421224817,1240
-192.32178783866232,1221
-189.79775967657952,1430
-187.27442953574644,1708
-184.7517972258321,1677
-182.2298625564256,1575
-179.7086253370378,1339
-177.18808537710026,1112
-174.66824248596583,1682
-172.14909647290835,1918
-169.6306471471229,1758
-167.11289431772548,1457
-164.59583779375328,1654
-162.07947738416453,1773
-159.5638128978386,2324
-157.04884414357605,2964
-154.53457093009854,2742
-152.02099306604828,1953
-149.50811035998936,1561
-146.99592262040665,1909
-144.48442965570587,2351
-141.97363127421409,3341
-139.46352728417958,3753
-136.95411749377126,3506
-134.44540171107985,2885
-131.93737974411636,2313
-129.43005140081357,2220
-126.92341648902493,3173
-124.41747481652521,4026
-121.91222619101006,5555
-119.40767042009657,7445
-116.90380731132257,7619
-114.40063667214702,5488
-111.8981583099503,3685
-109.3963720320337,2667
-106.89527764561933,3029
-104.39487495785067,4981
-101.89516377579241,7634
-99.39614390642998,8388
-96.89781515667039,7352
-94.40017733334128,8443
-91.90323024319173,14601
-89.40697369289148,19022
-86.91140748903172,20731
-84.41653143812482,14174
-81.92234534660395,9404
-79.42884902082358,16680
-76.93604226705907,35831
-74.4439248915071,52223
-71.95249670028534,59480
-69.46175749943245,52229
-66.97170709490854,38322
-64.48234529259423,25837
-61.99367189829195,17872
-59.50568671772464,13512
-57.01838955653636,12689
-54.53178022029283,10675
-52.045858514480074,13861
-49.560624244506016,20337
-47.07607721569923,23904
-44.59221723330904,26874
-42.10904410250669,30415
-39.62655762838392,30284
-37.14475761595372,30851
-34.66364387015028,35726
-32.18321619582866,37937
-29.70347439776515,35938
-27.224418280657005,36297
-24.74604764912317,42059
-22.26836230770266,59650
-19.7913620608565,65040
-17.315046712966478,65040
-14.83941606833514,65040
-12.36446993118659,65040
-9.89020810566592,65040
-7.416630395839093,65040
-4.94373660569363,65040
-2.471526539137585,65040
-6.821210263296962E-13,65040
2.47084320796705,65040
4.941003281093458,65040
7.410480415786196,65040
9.879274808531363,65040
12.347386655893956,65040
14.814816154518212,65040
17.28156350112681,65040
19.74762889252179,65040
22.21301252558385,65040
24.67771459727237,23581
27.141735304626195,7079
29.605074844762612,5790
32.06773341487792,5338
34.52971121224755,4695
36.99100843422559,4595
39.45162527824516,3981
41.91156194181792,3929
44.370818622535126,3134
46.82939551806646,3119
49.287292826160524,3962
51.74451074464503,4174
54.201049471426245,4171
56.65690920448981,3127
59.112090141899785,2655
61.56659248179983,2413
64.02041642241159,2434
66.4735621620365,2305
68.92602989905402,2400
71.37781983192338,2835
73.82893215918205,3423
76.27936707944684,3407
78.72912479141326,2784
81.17820549385567,2883
83.62660938562783,3089
86.07433666566146,2843
88.5213875329681,2127
90.96776218663751,1832
93.41346082583925,2328
95.85848364982041,2991
98.30283085790859,3080
100.7465026495089,3474
103.18949922410604,2651
105.63182078126385,2036
108.07346752062438,1981
110.51443964190923,1917
112.95473734491827,1603
115.39436082953114,1856
117.83331029570547,2025
120.27158594347827,2969
122.7091879729652,3461
125.1461165843615,2795
127.58237197794062,2255
130.01795435405518,2047
132.4528639131364,1945
134.88710085569494,1873
137.32066538231982,2137
139.75355769367923,2135
142.1857779905207,1741
144.61732647366978,1664
147.04820334403132,1597
149.47840880258934,1802
151.90794305040674,1617
154.33680628862487,1870
156.76499871846443,1823
159.19252054122433,1780
161.61937195828352,1901
164.04555317109896,1917
166.47106438120693,2150
168.89590579022217,2374
171.320077599839,2468
173.7435800118302,2635
176.16641322804742,2725
178.58857745042144,2663
181.01007288096173,2629
183.43089972175687,2724
185.85105817497413,2971
188.27054844285988,2833
190.6893707277394,2861
193.10752523201643,2796
195.5250121581745,2622
197.9418317087751,2656
200.3579840864594,2643
202.7734694939469,2680
205.18828813403627,2672
207.6024402096051,2795
210.01592592360964,2993
212.42874547908548,2981
214.84089907914665,2801
217.2523869269868,2840
219.66320922587727,2777
222.0733661791695,2795
224.48285799029293,2823
226.8916848627572,2952
229.29984700014882,3037
231.7073446061355,2827
234.11417788446204,2578
236.520347038953,2875
238.92585227351185,3077
241.33069379212054,2986
243.73487179884035,2855
246.1383864978112,2866
248.541238093252,2715
250.9434267894609,2804
253.34495279081432,2980
255.74581630176783,2814
258.1460175268563,2774
260.54555667069314,2746
262.9444339379703,2551
265.3426495334594,2635
267.7402036620107,2960
270.1370965285529,2945
272.53332833809407,2780
274.9288992957214,2714
277.32380960660055,2898
279.718059475976,2791
282.1116491091717,2780
284.5045787115897,2707
286.89684848871195,2816
289.2884586460981,2761
291.67940938938807,2663
294.0697009242996,2696
296.4593334566299,2712
298.84830719225477,2655
301.23662233712923,2697
303.6242790972866,2730
306.01127767884,2607
308.39761828798066,2633
310.78330113097934,2683
313.16832641418534,2482
315.5526943440269,2488
317.9364051270112,2468
320.3194589697242,2512
322.70185607883093,2567
325.0835966610754,2411
327.4646809232805,2434
329.8451090723478,2367
332.2248813152577,2337
334.6039978590701,2272
336.9824589109231,2376
339.36026467803447,2457
341.7374153677,2293
344.113911187295,2297
346.48975234427337,2259
348.8649390461686,2230
351.2394715005918,2327
353.61334991523415,2223
355.9865744978655,2312
358.35914545633375,2256
360.73106299856715,2278
363.10232733257146,2312
365.47293866643247,2189
367.84289720831396,2236
370.2122031664593,2163
372.5808567491905,2120
374.9488581649083,2141
377.31620762209275,2159
379.6829053293021,2079
382.0489514951745,2052
384.4143463284262,2065
386.7790900378528,2069
389.14318283232853,2091
391.50662492080653,2129
393.86941651231916,2188
396.23155781597745,2195
398.5930490409713,2209
400.9538903965696,2235
403.3140820921202,2025
405.6736243370498,2202
408.03251734086336,2117
410.3907613131465,2047
412.74835646356166,2064
415.10530300185144,2113
417.4616011378372,2033
419.81725108141893,2007
422.1722530425758,2089
424.5266072313656,2049
426.880313857925,2064
429.2333731324701,2070
431.58578526529516,2039
433.9375504667738,2076
436.2886689473588,1965
438.63914091758113,1988
440.9889665880513,1982
443.33814616945835,1993
445.68667987257015,1903
448.03456790823395,1988
450.3818104873759,1946
452.72840782100013,2019
455.07436012019105,2012
457.41966759611057,1949
459.7643304600007,1965
462.10834892318155,1927
464.4517231970525,1930
466.79445349309174,1918
469.1365400228566,2073
471.4779829979826,2045
473.81878263018564,1985
476.15893913125876,1975
478.4984527130747,2025
480.8373235875855,2116
483.17555196682144,2162
485.5131380628919,2186
487.8500820879857,2239
490.1863842543697,2283
492.52204477439034,2595
494.8570638604725,2840
497.1914417251204,3098
499.52517858091653,3585
501.85827464052306,3970
504.19073011668036,4151
506.5225452222086,4454
508.85372017000566,4362
511.18425517304956,4126
513.514150444396,4251
515.8434061971808,4766
518.1720226446176,5827
520.4999999999999,6041
522.8273384766991,5625
525.1540382881666,5031
527.480099647932,4459
529.8055227696037,3635
532.1303078668694,2892
534.454455153496,2534
536.777964843328,2429
539.1008371502907,2251
541.4230722883866,2134
543.744670471698,2174
546.0656319143858,2203
548.3859568306899,2087
550.7056454349294,2138
553.0246979415016,2217
555.3431145648834,2256
557.6608955196306,2268
559.978041020377,1985
562.2945512818363,2086
564.6104265188006,1977
566.9256669461412,2072
569.2402727788082,2125
571.5542442318302,2092
573.8675815203156,2074
576.1802848594508,2078
578.4923544645015,2106
580.8037905508126,2107
583.114593333807,2144
585.4247630289875,2135
587.7342998519354,2046
590.0432040183106,2032
592.3514757438526,2222
594.6591152443794,2126
596.9661227357875,2156
599.2724984340531,2136
601.578242555231,2149
603.8833553154542,2112
606.1878369309362,2115
608.4916876179676,2157
610.7949075929192,2155
613.0974970722403,2128
615.3994562724587,2083
617.7007854101818,2121
620.0014847020951,2058
622.3015543649641,2071
624.6009946156324,1988
626.8998056710224,2045
629.1979877481361,2114
631.4955410640538,2129
633.7924658359349,2176
636.0887622810175,2055
638.3844306166192,2100
640.6794710601358,2134
642.9738838290426,2198
645.2676691408932,2156
647.5608272133207,2224
649.853358264037,2201
652.1452625108324,2242
654.4365401715764,2151
656.7271914642178,2206
659.0172166067838,2153
661.3066158173809,2161
663.5953893141935,2169
665.8835373154867,2156
668.1710600396028,2157
670.4579577049639,2111
672.7442305300709,2199
675.0298787335033,2097
677.3149025339197,2155
679.599302150058,2197
681.8830778007342,2147
684.1662297048437,2160
686.4487580813608,2204
688.7306631493387,2168
691.0119451279091,2132
693.2926042362834,2165
695.5726406937516,2066
697.8520547196814,2157
700.1308465335215,2106
702.4090163547982,2105
704.6865644031171,2094
706.9634908981619,2137
709.2397960596965,2130
711.5154801075631,2161
713.7905432616823,2211
716.0649857420548,2103
718.3388077687592,2091
720.612009561953,2091
722.8845913418733,2122
725.1565533288352,2219
727.427895743234,2062
729.6986188055427,2183
731.9687227363137,2187
734.238207756178,2152
736.5070740858458,2119
738.7753219461066,2089
741.0429515578281,2158
743.3099631419569,2147
745.5763569195191,2165
747.8421331116193,2127
750.1072919394409,2164
752.3718336242467,2171
754.6357583873777,2300
756.8990664502545,2203
759.1617580343765,2185
761.423833361321,2186
763.6852926527457,2325
765.9461361303862,2191
768.206364016058,2190
770.4659765316536,2213
772.7249738991469,2151
774.9833563405886,2204
777.2411240781092,2205
779.4982773339183,2134
781.7548163303044,2128
784.010741289634,2186
786.2660524343538,2171
788.5207499869881,2207
790.7748341701416,2232
793.0283052064964,2183
795.2811633188143,2259
797.5334087299362,2219
799.7850416627813,2226
802.0360623403484,2187
804.2864709857143,2172
806.5362678220353,2108
808.7854530725468,2207
811.0340269605625,2196
813.2819897094754,2193
815.5293415427581,2232
817.77608268396,2202
820.0222133567116,2175
822.2677337847211,2141
824.5126441917765,2145
826.7569448017433,2203
829.0006358385675,2125
831.2437175262731,2097
833.4861900889629,2087
835.7280537508192,2097
837.9693087361026,2167
840.2099552691533,2192
842.4499935743896,2142
844.689423876309,2170
846.9282463994886,2204
849.1664613685833,2148
851.4040690083276,2246
853.6410695435349,2199
855.877463199097,2127
858.1132501999847,2194
860.3484307712487,2258
862.5830051380175,2186
864.8169735254988,2212
867.0503361589791,2206
869.2830932638243,2139
871.5152450654786,2153
873.7467917894654,2154
875.9777336613873,2161
878.2080709069252,2122
880.4378037518389,2285
882.666932421968,2109
884.8954571432301,2212
887.1233781416219,2229
889.3506956432192,2155
891.5774098741766,2156
893.803521060728,2197
896.0290294291852,2184
898.2539352059397,2165
900.4782386174619,2189
902.7019398903011,2088
904.925039251085,2246
907.147536926521,2175
909.3694331433943,2156
911.59072812857,2164
913.8114221089921,2152
916.0315153116827,2189
918.2510079637437,2139
920.4699002923547,2145
922.6881925247761,2122
924.905884888345,2112
927.1229776104793,2063
929.3394709186747,2086
931.555365040506,2067
933.7706602036275,2067
935.9853566357709,2210
938.1994545647489,2136
940.4129542184515,2212
942.6258558248488,2179
944.8381596119883,2171
947.0498658079974,2033
949.2609746410825,2164
951.4714863395287,2106
953.6814011316998,2112
955.8907192460387,2139
958.0994409110671,2018
960.3075663553858,2112
962.5150958076741,2101
964.7220294966913,2126
966.928367651274,2104
969.1341105003388,2029
971.3392582728806,1996
973.5438111979742,1949
975.747769504772,2039
977.9511334225061,2027
980.153903180487,2019
982.3560790081052,2028
984.5576611348289,2023
986.7586497902058,1942
988.9590452038618,1977
991.158847605503,1925
993.3580572249133,1963
995.5566742919558,1894
997.7546990365728,1867
999.952131688785,1868
1002.1489724786926,1816
1004.3452216364743,1829
1006.5408793923874,1803
1008.7359459767691,1737
1010.9304216200343,1850
1013.1243065526781,1798
1015.3176010052733,1773
1017.510305208472,1772
1019.7024193930064,1706
1021.8939437896848,1776
1024.0848786293977,1788
1026.2752241431122,1704
1028.4649805618747,1728
1030.6541481168115,1782
1032.842727039127,1720
1035.0307175601051,1650
1037.2181199111074,1668
1039.4049343235752,1665
1041.591161029029,1641
1043.7768002590683,1692
1045.9618522453698,1688
1048.1463172196918,1620
1050.3301954138697,1634
1052.513487059818,1673
1054.69619238953,1624
1056.8783116350783,1677
1059.0598450286152,1577
1061.2407928023704,1652
1063.4211551886528,1687
1065.6009324198508,1648
1067.780124728432,1632
1069.9587323469414,1705
1072.1367555080046,1686
1074.314194444325,1640
1076.4910493886855,1628
1078.667320573947,1604
1080.843008233051,1571
1083.0181125990161,1650
1085.1926339049414,1657
1087.3665723840027,1620
1089.5399282694575,1597
1091.7127017946405,1566
1093.8848931929647,1593
1096.0565026979243,1648
1098.2275305430899,1666
1100.3979769621128,1579
1102.567842188722,1558
1104.737126456726,1590
1106.9058300000124,1515
1109.0739530525475,1546
1111.2414958483764,1571
1113.4084586216231,1551
1115.5748416064907,1567
1117.7406450372605,1579
1119.9058691482942,1578
1122.0705141740304,1558
1124.2345803489884,1549
1126.3980679077658,1580
1128.5609770850388,1532
1130.7233081155623,1528
1132.8850612341707,1510
1135.0462366757774,1548
1137.2068346753745,1528
1139.3668554680326,1572
1141.526299288901,1524
1143.68516637321,1580
1145.8434569562655,1497
1148.001171273455,1543
1150.158309560244,1496
1152.3148720521767,1497
1154.470858984876,1538
1156.626270594044,1498
1158.7811071154629,1521
1160.9353687849912,1505
1163.089055838569,1499
1165.242168512213,1487
1167.3947070420209,1498
1169.5466716641677,1533
1171.6980626149075,1571
1173.8488801305748,1465
1175.9991244475814,1505
1178.1487958024186,1560
1180.2978944316555,1497
1182.4464205719428,1488
1184.5943744600072,1495
1186.7417563326567,1511
1188.8885664267755,1472
1191.0348049793297,1512
1193.1804722273619,1452
1195.325568407995,1472
1197.4700937584303,1507
1199.614048515948,1590
1201.7574329179074,1511
1203.900247201746,1502
1206.042491604982,1515
1208.1841663652099,1585
1210.3252717201053,1508
1212.465807907422,1479
1214.6057751649923,1502
1216.7451737307279,1535
1218.8840038426192,1581
1221.0222657387353,1523
1223.1599596572241,1557
1225.2970858363137,1538
1227.4336445143094,1526
1229.5696359295966,1555
1231.705060320639,1495
1233.8399179259786,1548
1235.9742089842384,1529
1238.107933734118,1484
1240.2410924143974,1546
1242.373685263935,1520
1244.5057125216676,1557
1246.6371744266116,1532
1248.7680712178621,1551
1250.898403134593,1499
1253.028170416058,1516
1255.1573733015875,1500
1257.2860120305932,1520
1259.4140868425648,1577
1261.54159797707,1596
1263.6685456737569,1567
1265.7949301723515,1599
1267.9207517126597,1561
1270.046010534565,1496
1272.1707068780306,1553
1274.2948409830983,1604
1276.4184130898889,1538
1278.541423438603,1522
1280.6638722695184,1562
1282.785759822993,1547
1284.9070863394636,1551
1287.0278520594447,1652
1289.1480572235314,1580
1291.2677020723963,1528
1293.3867868467923,1645
1295.5053117875495,1616
1297.623277135579,1645
1299.740683131868,1574
1301.8575300174857,1605
1303.973818033578,1668
1306.0895474213703,1653
1308.2047184221678,1630
1310.3193312773528,1601
1312.4333862283888,1646
1314.5468835168163,1633
1316.659823384255,1630
1318.7722060724045,1545
1320.8840318230418,1591
1322.9953008780249,1633
1325.1060134792888,1696
1327.2161698688478,1553
1329.3257702887959,1616
1331.4348149813054,1638
1333.5433041886276,1643
1335.6512381530933,1646
1337.7586171171101,1507
1339.8654413231675,1599
1341.9717110138317,1588
1344.0774264317488,1569
1346.1825878196432,1583
1348.2871954203192,1585
1350.3912494766587,1544
1352.4947502316231,1616
1354.5976979282532,1673
1356.7000928096686,1551
1358.8019351190665,1572
1360.9032250997243,1603
1363.0039629949988,1600
1365.1041490483235,1610
1367.2037835032133,1535
1369.3028666032606,1555
1371.401398592137,1598
1373.4993797135926,1575
1375.5968102114575,1650
1377.6936903296396,1560
1379.7900203121262,1632
1381.8858004029835,1607
1383.9810308463561,1633
1386.075711886469,1628
1388.1698437676241,1641
1390.2634267342032,1669
1392.356461030667,1589
1394.4489469015557,1559
1396.5408845914872,1583
1398.6322743451592,1638
1400.7231164073469,1648
1402.813411022907,1644
1404.903158436773,1630
1406.9923588939578,1645
1409.0810126395531,1643
1411.1691199187303,1666
1413.2566809767386,1674
1415.343696058907,1639
1417.4301654106425,1664
1419.5160892774315,1672
1421.6014679048399,1639
1423.6863015385125,1650
1425.7705904241707,1697
1427.8543348076178,1649
1429.9375349347342,1701
1432.0201910514802,1659
1434.102303403894,1693
1436.1838722380944,1681
1438.2648978002767,1726
1440.3453803367174,1641
1442.4253200937692,1680
1444.5047173178677,1667
1446.5835722555234,1705
1448.6618851533285,1803
1450.739656257952,1769
1452.8168858161434,1748
1454.8935740747306,1744
1456.96972128062,1792
1459.045327680797,1792
1461.120393522327,1718
1463.1949190523528,1778
1465.2689045180973,1920
1467.3423501668608,1835
1469.415256246024,1870
1471.4876230030463,1843
1473.559450685465,1869
1475.6307395408976,1878
1477.7014898170391,1904
1479.771701761665,1929
1481.8413756226287,1900
1483.9105116478618,1956
1485.9791100853772,1960
1488.0471711832643,1882
1490.1146951896926,2029
1492.1816823529098,1962
1494.2481329212433,1967
1496.3140471430984,2014
1498.3794252669609,1945
1500.4442675413939,2038
1502.5085742150404,2024
1504.572345536622,1983
1506.6355817549388,2045
1508.6982831188702,2035
1510.7604498773744,2057
1512.8220822794883,2076
1514.8831805743293,2126
1516.9437450110909,2102
1519.003775839048,2207
1521.0632733075522,2132
1523.1222376660367,2234
1525.1806691640113,2199
1527.2385680510652,2147
1529.2959345768668,2225
1531.3527689911643,2235
1533.4090715437833,2179
1535.4648424846291,2216
1537.5200820636855,2254
1539.5747905310159,2243
1541.6289681367616,2325
1543.6826151311434,2345
1545.7357317644614,2452
1547.7883182870937,2359
1549.8403749494987,2387
1551.8919020022113,2423
1553.9428996958477,2438
1555.9933682811015,2428
1558.0433080087469,2473
1560.0927191296346,2491
1562.1416018946961,2584
1564.1899565549415,2727
1566.2377833614592,2717
1568.2850825654164,2773
1570.3318544180606,2793
1572.3780991707158,2877
1574.423817074788,2822
1576.4690083817595,2697
1578.5136733431923,2753
1580.5578122107272,2575
1582.601425236085,2517
1584.6445126710646,2478
1586.6870747675434,2452
1588.7291117774776,2335
1590.7706239529034,2261
1592.8116115459347,2196
1594.8520748087658,2072
1596.8920139936686,1982
1598.9314293529933,2028
1600.9703211391711,2009
1603.008689604711,1945
1605.0465350022005,1892
1607.0838575843068,1864
1609.1206576037753,1828
1611.1569353134305,1748
1613.1926909661765,1809
1615.2279248149953,1714
1617.2626371129481,1775
1619.2968281131757,1750
1621.3304980688963,1773
1623.3636472334088,1727
1625.39627586009,1721
1627.428384202396,1734
1629.459972513861,1630
1631.4910410480993,1689
1633.5215900588028,1626
1635.551619799744,1728
1637.5811305247717,1649
1639.6101224878166,1640
1641.6385959428862,1655
1643.6665511440683,1658
1645.693988345528,1618
1647.7209078015112,1583
1649.7473097663405,1649
1651.7731944944203,1684
1653.7985622402307,1613
1655.823413258333,1680
1657.847747803366,1656
1659.8715661300494,1593
1661.8948684931793,1633
1663.9176551476316,1658
1665.9399263483624,1663
1667.9616823504057,1645
1669.982923408873,1614
1672.0036497789574,1636
1674.0238617159293,1618
1676.043559475138,1637
1678.0627433120121,1637
1680.081413482059,1574
1682.0995702408654,1649
1684.117213844096,1676
1686.134344547495,1605
1688.1509626068864,1574
1690.1670682781705,1573
1692.182661817329,1653
1694.1977434804217,1639
1696.2123135235875,1662
1698.226372203043,1584
1700.2399197750851,1632
1702.2529564960905,1608
1704.2654826225112,1608
1706.277498410882,1667
1708.2890041178139,1641
1710.2999999999988,1685
1712.3104863142066,1655
1714.3204633172854,1578
1716.329931266163,1667
1718.3388904178469,1563
1720.3473410294214,1585
1722.3552833580516,1638
1724.3627176609807,1681
1726.3696441955308,1663
1728.3760632191033,1677
1730.3819749891782,1653
1732.3873797633146,1567
1734.3922777991502,1556
1736.3966693544012,1587
1738.4005546868639,1647
1740.4039340544127,1598
1742.406807715001,1625
1744.4091759266616,1666
1746.4110389475054,1629
1748.4123970357223,1500
1750.413250449582,1507
1752.4135994474318,1578
1754.4134442876993,1531
1756.4127852288902,1559
1758.4116225295893,1575
1760.4099564484595,1558
1762.407787244244,1592
1764.405115175764,1568
1766.4019405019203,1573
1768.3982634816916,1543
1770.3940843741357,1577
1772.3894034383907,1519
1774.3842209336717,1523
1776.378537119274,1517
1778.372352254571,1597
1780.3656665990156,1583
1782.3584804121397,1541
1784.3507939535534,1527
1786.3426074829463,1500
1788.3339212600863,1530
1790.3247355448211,1534
1792.3150505970766,1538
1794.3048666768573,1517
1796.2941840442477,1659
1798.2830029594106,1557
1800.2713236825884,1530
1802.2591464741004,1595
1804.2464715943465,1549
1806.2332993038058,1554
1808.2196298630352,1544
1810.2054635326708,1528
1812.190800573428,1550
1814.175641246101,1602
1816.1599858115628,1553
1818.1438345307652,1520
1820.127187664738,1508
1822.1100454745924,1556
1824.092408221516,1504
1826.0742761667766,1529
1828.055649571721,1500
1830.0365286977735,1529
1832.0169138064398,1603
1833.9968051593014,1520
1835.9762030180214,1496
1837.9551076443408,1524
1839.9335193000788,1543
1841.9114382471344,1508
1843.888864747485,1517
1845.8657990631878,1526
1847.842241456378,1495
1849.8181921892697,1518
1851.7936515241558,1454
1853.7686197234098,1512
1855.7430970494815,1485
1857.7170837649014,1466
1859.6905801322787,1512
1861.6635864143004,1571
1863.6361028737338,1569
1865.608129773424,1478
1867.5796673762961,1563
1869.5507159453537,1476
1871.521275743678,1553
1873.4913470344313,1513
1875.4609300808534,1536
1877.4300251462632,1509
1879.3986324940588,1599
1881.366752387717,1575
1883.3343850907936,1564
1885.3015308669228,1566
1887.268189979819,1511
1889.2343626932739,1507
1891.2000492711595,1539
1893.1652499774254,1565
1895.1299650761011,1563
1897.0941948312952,1524
1899.0579395071945,1534
1901.0211993680641,1557
1902.98397467825,1534
1904.9462657021745,1569
1906.9080727043415,1598
1908.869395949332,1579
1910.8302357018065,1580
1912.790592226504,1509
1914.7504657882428,1608
1916.7098566519212,1510
1918.6687650825133,1555
1920.6271913450764,1515
1922.5851357047422,1497
1924.5425984267245,1549
1926.499579776314,1502
1928.4560800188833,1497
1930.4120994198802,1521
1932.367638244833,1553
1934.32269675935,1573
1936.2772752291175,1552
1938.231373919899,1577
1940.1849930975404,1637
1942.1381330279637,1557
1944.0907939771696,1512
1946.0429762112412,1508
1947.9946799963363,1576
1949.9459055986945,1538
1951.896653284633,1540
1953.8469233205478,1454
1955.7967159729142,1471
1957.7460315082863,1507
1959.6948701932974,1562
1961.6432322946594,1557
1963.5911180791632,1532
1965.5385278136787,1585
1967.4854617651545,1508
1969.4319202006182,1530
1971.377903387176,1504
1973.3234115920136,1579
1975.268445082395,1514
1977.2130041256642,1526
1979.1570889892423,1597
1981.1006999406304,1465
1983.04383724741,1532
1984.986501177238,1559
1986.928691997853,1489
1988.8704099770712,1532
1990.811655382789,1550
1992.7524284829801,1512
1994.692729545698,1600
1996.6325588390755,1495
1998.5719166313224,1533
2000.5108031907307,1500
2002.4492187856677,1507
2004.387163684583,1535
2006.3246381560011,1534
2008.2616424685298,1521
2010.1981768908527,1491
2012.1342416917332,1509
2014.069837140014,1515
2016.0049635046162,1493
2017.9396210545406,1539
2019.8738100588666,1508
2021.8075307867502,1483
2023.740783507431,1554
2025.6735684902228,1544
2027.6058860045214,1498
2029.5377363198004,1502
2031.4691197056118,1508
2033.4000364315875,1547
2035.3304867674374,1525
2037.260470982952,1590
2039.189989347998,1561
2041.1190421325232,1518
2043.047629606554,1509
2044.9757520401945,1494
2046.9034097036288,1586
2048.8306028671195,1561
2050.7573318010086,1503
2052.683596775716,1480
2054.609398061742,1531
2056.5347359296647,1457
2058.4596106501403,1514
2060.384022493906,1508
2062.3079717317764,1500
2064.231458634646,1492
2066.1544834734873,1503
2068.077046519352,1470
2069.99914804337,1506
2071.9207883167524,1504
2073.8419676107865,1538
2075.7626861968406,1506
2077.6829443463607,1506
2079.6027423308715,1514
2081.522080421977,1465
2083.440958891362,1524
2085.359378010786,1483
2087.2773380520907,1544
2089.194839287196,1503
2091.111881988101,1525
2093.0284664268825,1473
2094.9445928756973,1538
2096.86026160678,1513
2098.775472892446,1554
2100.690227005088,1539
2102.604524217178,1531
2104.5183648012676,1561
2106.431749029985,1513
2108.34467717604,1531
2110.2571495122206,1523
2112.169166311393,1513
2114.080727846503,1519
2115.9918343905747,1519
2117.902486216711,1548
2119.8126835980956,1526
2121.722426807987,1485
2123.6317161197285,1531
2125.5405518067364,1525
2127.448934142509,1529
2129.356863400624,1530
2131.264339854737,1540
2133.1713637785815,1513
2135.077935445972,1499
2136.9840551308002,1597
2138.889723107037,1568
2140.7949396487334,1588
2142.699705030018,1529
2144.6040195250994,1566
2146.507883408264,1509
2148.4112969538774,1553
2150.3142604363848,1641
2152.2167741303097,1509
2154.1188383102535,1582
2156.0204532508997,1484
2157.9216192270064,1517
2159.822336513414,1611
2161.7226053850413,1605
2163.622426116884,1503
2165.5217989840185,1492
2167.4207242616,1486
2169.319202224862,1563
2171.2172331491165,1541
2173.1148173097563,1612
2175.0119549822507,1555
2176.90864644215,1570
2178.8048919650823,1570
2180.7006918267534,1590
2182.596046302952,1549
2184.4909556695407,1566
2186.3854202024645,1566
2188.279440177746,1560
2190.173015871487,1509
2192.066147559868,1563
2193.958835519149,1592
2195.851080025667,1539
2197.7428813558417,1540
2199.6342397861667,1573
2201.5251555932186,1553
2203.415629053651,1542
2205.3056604441986,1552
2207.19525004167,1499
2209.084398122958,1585
2210.9731049650327,1533
2212.861370844941,1562
2214.749196039812,1552
2216.636580826851,1569
2218.523525483344,1628
2220.410030286655,1565
2222.296095514226,1572
2224.1817214435805,1552
2226.066908352319,1593
2227.951656518121,1524
2229.835966218746,1587
2231.71983773203,1573
2233.6032713358913,1505
2235.486267308324,1559
2237.3688259274036,1560
2239.2509474712824,1565
2241.132632218193,1619
2243.013880446447,1580
2244.8946924344323,1608
2246.7750684606203,1587
2248.6550088035574,1560
2250.534513741871,1540
2252.413583554265,1519
2254.292218519526,1589
2256.170418916517,1530
2258.0481850241786,1510
2259.925517121534,1533
2261.8024154876825,1522
2263.678880401803,1534
2265.5549121431536,1541
2267.430510991071,1576
2269.305677224971,1629
2271.180411124348,1545
2273.0547129687766,1485
2274.9285830379076,1558
2276.8020216114737,1571
2278.6750289692845,1548
2280.5476053912294,1589
2282.4197511572766,1586
2284.2914665474727,1593
2286.162751841943,1632
2288.0336073208937,1651
2289.904033264608,1616
2291.774029953448,1602
2293.6435976678554,1672
2295.5127366883517,1593
2297.381447295534,1560
2299.2497297700825,1523
2301.1175843927526,1452
2302.9850114443825,1489
2304.852011205885,1511
2306.7185839582553,1414
2308.5847299825664,1415
2310.4504495599676,1412
2312.3157429716925,1360
2314.1806104990483,1415
2316.0450524234247,1387
2317.9090690262888,1353
2319.772660589186,1356
2321.635827393742,1358
2323.498569721661,1312
2325.3608878547248,1326
2327.2227820747967,1350
2329.0842526638157,1379
2330.945299903803,1370
2332.805924076857,1340
2334.6661254651535,1321
2336.525904350951,1361
2338.3852610165827,1297
2340.244195744464,1308
2342.102708817088,1343
2343.9608005170253,1391
2345.8184711269287,1350
2347.675720929526,1356
2349.532550207628,1311
2351.38895924412,1320
2353.24494832197,1344
2355.100517724223,1307
2356.955667734004,1344
2358.810398634514,1441
2360.664710709037,1365
2362.5186042409337,1390
2364.3720795136437,1388
2366.225136810686,1362
2368.0777764156583,1341
2369.929998612237,1368
2371.7818036841777,1411
2373.633191915315,1375
2375.484163589562,1405
2377.3347189909114,1360
2379.184858403434,1379
2381.03458211128,1398
2382.8838903986775,1370
2384.732783549936,1380
2386.5812618494406,1371
2388.4293255816588,1318
2390.2769750311327,1334
2392.1242104824883,1303
2393.971032220427,1345
2395.8174405297295,1355
2397.6634356952563,1372
2399.509018001947,1385
2401.3541877348193,1366
2403.1989451789705,1354
2405.043290619576,1391
2406.8872243418905,1397
2408.730746631247,1410
2410.5738577730594,1342
2412.4165580528183,1312
2414.258847756095,1424
2416.100727168537,1357
2417.9421965758734,1415
2419.783256263912,1406
2421.623906518538,1430
2423.4641476257157,1473
2425.303979871491,1420
2427.143403541984,1420
2428.9824189233977,1464
2430.821026302012,1452
2432.6592259641866,1353
2434.497018196361,1414
2436.33440328505,1416
2438.171381516851,1403
2440.00795317844,1403
2441.844118556569,1425
2443.6798779380724,1417
2445.5152316098606,1385
2447.3501798589255,1401
2449.1847229723357,1321
2451.0188612372403,1392
2452.8525949408663,1425
2454.6859243705203,1352
2456.518849813587,1411
2458.3513715575314,1423
2460.183489889895,1425
2462.015205098301,1399
2463.8465174704493,1360
2465.67742729412,1425
2467.5079348571717,1424
2469.338040447542,1361
2471.1677443532476,1378
2472.9970468623833,1411
2474.825948263123,1345
2476.6544488437207,1422
2478.482548892508,1442
2480.310248697896,1373
2482.137548548374,1398
2483.9644487325118,1389
2485.790949538956,1402
2487.617051256433,1427
2489.44275417375,1383
2491.26805857979,1424
2493.0929647635157,1453
2494.917473013971,1393
2496.741583620276,1452
2498.5652968716304,1372
2500.3886130573137,1392
2502.2115324666834,1419
2504.0340553891765,1388
2505.856182114308,1412
2507.6779129316733,1459
2509.499248130945,1430
2511.3201880018764,1468
2513.140732834298,1458
2514.9608829181198,1439
2516.780638543331,1435
2518.6,1412
2520.418967578273,1460
2522.237541568376,1493
2524.0557222606144,1513
2525.8735099453706,1513
2527.6909049131086,1437
2529.507907454368,1502
2531.32451785977,1449
2533.140736420014,1459
2534.9565634258774,1429
2536.771999168218,1490
2538.5870439379714,1487
2540.4016980261526,1499
2542.2159617238544,1534
2544.02983532225,1514
2545.8433191125914,1439
2547.656413386209,1529
2549.4691184345115,1529
2551.2814345489874,1478
2553.093362021204,1508
2554.904901142808,1560
2556.716052205523,1542
2558.526815501153,1527
2560.3371913215824,1523
2562.147179958771,1531
2563.956781704761,1559
2565.7659968516705,1613
2567.5748256916986,1581
2569.3832685171224,1584
2571.1913256202984,1567
2572.9989972936614,1593
2574.806283829725,1589
2576.613185521084,1711
2578.4197026604074,1555
2580.2258355404483,1611
2582.031584454035,1647
2583.836949694077,1554
2585.6419315535613,1651
2587.4465303255533,1612
2589.2507463032002,1591
2591.0545797797245,1630
2592.8580310484303,1624
2594.6611004026995,1742
2596.463788135992,1643
2598.266094541849,1675
2600.0680199138874,1642
2601.869564545807,1645
2603.670728731383,1631
2605.4715127644704,1665
2607.2719169390048,1685
2609.071941548998,1657
2610.8715868885433,1745
2612.670853251811,1695
2614.469740933052,1630
2616.268250226594,1624
2618.0663814268455,1589
2619.864134828292,1653
2621.6615107255006,1634
2623.458509413115,1640
2625.2551311858597,1623
2627.0513763385347,1600
2628.8472451660223,1678
2630.6427379632833,1624
2632.4378550253564,1643
2634.232596647359,1645
2636.026963124488,1587
2637.8209547520187,1589
2639.6145718253065,1609
2641.407814639785,1613
2643.200683490966,1564
2644.9931786744414,1563
2646.7853004858807,1551
2648.577049221034,1582
2650.3684251757277,1587
2652.1594286458712,1599
2653.9500599274484,1444
2655.740319316525,1513
2657.5302071092437,1522
2659.3197236018286,1539
2661.10886909058,1495
2662.8976438718782,1501
2664.686048242183,1484
2666.4740824980327,1483
2668.2617469360443,1482
2670.0490418529134,1511
2671.8359675454153,1448
2673.622524310403,1442
2675.408712444811,1484
2677.1945322456495,1490
2678.979984010009,1427
2680.76506803506,1436
2682.5497846180497,1400
2684.334134056306,1451
2686.1181166472343,1385
2687.9017326883213,1421
2689.6849824771293,1418
2691.4678663113013,1401
2693.2503844885596,1398
2695.032537306705,1405
2696.8143250636167,1424
2698.5957480572542,1441
2700.3768065856534,1412
2702.1575009469316,1456
2703.937831439283,1415
2705.717798360982,1356
2707.4974020103837,1389
2709.276642685917,1355
2711.055520686095,1399
2712.834036309506,1396
2714.612189854819,1385
2716.389981620782,1399
2718.1674119062204,1375
2719.944481010041,1401
2721.721189231226,1426
2723.4975368688415,1388
2725.273524222027,1367
2727.0491515900053,1365
2728.824419272075,1373
2730.5993275676146,1399
2732.3738767760838,1400
2734.148067197016,1348
2735.921899130031,1308
2737.6953728748194,1367
2739.468488731156,1398
2741.2412469988926,1353
2743.0136479779617,1363
2744.785691968372,1374
2746.5573792702116,1367
2748.3287101836504,1348
2750.099685008934,1410
2751.870304046388,1375
2753.640567596418,1377
2755.4104759595057,1312
2757.1800294362156,1326
2758.949228327187,1386
2760.7180729331412,1370
2762.486563554877,1381
2764.254700493272,1421
2766.022484049284,1376
2767.789914523947,1389
2769.5569922183786,1322
2771.3237174337705,1401
2773.090090471394,1355
2774.8561116326036,1325
2776.6217812188274,1394
2778.3870995315756,1349
2780.1520668724356,1309
2781.9166835430747,1331
2783.6809498452394,1308
2785.444866080754,1328
2787.2084325515225,1357
2788.971649559527,1371
2790.73451740683,1314
2792.4970363955713,1362
2794.2592068279705,1348
2796.0210290063264,1386
2797.7825032330147,1398
2799.543629810493,1287
2801.304409041296,1403
2803.0648412280366,1395
2804.8249266734088,1361
2806.5846656801846,1352
2808.344058551212,1366
2810.1031055894246,1354
2811.8618070978273,1330
2813.6201633795085,1403
2815.378174737636,1397
2817.1358414754536,1360
2818.893163896285,1385
2820.6501423035334,1316
2822.4067770006814,1399
2824.1630682912883,1306
2825.9190164789957,1360
2827.6746218675207,1275
2829.429884760661,1366
2831.184805462294,1348
2832.9393842763743,1382
2834.693621506936,1351
2836.4475174580916,1309
2838.201072434034,1342
2839.954286739034,1331
2841.707160677441,1396
2843.459694553685,1323
2845.2118886722724,1392
2846.96374333779,1341
2848.7152588549034,1341
2850.4664355283567,1352
2852.217273662973,1349
2853.9677735636546,1389
2855.7179355353833,1382
2857.4677598832186,1354
2859.217246912299,1382
2860.9663969278427,1303
2862.715210235146,1367
2864.4636871395846,1379
2866.211827946614,1328
2867.9596329617652,1308
2869.7071024906536,1395
2871.4542368389684,1323
2873.20103631248,1347
2874.947501217038,1330
2876.6936318585695,1296
2878.4394285430812,1371
2880.1848915766604,1347
2881.9300212654707,1292
2883.6748179157553,1354
2885.4192818338374,1329
2887.1634133261173,1321
2888.907212699077,1320
2890.6506802592744,1353
2892.393816313348,1371
2894.1366211680142,1403
2895.8790951300693,1358
2897.621238506388,1349
2899.363051603925,1328
2901.1045347297118,1357
2902.8456881908596,1354
2904.58651229456,1383
2906.327007348081,1306
2908.067173658772,1345
2909.8070115340597,1364
2911.5465212814497,1386
2913.285703208527,1393
2915.0245576229563,1344
2916.7630848324807,1294
2918.5012851449196,1347
2920.2391588681758,1346
2921.976706310227,1342
2923.7139277791334,1323
2925.4508235830313,1364
2927.187394030137,1386
2928.923639428745,1348
2930.6595600872306,1326
2932.395156314046,1407
2934.1304284177218,1396
2935.8653767068713,1371
2937.6000014901815,1436
2939.3343030764227,1393
2941.068281774442,1423
2942.8019378931644,1395
2944.5352717415976,1329
2946.2682836288236,1390
2948.0009738640065,1331
2949.7333427563885,1357
2951.465390615289,1327
2953.1971177501086,1348
2954.9285244703265,1402
2956.6596110855,1360
2958.3903779052657,1343
2960.1208252393385,1384
2961.8509533975125,1384
2963.5807626896617,1275
2965.3102534257378,1350
2967.0394259157715,1375
2968.768280469873,1294
2970.496817398232,1375
2972.2250370111146,1334
2973.952939618869,1342
2975.6805255319196,1348
2977.4077950607707,1357
2979.134748516006,1361
2980.861386208289,1415
2982.587708448359,1398
2984.313715547037,1383
2986.039407815222,1329
2987.764785563891,1368
2989.489849104102,1365
2991.2145987469908,1300
2992.9390348037705,1364
2994.6631575857346,1339
2996.3869674042576,1320
2998.1104645707887,1345
2999.83364939686,1331
3001.5565221940783,1281
3003.2790832741334,1282
3005.0013329487924,1393
3006.7232715298996,1323
3008.4448993293804,1332
3010.166216659239,1277
3011.887223831558,1328
3013.607921158498,1388
3015.3283089522993,1368
3017.0483875252826,1328
3018.7681571898443,1323
3020.4876182584626,1246
3022.2067710436927,1335
3023.9256158581707,1352
3025.644153014609,1304
3027.362382825801,1379
3029.0803056046193,1325
3030.797921664012,1391
3032.5152313170106,1306
3034.2322348767225,1348
3035.9489326563353,1311
3037.665324969115,1305
3039.3814121284063,1306
3041.097194447633,1324
3042.812672240299,1335
3044.5278458199855,1364
3046.2427155003525,1362
3047.9572815951406,1326
3049.671544418167,1333
3051.38550428333,1327
3053.0991615046073,1291
3054.812516396051,1336
3056.5255692717974,1305
3058.2383204460575,1328
3059.9507702331257,1338
3061.662918947372,1338
3063.3747669032446,1355
3065.0863144152736,1372
3066.7975617980674,1335
3068.508509366309,1310
3070.219157434767,1381
3071.9295063182844,1364
3073.639556331785,1287
3075.3493077902704,1361
3077.058761008821,1279
3078.7679163025964,1366
3080.476773986837,1357
3082.1853343768594,1337
3083.89359778806,1319
3085.6015645359153,1335
3087.3092349359786,1344
3089.016609303884,1382
3090.7236879553434,1350
3092.4304712061476,1351
3094.136959372166,1319
3095.843152769349,1328
3097.5490517137237,1349
3099.2546565213966,1331
3100.959967508554,1288
3102.66498499146,1292
3104.3697092864577,1368
3106.0741407099695,1355
3107.778279578498,1333
3109.482126208622,1329
3111.1856809170004,1372
3112.8889440203716,1298
3114.5919158355528,1381
3116.294596679439,1368
3117.996986869006,1411
3119.6990867213062,1312
3121.4008965534726,1375
3123.102416682717,1396
3124.803647426329,1309
3126.5045891016784,1334
3128.205242026213,1351
3129.90560651746,1363
3131.605682893025,1354
3133.3054714705922,1350
3135.0049725679282,1317
3136.7041865028714,1355
3138.4031135933465,1347
3140.101754157353,1292
3141.800108512971,1277
3143.498176978357,1311
3145.1959598717494,1301
3146.8934575114636,1298
3148.5906702158954,1319
3150.2875983035183,1329
3151.9842420928853,1353
3153.680601902627,1271
3155.376678051456,1310
3157.07247085816,1282
3158.767980641609,1344
3160.463207720748,1322
3162.158152414606,1334
3163.8528150422862,1296
3165.5471959229726,1324
3167.2412953759303,1347
3168.9351137204976,1304
3170.628651276098,1368
3172.3219083622307,1293
3174.014885298474,1324
3175.707582404485,1324
3177.4000000000005,1329
3179.092138404835,1349
3180.7839979388846,1401
3182.47557892212,1348
3184.166881674594,1330
3185.8579065164386,1345
3187.5486537678626,1371
3189.2391237491547,1337
3190.9293167806827,1299
3192.6192331828934,1310
3194.3088732763117,1292
3195.998237381542,1271
3197.687325819268,1301
3199.376138910251,1299
3201.064676975334,1308
3202.7529403354347,1326
3204.4409293115523,1289
3206.1286442247647,1314
3207.816085396229,1260
3209.5032531471825,1330
3211.190147798936,1339
3212.8767696728846,1360
3214.5631190905015,1283
3216.2491963733373,1333
3217.9350018430214,1357
3219.6205358212637,1345
3221.305798629851,1303
3222.990790590651,1322
3224.6755120256103,1296
3226.359963256751,1258
3228.0441446061795,1282
3229.7280563960758,1299
3231.411698948703,1304
3233.0950725863995,1263
3234.778177631587,1293
3236.461014406761,1347
3238.1435832345005,1323
3239.8258844374595,1320
3241.507918338374,1333
3243.1896852600576,1327
3244.8711855254023,1288
3246.552419457381,1294
3248.233387379042,1330
3249.914089613516,1309
3251.59452648401,1335
3253.274698313813,1320
3254.95460542629,1360
3256.6342481448855,1291
3258.313626793125,1321
3259.9927416946084,1319
3261.6715931730196,1345
3263.3501815521176,1301
3265.0285071557437,1302
3266.706570307815,1289
3268.3843713323286,1289
3270.0619105533615,1341
3271.739188295068,1325
3273.4162048816834,1314
3275.0929606375184,1286
3276.769455886966,1315
3278.445690954498,1332
3280.1216661646613,1364
3281.797381842087,1371
3283.4728383114807,1370
3285.1480358976296,1309
3286.8229749253996,1324
3288.4976557197333,1338
3290.172078605655,1338
3291.846243908266,1339
3293.5201519527463,1272
3295.193803064357,1291
3296.8671975684374,1298
3298.5403357904024,1272
3300.21321805575,1287
3301.8858446900567,1299
3303.558216018975,1300
3305.23033236824,1314
3306.9021940636603,1331
3308.57380143113,1273
3310.2451547966184,1314
3311.916254486174,1293
3313.5871008259246,1264
3315.2576941420766,1364
3316.9280347609147,1366
3318.5981230088046,1297
3320.2679592121895,1275
3321.9375436975924,1310
3323.606876791612,1306
3325.27595882093,1292
3326.944790112305,1282
3328.6133709925753,1300
3330.2817017886573,1325
3331.949782827547,1309
3333.617614436319,1305
3335.2851969421245,1319
3336.952530672199,1344
3338.619615953853,1321
3340.286453114475,1384
3341.9530424815357,1338
3343.619384382583,1397
3345.2854791452437,1313
3346.951327097224,1383
3348.6169285663073,1291
3350.2822838803577,1335
3351.947393367319,1288
3353.61225735521,1280
3355.2768761721345,1312
3356.9412501462693,1277
3358.605379605873,1290
3360.2692648792827,1383
3361.9329062949146,1337
3363.596304181263,1318
