CollectionTime,7/3/2024 2:16:37 PM
ExposureUsed,3
CalibratedSpectrum
-962.7078968117929,558
-959.9714848408522,625
-957.2358232597828,640
-954.5009119013725,593
-951.7667505983302,588
-949.0333391832855,588
-946.3006774887896,573
-943.5687653473143,629
-940.837602591253,623
-938.1071890529199,617
-935.3775245645503,618
-932.6486089583007,637
-929.9204420662485,634
-927.1930237203925,611
-924.4663537526524,651
-921.7404319948689,597
-919.0152582788041,622
-916.2908324361409,658
-913.5671542984834,577
-910.8442236973568,563
-908.1220404642074,583
-905.4006044304027,627
-902.679915427231,620
-899.959973285902,604
-897.2407778375464,555
-894.5223289132158,582
-891.8046263438832,570
-889.0876699604426,611
-886.3714595937089,631
-883.6559950744183,623
-880.9412762332282,586
-878.2273029007168,570
-875.5140749073835,566
-872.8015920836489,621
-870.0898542598545,577
-867.3788612662631,587
-864.6686129330585,625
-861.9591090903457,645
-859.2503495681506,627
-856.5423341964203,582
-853.8350628050229,615
-851.1285352237478,645
-848.4227512823054,625
-845.7177108103272,603
-843.0134136373656,635
-840.3098595928943,625
-837.6070485063082,593
-834.9049802069229,593
-832.2036545239757,605
-829.5030712866244,594
-826.8032303239481,596
-824.1041314649472,615
-821.4057745385428,625
-818.7081593735775,598
-816.0112857988148,584
-813.3151536429393,602
-810.6197627345566,617
-807.9251129021936,597
-805.2312039742981,614
-802.5380357792392,628
-799.8456081453069,627
-797.1539209007124,671
-794.462973873588,665
-791.772766891987,645
-789.083299783884,623
-786.3945723771743,612
-783.7065844996748,579
-781.0193359791231,586
-778.3328266431781,642
-775.6470563194197,604
-772.9620248353489,633
-770.2777320183878,606
-767.5941776958798,625
-764.9113616950891,655
-762.2292838432011,617
-759.5479439673222,595
-756.8673418944801,646
-754.1874774516235,665
-751.5083504656222,667
-748.8299607632671,701
-746.15230817127,632
-743.475392516264,701
-740.7992136248035,669
-738.1237713233636,635
-735.4490654383407,659
-732.7750957960521,673
-730.1018622227365,670
-727.4293645445534,636
-724.7576025875837,659
-722.0865761778291,653
-719.4162851412126,647
-716.7467293035781,694
-714.0779084906909,653
-711.409822528237,690
-708.7424712418238,646
-706.0758544569796,664
-703.4099719991541,706
-700.7448236937178,704
-698.0804093659622,703
-695.4167288411002,674
-692.7537819442656,680
-690.0915685005134,685
-687.4300883348199,680
-684.7693412720819,696
-682.1093271371178,723
-679.4500457546669,699
-676.7914969493897,647
-674.1336805458676,652
-671.4765963686034,659
-668.8202442420206,668
-666.1646239904642,703
-663.5097354382001,700
-660.8555784094151,704
-658.2021527282176,725
-655.5494582186366,702
-652.8974947046223,708
-650.2462620100463,710
-647.5957599587009,719
-644.9459883742998,736
-642.2969470804776,728
-639.6486359007902,818
-637.0010546587141,798
-634.3542031776476,727
-631.7080812809096,715
-629.0626887917401,723
-626.4180255333008,727
-623.7740913286734,747
-621.1308860008619,761
-618.4884093727904,748
-615.8466612673046,706
-613.2056415071715,707
-610.5653499150785,721
-607.9257863136347,718
-605.28695052537,729
-602.6488423727357,721
-600.0114616781036,724
-597.3748082637674,723
-594.7388819519412,821
-592.1036825647604,815
-589.4692099242818,796
-586.8354638524829,755
-584.2024441712624,788
-581.5701507024403,800
-578.9385832677575,809
-576.3077416888759,774
-573.6776257873787,696
-571.0482353847704,743
-568.4195703024757,755
-565.7916303618415,781
-563.164415384135,776
-560.5379251905453,742
-557.9121596021815,789
-555.2871184400748,731
-552.6628015251767,811
-550.0392086783606,821
-547.4163397204204,785
-544.794194472071,830
-542.1727727539491,817
-539.5520743866118,806
-536.9320991905377,887
-534.3128469861261,934
-531.6943175936979,867
-529.0765108334947,907
-526.4594265256793,933
-523.8430644903358,1020
-521.2274245474689,1185
-518.612506517005,1210
-515.9983102187913,1195
-513.3848354725959,1225
-510.77208209810846,1312
-508.16004991493924,1437
-505.5487387426199,1651
-502.9381484006032,1711
-500.3282787082628,1651
-497.71912948489364,1486
-495.1107005497117,1330
-492.5029917218539,1169
-489.8960028203786,1112
-487.28973366426493,1033
-484.68418407241325,966
-482.07935386364494,917
-479.47524285670266,918
-476.87185087025,925
-474.2691777228715,977
-471.66722323307334,980
-469.0659872192821,941
-466.4654694998459,980
-463.86566989303384,919
-461.26658821703614,943
-458.66822428996414,899
-456.07057792985,895
-453.4736489546475,941
-450.877437182231,942
-448.28194243039627,925
-445.68716451686,893
-443.09310325926003,935
-440.49975847515555,933
-437.9071299820263,900
-435.31521759727354,919
-432.72402113821954,993
-430.13354042210767,977
-427.5437752661022,945
-424.95472548728867,991
-422.36639090267386,997
-419.7787713291855,1089
-417.1918665836721,1076
-414.60567648290385,1079
-412.0202008435715,962
-409.4354394822874,1009
-406.8513922155845,1027
-404.26805885991723,1063
-401.685439231661,1039
-399.103533147112,1096
-396.522340422488,1062
-393.9418608739278,1039
-391.3620943174908,1055
-388.7830405691583,994
-386.2046994448317,908
-383.6270707603344,973
-381.05015433141045,997
-378.473949973725,906
-375.8984575028645,804
-373.32367673433623,809
-370.74960748356875,787
-368.1762495659117,746
-365.60360279663576,710
-363.03166699093265,676
-360.4604419639154,622
-357.8899275306178,603
-355.32012350599507,648
-352.7510297049233,607
-350.1826459421999,566
-347.61497203254316,604
-345.04800779059235,616
-342.4817530309082,654
-339.91620756797226,612
-337.35137121618743,628
-334.7872437898774,669
-332.22382510328725,691
-329.66111497058273,607
-327.09911320585127,652
-324.53781962310075,671
-321.9772340362607,644
-319.4173562591816,583
-316.8581861056348,583
-314.2997233893127,586
-311.7419679238294,621
-309.1849195227194,705
-306.62857799943856,652
-304.0729431673641,713
-301.51801483979375,672
-298.963792829947,682
-296.41027695096386,788
-293.85746701590574,872
-291.3053628377552,881
-288.7539642294155,815
-286.2032710037115,737
-283.65328297338897,721
-281.1039999511146,884
-278.5554217494762,1039
-276.007548180983,956
-273.4603790580651,814
-270.9139141930734,853
-268.3681533982807,938
-265.8230964858798,944
-263.27874326798565,916
-260.7350935566336,895
-258.1921471637804,808
-255.6499039013039,963
-253.10836358100266,940
-250.56752601459698,766
-248.02739101372765,925
-245.48795838995704,1081
-242.94922795476816,960
-240.41119951956557,1080
-237.8738728956746,1050
-235.33724789434166,1066
-232.80132432673452,1074
-230.2661020039418,923
-227.73158073697357,1090
-225.19776033676033,1182
-222.66464061415422,1252
-220.1322213799284,1026
-217.60050244477725,771
-215.06948361931552,830
-212.53916471408013,1183
-210.00954553952818,1363
-207.48062590603843,1137
-204.9524056239104,1084
-202.4248845033651,1291
-199.8980623545441,1384
-197.37193898751036,1235
-194.84651421224817,1173
-192.32178783866232,1131
-189.79775967657952,1312
-187.27442953574644,1531
-184.7517972258321,1589
-182.2298625564256,1427
-179.7086253370378,1184
-177.18808537710026,1055
-174.66824248596583,1491
-172.14909647290835,1665
-169.6306471471229,1592
-167.11289431772548,1313
-164.59583779375328,1454
-162.07947738416453,1598
-159.5638128978386,2011
-157.04884414357605,2520
-154.53457093009854,2356
-152.02099306604828,1658
-149.50811035998936,1425
-146.99592262040665,1612
-144.48442965570587,1997
-141.97363127421409,2807
-139.46352728417958,3131
-136.95411749377126,3114
-134.44540171107985,2459
-131.93737974411636,1945
-129.43005140081357,1996
-126.92341648902493,2825
-124.41747481652521,3648
-121.91222619101006,5038
-119.40767042009657,6709
-116.90380731132257,6582
-114.40063667214702,5079
-111.8981583099503,3310
-109.3963720320337,2271
-106.89527764561933,2563
-104.39487495785067,4319
-101.89516377579241,6746
-99.39614390642998,7395
-96.89781515667039,6053
-94.40017733334128,6962
-91.90323024319173,11986
-89.40697369289148,16151
-86.91140748903172,17912
-84.41653143812482,11792
-81.92234534660395,7473
-79.42884902082358,13425
-76.93604226705907,29901
-74.4439248915071,44199
-71.95249670028534,51357
-69.46175749943245,44893
-66.97170709490854,32975
-64.48234529259423,21963
-61.99367189829195,14813
-59.50568671772464,11658
-57.01838955653636,11165
-54.53178022029283,9834
-52.045858514480074,12731
-49.560624244506016,17386
-47.07607721569923,20685
-44.59221723330904,22426
-42.10904410250669,26010
-39.62655762838392,28457
-37.14475761595372,29911
-34.66364387015028,36298
-32.18321619582866,39485
-29.70347439776515,37689
-27.224418280657005,35956
-24.74604764912317,39476
-22.26836230770266,54911
-19.7913620608565,65041
-17.315046712966478,65041
-14.83941606833514,65041
-12.36446993118659,65041
-9.89020810566592,65041
-7.416630395839093,65041
-4.94373660569363,65041
-2.471526539137585,65041
-6.821210263296962E-13,65041
2.47084320796705,65041
4.941003281093458,65041
7.410480415786196,65041
9.879274808531363,65041
12.347386655893956,65041
14.814816154518212,65041
17.28156350112681,65041
19.74762889252179,65041
22.21301252558385,65041
24.67771459727237,22596
27.141735304626195,6291
29.605074844762612,5074
32.06773341487792,4492
34.52971121224755,4119
36.99100843422559,4058
39.45162527824516,3431
41.91156194181792,3459
44.370818622535126,2896
46.82939551806646,3051
49.287292826160524,3600
51.74451074464503,3753
54.201049471426245,3628
56.65690920448981,2658
59.112090141899785,2199
61.56659248179983,2038
64.02041642241159,2073
66.4735621620365,2137
68.92602989905402,2118
71.37781983192338,2473
73.82893215918205,2610
76.27936707944684,2674
78.72912479141326,2559
81.17820549385567,2623
83.62660938562783,2681
86.07433666566146,2492
88.5213875329681,1872
90.96776218663751,1676
93.41346082583925,1931
95.85848364982041,2516
98.30283085790859,2638
100.7465026495089,3026
103.18949922410604,2250
105.63182078126385,1812
108.07346752062438,1635
110.51443964190923,1602
112.95473734491827,1347
115.39436082953114,1703
117.83331029570547,1774
120.27158594347827,2568
122.7091879729652,2805
125.1461165843615,2230
127.58237197794062,1909
130.01795435405518,1740
132.4528639131364,1647
134.88710085569494,1584
137.32066538231982,1825
139.75355769367923,1780
142.1857779905207,1464
144.61732647366978,1343
147.04820334403132,1461
149.47840880258934,1565
151.90794305040674,1559
154.33680628862487,1678
156.76499871846443,1606
159.19252054122433,1663
161.61937195828352,1868
164.04555317109896,1908
166.47106438120693,2197
168.89590579022217,2438
171.320077599839,2609
173.7435800118302,2707
176.16641322804742,2759
178.58857745042144,2751
181.01007288096173,2789
183.43089972175687,2907
185.85105817497413,3071
188.27054844285988,3096
190.6893707277394,3143
193.10752523201643,3009
195.5250121581745,2846
197.9418317087751,2887
200.3579840864594,2852
202.7734694939469,2813
205.18828813403627,2930
207.6024402096051,3101
210.01592592360964,3159
212.42874547908548,3065
214.84089907914665,2953
217.2523869269868,3003
219.66320922587727,2872
222.0733661791695,3069
224.48285799029293,3136
226.8916848627572,2940
229.29984700014882,3117
231.7073446061355,2970
234.11417788446204,2930
236.520347038953,3131
238.92585227351185,3229
241.33069379212054,3186
243.73487179884035,3337
246.1383864978112,3237
248.541238093252,3141
250.9434267894609,3164
253.34495279081432,3359
255.74581630176783,3211
258.1460175268563,3202
260.54555667069314,3208
262.9444339379703,3172
265.3426495334594,3071
267.7402036620107,3283
270.1370965285529,3228
272.53332833809407,3001
274.9288992957214,2916
277.32380960660055,2908
279.718059475976,2872
282.1116491091717,2868
284.5045787115897,2800
286.89684848871195,2596
289.2884586460981,2720
291.67940938938807,2697
294.0697009242996,2740
296.4593334566299,2690
298.84830719225477,2731
301.23662233712923,2767
303.6242790972866,2743
306.01127767884,2590
308.39761828798066,2525
310.78330113097934,2577
313.16832641418534,2540
315.5526943440269,2385
317.9364051270112,2533
320.3194589697242,2550
322.70185607883093,2482
325.0835966610754,2499
327.4646809232805,2402
329.8451090723478,2365
332.2248813152577,2374
334.6039978590701,2322
336.9824589109231,2317
339.36026467803447,2368
341.7374153677,2323
344.113911187295,2293
346.48975234427337,2215
348.8649390461686,2184
351.2394715005918,2248
353.61334991523415,2314
355.9865744978655,2234
358.35914545633375,2257
360.73106299856715,2374
363.10232733257146,2237
365.47293866643247,2168
367.84289720831396,2251
370.2122031664593,2154
372.5808567491905,2230
374.9488581649083,2147
377.31620762209275,2103
379.6829053293021,2095
382.0489514951745,2063
384.4143463284262,2050
386.7790900378528,2119
389.14318283232853,2164
391.50662492080653,2159
393.86941651231916,2180
396.23155781597745,2161
398.5930490409713,2177
400.9538903965696,2165
403.3140820921202,2121
405.6736243370498,2193
408.03251734086336,2098
410.3907613131465,2100
412.74835646356166,2053
415.10530300185144,2004
417.4616011378372,2105
419.81725108141893,2057
422.1722530425758,2034
424.5266072313656,2084
426.880313857925,2002
429.2333731324701,2097
431.58578526529516,2069
433.9375504667738,2022
436.2886689473588,2073
438.63914091758113,2002
440.9889665880513,1971
443.33814616945835,1913
445.68667987257015,1953
448.03456790823395,2014
450.3818104873759,1981
452.72840782100013,1952
455.07436012019105,1963
457.41966759611057,1963
459.7643304600007,1985
462.10834892318155,1976
464.4517231970525,1981
466.79445349309174,1937
469.1365400228566,2045
471.4779829979826,1911
473.81878263018564,1918
476.15893913125876,1962
478.4984527130747,1993
480.8373235875855,2042
483.17555196682144,2100
485.5131380628919,2196
487.8500820879857,2225
490.1863842543697,2237
492.52204477439034,2334
494.8570638604725,2527
497.1914417251204,2764
499.52517858091653,3288
501.85827464052306,3552
504.19073011668036,3824
506.5225452222086,4044
508.85372017000566,3828
511.18425517304956,3828
513.514150444396,3815
515.8434061971808,4386
518.1720226446176,5423
520.4999999999999,5669
522.8273384766991,5273
525.1540382881666,4715
527.480099647932,4142
529.8055227696037,3498
532.1303078668694,2748
534.454455153496,2512
536.777964843328,2329
539.1008371502907,2164
541.4230722883866,2186
543.744670471698,2143
546.0656319143858,2169
548.3859568306899,2090
550.7056454349294,2109
553.0246979415016,2125
555.3431145648834,2240
557.6608955196306,2165
559.978041020377,2041
562.2945512818363,2070
564.6104265188006,2089
566.9256669461412,2156
569.2402727788082,2091
571.5542442318302,2108
573.8675815203156,2124
576.1802848594508,2188
578.4923544645015,2087
580.8037905508126,2151
583.114593333807,2138
585.4247630289875,2100
587.7342998519354,2106
590.0432040183106,2022
592.3514757438526,2037
594.6591152443794,2128
596.9661227357875,2129
599.2724984340531,2039
601.578242555231,2027
603.8833553154542,2164
606.1878369309362,2061
608.4916876179676,2059
610.7949075929192,2092
613.0974970722403,2122
615.3994562724587,2133
617.7007854101818,2022
620.0014847020951,2028
622.3015543649641,2001
624.6009946156324,2119
626.8998056710224,2148
629.1979877481361,2094
631.4955410640538,2095
633.7924658359349,2070
636.0887622810175,2103
638.3844306166192,2076
640.6794710601358,2112
642.9738838290426,2096
645.2676691408932,2160
647.5608272133207,2125
649.853358264037,2139
652.1452625108324,2149
654.4365401715764,2116
656.7271914642178,2193
659.0172166067838,2201
661.3066158173809,2181
663.5953893141935,2085
665.8835373154867,2127
668.1710600396028,2148
670.4579577049639,2190
672.7442305300709,2237
675.0298787335033,2148
677.3149025339197,2186
679.599302150058,2210
681.8830778007342,2148
684.1662297048437,2094
686.4487580813608,2283
688.7306631493387,2271
691.0119451279091,2209
693.2926042362834,2145
695.5726406937516,2077
697.8520547196814,2141
700.1308465335215,2077
702.4090163547982,2112
704.6865644031171,2092
706.9634908981619,2080
709.2397960596965,2065
711.5154801075631,2201
713.7905432616823,2040
716.0649857420548,2100
718.3388077687592,2094
720.612009561953,2096
722.8845913418733,2086
725.1565533288352,2112
727.427895743234,2183
729.6986188055427,2108
731.9687227363137,2077
734.238207756178,2006
736.5070740858458,2031
738.7753219461066,2159
741.0429515578281,2122
743.3099631419569,2176
745.5763569195191,2137
747.8421331116193,2081
750.1072919394409,2131
752.3718336242467,2131
754.6357583873777,2284
756.8990664502545,2159
759.1617580343765,2114
761.423833361321,2123
763.6852926527457,2169
765.9461361303862,2231
768.206364016058,2125
770.4659765316536,2192
772.7249738991469,2142
774.9833563405886,2188
777.2411240781092,2228
779.4982773339183,2209
781.7548163303044,2181
784.010741289634,2157
786.2660524343538,2205
788.5207499869881,2126
790.7748341701416,2166
793.0283052064964,2115
795.2811633188143,2123
797.5334087299362,2176
799.7850416627813,2269
802.0360623403484,2201
804.2864709857143,2074
806.5362678220353,2220
808.7854530725468,2168
811.0340269605625,2244
813.2819897094754,2200
815.5293415427581,2159
817.77608268396,2198
820.0222133567116,2166
822.2677337847211,2110
824.5126441917765,2145
826.7569448017433,2176
829.0006358385675,2084
831.2437175262731,2105
833.4861900889629,2144
835.7280537508192,2138
837.9693087361026,2173
840.2099552691533,2238
842.4499935743896,2160
844.689423876309,2182
846.9282463994886,2250
849.1664613685833,2222
851.4040690083276,2188
853.6410695435349,2098
855.877463199097,2144
858.1132501999847,2071
860.3484307712487,2181
862.5830051380175,2178
864.8169735254988,2187
867.0503361589791,2113
869.2830932638243,2205
871.5152450654786,2146
873.7467917894654,2180
875.9777336613873,2093
878.2080709069252,2173
880.4378037518389,2195
882.666932421968,2143
884.8954571432301,2189
887.1233781416219,2209
889.3506956432192,2152
891.5774098741766,2176
893.803521060728,2189
896.0290294291852,2133
898.2539352059397,2129
900.4782386174619,2106
902.7019398903011,2094
904.925039251085,2046
907.147536926521,2148
909.3694331433943,2159
911.59072812857,2182
913.8114221089921,2198
916.0315153116827,2209
918.2510079637437,2093
920.4699002923547,2181
922.6881925247761,2110
924.905884888345,2137
927.1229776104793,2077
929.3394709186747,2202
931.555365040506,2152
933.7706602036275,2091
935.9853566357709,2152
938.1994545647489,2235
940.4129542184515,2092
942.6258558248488,2134
944.8381596119883,2091
947.0498658079974,2119
949.2609746410825,2045
951.4714863395287,2077
953.6814011316998,2097
955.8907192460387,2132
958.0994409110671,2095
960.3075663553858,2136
962.5150958076741,2125
964.7220294966913,2205
966.928367651274,2158
969.1341105003388,2053
971.3392582728806,2035
973.5438111979742,2089
975.747769504772,2038
977.9511334225061,2071
980.153903180487,2019
982.3560790081052,2041
984.5576611348289,2060
986.7586497902058,1967
988.9590452038618,2001
991.158847605503,1909
993.3580572249133,1967
995.5566742919558,1977
997.7546990365728,1894
999.952131688785,1902
1002.1489724786926,1927
1004.3452216364743,1916
1006.5408793923874,1877
1008.7359459767691,1780
1010.9304216200343,1841
1013.1243065526781,1818
1015.3176010052733,1776
1017.510305208472,1732
1019.7024193930064,1758
1021.8939437896848,1692
1024.0848786293977,1741
1026.2752241431122,1738
1028.4649805618747,1717
1030.6541481168115,1807
1032.842727039127,1747
1035.0307175601051,1746
1037.2181199111074,1679
1039.4049343235752,1698
1041.591161029029,1751
1043.7768002590683,1720
1045.9618522453698,1692
1048.1463172196918,1661
1050.3301954138697,1638
1052.513487059818,1673
1054.69619238953,1700
1056.8783116350783,1687
1059.0598450286152,1662
1061.2407928023704,1682
1063.4211551886528,1657
1065.6009324198508,1628
1067.780124728432,1675
1069.9587323469414,1649
1072.1367555080046,1595
1074.314194444325,1646
1076.4910493886855,1629
1078.667320573947,1625
1080.843008233051,1670
1083.0181125990161,1607
1085.1926339049414,1620
1087.3665723840027,1634
1089.5399282694575,1626
1091.7127017946405,1581
1093.8848931929647,1562
1096.0565026979243,1533
1098.2275305430899,1629
1100.3979769621128,1565
1102.567842188722,1630
1104.737126456726,1574
1106.9058300000124,1609
1109.0739530525475,1541
1111.2414958483764,1554
1113.4084586216231,1541
1115.5748416064907,1574
1117.7406450372605,1527
1119.9058691482942,1561
1122.0705141740304,1509
1124.2345803489884,1501
1126.3980679077658,1625
1128.5609770850388,1620
1130.7233081155623,1602
1132.8850612341707,1522
1135.0462366757774,1510
1137.2068346753745,1566
1139.3668554680326,1568
1141.526299288901,1591
1143.68516637321,1558
1145.8434569562655,1542
1148.001171273455,1567
1150.158309560244,1519
1152.3148720521767,1547
1154.470858984876,1536
1156.626270594044,1541
1158.7811071154629,1559
1160.9353687849912,1532
1163.089055838569,1557
1165.242168512213,1561
1167.3947070420209,1499
1169.5466716641677,1529
1171.6980626149075,1514
1173.8488801305748,1522
1175.9991244475814,1569
1178.1487958024186,1610
1180.2978944316555,1525
1182.4464205719428,1564
1184.5943744600072,1542
1186.7417563326567,1491
1188.8885664267755,1521
1191.0348049793297,1450
1193.1804722273619,1544
1195.325568407995,1531
1197.4700937584303,1546
1199.614048515948,1547
1201.7574329179074,1564
1203.900247201746,1556
1206.042491604982,1510
1208.1841663652099,1580
1210.3252717201053,1503
1212.465807907422,1486
1214.6057751649923,1545
1216.7451737307279,1505
1218.8840038426192,1492
1221.0222657387353,1525
1223.1599596572241,1583
1225.2970858363137,1546
1227.4336445143094,1556
1229.5696359295966,1504
1231.705060320639,1554
1233.8399179259786,1553
1235.9742089842384,1503
1238.107933734118,1548
1240.2410924143974,1565
1242.373685263935,1621
1244.5057125216676,1556
1246.6371744266116,1551
1248.7680712178621,1603
1250.898403134593,1548
1253.028170416058,1560
1255.1573733015875,1591
1257.2860120305932,1653
1259.4140868425648,1678
1261.54159797707,1548
1263.6685456737569,1627
1265.7949301723515,1553
1267.9207517126597,1638
1270.046010534565,1575
1272.1707068780306,1599
1274.2948409830983,1578
1276.4184130898889,1580
1278.541423438603,1516
1280.6638722695184,1573
1282.785759822993,1545
1284.9070863394636,1635
1287.0278520594447,1624
1289.1480572235314,1613
1291.2677020723963,1651
1293.3867868467923,1633
1295.5053117875495,1664
1297.623277135579,1633
1299.740683131868,1613
1301.8575300174857,1651
1303.973818033578,1653
1306.0895474213703,1697
1308.2047184221678,1723
1310.3193312773528,1663
1312.4333862283888,1662
1314.5468835168163,1650
1316.659823384255,1738
1318.7722060724045,1655
1320.8840318230418,1650
1322.9953008780249,1694
1325.1060134792888,1666
1327.2161698688478,1708
1329.3257702887959,1745
1331.4348149813054,1719
1333.5433041886276,1722
1335.6512381530933,1708
1337.7586171171101,1666
1339.8654413231675,1646
1341.9717110138317,1627
1344.0774264317488,1716
1346.1825878196432,1696
1348.2871954203192,1697
1350.3912494766587,1683
1352.4947502316231,1661
1354.5976979282532,1677
1356.7000928096686,1720
1358.8019351190665,1672
1360.9032250997243,1653
1363.0039629949988,1648
1365.1041490483235,1639
1367.2037835032133,1651
1369.3028666032606,1689
1371.401398592137,1698
1373.4993797135926,1671
1375.5968102114575,1635
1377.6936903296396,1649
1379.7900203121262,1709
1381.8858004029835,1675
1383.9810308463561,1668
1386.075711886469,1746
1388.1698437676241,1689
1390.2634267342032,1746
1392.356461030667,1720
1394.4489469015557,1598
1396.5408845914872,1700
1398.6322743451592,1683
1400.7231164073469,1775
1402.813411022907,1739
1404.903158436773,1705
1406.9923588939578,1709
1409.0810126395531,1717
1411.1691199187303,1841
1413.2566809767386,1804
1415.343696058907,1822
1417.4301654106425,1777
1419.5160892774315,1818
1421.6014679048399,1812
1423.6863015385125,1809
1425.7705904241707,1818
1427.8543348076178,1830
1429.9375349347342,1818
1432.0201910514802,1774
1434.102303403894,1880
1436.1838722380944,1937
1438.2648978002767,1898
1440.3453803367174,1887
1442.4253200937692,2005
1444.5047173178677,1943
1446.5835722555234,1997
1448.6618851533285,2008
1450.739656257952,2097
1452.8168858161434,2096
1454.8935740747306,2047
1456.96972128062,2086
1459.045327680797,2108
1461.120393522327,2124
1463.1949190523528,2179
1465.2689045180973,2189
1467.3423501668608,2175
1469.415256246024,2266
1471.4876230030463,2307
1473.559450685465,2399
1475.6307395408976,2407
1477.7014898170391,2375
1479.771701761665,2479
1481.8413756226287,2466
1483.9105116478618,2412
1485.9791100853772,2436
1488.0471711832643,2602
1490.1146951896926,2582
1492.1816823529098,2655
1494.2481329212433,2674
1496.3140471430984,2701
1498.3794252669609,2705
1500.4442675413939,2726
1502.5085742150404,2736
1504.572345536622,2816
1506.6355817549388,2812
1508.6982831188702,2724
1510.7604498773744,2711
1512.8220822794883,2816
1514.8831805743293,2748
1516.9437450110909,2824
1519.003775839048,2927
1521.0632733075522,2927
1523.1222376660367,2935
1525.1806691640113,3025
1527.2385680510652,2999
1529.2959345768668,3072
1531.3527689911643,2945
1533.4090715437833,3118
1535.4648424846291,3089
1537.5200820636855,3166
1539.5747905310159,3302
1541.6289681367616,3260
1543.6826151311434,3212
1545.7357317644614,3356
1547.7883182870937,3348
1549.8403749494987,3422
1551.8919020022113,3454
1553.9428996958477,3557
1555.9933682811015,3570
1558.0433080087469,3621
1560.0927191296346,3733
1562.1416018946961,3803
1564.1899565549415,3870
1566.2377833614592,4026
1568.2850825654164,4064
1570.3318544180606,3987
1572.3780991707158,4000
1574.423817074788,3845
1576.4690083817595,3797
1578.5136733431923,3602
1580.5578122107272,3494
1582.601425236085,3298
1584.6445126710646,3275
1586.6870747675434,3028
1588.7291117774776,2900
1590.7706239529034,2788
1592.8116115459347,2673
1594.8520748087658,2595
1596.8920139936686,2478
1598.9314293529933,2428
1600.9703211391711,2350
1603.008689604711,2254
1605.0465350022005,2121
1607.0838575843068,2089
1609.1206576037753,2094
1611.1569353134305,2058
1613.1926909661765,2016
1615.2279248149953,1960
1617.2626371129481,1913
1619.2968281131757,1913
1621.3304980688963,1893
1623.3636472334088,1913
1625.39627586009,1815
1627.428384202396,1824
1629.459972513861,1826
1631.4910410480993,1807
1633.5215900588028,1748
1635.551619799744,1696
1637.5811305247717,1771
1639.6101224878166,1707
1641.6385959428862,1716
1643.6665511440683,1753
1645.693988345528,1698
1647.7209078015112,1651
1649.7473097663405,1676
1651.7731944944203,1677
1653.7985622402307,1644
1655.823413258333,1669
1657.847747803366,1682
1659.8715661300494,1708
1661.8948684931793,1677
1663.9176551476316,1694
1665.9399263483624,1723
1667.9616823504057,1630
1669.982923408873,1665
1672.0036497789574,1713
1674.0238617159293,1692
1676.043559475138,1715
1678.0627433120121,1653
1680.081413482059,1594
1682.0995702408654,1668
1684.117213844096,1677
1686.134344547495,1650
1688.1509626068864,1604
1690.1670682781705,1645
1692.182661817329,1684
1694.1977434804217,1724
1696.2123135235875,1700
1698.226372203043,1679
1700.2399197750851,1750
1702.2529564960905,1689
1704.2654826225112,1682
1706.277498410882,1651
1708.2890041178139,1645
1710.2999999999988,1650
1712.3104863142066,1617
1714.3204633172854,1645
1716.329931266163,1630
1718.3388904178469,1636
1720.3473410294214,1610
1722.3552833580516,1616
1724.3627176609807,1637
1726.3696441955308,1616
1728.3760632191033,1643
1730.3819749891782,1599
1732.3873797633146,1636
1734.3922777991502,1622
1736.3966693544012,1596
1738.4005546868639,1624
1740.4039340544127,1622
1742.406807715001,1599
1744.4091759266616,1575
1746.4110389475054,1533
1748.4123970357223,1567
1750.413250449582,1541
1752.4135994474318,1567
1754.4134442876993,1661
1756.4127852288902,1542
1758.4116225295893,1566
1760.4099564484595,1565
1762.407787244244,1589
1764.405115175764,1582
1766.4019405019203,1555
1768.3982634816916,1571
1770.3940843741357,1543
1772.3894034383907,1549
1774.3842209336717,1546
1776.378537119274,1591
1778.372352254571,1611
1780.3656665990156,1580
1782.3584804121397,1517
1784.3507939535534,1547
1786.3426074829463,1495
1788.3339212600863,1515
1790.3247355448211,1610
1792.3150505970766,1507
1794.3048666768573,1502
1796.2941840442477,1433
1798.2830029594106,1476
1800.2713236825884,1476
1802.2591464741004,1581
1804.2464715943465,1484
1806.2332993038058,1444
1808.2196298630352,1534
1810.2054635326708,1544
1812.190800573428,1534
1814.175641246101,1485
1816.1599858115628,1500
1818.1438345307652,1541
1820.127187664738,1522
1822.1100454745924,1500
1824.092408221516,1498
1826.0742761667766,1508
1828.055649571721,1496
1830.0365286977735,1459
1832.0169138064398,1524
1833.9968051593014,1485
1835.9762030180214,1560
1837.9551076443408,1503
1839.9335193000788,1477
1841.9114382471344,1515
1843.888864747485,1406
1845.8657990631878,1490
1847.842241456378,1434
1849.8181921892697,1425
1851.7936515241558,1441
1853.7686197234098,1433
1855.7430970494815,1459
1857.7170837649014,1451
1859.6905801322787,1448
1861.6635864143004,1436
1863.6361028737338,1454
1865.608129773424,1488
1867.5796673762961,1468
1869.5507159453537,1469
1871.521275743678,1457
1873.4913470344313,1495
1875.4609300808534,1455
1877.4300251462632,1477
1879.3986324940588,1510
1881.366752387717,1496
1883.3343850907936,1414
1885.3015308669228,1515
1887.268189979819,1463
1889.2343626932739,1525
1891.2000492711595,1475
1893.1652499774254,1511
1895.1299650761011,1503
1897.0941948312952,1510
1899.0579395071945,1546
1901.0211993680641,1561
1902.98397467825,1543
1904.9462657021745,1532
1906.9080727043415,1491
1908.869395949332,1527
1910.8302357018065,1508
1912.790592226504,1504
1914.7504657882428,1487
1916.7098566519212,1517
1918.6687650825133,1472
1920.6271913450764,1526
1922.5851357047422,1493
1924.5425984267245,1506
1926.499579776314,1460
1928.4560800188833,1529
1930.4120994198802,1442
1932.367638244833,1513
1934.32269675935,1473
1936.2772752291175,1479
1938.231373919899,1504
1940.1849930975404,1496
1942.1381330279637,1495
1944.0907939771696,1508
1946.0429762112412,1434
1947.9946799963363,1531
1949.9459055986945,1480
1951.896653284633,1484
1953.8469233205478,1460
1955.7967159729142,1479
1957.7460315082863,1431
1959.6948701932974,1497
1961.6432322946594,1504
1963.5911180791632,1479
1965.5385278136787,1553
1967.4854617651545,1495
1969.4319202006182,1515
1971.377903387176,1525
1973.3234115920136,1522
1975.268445082395,1502
1977.2130041256642,1531
1979.1570889892423,1470
1981.1006999406304,1481
1983.04383724741,1520
1984.986501177238,1510
1986.928691997853,1491
1988.8704099770712,1487
1990.811655382789,1475
1992.7524284829801,1459
1994.692729545698,1461
1996.6325588390755,1474
1998.5719166313224,1463
2000.5108031907307,1428
2002.4492187856677,1472
2004.387163684583,1497
2006.3246381560011,1506
2008.2616424685298,1477
2010.1981768908527,1492
2012.1342416917332,1465
2014.069837140014,1478
2016.0049635046162,1462
2017.9396210545406,1484
2019.8738100588666,1462
2021.8075307867502,1437
2023.740783507431,1454
2025.6735684902228,1397
2027.6058860045214,1470
2029.5377363198004,1391
2031.4691197056118,1506
2033.4000364315875,1430
2035.3304867674374,1475
2037.260470982952,1485
2039.189989347998,1508
2041.1190421325232,1453
2043.047629606554,1496
2044.9757520401945,1446
2046.9034097036288,1413
2048.8306028671195,1466
2050.7573318010086,1421
2052.683596775716,1525
2054.609398061742,1471
2056.5347359296647,1426
2058.4596106501403,1453
2060.384022493906,1424
2062.3079717317764,1452
2064.231458634646,1504
2066.1544834734873,1452
2068.077046519352,1437
2069.99914804337,1419
2071.9207883167524,1385
2073.8419676107865,1447
2075.7626861968406,1471
2077.6829443463607,1466
2079.6027423308715,1449
2081.522080421977,1469
2083.440958891362,1474
2085.359378010786,1495
2087.2773380520907,1368
2089.194839287196,1451
2091.111881988101,1479
2093.0284664268825,1456
2094.9445928756973,1493
2096.86026160678,1438
2098.775472892446,1460
2100.690227005088,1444
2102.604524217178,1457
2104.5183648012676,1413
2106.431749029985,1449
2108.34467717604,1491
2110.2571495122206,1464
2112.169166311393,1504
2114.080727846503,1435
2115.9918343905747,1425
2117.902486216711,1445
2119.8126835980956,1461
2121.722426807987,1448
2123.6317161197285,1450
2125.5405518067364,1474
2127.448934142509,1434
2129.356863400624,1495
2131.264339854737,1476
2133.1713637785815,1440
2135.077935445972,1475
2136.9840551308002,1469
2138.889723107037,1473
2140.7949396487334,1473
2142.699705030018,1419
2144.6040195250994,1507
2146.507883408264,1445
2148.4112969538774,1469
2150.3142604363848,1437
2152.2167741303097,1456
2154.1188383102535,1471
2156.0204532508997,1545
2157.9216192270064,1465
2159.822336513414,1521
2161.7226053850413,1467
2163.622426116884,1495
2165.5217989840185,1448
2167.4207242616,1508
2169.319202224862,1500
2171.2172331491165,1475
2173.1148173097563,1430
2175.0119549822507,1517
2176.90864644215,1555
2178.8048919650823,1445
2180.7006918267534,1497
2182.596046302952,1525
2184.4909556695407,1455
2186.3854202024645,1501
2188.279440177746,1511
2190.173015871487,1488
2192.066147559868,1502
2193.958835519149,1555
2195.851080025667,1526
2197.7428813558417,1480
2199.6342397861667,1468
2201.5251555932186,1508
2203.415629053651,1454
2205.3056604441986,1493
2207.19525004167,1563
2209.084398122958,1528
2210.9731049650327,1566
2212.861370844941,1554
2214.749196039812,1477
2216.636580826851,1554
2218.523525483344,1505
2220.410030286655,1549
2222.296095514226,1476
2224.1817214435805,1544
2226.066908352319,1516
2227.951656518121,1531
2229.835966218746,1525
2231.71983773203,1546
2233.6032713358913,1522
2235.486267308324,1535
2237.3688259274036,1524
2239.2509474712824,1551
2241.132632218193,1491
2243.013880446447,1505
2244.8946924344323,1524
2246.7750684606203,1500
2248.6550088035574,1554
2250.534513741871,1569
2252.413583554265,1557
2254.292218519526,1453
2256.170418916517,1554
2258.0481850241786,1514
2259.925517121534,1479
2261.8024154876825,1498
2263.678880401803,1492
2265.5549121431536,1482
2267.430510991071,1467
2269.305677224971,1536
2271.180411124348,1505
2273.0547129687766,1491
2274.9285830379076,1452
2276.8020216114737,1500
2278.6750289692845,1463
2280.5476053912294,1502
2282.4197511572766,1474
2284.2914665474727,1485
2286.162751841943,1575
2288.0336073208937,1545
2289.904033264608,1593
2291.774029953448,1573
2293.6435976678554,1590
2295.5127366883517,1520
2297.381447295534,1459
2299.2497297700825,1486
2301.1175843927526,1428
2302.9850114443825,1458
2304.852011205885,1411
2306.7185839582553,1457
2308.5847299825664,1346
2310.4504495599676,1342
2312.3157429716925,1378
2314.1806104990483,1397
2316.0450524234247,1358
2317.9090690262888,1364
2319.772660589186,1313
2321.635827393742,1333
2323.498569721661,1328
2325.3608878547248,1313
2327.2227820747967,1349
2329.0842526638157,1335
2330.945299903803,1327
2332.805924076857,1341
2334.6661254651535,1359
2336.525904350951,1293
2338.3852610165827,1304
2340.244195744464,1297
2342.102708817088,1304
2343.9608005170253,1281
2345.8184711269287,1323
2347.675720929526,1319
2349.532550207628,1314
2351.38895924412,1377
2353.24494832197,1354
2355.100517724223,1399
2356.955667734004,1350
2358.810398634514,1386
2360.664710709037,1347
2362.5186042409337,1270
2364.3720795136437,1374
2366.225136810686,1319
2368.0777764156583,1409
2369.929998612237,1336
2371.7818036841777,1341
2373.633191915315,1365
2375.484163589562,1360
2377.3347189909114,1356
2379.184858403434,1389
2381.03458211128,1372
2382.8838903986775,1350
2384.732783549936,1400
2386.5812618494406,1358
2388.4293255816588,1349
2390.2769750311327,1391
2392.1242104824883,1322
2393.971032220427,1306
2395.8174405297295,1373
2397.6634356952563,1352
2399.509018001947,1387
2401.3541877348193,1400
2403.1989451789705,1404
2405.043290619576,1367
2406.8872243418905,1413
2408.730746631247,1426
2410.5738577730594,1328
2412.4165580528183,1428
2414.258847756095,1408
2416.100727168537,1372
2417.9421965758734,1361
2419.783256263912,1384
2421.623906518538,1419
2423.4641476257157,1402
2425.303979871491,1417
2427.143403541984,1383
2428.9824189233977,1426
2430.821026302012,1376
2432.6592259641866,1417
2434.497018196361,1395
2436.33440328505,1427
2438.171381516851,1362
2440.00795317844,1403
2441.844118556569,1413
2443.6798779380724,1340
2445.5152316098606,1424
2447.3501798589255,1408
2449.1847229723357,1358
2451.0188612372403,1363
2452.8525949408663,1428
2454.6859243705203,1408
2456.518849813587,1374
2458.3513715575314,1331
2460.183489889895,1441
2462.015205098301,1409
2463.8465174704493,1442
2465.67742729412,1447
2467.5079348571717,1440
2469.338040447542,1424
2471.1677443532476,1431
2472.9970468623833,1420
2474.825948263123,1417
2476.6544488437207,1490
2478.482548892508,1432
2480.310248697896,1385
2482.137548548374,1412
2483.9644487325118,1402
2485.790949538956,1416
2487.617051256433,1431
2489.44275417375,1457
2491.26805857979,1420
2493.0929647635157,1379
2494.917473013971,1428
2496.741583620276,1429
2498.5652968716304,1428
2500.3886130573137,1428
2502.2115324666834,1468
2504.0340553891765,1450
2505.856182114308,1451
2507.6779129316733,1473
2509.499248130945,1450
2511.3201880018764,1479
2513.140732834298,1444
2514.9608829181198,1404
2516.780638543331,1487
2518.6,1407
2520.418967578273,1438
2522.237541568376,1460
2524.0557222606144,1502
2525.8735099453706,1520
2527.6909049131086,1440
2529.507907454368,1432
2531.32451785977,1487
2533.140736420014,1468
2534.9565634258774,1541
2536.771999168218,1513
2538.5870439379714,1565
2540.4016980261526,1526
2542.2159617238544,1555
2544.02983532225,1574
2545.8433191125914,1580
2547.656413386209,1649
2549.4691184345115,1558
2551.2814345489874,1604
2553.093362021204,1582
2554.904901142808,1652
2556.716052205523,1591
2558.526815501153,1629
2560.3371913215824,1622
2562.147179958771,1698
2563.956781704761,1661
2565.7659968516705,1633
2567.5748256916986,1622
2569.3832685171224,1678
2571.1913256202984,1730
2572.9989972936614,1654
2574.806283829725,1726
2576.613185521084,1754
2578.4197026604074,1788
2580.2258355404483,1751
2582.031584454035,1778
2583.836949694077,1732
2585.6419315535613,1729
2587.4465303255533,1762
2589.2507463032002,1778
2591.0545797797245,1833
2592.8580310484303,1848
2594.6611004026995,1848
2596.463788135992,1817
2598.266094541849,1801
2600.0680199138874,1839
2601.869564545807,1805
2603.670728731383,1827
2605.4715127644704,1822
2607.2719169390048,1875
2609.071941548998,1875
2610.8715868885433,1810
2612.670853251811,1839
2614.469740933052,1877
2616.268250226594,1826
2618.0663814268455,1794
2619.864134828292,1783
2621.6615107255006,1794
2623.458509413115,1811
2625.2551311858597,1776
2627.0513763385347,1741
2628.8472451660223,1796
2630.6427379632833,1737
2632.4378550253564,1803
2634.232596647359,1744
2636.026963124488,1788
2637.8209547520187,1731
2639.6145718253065,1720
2641.407814639785,1764
2643.200683490966,1698
2644.9931786744414,1647
2646.7853004858807,1764
2648.577049221034,1703
2650.3684251757277,1687
2652.1594286458712,1632
2653.9500599274484,1679
2655.740319316525,1610
2657.5302071092437,1595
2659.3197236018286,1670
2661.10886909058,1593
2662.8976438718782,1619
2664.686048242183,1607
2666.4740824980327,1596
2668.2617469360443,1525
2670.0490418529134,1564
2671.8359675454153,1490
2673.622524310403,1498
2675.408712444811,1480
2677.1945322456495,1512
2678.979984010009,1424
2680.76506803506,1511
2682.5497846180497,1448
2684.334134056306,1427
2686.1181166472343,1477
2687.9017326883213,1491
2689.6849824771293,1431
2691.4678663113013,1426
2693.2503844885596,1488
2695.032537306705,1432
2696.8143250636167,1491
2698.5957480572542,1406
2700.3768065856534,1392
2702.1575009469316,1369
2703.937831439283,1467
2705.717798360982,1430
2707.4974020103837,1405
2709.276642685917,1417
2711.055520686095,1366
2712.834036309506,1404
2714.612189854819,1362
2716.389981620782,1363
2718.1674119062204,1372
2719.944481010041,1403
2721.721189231226,1409
2723.4975368688415,1300
2725.273524222027,1398
2727.0491515900053,1342
2728.824419272075,1318
2730.5993275676146,1310
2732.3738767760838,1335
2734.148067197016,1371
2735.921899130031,1393
2737.6953728748194,1326
2739.468488731156,1347
2741.2412469988926,1319
2743.0136479779617,1358
2744.785691968372,1322
2746.5573792702116,1324
2748.3287101836504,1381
2750.099685008934,1319
2751.870304046388,1303
2753.640567596418,1355
2755.4104759595057,1293
2757.1800294362156,1354
2758.949228327187,1303
2760.7180729331412,1330
2762.486563554877,1387
2764.254700493272,1356
2766.022484049284,1308
2767.789914523947,1294
2769.5569922183786,1389
2771.3237174337705,1300
2773.090090471394,1301
2774.8561116326036,1348
2776.6217812188274,1304
2778.3870995315756,1301
2780.1520668724356,1320
2781.9166835430747,1341
2783.6809498452394,1257
2785.444866080754,1305
2787.2084325515225,1326
2788.971649559527,1344
2790.73451740683,1366
2792.4970363955713,1343
2794.2592068279705,1279
2796.0210290063264,1331
2797.7825032330147,1343
2799.543629810493,1353
2801.304409041296,1296
2803.0648412280366,1231
2804.8249266734088,1320
2806.5846656801846,1377
2808.344058551212,1349
2810.1031055894246,1282
2811.8618070978273,1344
2813.6201633795085,1275
2815.378174737636,1324
2817.1358414754536,1293
2818.893163896285,1311
2820.6501423035334,1334
2822.4067770006814,1301
2824.1630682912883,1359
2825.9190164789957,1331
2827.6746218675207,1315
2829.429884760661,1338
2831.184805462294,1379
2832.9393842763743,1326
2834.693621506936,1283
2836.4475174580916,1364
2838.201072434034,1317
2839.954286739034,1330
2841.707160677441,1365
2843.459694553685,1360
2845.2118886722724,1364
2846.96374333779,1321
2848.7152588549034,1309
2850.4664355283567,1374
2852.217273662973,1295
2853.9677735636546,1317
2855.7179355353833,1347
2857.4677598832186,1321
2859.217246912299,1330
2860.9663969278427,1314
2862.715210235146,1324
2864.4636871395846,1339
2866.211827946614,1351
2867.9596329617652,1308
2869.7071024906536,1313
2871.4542368389684,1305
2873.20103631248,1383
2874.947501217038,1328
2876.6936318585695,1284
2878.4394285430812,1333
2880.1848915766604,1288
2881.9300212654707,1326
2883.6748179157553,1370
2885.4192818338374,1288
2887.1634133261173,1304
2888.907212699077,1331
2890.6506802592744,1275
2892.393816313348,1341
2894.1366211680142,1286
2895.8790951300693,1372
2897.621238506388,1353
2899.363051603925,1281
2901.1045347297118,1327
2902.8456881908596,1333
2904.58651229456,1284
2906.327007348081,1317
2908.067173658772,1275
2909.8070115340597,1350
2911.5465212814497,1279
2913.285703208527,1313
2915.0245576229563,1271
2916.7630848324807,1303
2918.5012851449196,1277
2920.2391588681758,1354
2921.976706310227,1303
2923.7139277791334,1341
2925.4508235830313,1333
2927.187394030137,1312
2928.923639428745,1323
2930.6595600872306,1304
2932.395156314046,1390
2934.1304284177218,1337
2935.8653767068713,1347
2937.6000014901815,1317
2939.3343030764227,1322
2941.068281774442,1272
2942.8019378931644,1295
2944.5352717415976,1321
2946.2682836288236,1373
2948.0009738640065,1247
2949.7333427563885,1266
2951.465390615289,1318
2953.1971177501086,1308
2954.9285244703265,1323
2956.6596110855,1316
2958.3903779052657,1377
2960.1208252393385,1301
2961.8509533975125,1315
2963.5807626896617,1317
2965.3102534257378,1332
2967.0394259157715,1250
2968.768280469873,1298
2970.496817398232,1299
2972.2250370111146,1297
2973.952939618869,1305
2975.6805255319196,1307
2977.4077950607707,1301
2979.134748516006,1342
2980.861386208289,1293
2982.587708448359,1288
2984.313715547037,1273
2986.039407815222,1304
2987.764785563891,1295
2989.489849104102,1318
2991.2145987469908,1305
2992.9390348037705,1334
2994.6631575857346,1339
2996.3869674042576,1335
2998.1104645707887,1324
2999.83364939686,1326
3001.5565221940783,1290
3003.2790832741334,1289
3005.0013329487924,1283
3006.7232715298996,1279
3008.4448993293804,1312
3010.166216659239,1283
3011.887223831558,1274
3013.607921158498,1314
3015.3283089522993,1289
3017.0483875252826,1272
3018.7681571898443,1333
3020.4876182584626,1293
3022.2067710436927,1257
3023.9256158581707,1291
3025.644153014609,1319
3027.362382825801,1315
3029.0803056046193,1287
3030.797921664012,1247
3032.5152313170106,1285
3034.2322348767225,1298
3035.9489326563353,1344
3037.665324969115,1306
3039.3814121284063,1296
3041.097194447633,1307
3042.812672240299,1302
3044.5278458199855,1322
3046.2427155003525,1306
3047.9572815951406,1243
3049.671544418167,1254
3051.38550428333,1343
3053.0991615046073,1300
3054.812516396051,1341
3056.5255692717974,1247
3058.2383204460575,1308
3059.9507702331257,1335
3061.662918947372,1320
3063.3747669032446,1350
3065.0863144152736,1352
3066.7975617980674,1364
3068.508509366309,1291
3070.219157434767,1333
3071.9295063182844,1299
3073.639556331785,1310
3075.3493077902704,1301
3077.058761008821,1301
3078.7679163025964,1303
3080.476773986837,1272
3082.1853343768594,1282
3083.89359778806,1337
3085.6015645359153,1288
3087.3092349359786,1342
3089.016609303884,1258
3090.7236879553434,1326
3092.4304712061476,1293
3094.136959372166,1299
3095.843152769349,1284
3097.5490517137237,1300
3099.2546565213966,1295
3100.959967508554,1318
3102.66498499146,1298
3104.3697092864577,1272
3106.0741407099695,1341
3107.778279578498,1282
3109.482126208622,1274
3111.1856809170004,1334
3112.8889440203716,1298
3114.5919158355528,1334
3116.294596679439,1293
3117.996986869006,1295
3119.6990867213062,1277
3121.4008965534726,1364
3123.102416682717,1340
3124.803647426329,1327
3126.5045891016784,1272
3128.205242026213,1316
3129.90560651746,1316
3131.605682893025,1354
3133.3054714705922,1350
3135.0049725679282,1352
3136.7041865028714,1289
3138.4031135933465,1294
3140.101754157353,1292
3141.800108512971,1318
3143.498176978357,1283
3145.1959598717494,1330
3146.8934575114636,1307
3148.5906702158954,1294
3150.2875983035183,1248
3151.9842420928853,1280
3153.680601902627,1325
3155.376678051456,1330
3157.07247085816,1284
3158.767980641609,1278
3160.463207720748,1325
3162.158152414606,1355
3163.8528150422862,1331
3165.5471959229726,1322
3167.2412953759303,1307
3168.9351137204976,1301
3170.628651276098,1320
3172.3219083622307,1300
3174.014885298474,1267
3175.707582404485,1310
3177.4000000000005,1310
3179.092138404835,1308
3180.7839979388846,1316
3182.47557892212,1330
3184.166881674594,1312
3185.8579065164386,1314
3187.5486537678626,1281
3189.2391237491547,1283
3190.9293167806827,1350
3192.6192331828934,1252
3194.3088732763117,1260
3195.998237381542,1292
3197.687325819268,1294
3199.376138910251,1350
3201.064676975334,1298
3202.7529403354347,1318
3204.4409293115523,1338
3206.1286442247647,1295
3207.816085396229,1253
3209.5032531471825,1288
3211.190147798936,1230
3212.8767696728846,1229
3214.5631190905015,1329
3216.2491963733373,1267
3217.9350018430214,1266
3219.6205358212637,1297
3221.305798629851,1278
3222.990790590651,1324
3224.6755120256103,1257
3226.359963256751,1293
3228.0441446061795,1217
3229.7280563960758,1233
3231.411698948703,1275
3233.0950725863995,1260
3234.778177631587,1227
3236.461014406761,1264
3238.1435832345005,1282
3239.8258844374595,1301
3241.507918338374,1311
3243.1896852600576,1284
3244.8711855254023,1228
3246.552419457381,1262
3248.233387379042,1234
3249.914089613516,1274
3251.59452648401,1235
3253.274698313813,1320
3254.95460542629,1276
3256.6342481448855,1274
3258.313626793125,1285
3259.9927416946084,1312
3261.6715931730196,1238
3263.3501815521176,1262
3265.0285071557437,1259
3266.706570307815,1277
3268.3843713323286,1278
3270.0619105533615,1279
3271.739188295068,1241
3273.4162048816834,1274
3275.0929606375184,1260
3276.769455886966,1241
3278.445690954498,1298
3280.1216661646613,1322
3281.797381842087,1274
3283.4728383114807,1246
3285.1480358976296,1258
3286.8229749253996,1306
3288.4976557197333,1246
3290.172078605655,1236
3291.846243908266,1232
3293.5201519527463,1307
3295.193803064357,1283
3296.8671975684374,1234
3298.5403357904024,1251
3300.21321805575,1231
3301.8858446900567,1272
3303.558216018975,1201
3305.23033236824,1278
3306.9021940636603,1274
3308.57380143113,1253
3310.2451547966184,1266
3311.916254486174,1246
3313.5871008259246,1271
3315.2576941420766,1267
3316.9280347609147,1277
3318.5981230088046,1247
3320.2679592121895,1300
3321.9375436975924,1250
3323.606876791612,1298
3325.27595882093,1219
3326.944790112305,1284
3328.6133709925753,1282
3330.2817017886573,1304
3331.949782827547,1274
3333.617614436319,1207
3335.2851969421245,1273
3336.952530672199,1238
3338.619615953853,1296
3340.286453114475,1281
3341.9530424815357,1323
3343.619384382583,1275
3345.2854791452437,1294
3346.951327097224,1298
3348.6169285663073,1280
3350.2822838803577,1241
3351.947393367319,1237
3353.61225735521,1302
3355.2768761721345,1217
3356.9412501462693,1245
3358.605379605873,1229
3360.2692648792827,1262
3361.9329062949146,1279
3363.596304181263,1264
