CollectionTime,7/3/2024 2:18:13 PM
ExposureUsed,3
CalibratedSpectrum
-962.7078968117929,547
-959.9714848408522,592
-957.2358232597828,610
-954.5009119013725,619
-951.7667505983302,631
-949.0333391832855,613
-946.3006774887896,605
-943.5687653473143,667
-940.837602591253,610
-938.1071890529199,637
-935.3775245645503,633
-932.6486089583007,645
-929.9204420662485,662
-927.1930237203925,616
-924.4663537526524,678
-921.7404319948689,631
-919.0152582788041,606
-916.2908324361409,669
-913.5671542984834,620
-910.8442236973568,577
-908.1220404642074,579
-905.4006044304027,648
-902.679915427231,595
-899.959973285902,586
-897.2407778375464,602
-894.5223289132158,587
-891.8046263438832,612
-889.0876699604426,580
-886.3714595937089,589
-883.6559950744183,599
-880.9412762332282,567
-878.2273029007168,614
-875.5140749073835,589
-872.8015920836489,622
-870.0898542598545,610
-867.3788612662631,593
-864.6686129330585,588
-861.9591090903457,584
-859.2503495681506,618
-856.5423341964203,635
-853.8350628050229,643
-851.1285352237478,662
-848.4227512823054,664
-845.7177108103272,662
-843.0134136373656,650
-840.3098595928943,672
-837.6070485063082,604
-834.9049802069229,617
-832.2036545239757,610
-829.5030712866244,612
-826.8032303239481,635
-824.1041314649472,628
-821.4057745385428,621
-818.7081593735775,594
-816.0112857988148,639
-813.3151536429393,603
-810.6197627345566,637
-807.9251129021936,636
-805.2312039742981,632
-802.5380357792392,660
-799.8456081453069,655
-797.1539209007124,682
-794.462973873588,691
-791.772766891987,640
-789.083299783884,627
-786.3945723771743,646
-783.7065844996748,612
-781.0193359791231,578
-778.3328266431781,642
-775.6470563194197,645
-772.9620248353489,615
-770.2777320183878,619
-767.5941776958798,647
-764.9113616950891,617
-762.2292838432011,627
-759.5479439673222,627
-756.8673418944801,652
-754.1874774516235,647
-751.5083504656222,673
-748.8299607632671,663
-746.15230817127,687
-743.475392516264,687
-740.7992136248035,641
-738.1237713233636,657
-735.4490654383407,685
-732.7750957960521,692
-730.1018622227365,631
-727.4293645445534,639
-724.7576025875837,670
-722.0865761778291,698
-719.4162851412126,714
-716.7467293035781,699
-714.0779084906909,667
-711.409822528237,685
-708.7424712418238,664
-706.0758544569796,692
-703.4099719991541,681
-700.7448236937178,712
-698.0804093659622,690
-695.4167288411002,699
-692.7537819442656,717
-690.0915685005134,682
-687.4300883348199,684
-684.7693412720819,696
-682.1093271371178,729
-679.4500457546669,734
-676.7914969493897,714
-674.1336805458676,682
-671.4765963686034,696
-668.8202442420206,738
-666.1646239904642,711
-663.5097354382001,706
-660.8555784094151,705
-658.2021527282176,710
-655.5494582186366,726
-652.8974947046223,733
-650.2462620100463,710
-647.5957599587009,734
-644.9459883742998,755
-642.2969470804776,788
-639.6486359007902,839
-637.0010546587141,801
-634.3542031776476,725
-631.7080812809096,752
-629.0626887917401,718
-626.4180255333008,713
-623.7740913286734,785
-621.1308860008619,840
-618.4884093727904,747
-615.8466612673046,766
-613.2056415071715,723
-610.5653499150785,720
-607.9257863136347,756
-605.28695052537,755
-602.6488423727357,728
-600.0114616781036,733
-597.3748082637674,765
-594.7388819519412,804
-592.1036825647604,871
-589.4692099242818,832
-586.8354638524829,768
-584.2024441712624,807
-581.5701507024403,816
-578.9385832677575,755
-576.3077416888759,773
-573.6776257873787,787
-571.0482353847704,757
-568.4195703024757,767
-565.7916303618415,798
-563.164415384135,766
-560.5379251905453,768
-557.9121596021815,822
-555.2871184400748,751
-552.6628015251767,763
-550.0392086783606,831
-547.4163397204204,841
-544.794194472071,847
-542.1727727539491,825
-539.5520743866118,842
-536.9320991905377,850
-534.3128469861261,903
-531.6943175936979,843
-529.0765108334947,844
-526.4594265256793,893
-523.8430644903358,1003
-521.2274245474689,1136
-518.612506517005,1255
-515.9983102187913,1268
-513.3848354725959,1221
-510.77208209810846,1318
-508.16004991493924,1384
-505.5487387426199,1610
-502.9381484006032,1583
-500.3282787082628,1653
-497.71912948489364,1466
-495.1107005497117,1310
-492.5029917218539,1230
-489.8960028203786,1118
-487.28973366426493,1023
-484.68418407241325,1000
-482.07935386364494,949
-479.47524285670266,940
-476.87185087025,954
-474.2691777228715,952
-471.66722323307334,975
-469.0659872192821,937
-466.4654694998459,937
-463.86566989303384,987
-461.26658821703614,969
-458.66822428996414,941
-456.07057792985,952
-453.4736489546475,985
-450.877437182231,961
-448.28194243039627,913
-445.68716451686,929
-443.09310325926003,907
-440.49975847515555,920
-437.9071299820263,926
-435.31521759727354,995
-432.72402113821954,963
-430.13354042210767,983
-427.5437752661022,943
-424.95472548728867,1063
-422.36639090267386,1011
-419.7787713291855,984
-417.1918665836721,1058
-414.60567648290385,1086
-412.0202008435715,1054
-409.4354394822874,997
-406.8513922155845,1108
-404.26805885991723,1063
-401.685439231661,1046
-399.103533147112,1024
-396.522340422488,1079
-393.9418608739278,1031
-391.3620943174908,1061
-388.7830405691583,1009
-386.2046994448317,928
-383.6270707603344,995
-381.05015433141045,963
-378.473949973725,878
-375.8984575028645,828
-373.32367673433623,790
-370.74960748356875,760
-368.1762495659117,772
-365.60360279663576,632
-363.03166699093265,661
-360.4604419639154,643
-357.8899275306178,593
-355.32012350599507,585
-352.7510297049233,572
-350.1826459421999,564
-347.61497203254316,574
-345.04800779059235,575
-342.4817530309082,546
-339.91620756797226,555
-337.35137121618743,638
-334.7872437898774,687
-332.22382510328725,624
-329.66111497058273,554
-327.09911320585127,595
-324.53781962310075,613
-321.9772340362607,566
-319.4173562591816,576
-316.8581861056348,584
-314.2997233893127,523
-311.7419679238294,597
-309.1849195227194,636
-306.62857799943856,628
-304.0729431673641,709
-301.51801483979375,671
-298.963792829947,632
-296.41027695096386,747
-293.85746701590574,709
-291.3053628377552,698
-288.7539642294155,680
-286.2032710037115,710
-283.65328297338897,710
-281.1039999511146,780
-278.5554217494762,870
-276.007548180983,944
-273.4603790580651,878
-270.9139141930734,848
-268.3681533982807,887
-265.8230964858798,939
-263.27874326798565,934
-260.7350935566336,908
-258.1921471637804,844
-255.6499039013039,913
-253.10836358100266,877
-250.56752601459698,860
-248.02739101372765,904
-245.48795838995704,956
-242.94922795476816,864
-240.41119951956557,881
-237.8738728956746,901
-235.33724789434166,1010
-232.80132432673452,1041
-230.2661020039418,822
-227.73158073697357,873
-225.19776033676033,1019
-222.66464061415422,1104
-220.1322213799284,965
-217.60050244477725,773
-215.06948361931552,756
-212.53916471408013,1079
-210.00954553952818,1216
-207.48062590603843,1141
-204.9524056239104,1039
-202.4248845033651,1101
-199.8980623545441,1195
-197.37193898751036,1156
-194.84651421224817,1061
-192.32178783866232,1037
-189.79775967657952,1122
-187.27442953574644,1283
-184.7517972258321,1335
-182.2298625564256,1223
-179.7086253370378,1204
-177.18808537710026,990
-174.66824248596583,1212
-172.14909647290835,1517
-169.6306471471229,1378
-167.11289431772548,1286
-164.59583779375328,1322
-162.07947738416453,1468
-159.5638128978386,1768
-157.04884414357605,2294
-154.53457093009854,2289
-152.02099306604828,1591
-149.50811035998936,1300
-146.99592262040665,1594
-144.48442965570587,1971
-141.97363127421409,2744
-139.46352728417958,3004
-136.95411749377126,2867
-134.44540171107985,2328
-131.93737974411636,1901
-129.43005140081357,1794
-126.92341648902493,2144
-124.41747481652521,3087
-121.91222619101006,4480
-119.40767042009657,5806
-116.90380731132257,5897
-114.40063667214702,4545
-111.8981583099503,2913
-109.3963720320337,2248
-106.89527764561933,2359
-104.39487495785067,3939
-101.89516377579241,5991
-99.39614390642998,6744
-96.89781515667039,5940
-94.40017733334128,7038
-91.90323024319173,11396
-89.40697369289148,14882
-86.91140748903172,16138
-84.41653143812482,10586
-81.92234534660395,6613
-79.42884902082358,11166
-76.93604226705907,24766
-74.4439248915071,37831
-71.95249670028534,44395
-69.46175749943245,38894
-66.97170709490854,28647
-64.48234529259423,19157
-61.99367189829195,13040
-59.50568671772464,10775
-57.01838955653636,9709
-54.53178022029283,9119
-52.045858514480074,12460
-49.560624244506016,15642
-47.07607721569923,18967
-44.59221723330904,21767
-42.10904410250669,21888
-39.62655762838392,19896
-37.14475761595372,21157
-34.66364387015028,25551
-32.18321619582866,26455
-29.70347439776515,25576
-27.224418280657005,27756
-24.74604764912317,31737
-22.26836230770266,43438
-19.7913620608565,65041
-17.315046712966478,65041
-14.83941606833514,65041
-12.36446993118659,65041
-9.89020810566592,65041
-7.416630395839093,65041
-4.94373660569363,65041
-2.471526539137585,65041
-6.821210263296962E-13,65041
2.47084320796705,65041
4.941003281093458,65041
7.410480415786196,65041
9.879274808531363,65041
12.347386655893956,65041
14.814816154518212,65041
17.28156350112681,65041
19.74762889252179,65041
22.21301252558385,65041
24.67771459727237,22050
27.141735304626195,5670
29.605074844762612,4566
32.06773341487792,3917
34.52971121224755,3326
36.99100843422559,3287
39.45162527824516,2798
41.91156194181792,2750
44.370818622535126,2474
46.82939551806646,2353
49.287292826160524,3240
51.74451074464503,3441
54.201049471426245,3617
56.65690920448981,2490
59.112090141899785,2252
61.56659248179983,2135
64.02041642241159,2144
66.4735621620365,1787
68.92602989905402,1838
71.37781983192338,2345
73.82893215918205,2811
76.27936707944684,2764
78.72912479141326,2354
81.17820549385567,2334
83.62660938562783,2278
86.07433666566146,1979
88.5213875329681,1675
90.96776218663751,1575
93.41346082583925,1912
95.85848364982041,2091
98.30283085790859,2173
100.7465026495089,2530
103.18949922410604,2077
105.63182078126385,1556
108.07346752062438,1533
110.51443964190923,1515
112.95473734491827,1346
115.39436082953114,1437
117.83331029570547,1557
120.27158594347827,2038
122.7091879729652,2315
125.1461165843615,2034
127.58237197794062,1819
130.01795435405518,1657
132.4528639131364,1483
134.88710085569494,1399
137.32066538231982,1637
139.75355769367923,1853
142.1857779905207,1474
144.61732647366978,1362
147.04820334403132,1353
149.47840880258934,1425
151.90794305040674,1362
154.33680628862487,1583
156.76499871846443,1544
159.19252054122433,1652
161.61937195828352,1759
164.04555317109896,1829
166.47106438120693,2092
168.89590579022217,2478
171.320077599839,2530
173.7435800118302,2826
176.16641322804742,2908
178.58857745042144,3174
181.01007288096173,3126
183.43089972175687,3062
185.85105817497413,3120
188.27054844285988,2985
190.6893707277394,3033
193.10752523201643,2944
195.5250121581745,2883
197.9418317087751,2906
200.3579840864594,2920
202.7734694939469,3062
205.18828813403627,3086
207.6024402096051,3227
210.01592592360964,3157
212.42874547908548,3239
214.84089907914665,3060
217.2523869269868,3022
219.66320922587727,3031
222.0733661791695,3043
224.48285799029293,3058
226.8916848627572,3069
229.29984700014882,3219
231.7073446061355,3028
234.11417788446204,3059
236.520347038953,3155
238.92585227351185,3349
241.33069379212054,3337
243.73487179884035,3400
246.1383864978112,3513
248.541238093252,3470
250.9434267894609,3381
253.34495279081432,3474
255.74581630176783,3452
258.1460175268563,3443
260.54555667069314,3359
262.9444339379703,3395
265.3426495334594,3346
267.7402036620107,3431
270.1370965285529,3322
272.53332833809407,3082
274.9288992957214,3034
277.32380960660055,3058
279.718059475976,3021
282.1116491091717,2881
284.5045787115897,2781
286.89684848871195,2673
289.2884586460981,2695
291.67940938938807,2763
294.0697009242996,2760
296.4593334566299,2731
298.84830719225477,2688
301.23662233712923,2846
303.6242790972866,2681
306.01127767884,2610
308.39761828798066,2492
310.78330113097934,2510
313.16832641418534,2494
315.5526943440269,2450
317.9364051270112,2496
320.3194589697242,2506
322.70185607883093,2360
325.0835966610754,2461
327.4646809232805,2473
329.8451090723478,2340
332.2248813152577,2286
334.6039978590701,2290
336.9824589109231,2399
339.36026467803447,2436
341.7374153677,2281
344.113911187295,2217
346.48975234427337,2244
348.8649390461686,2245
351.2394715005918,2286
353.61334991523415,2247
355.9865744978655,2298
358.35914545633375,2264
360.73106299856715,2341
363.10232733257146,2280
365.47293866643247,2305
367.84289720831396,2235
370.2122031664593,2214
372.5808567491905,2234
374.9488581649083,2173
377.31620762209275,2089
379.6829053293021,2110
382.0489514951745,2125
384.4143463284262,2133
386.7790900378528,2014
389.14318283232853,2069
391.50662492080653,2104
393.86941651231916,2158
396.23155781597745,2181
398.5930490409713,2141
400.9538903965696,2163
403.3140820921202,2098
405.6736243370498,2085
408.03251734086336,2056
410.3907613131465,2051
412.74835646356166,2058
415.10530300185144,1965
417.4616011378372,2091
419.81725108141893,2051
422.1722530425758,2060
424.5266072313656,1998
426.880313857925,1939
429.2333731324701,2055
431.58578526529516,1991
433.9375504667738,1970
436.2886689473588,2013
438.63914091758113,1983
440.9889665880513,1977
443.33814616945835,2052
445.68667987257015,2063
448.03456790823395,1940
450.3818104873759,1954
452.72840782100013,2000
455.07436012019105,2038
457.41966759611057,1958
459.7643304600007,1965
462.10834892318155,2015
464.4517231970525,1946
466.79445349309174,1970
469.1365400228566,2001
471.4779829979826,1926
473.81878263018564,1969
476.15893913125876,1972
478.4984527130747,1990
480.8373235875855,2074
483.17555196682144,2086
485.5131380628919,2134
487.8500820879857,2218
490.1863842543697,2236
492.52204477439034,2333
494.8570638604725,2560
497.1914417251204,2780
499.52517858091653,3115
501.85827464052306,3520
504.19073011668036,3627
506.5225452222086,3698
508.85372017000566,3726
511.18425517304956,3663
513.514150444396,3651
515.8434061971808,4386
518.1720226446176,5207
520.4999999999999,5364
522.8273384766991,5187
525.1540382881666,4623
527.480099647932,4157
529.8055227696037,3461
532.1303078668694,2835
534.454455153496,2345
536.777964843328,2356
539.1008371502907,2186
541.4230722883866,2089
543.744670471698,2116
546.0656319143858,2061
548.3859568306899,2094
550.7056454349294,2058
553.0246979415016,2165
555.3431145648834,2140
557.6608955196306,2157
559.978041020377,2024
562.2945512818363,1996
564.6104265188006,1966
566.9256669461412,2036
569.2402727788082,2039
571.5542442318302,2086
573.8675815203156,2051
576.1802848594508,2031
578.4923544645015,2019
580.8037905508126,2035
583.114593333807,2179
585.4247630289875,2046
587.7342998519354,2039
590.0432040183106,2103
592.3514757438526,2091
594.6591152443794,1996
596.9661227357875,2007
599.2724984340531,2087
601.578242555231,1961
603.8833553154542,2072
606.1878369309362,2041
608.4916876179676,2076
610.7949075929192,2126
613.0974970722403,2045
615.3994562724587,2056
617.7007854101818,2006
620.0014847020951,1989
622.3015543649641,2062
624.6009946156324,2055
626.8998056710224,2066
629.1979877481361,2063
631.4955410640538,2119
633.7924658359349,2022
636.0887622810175,2010
638.3844306166192,2102
640.6794710601358,2034
642.9738838290426,2121
645.2676691408932,2154
647.5608272133207,2131
649.853358264037,2144
652.1452625108324,2148
654.4365401715764,2188
656.7271914642178,2162
659.0172166067838,2219
661.3066158173809,2193
663.5953893141935,2155
665.8835373154867,2169
668.1710600396028,2175
670.4579577049639,2204
672.7442305300709,2212
675.0298787335033,2208
677.3149025339197,2155
679.599302150058,2181
681.8830778007342,2107
684.1662297048437,2167
686.4487580813608,2133
688.7306631493387,2126
691.0119451279091,2158
693.2926042362834,2118
695.5726406937516,2115
697.8520547196814,2106
700.1308465335215,2138
702.4090163547982,2100
704.6865644031171,2165
706.9634908981619,2089
709.2397960596965,2086
711.5154801075631,2125
713.7905432616823,2192
716.0649857420548,2126
718.3388077687592,2145
720.612009561953,2132
722.8845913418733,2072
725.1565533288352,2094
727.427895743234,2125
729.6986188055427,2144
731.9687227363137,2086
734.238207756178,2119
736.5070740858458,2075
738.7753219461066,2056
741.0429515578281,2080
743.3099631419569,2122
745.5763569195191,2118
747.8421331116193,2073
750.1072919394409,2135
752.3718336242467,2110
754.6357583873777,2229
756.8990664502545,2116
759.1617580343765,2086
761.423833361321,2103
763.6852926527457,2094
765.9461361303862,2064
768.206364016058,2156
770.4659765316536,2151
772.7249738991469,2078
774.9833563405886,2116
777.2411240781092,2111
779.4982773339183,2155
781.7548163303044,2083
784.010741289634,2187
786.2660524343538,2208
788.5207499869881,2205
790.7748341701416,2165
793.0283052064964,2162
795.2811633188143,2184
797.5334087299362,2181
799.7850416627813,2116
802.0360623403484,2137
804.2864709857143,2122
806.5362678220353,2176
808.7854530725468,2069
811.0340269605625,2071
813.2819897094754,2121
815.5293415427581,2138
817.77608268396,2111
820.0222133567116,2160
822.2677337847211,2097
824.5126441917765,2130
826.7569448017433,2147
829.0006358385675,2131
831.2437175262731,2092
833.4861900889629,2123
835.7280537508192,2124
837.9693087361026,2201
840.2099552691533,2261
842.4499935743896,2144
844.689423876309,2212
846.9282463994886,2175
849.1664613685833,2203
851.4040690083276,2228
853.6410695435349,2102
855.877463199097,2097
858.1132501999847,2112
860.3484307712487,2185
862.5830051380175,2129
864.8169735254988,2241
867.0503361589791,2219
869.2830932638243,2260
871.5152450654786,2214
873.7467917894654,2203
875.9777336613873,2189
878.2080709069252,2199
880.4378037518389,2221
882.666932421968,2221
884.8954571432301,2203
887.1233781416219,2209
889.3506956432192,2316
891.5774098741766,2197
893.803521060728,2170
896.0290294291852,2172
898.2539352059397,2245
900.4782386174619,2231
902.7019398903011,2141
904.925039251085,2252
907.147536926521,2171
909.3694331433943,2193
911.59072812857,2222
913.8114221089921,2220
916.0315153116827,2200
918.2510079637437,2200
920.4699002923547,2201
922.6881925247761,2149
924.905884888345,2177
927.1229776104793,2131
929.3394709186747,2197
931.555365040506,2231
933.7706602036275,2205
935.9853566357709,2210
938.1994545647489,2241
940.4129542184515,2197
942.6258558248488,2131
944.8381596119883,2114
947.0498658079974,2169
949.2609746410825,2121
951.4714863395287,2172
953.6814011316998,2215
955.8907192460387,2142
958.0994409110671,2127
960.3075663553858,2130
962.5150958076741,2117
964.7220294966913,2202
966.928367651274,2145
969.1341105003388,2147
971.3392582728806,2098
973.5438111979742,2088
975.747769504772,2057
977.9511334225061,2062
980.153903180487,2053
982.3560790081052,1998
984.5576611348289,2027
986.7586497902058,1978
988.9590452038618,1978
991.158847605503,2000
993.3580572249133,1920
995.5566742919558,1954
997.7546990365728,1853
999.952131688785,1850
1002.1489724786926,1876
1004.3452216364743,1874
1006.5408793923874,1783
1008.7359459767691,1827
1010.9304216200343,1822
1013.1243065526781,1867
1015.3176010052733,1749
1017.510305208472,1808
1019.7024193930064,1737
1021.8939437896848,1724
1024.0848786293977,1749
1026.2752241431122,1741
1028.4649805618747,1826
1030.6541481168115,1746
1032.842727039127,1756
1035.0307175601051,1799
1037.2181199111074,1702
1039.4049343235752,1737
1041.591161029029,1814
1043.7768002590683,1797
1045.9618522453698,1710
1048.1463172196918,1699
1050.3301954138697,1778
1052.513487059818,1695
1054.69619238953,1734
1056.8783116350783,1658
1059.0598450286152,1678
1061.2407928023704,1664
1063.4211551886528,1644
1065.6009324198508,1673
1067.780124728432,1676
1069.9587323469414,1800
1072.1367555080046,1637
1074.314194444325,1689
1076.4910493886855,1693
1078.667320573947,1769
1080.843008233051,1671
1083.0181125990161,1616
1085.1926339049414,1650
1087.3665723840027,1676
1089.5399282694575,1654
1091.7127017946405,1627
1093.8848931929647,1616
1096.0565026979243,1646
1098.2275305430899,1618
1100.3979769621128,1622
1102.567842188722,1591
1104.737126456726,1622
1106.9058300000124,1619
1109.0739530525475,1606
1111.2414958483764,1636
1113.4084586216231,1589
1115.5748416064907,1632
1117.7406450372605,1657
1119.9058691482942,1622
1122.0705141740304,1588
1124.2345803489884,1574
1126.3980679077658,1610
1128.5609770850388,1578
1130.7233081155623,1607
1132.8850612341707,1613
1135.0462366757774,1606
1137.2068346753745,1606
1139.3668554680326,1590
1141.526299288901,1528
1143.68516637321,1619
1145.8434569562655,1583
1148.001171273455,1581
1150.158309560244,1597
1152.3148720521767,1596
1154.470858984876,1546
1156.626270594044,1597
1158.7811071154629,1605
1160.9353687849912,1522
1163.089055838569,1584
1165.242168512213,1577
1167.3947070420209,1629
1169.5466716641677,1594
1171.6980626149075,1544
1173.8488801305748,1555
1175.9991244475814,1514
1178.1487958024186,1560
1180.2978944316555,1540
1182.4464205719428,1525
1184.5943744600072,1549
1186.7417563326567,1551
1188.8885664267755,1536
1191.0348049793297,1496
1193.1804722273619,1552
1195.325568407995,1538
1197.4700937584303,1557
1199.614048515948,1559
1201.7574329179074,1587
1203.900247201746,1528
1206.042491604982,1567
1208.1841663652099,1515
1210.3252717201053,1591
1212.465807907422,1490
1214.6057751649923,1587
1216.7451737307279,1611
1218.8840038426192,1609
1221.0222657387353,1687
1223.1599596572241,1634
1225.2970858363137,1634
1227.4336445143094,1567
1229.5696359295966,1554
1231.705060320639,1596
1233.8399179259786,1592
1235.9742089842384,1562
1238.107933734118,1577
1240.2410924143974,1621
1242.373685263935,1592
1244.5057125216676,1651
1246.6371744266116,1533
1248.7680712178621,1609
1250.898403134593,1534
1253.028170416058,1645
1255.1573733015875,1619
1257.2860120305932,1604
1259.4140868425648,1681
1261.54159797707,1634
1263.6685456737569,1662
1265.7949301723515,1601
1267.9207517126597,1611
1270.046010534565,1698
1272.1707068780306,1630
1274.2948409830983,1647
1276.4184130898889,1653
1278.541423438603,1644
1280.6638722695184,1626
1282.785759822993,1614
1284.9070863394636,1668
1287.0278520594447,1588
1289.1480572235314,1706
1291.2677020723963,1650
1293.3867868467923,1704
1295.5053117875495,1710
1297.623277135579,1752
1299.740683131868,1691
1301.8575300174857,1664
1303.973818033578,1674
1306.0895474213703,1700
1308.2047184221678,1700
1310.3193312773528,1718
1312.4333862283888,1741
1314.5468835168163,1707
1316.659823384255,1809
1318.7722060724045,1731
1320.8840318230418,1770
1322.9953008780249,1729
1325.1060134792888,1761
1327.2161698688478,1743
1329.3257702887959,1762
1331.4348149813054,1790
1333.5433041886276,1795
1335.6512381530933,1712
1337.7586171171101,1708
1339.8654413231675,1737
1341.9717110138317,1759
1344.0774264317488,1750
1346.1825878196432,1730
1348.2871954203192,1721
1350.3912494766587,1750
1352.4947502316231,1715
1354.5976979282532,1758
1356.7000928096686,1719
1358.8019351190665,1683
1360.9032250997243,1729
1363.0039629949988,1675
1365.1041490483235,1712
1367.2037835032133,1725
1369.3028666032606,1689
1371.401398592137,1738
1373.4993797135926,1727
1375.5968102114575,1757
1377.6936903296396,1765
1379.7900203121262,1756
1381.8858004029835,1810
1383.9810308463561,1765
1386.075711886469,1742
1388.1698437676241,1687
1390.2634267342032,1766
1392.356461030667,1725
1394.4489469015557,1818
1396.5408845914872,1798
1398.6322743451592,1858
1400.7231164073469,1782
1402.813411022907,1822
1404.903158436773,1853
1406.9923588939578,1878
1409.0810126395531,1886
1411.1691199187303,1848
1413.2566809767386,1848
1415.343696058907,1848
1417.4301654106425,1844
1419.5160892774315,1842
1421.6014679048399,1900
1423.6863015385125,1863
1425.7705904241707,1909
1427.8543348076178,1939
1429.9375349347342,1925
1432.0201910514802,1940
1434.102303403894,2044
1436.1838722380944,1998
1438.2648978002767,2081
1440.3453803367174,2095
1442.4253200937692,2127
1444.5047173178677,2153
1446.5835722555234,2079
1448.6618851533285,2216
1450.739656257952,2207
1452.8168858161434,2255
1454.8935740747306,2259
1456.96972128062,2244
1459.045327680797,2372
1461.120393522327,2347
1463.1949190523528,2437
1465.2689045180973,2449
1467.3423501668608,2471
1469.415256246024,2535
1471.4876230030463,2597
1473.559450685465,2629
1475.6307395408976,2731
1477.7014898170391,2713
1479.771701761665,2721
1481.8413756226287,2726
1483.9105116478618,2853
1485.9791100853772,2868
1488.0471711832643,2900
1490.1146951896926,3018
1492.1816823529098,3033
1494.2481329212433,3048
1496.3140471430984,3038
1498.3794252669609,3148
1500.4442675413939,3118
1502.5085742150404,3210
1504.572345536622,3216
1506.6355817549388,3211
1508.6982831188702,3182
1510.7604498773744,3230
1512.8220822794883,3233
1514.8831805743293,3338
1516.9437450110909,3372
1519.003775839048,3381
1521.0632733075522,3437
1523.1222376660367,3579
1525.1806691640113,3487
1527.2385680510652,3598
1529.2959345768668,3522
1531.3527689911643,3618
1533.4090715437833,3714
1535.4648424846291,3720
1537.5200820636855,3840
1539.5747905310159,3907
1541.6289681367616,3917
1543.6826151311434,4018
1545.7357317644614,3946
1547.7883182870937,4059
1549.8403749494987,4052
1551.8919020022113,4261
1553.9428996958477,4258
1555.9933682811015,4342
1558.0433080087469,4416
1560.0927191296346,4654
1562.1416018946961,4793
1564.1899565549415,4847
1566.2377833614592,4883
1568.2850825654164,4928
1570.3318544180606,4853
1572.3780991707158,4876
1574.423817074788,4551
1576.4690083817595,4422
1578.5136733431923,4239
1580.5578122107272,4068
1582.601425236085,3850
1584.6445126710646,3637
1586.6870747675434,3441
1588.7291117774776,3372
1590.7706239529034,3185
1592.8116115459347,2888
1594.8520748087658,2840
1596.8920139936686,2702
1598.9314293529933,2626
1600.9703211391711,2566
1603.008689604711,2429
1605.0465350022005,2345
1607.0838575843068,2311
1609.1206576037753,2239
1611.1569353134305,2148
1613.1926909661765,2154
1615.2279248149953,2061
1617.2626371129481,2068
1619.2968281131757,2020
1621.3304980688963,1999
1623.3636472334088,1989
1625.39627586009,1956
1627.428384202396,1931
1629.459972513861,1856
1631.4910410480993,1860
1633.5215900588028,1834
1635.551619799744,1788
1637.5811305247717,1823
1639.6101224878166,1842
1641.6385959428862,1781
1643.6665511440683,1799
1645.693988345528,1810
1647.7209078015112,1715
1649.7473097663405,1676
1651.7731944944203,1752
1653.7985622402307,1721
1655.823413258333,1729
1657.847747803366,1744
1659.8715661300494,1718
1661.8948684931793,1680
1663.9176551476316,1711
1665.9399263483624,1766
1667.9616823504057,1766
1669.982923408873,1741
1672.0036497789574,1729
1674.0238617159293,1694
1676.043559475138,1656
1678.0627433120121,1741
1680.081413482059,1674
1682.0995702408654,1721
1684.117213844096,1660
1686.134344547495,1710
1688.1509626068864,1758
1690.1670682781705,1679
1692.182661817329,1671
1694.1977434804217,1663
1696.2123135235875,1711
1698.226372203043,1668
1700.2399197750851,1736
1702.2529564960905,1682
1704.2654826225112,1631
1706.277498410882,1645
1708.2890041178139,1664
1710.2999999999988,1720
1712.3104863142066,1646
1714.3204633172854,1655
1716.329931266163,1594
1718.3388904178469,1641
1720.3473410294214,1669
1722.3552833580516,1659
1724.3627176609807,1674
1726.3696441955308,1698
1728.3760632191033,1643
1730.3819749891782,1616
1732.3873797633146,1649
1734.3922777991502,1522
1736.3966693544012,1605
1738.4005546868639,1616
1740.4039340544127,1546
1742.406807715001,1561
1744.4091759266616,1553
1746.4110389475054,1623
1748.4123970357223,1572
1750.413250449582,1545
1752.4135994474318,1578
1754.4134442876993,1541
1756.4127852288902,1510
1758.4116225295893,1541
1760.4099564484595,1538
1762.407787244244,1491
1764.405115175764,1495
1766.4019405019203,1530
1768.3982634816916,1572
1770.3940843741357,1516
1772.3894034383907,1466
1774.3842209336717,1510
1776.378537119274,1499
1778.372352254571,1536
1780.3656665990156,1514
1782.3584804121397,1480
1784.3507939535534,1476
1786.3426074829463,1530
1788.3339212600863,1524
1790.3247355448211,1481
1792.3150505970766,1504
1794.3048666768573,1459
1796.2941840442477,1503
1798.2830029594106,1524
1800.2713236825884,1466
1802.2591464741004,1534
1804.2464715943465,1539
1806.2332993038058,1453
1808.2196298630352,1451
1810.2054635326708,1568
1812.190800573428,1461
1814.175641246101,1500
1816.1599858115628,1401
1818.1438345307652,1533
1820.127187664738,1437
1822.1100454745924,1543
1824.092408221516,1467
1826.0742761667766,1482
1828.055649571721,1461
1830.0365286977735,1446
1832.0169138064398,1467
1833.9968051593014,1424
1835.9762030180214,1419
1837.9551076443408,1495
1839.9335193000788,1494
1841.9114382471344,1438
1843.888864747485,1460
1845.8657990631878,1428
1847.842241456378,1476
1849.8181921892697,1526
1851.7936515241558,1415
1853.7686197234098,1393
1855.7430970494815,1448
1857.7170837649014,1368
1859.6905801322787,1433
1861.6635864143004,1413
1863.6361028737338,1457
1865.608129773424,1426
1867.5796673762961,1469
1869.5507159453537,1463
1871.521275743678,1486
1873.4913470344313,1433
1875.4609300808534,1447
1877.4300251462632,1477
1879.3986324940588,1456
1881.366752387717,1493
1883.3343850907936,1500
1885.3015308669228,1460
1887.268189979819,1450
1889.2343626932739,1488
1891.2000492711595,1456
1893.1652499774254,1488
1895.1299650761011,1459
1897.0941948312952,1489
1899.0579395071945,1544
1901.0211993680641,1500
1902.98397467825,1509
1904.9462657021745,1523
1906.9080727043415,1536
1908.869395949332,1508
1910.8302357018065,1527
1912.790592226504,1516
1914.7504657882428,1503
1916.7098566519212,1484
1918.6687650825133,1497
1920.6271913450764,1497
1922.5851357047422,1489
1924.5425984267245,1523
1926.499579776314,1462
1928.4560800188833,1481
1930.4120994198802,1476
1932.367638244833,1460
1934.32269675935,1519
1936.2772752291175,1458
1938.231373919899,1467
1940.1849930975404,1508
1942.1381330279637,1497
1944.0907939771696,1483
1946.0429762112412,1543
1947.9946799963363,1488
1949.9459055986945,1474
1951.896653284633,1477
1953.8469233205478,1465
1955.7967159729142,1453
1957.7460315082863,1496
1959.6948701932974,1464
1961.6432322946594,1484
1963.5911180791632,1454
1965.5385278136787,1504
1967.4854617651545,1524
1969.4319202006182,1564
1971.377903387176,1457
1973.3234115920136,1454
1975.268445082395,1409
1977.2130041256642,1443
1979.1570889892423,1480
1981.1006999406304,1436
1983.04383724741,1434
1984.986501177238,1473
1986.928691997853,1550
1988.8704099770712,1419
1990.811655382789,1479
1992.7524284829801,1489
1994.692729545698,1473
1996.6325588390755,1440
1998.5719166313224,1468
2000.5108031907307,1453
2002.4492187856677,1403
2004.387163684583,1401
2006.3246381560011,1464
2008.2616424685298,1411
2010.1981768908527,1415
2012.1342416917332,1429
2014.069837140014,1398
2016.0049635046162,1394
2017.9396210545406,1357
2019.8738100588666,1399
2021.8075307867502,1423
2023.740783507431,1464
2025.6735684902228,1397
2027.6058860045214,1454
2029.5377363198004,1421
2031.4691197056118,1391
2033.4000364315875,1402
2035.3304867674374,1457
2037.260470982952,1345
2039.189989347998,1381
2041.1190421325232,1469
2043.047629606554,1453
2044.9757520401945,1417
2046.9034097036288,1401
2048.8306028671195,1453
2050.7573318010086,1419
2052.683596775716,1437
2054.609398061742,1419
2056.5347359296647,1372
2058.4596106501403,1416
2060.384022493906,1406
2062.3079717317764,1434
2064.231458634646,1439
2066.1544834734873,1435
2068.077046519352,1458
2069.99914804337,1365
2071.9207883167524,1403
2073.8419676107865,1443
2075.7626861968406,1426
2077.6829443463607,1374
2079.6027423308715,1414
2081.522080421977,1378
2083.440958891362,1376
2085.359378010786,1397
2087.2773380520907,1378
2089.194839287196,1404
2091.111881988101,1430
2093.0284664268825,1427
2094.9445928756973,1381
2096.86026160678,1420
2098.775472892446,1476
2100.690227005088,1501
2102.604524217178,1424
2104.5183648012676,1418
2106.431749029985,1446
2108.34467717604,1430
2110.2571495122206,1377
2112.169166311393,1415
2114.080727846503,1472
2115.9918343905747,1406
2117.902486216711,1435
2119.8126835980956,1437
2121.722426807987,1433
2123.6317161197285,1468
2125.5405518067364,1491
2127.448934142509,1453
2129.356863400624,1399
2131.264339854737,1445
2133.1713637785815,1488
2135.077935445972,1463
2136.9840551308002,1457
2138.889723107037,1426
2140.7949396487334,1436
2142.699705030018,1445
2144.6040195250994,1461
2146.507883408264,1440
2148.4112969538774,1436
2150.3142604363848,1405
2152.2167741303097,1375
2154.1188383102535,1448
2156.0204532508997,1450
2157.9216192270064,1439
2159.822336513414,1504
2161.7226053850413,1416
2163.622426116884,1427
2165.5217989840185,1436
2167.4207242616,1427
2169.319202224862,1453
2171.2172331491165,1488
2173.1148173097563,1409
2175.0119549822507,1438
2176.90864644215,1507
2178.8048919650823,1467
2180.7006918267534,1430
2182.596046302952,1430
2184.4909556695407,1406
2186.3854202024645,1491
2188.279440177746,1421
2190.173015871487,1467
2192.066147559868,1426
2193.958835519149,1417
2195.851080025667,1469
2197.7428813558417,1437
2199.6342397861667,1417
2201.5251555932186,1434
2203.415629053651,1420
2205.3056604441986,1484
2207.19525004167,1501
2209.084398122958,1475
2210.9731049650327,1464
2212.861370844941,1464
2214.749196039812,1496
2216.636580826851,1488
2218.523525483344,1519
2220.410030286655,1474
2222.296095514226,1453
2224.1817214435805,1489
2226.066908352319,1443
2227.951656518121,1462
2229.835966218746,1486
2231.71983773203,1433
2233.6032713358913,1449
2235.486267308324,1497
2237.3688259274036,1481
2239.2509474712824,1449
2241.132632218193,1470
2243.013880446447,1504
2244.8946924344323,1482
2246.7750684606203,1414
2248.6550088035574,1474
2250.534513741871,1498
2252.413583554265,1472
2254.292218519526,1475
2256.170418916517,1444
2258.0481850241786,1471
2259.925517121534,1491
2261.8024154876825,1493
2263.678880401803,1446
2265.5549121431536,1474
2267.430510991071,1457
2269.305677224971,1451
2271.180411124348,1489
2273.0547129687766,1511
2274.9285830379076,1485
2276.8020216114737,1489
2278.6750289692845,1476
2280.5476053912294,1359
2282.4197511572766,1486
2284.2914665474727,1469
2286.162751841943,1498
2288.0336073208937,1543
2289.904033264608,1511
2291.774029953448,1441
2293.6435976678554,1493
2295.5127366883517,1521
2297.381447295534,1457
2299.2497297700825,1424
2301.1175843927526,1404
2302.9850114443825,1408
2304.852011205885,1344
2306.7185839582553,1334
2308.5847299825664,1391
2310.4504495599676,1336
2312.3157429716925,1338
2314.1806104990483,1311
2316.0450524234247,1345
2317.9090690262888,1338
2319.772660589186,1294
2321.635827393742,1286
2323.498569721661,1289
2325.3608878547248,1333
2327.2227820747967,1316
2329.0842526638157,1301
2330.945299903803,1320
2332.805924076857,1317
2334.6661254651535,1280
2336.525904350951,1336
2338.3852610165827,1325
2340.244195744464,1308
2342.102708817088,1305
2343.9608005170253,1305
2345.8184711269287,1271
2347.675720929526,1365
2349.532550207628,1346
2351.38895924412,1332
2353.24494832197,1311
2355.100517724223,1330
2356.955667734004,1356
2358.810398634514,1394
2360.664710709037,1375
2362.5186042409337,1341
2364.3720795136437,1307
2366.225136810686,1351
2368.0777764156583,1366
2369.929998612237,1389
2371.7818036841777,1403
2373.633191915315,1422
2375.484163589562,1330
2377.3347189909114,1357
2379.184858403434,1329
2381.03458211128,1344
2382.8838903986775,1349
2384.732783549936,1356
2386.5812618494406,1320
2388.4293255816588,1341
2390.2769750311327,1345
2392.1242104824883,1325
2393.971032220427,1387
2395.8174405297295,1344
2397.6634356952563,1419
2399.509018001947,1385
2401.3541877348193,1384
2403.1989451789705,1427
2405.043290619576,1345
2406.8872243418905,1362
2408.730746631247,1412
2410.5738577730594,1432
2412.4165580528183,1418
2414.258847756095,1401
2416.100727168537,1299
2417.9421965758734,1345
2419.783256263912,1419
2421.623906518538,1351
2423.4641476257157,1413
2425.303979871491,1395
2427.143403541984,1411
2428.9824189233977,1352
2430.821026302012,1411
2432.6592259641866,1404
2434.497018196361,1378
2436.33440328505,1419
2438.171381516851,1435
2440.00795317844,1414
2441.844118556569,1450
2443.6798779380724,1441
2445.5152316098606,1440
2447.3501798589255,1422
2449.1847229723357,1397
2451.0188612372403,1406
2452.8525949408663,1429
2454.6859243705203,1420
2456.518849813587,1451
2458.3513715575314,1437
2460.183489889895,1431
2462.015205098301,1401
2463.8465174704493,1410
2465.67742729412,1388
2467.5079348571717,1437
2469.338040447542,1461
2471.1677443532476,1382
2472.9970468623833,1434
2474.825948263123,1408
2476.6544488437207,1415
2478.482548892508,1369
2480.310248697896,1398
2482.137548548374,1398
2483.9644487325118,1410
2485.790949538956,1410
2487.617051256433,1429
2489.44275417375,1419
2491.26805857979,1454
2493.0929647635157,1443
2494.917473013971,1437
2496.741583620276,1513
2498.5652968716304,1464
2500.3886130573137,1496
2502.2115324666834,1459
2504.0340553891765,1434
2505.856182114308,1466
2507.6779129316733,1493
2509.499248130945,1443
2511.3201880018764,1517
2513.140732834298,1424
2514.9608829181198,1514
2516.780638543331,1431
2518.6,1452
2520.418967578273,1485
2522.237541568376,1580
2524.0557222606144,1505
2525.8735099453706,1451
2527.6909049131086,1554
2529.507907454368,1484
2531.32451785977,1507
2533.140736420014,1537
2534.9565634258774,1522
2536.771999168218,1522
2538.5870439379714,1567
2540.4016980261526,1577
2542.2159617238544,1594
2544.02983532225,1621
2545.8433191125914,1674
2547.656413386209,1652
2549.4691184345115,1639
2551.2814345489874,1617
2553.093362021204,1670
2554.904901142808,1658
2556.716052205523,1741
2558.526815501153,1751
2560.3371913215824,1676
2562.147179958771,1652
2563.956781704761,1661
2565.7659968516705,1644
2567.5748256916986,1776
2569.3832685171224,1782
2571.1913256202984,1772
2572.9989972936614,1801
2574.806283829725,1809
2576.613185521084,1818
2578.4197026604074,1828
2580.2258355404483,1800
2582.031584454035,1868
2583.836949694077,1860
2585.6419315535613,1861
2587.4465303255533,1917
2589.2507463032002,1903
2591.0545797797245,1908
2592.8580310484303,1921
2594.6611004026995,1882
2596.463788135992,1924
2598.266094541849,1887
2600.0680199138874,1872
2601.869564545807,1919
2603.670728731383,1923
2605.4715127644704,1874
2607.2719169390048,1870
2609.071941548998,1936
2610.8715868885433,1932
2612.670853251811,1968
2614.469740933052,1933
2616.268250226594,1911
2618.0663814268455,1929
2619.864134828292,1963
2621.6615107255006,1937
2623.458509413115,1967
2625.2551311858597,1899
2627.0513763385347,1776
2628.8472451660223,1898
2630.6427379632833,1818
2632.4378550253564,1808
2634.232596647359,1757
2636.026963124488,1771
2637.8209547520187,1782
2639.6145718253065,1824
2641.407814639785,1759
2643.200683490966,1759
2644.9931786744414,1695
2646.7853004858807,1778
2648.577049221034,1711
2650.3684251757277,1761
2652.1594286458712,1676
2653.9500599274484,1655
2655.740319316525,1683
2657.5302071092437,1633
2659.3197236018286,1643
2661.10886909058,1596
2662.8976438718782,1603
2664.686048242183,1551
2666.4740824980327,1569
2668.2617469360443,1587
2670.0490418529134,1506
2671.8359675454153,1532
2673.622524310403,1532
2675.408712444811,1510
2677.1945322456495,1551
2678.979984010009,1498
2680.76506803506,1537
2682.5497846180497,1509
2684.334134056306,1444
2686.1181166472343,1528
2687.9017326883213,1479
2689.6849824771293,1494
2691.4678663113013,1457
2693.2503844885596,1409
2695.032537306705,1445
2696.8143250636167,1450
2698.5957480572542,1426
2700.3768065856534,1420
2702.1575009469316,1416
2703.937831439283,1413
2705.717798360982,1411
2707.4974020103837,1383
2709.276642685917,1331
2711.055520686095,1359
2712.834036309506,1375
2714.612189854819,1372
2716.389981620782,1395
2718.1674119062204,1416
2719.944481010041,1432
2721.721189231226,1417
2723.4975368688415,1437
2725.273524222027,1369
2727.0491515900053,1377
2728.824419272075,1362
2730.5993275676146,1357
2732.3738767760838,1380
2734.148067197016,1291
2735.921899130031,1350
2737.6953728748194,1360
2739.468488731156,1339
2741.2412469988926,1349
2743.0136479779617,1382
2744.785691968372,1319
2746.5573792702116,1334
2748.3287101836504,1306
2750.099685008934,1336
2751.870304046388,1322
2753.640567596418,1341
2755.4104759595057,1386
2757.1800294362156,1296
2758.949228327187,1376
2760.7180729331412,1385
2762.486563554877,1345
2764.254700493272,1313
2766.022484049284,1361
2767.789914523947,1279
2769.5569922183786,1353
2771.3237174337705,1354
2773.090090471394,1347
2774.8561116326036,1359
2776.6217812188274,1292
2778.3870995315756,1293
2780.1520668724356,1394
2781.9166835430747,1359
2783.6809498452394,1381
2785.444866080754,1349
2787.2084325515225,1343
2788.971649559527,1327
2790.73451740683,1290
2792.4970363955713,1303
2794.2592068279705,1327
2796.0210290063264,1278
2797.7825032330147,1343
2799.543629810493,1362
2801.304409041296,1261
2803.0648412280366,1289
2804.8249266734088,1299
2806.5846656801846,1345
2808.344058551212,1317
2810.1031055894246,1286
2811.8618070978273,1355
2813.6201633795085,1375
2815.378174737636,1363
2817.1358414754536,1329
2818.893163896285,1312
2820.6501423035334,1375
2822.4067770006814,1338
2824.1630682912883,1293
2825.9190164789957,1251
2827.6746218675207,1332
2829.429884760661,1346
2831.184805462294,1278
2832.9393842763743,1307
2834.693621506936,1319
2836.4475174580916,1261
2838.201072434034,1334
2839.954286739034,1266
2841.707160677441,1278
2843.459694553685,1330
2845.2118886722724,1312
2846.96374333779,1309
2848.7152588549034,1369
2850.4664355283567,1337
2852.217273662973,1263
2853.9677735636546,1350
2855.7179355353833,1326
2857.4677598832186,1354
2859.217246912299,1323
2860.9663969278427,1339
2862.715210235146,1310
2864.4636871395846,1270
2866.211827946614,1293
2867.9596329617652,1299
2869.7071024906536,1294
2871.4542368389684,1325
2873.20103631248,1268
2874.947501217038,1319
2876.6936318585695,1278
2878.4394285430812,1301
2880.1848915766604,1310
2881.9300212654707,1322
2883.6748179157553,1259
2885.4192818338374,1312
2887.1634133261173,1326
2888.907212699077,1262
2890.6506802592744,1310
2892.393816313348,1297
2894.1366211680142,1326
2895.8790951300693,1304
2897.621238506388,1312
2899.363051603925,1258
2901.1045347297118,1342
2902.8456881908596,1315
2904.58651229456,1299
2906.327007348081,1284
2908.067173658772,1282
2909.8070115340597,1300
2911.5465212814497,1328
2913.285703208527,1329
2915.0245576229563,1308
2916.7630848324807,1300
2918.5012851449196,1279
2920.2391588681758,1296
2921.976706310227,1311
2923.7139277791334,1297
2925.4508235830313,1299
2927.187394030137,1335
2928.923639428745,1340
2930.6595600872306,1344
2932.395156314046,1364
2934.1304284177218,1347
2935.8653767068713,1288
2937.6000014901815,1359
2939.3343030764227,1341
2941.068281774442,1392
2942.8019378931644,1272
2944.5352717415976,1293
2946.2682836288236,1326
2948.0009738640065,1311
2949.7333427563885,1308
2951.465390615289,1285
2953.1971177501086,1368
2954.9285244703265,1250
2956.6596110855,1310
2958.3903779052657,1302
2960.1208252393385,1273
2961.8509533975125,1307
2963.5807626896617,1265
2965.3102534257378,1294
2967.0394259157715,1267
2968.768280469873,1237
2970.496817398232,1290
2972.2250370111146,1309
2973.952939618869,1294
2975.6805255319196,1279
2977.4077950607707,1320
2979.134748516006,1303
2980.861386208289,1301
2982.587708448359,1252
2984.313715547037,1311
2986.039407815222,1317
2987.764785563891,1327
2989.489849104102,1237
2991.2145987469908,1259
2992.9390348037705,1279
2994.6631575857346,1364
2996.3869674042576,1275
2998.1104645707887,1334
2999.83364939686,1288
3001.5565221940783,1324
3003.2790832741334,1319
3005.0013329487924,1335
3006.7232715298996,1333
3008.4448993293804,1310
3010.166216659239,1282
3011.887223831558,1261
3013.607921158498,1237
3015.3283089522993,1224
3017.0483875252826,1251
3018.7681571898443,1307
3020.4876182584626,1309
3022.2067710436927,1266
3023.9256158581707,1274
3025.644153014609,1248
3027.362382825801,1334
3029.0803056046193,1306
3030.797921664012,1239
3032.5152313170106,1326
3034.2322348767225,1259
3035.9489326563353,1327
3037.665324969115,1249
3039.3814121284063,1329
3041.097194447633,1324
3042.812672240299,1280
3044.5278458199855,1250
3046.2427155003525,1281
3047.9572815951406,1343
3049.671544418167,1301
3051.38550428333,1275
3053.0991615046073,1330
3054.812516396051,1287
3056.5255692717974,1257
3058.2383204460575,1295
3059.9507702331257,1314
3061.662918947372,1312
3063.3747669032446,1285
3065.0863144152736,1304
3066.7975617980674,1291
3068.508509366309,1239
3070.219157434767,1258
3071.9295063182844,1284
3073.639556331785,1316
3075.3493077902704,1360
3077.058761008821,1284
3078.7679163025964,1296
3080.476773986837,1220
3082.1853343768594,1302
3083.89359778806,1285
3085.6015645359153,1269
3087.3092349359786,1258
3089.016609303884,1234
3090.7236879553434,1319
3092.4304712061476,1307
3094.136959372166,1279
3095.843152769349,1285
3097.5490517137237,1267
3099.2546565213966,1304
3100.959967508554,1269
3102.66498499146,1268
3104.3697092864577,1302
3106.0741407099695,1277
3107.778279578498,1300
3109.482126208622,1291
3111.1856809170004,1322
3112.8889440203716,1370
3114.5919158355528,1328
3116.294596679439,1353
3117.996986869006,1342
3119.6990867213062,1293
3121.4008965534726,1324
3123.102416682717,1265
3124.803647426329,1305
3126.5045891016784,1306
3128.205242026213,1342
3129.90560651746,1306
3131.605682893025,1329
3133.3054714705922,1271
3135.0049725679282,1340
3136.7041865028714,1319
3138.4031135933465,1340
3140.101754157353,1259
3141.800108512971,1284
3143.498176978357,1301
3145.1959598717494,1322
3146.8934575114636,1281
3148.5906702158954,1328
3150.2875983035183,1247
3151.9842420928853,1272
3153.680601902627,1304
3155.376678051456,1265
3157.07247085816,1298
3158.767980641609,1283
3160.463207720748,1326
3162.158152414606,1305
3163.8528150422862,1290
3165.5471959229726,1356
3167.2412953759303,1315
3168.9351137204976,1289
3170.628651276098,1292
3172.3219083622307,1302
3174.014885298474,1304
3175.707582404485,1306
3177.4000000000005,1330
3179.092138404835,1289
3180.7839979388846,1291
3182.47557892212,1276
3184.166881674594,1285
3185.8579065164386,1272
3187.5486537678626,1246
3189.2391237491547,1277
3190.9293167806827,1217
3192.6192331828934,1278
3194.3088732763117,1268
3195.998237381542,1268
3197.687325819268,1281
3199.376138910251,1360
3201.064676975334,1271
3202.7529403354347,1301
3204.4409293115523,1252
3206.1286442247647,1303
3207.816085396229,1264
3209.5032531471825,1283
3211.190147798936,1249
3212.8767696728846,1257
3214.5631190905015,1266
3216.2491963733373,1259
3217.9350018430214,1305
3219.6205358212637,1276
3221.305798629851,1251
3222.990790590651,1301
3224.6755120256103,1227
3226.359963256751,1213
3228.0441446061795,1226
3229.7280563960758,1280
3231.411698948703,1215
3233.0950725863995,1209
3234.778177631587,1262
3236.461014406761,1297
3238.1435832345005,1242
3239.8258844374595,1241
3241.507918338374,1262
3243.1896852600576,1273
3244.8711855254023,1277
3246.552419457381,1294
3248.233387379042,1265
3249.914089613516,1249
3251.59452648401,1248
3253.274698313813,1234
3254.95460542629,1275
3256.6342481448855,1245
3258.313626793125,1295
3259.9927416946084,1241
3261.6715931730196,1253
3263.3501815521176,1238
3265.0285071557437,1258
3266.706570307815,1240
3268.3843713323286,1262
3270.0619105533615,1264
3271.739188295068,1229
3273.4162048816834,1243
3275.0929606375184,1234
3276.769455886966,1254
3278.445690954498,1268
3280.1216661646613,1235
3281.797381842087,1267
3283.4728383114807,1306
3285.1480358976296,1257
3286.8229749253996,1297
3288.4976557197333,1281
3290.172078605655,1256
3291.846243908266,1249
3293.5201519527463,1219
3295.193803064357,1309
3296.8671975684374,1194
3298.5403357904024,1239
3300.21321805575,1249
3301.8858446900567,1243
3303.558216018975,1256
3305.23033236824,1296
3306.9021940636603,1249
3308.57380143113,1209
3310.2451547966184,1290
3311.916254486174,1287
3313.5871008259246,1236
3315.2576941420766,1253
3316.9280347609147,1209
3318.5981230088046,1318
3320.2679592121895,1235
3321.9375436975924,1227
3323.606876791612,1246
3325.27595882093,1234
3326.944790112305,1265
3328.6133709925753,1233
3330.2817017886573,1230
3331.949782827547,1218
3333.617614436319,1233
3335.2851969421245,1279
3336.952530672199,1236
3338.619615953853,1252
3340.286453114475,1336
3341.9530424815357,1237
3343.619384382583,1356
3345.2854791452437,1281
3346.951327097224,1237
3348.6169285663073,1230
3350.2822838803577,1309
3351.947393367319,1323
3353.61225735521,1317
3355.2768761721345,1227
3356.9412501462693,1262
3358.605379605873,1320
3360.2692648792827,1225
3361.9329062949146,1196
3363.596304181263,1250
