CollectionTime,7/3/2024 2:18:03 PM
ExposureUsed,3
CalibratedSpectrum
-962.7078968117929,571
-959.9714848408522,575
-957.2358232597828,614
-954.5009119013725,591
-951.7667505983302,621
-949.0333391832855,606
-946.3006774887896,607
-943.5687653473143,634
-940.837602591253,624
-938.1071890529199,621
-935.3775245645503,587
-932.6486089583007,630
-929.9204420662485,661
-927.1930237203925,608
-924.4663537526524,619
-921.7404319948689,619
-919.0152582788041,628
-916.2908324361409,690
-913.5671542984834,596
-910.8442236973568,622
-908.1220404642074,611
-905.4006044304027,597
-902.679915427231,641
-899.959973285902,619
-897.2407778375464,598
-894.5223289132158,597
-891.8046263438832,622
-889.0876699604426,603
-886.3714595937089,567
-883.6559950744183,599
-880.9412762332282,604
-878.2273029007168,568
-875.5140749073835,569
-872.8015920836489,630
-870.0898542598545,611
-867.3788612662631,605
-864.6686129330585,569
-861.9591090903457,577
-859.2503495681506,598
-856.5423341964203,588
-853.8350628050229,629
-851.1285352237478,608
-848.4227512823054,649
-845.7177108103272,674
-843.0134136373656,637
-840.3098595928943,633
-837.6070485063082,658
-834.9049802069229,616
-832.2036545239757,628
-829.5030712866244,615
-826.8032303239481,633
-824.1041314649472,615
-821.4057745385428,631
-818.7081593735775,684
-816.0112857988148,617
-813.3151536429393,633
-810.6197627345566,619
-807.9251129021936,613
-805.2312039742981,604
-802.5380357792392,595
-799.8456081453069,642
-797.1539209007124,674
-794.462973873588,622
-791.772766891987,659
-789.083299783884,635
-786.3945723771743,624
-783.7065844996748,609
-781.0193359791231,590
-778.3328266431781,644
-775.6470563194197,630
-772.9620248353489,632
-770.2777320183878,629
-767.5941776958798,637
-764.9113616950891,651
-762.2292838432011,659
-759.5479439673222,635
-756.8673418944801,619
-754.1874774516235,656
-751.5083504656222,673
-748.8299607632671,648
-746.15230817127,655
-743.475392516264,679
-740.7992136248035,636
-738.1237713233636,637
-735.4490654383407,648
-732.7750957960521,719
-730.1018622227365,622
-727.4293645445534,658
-724.7576025875837,632
-722.0865761778291,674
-719.4162851412126,712
-716.7467293035781,684
-714.0779084906909,623
-711.409822528237,691
-708.7424712418238,620
-706.0758544569796,662
-703.4099719991541,733
-700.7448236937178,701
-698.0804093659622,690
-695.4167288411002,715
-692.7537819442656,726
-690.0915685005134,693
-687.4300883348199,699
-684.7693412720819,685
-682.1093271371178,716
-679.4500457546669,752
-676.7914969493897,689
-674.1336805458676,675
-671.4765963686034,717
-668.8202442420206,756
-666.1646239904642,728
-663.5097354382001,706
-660.8555784094151,701
-658.2021527282176,709
-655.5494582186366,746
-652.8974947046223,749
-650.2462620100463,736
-647.5957599587009,749
-644.9459883742998,733
-642.2969470804776,754
-639.6486359007902,836
-637.0010546587141,787
-634.3542031776476,737
-631.7080812809096,710
-629.0626887917401,730
-626.4180255333008,718
-623.7740913286734,781
-621.1308860008619,772
-618.4884093727904,726
-615.8466612673046,744
-613.2056415071715,720
-610.5653499150785,732
-607.9257863136347,773
-605.28695052537,769
-602.6488423727357,739
-600.0114616781036,718
-597.3748082637674,745
-594.7388819519412,810
-592.1036825647604,796
-589.4692099242818,875
-586.8354638524829,788
-584.2024441712624,771
-581.5701507024403,856
-578.9385832677575,800
-576.3077416888759,785
-573.6776257873787,764
-571.0482353847704,704
-568.4195703024757,769
-565.7916303618415,782
-563.164415384135,803
-560.5379251905453,757
-557.9121596021815,774
-555.2871184400748,801
-552.6628015251767,796
-550.0392086783606,775
-547.4163397204204,791
-544.794194472071,824
-542.1727727539491,818
-539.5520743866118,836
-536.9320991905377,876
-534.3128469861261,883
-531.6943175936979,860
-529.0765108334947,833
-526.4594265256793,860
-523.8430644903358,976
-521.2274245474689,1169
-518.612506517005,1256
-515.9983102187913,1186
-513.3848354725959,1179
-510.77208209810846,1311
-508.16004991493924,1384
-505.5487387426199,1582
-502.9381484006032,1589
-500.3282787082628,1553
-497.71912948489364,1458
-495.1107005497117,1348
-492.5029917218539,1200
-489.8960028203786,1082
-487.28973366426493,1006
-484.68418407241325,958
-482.07935386364494,911
-479.47524285670266,954
-476.87185087025,957
-474.2691777228715,945
-471.66722323307334,967
-469.0659872192821,950
-466.4654694998459,920
-463.86566989303384,962
-461.26658821703614,959
-458.66822428996414,927
-456.07057792985,965
-453.4736489546475,1001
-450.877437182231,931
-448.28194243039627,906
-445.68716451686,949
-443.09310325926003,946
-440.49975847515555,970
-437.9071299820263,970
-435.31521759727354,930
-432.72402113821954,975
-430.13354042210767,963
-427.5437752661022,979
-424.95472548728867,1016
-422.36639090267386,1015
-419.7787713291855,1032
-417.1918665836721,1068
-414.60567648290385,1037
-412.0202008435715,1065
-409.4354394822874,988
-406.8513922155845,1090
-404.26805885991723,1086
-401.685439231661,1065
-399.103533147112,1099
-396.522340422488,1046
-393.9418608739278,1020
-391.3620943174908,1029
-388.7830405691583,996
-386.2046994448317,930
-383.6270707603344,903
-381.05015433141045,898
-378.473949973725,870
-375.8984575028645,797
-373.32367673433623,763
-370.74960748356875,725
-368.1762495659117,722
-365.60360279663576,644
-363.03166699093265,628
-360.4604419639154,585
-357.8899275306178,571
-355.32012350599507,575
-352.7510297049233,529
-350.1826459421999,524
-347.61497203254316,558
-345.04800779059235,570
-342.4817530309082,566
-339.91620756797226,564
-337.35137121618743,633
-334.7872437898774,708
-332.22382510328725,656
-329.66111497058273,608
-327.09911320585127,591
-324.53781962310075,602
-321.9772340362607,557
-319.4173562591816,582
-316.8581861056348,590
-314.2997233893127,535
-311.7419679238294,614
-309.1849195227194,665
-306.62857799943856,629
-304.0729431673641,694
-301.51801483979375,672
-298.963792829947,650
-296.41027695096386,657
-293.85746701590574,722
-291.3053628377552,724
-288.7539642294155,731
-286.2032710037115,672
-283.65328297338897,702
-281.1039999511146,807
-278.5554217494762,897
-276.007548180983,952
-273.4603790580651,848
-270.9139141930734,876
-268.3681533982807,891
-265.8230964858798,928
-263.27874326798565,910
-260.7350935566336,896
-258.1921471637804,807
-255.6499039013039,881
-253.10836358100266,844
-250.56752601459698,821
-248.02739101372765,884
-245.48795838995704,901
-242.94922795476816,864
-240.41119951956557,935
-237.8738728956746,990
-235.33724789434166,947
-232.80132432673452,1031
-230.2661020039418,870
-227.73158073697357,898
-225.19776033676033,1109
-222.66464061415422,1111
-220.1322213799284,947
-217.60050244477725,782
-215.06948361931552,820
-212.53916471408013,992
-210.00954553952818,1244
-207.48062590603843,1088
-204.9524056239104,1059
-202.4248845033651,1139
-199.8980623545441,1227
-197.37193898751036,1170
-194.84651421224817,1079
-192.32178783866232,1086
-189.79775967657952,1159
-187.27442953574644,1317
-184.7517972258321,1289
-182.2298625564256,1214
-179.7086253370378,1159
-177.18808537710026,1001
-174.66824248596583,1315
-172.14909647290835,1577
-169.6306471471229,1421
-167.11289431772548,1265
-164.59583779375328,1396
-162.07947738416453,1466
-159.5638128978386,1796
-157.04884414357605,2254
-154.53457093009854,2107
-152.02099306604828,1546
-149.50811035998936,1238
-146.99592262040665,1599
-144.48442965570587,1832
-141.97363127421409,2467
-139.46352728417958,2918
-136.95411749377126,2702
-134.44540171107985,2210
-131.93737974411636,2024
-129.43005140081357,1893
-126.92341648902493,2321
-124.41747481652521,3289
-121.91222619101006,4602
-119.40767042009657,6037
-116.90380731132257,6197
-114.40063667214702,4805
-111.8981583099503,3146
-109.3963720320337,2233
-106.89527764561933,2234
-104.39487495785067,3815
-101.89516377579241,5942
-99.39614390642998,6821
-96.89781515667039,5738
-94.40017733334128,6701
-91.90323024319173,10901
-89.40697369289148,14316
-86.91140748903172,16268
-84.41653143812482,11109
-81.92234534660395,6682
-79.42884902082358,11232
-76.93604226705907,25685
-74.4439248915071,39052
-71.95249670028534,45532
-69.46175749943245,40001
-66.97170709490854,29688
-64.48234529259423,19522
-61.99367189829195,13201
-59.50568671772464,10549
-57.01838955653636,9664
-54.53178022029283,9337
-52.045858514480074,11843
-49.560624244506016,14984
-47.07607721569923,17937
-44.59221723330904,19907
-42.10904410250669,20453
-39.62655762838392,19130
-37.14475761595372,21337
-34.66364387015028,27126
-32.18321619582866,29599
-29.70347439776515,28324
-27.224418280657005,29245
-24.74604764912317,33046
-22.26836230770266,44459
-19.7913620608565,65041
-17.315046712966478,65041
-14.83941606833514,65041
-12.36446993118659,65041
-9.89020810566592,65041
-7.416630395839093,65041
-4.94373660569363,65041
-2.471526539137585,65041
-6.821210263296962E-13,65041
2.47084320796705,65041
4.941003281093458,65041
7.410480415786196,65041
9.879274808531363,65041
12.347386655893956,65041
14.814816154518212,65041
17.28156350112681,65041
19.74762889252179,65041
22.21301252558385,65041
24.67771459727237,22093
27.141735304626195,5758
29.605074844762612,4472
32.06773341487792,3918
34.52971121224755,3511
36.99100843422559,3385
39.45162527824516,2834
41.91156194181792,2858
44.370818622535126,2551
46.82939551806646,2484
49.287292826160524,3266
51.74451074464503,3527
54.201049471426245,3741
56.65690920448981,2467
59.112090141899785,2211
61.56659248179983,2073
64.02041642241159,2097
66.4735621620365,1810
68.92602989905402,1837
71.37781983192338,2199
73.82893215918205,2736
76.27936707944684,2681
78.72912479141326,2400
81.17820549385567,2335
83.62660938562783,2331
86.07433666566146,2023
88.5213875329681,1687
90.96776218663751,1525
93.41346082583925,1923
95.85848364982041,2187
98.30283085790859,2170
100.7465026495089,2606
103.18949922410604,1933
105.63182078126385,1551
108.07346752062438,1577
110.51443964190923,1519
112.95473734491827,1331
115.39436082953114,1450
117.83331029570547,1539
120.27158594347827,2050
122.7091879729652,2437
125.1461165843615,2065
127.58237197794062,1828
130.01795435405518,1596
132.4528639131364,1436
134.88710085569494,1350
137.32066538231982,1598
139.75355769367923,1827
142.1857779905207,1506
144.61732647366978,1330
147.04820334403132,1326
149.47840880258934,1330
151.90794305040674,1404
154.33680628862487,1482
156.76499871846443,1559
159.19252054122433,1647
161.61937195828352,1800
164.04555317109896,1924
166.47106438120693,2090
168.89590579022217,2321
171.320077599839,2527
173.7435800118302,2910
176.16641322804742,2891
178.58857745042144,3058
181.01007288096173,2995
183.43089972175687,3128
185.85105817497413,3064
188.27054844285988,3076
190.6893707277394,3174
193.10752523201643,3014
195.5250121581745,2921
197.9418317087751,2839
200.3579840864594,2942
202.7734694939469,3064
205.18828813403627,3014
207.6024402096051,3247
210.01592592360964,3238
212.42874547908548,3132
214.84089907914665,3057
217.2523869269868,3074
219.66320922587727,3035
222.0733661791695,3106
224.48285799029293,3093
226.8916848627572,3117
229.29984700014882,3194
231.7073446061355,3054
234.11417788446204,3024
236.520347038953,3176
238.92585227351185,3283
241.33069379212054,3414
243.73487179884035,3416
246.1383864978112,3498
248.541238093252,3420
250.9434267894609,3308
253.34495279081432,3410
255.74581630176783,3450
258.1460175268563,3383
260.54555667069314,3346
262.9444339379703,3268
265.3426495334594,3351
267.7402036620107,3364
270.1370965285529,3356
272.53332833809407,3103
274.9288992957214,3065
277.32380960660055,2987
279.718059475976,2957
282.1116491091717,2803
284.5045787115897,2738
286.89684848871195,2773
289.2884586460981,2731
291.67940938938807,2803
294.0697009242996,2848
296.4593334566299,2712
298.84830719225477,2633
301.23662233712923,2664
303.6242790972866,2795
306.01127767884,2637
308.39761828798066,2624
310.78330113097934,2641
313.16832641418534,2485
315.5526943440269,2460
317.9364051270112,2525
320.3194589697242,2546
322.70185607883093,2416
325.0835966610754,2454
327.4646809232805,2324
329.8451090723478,2389
332.2248813152577,2311
334.6039978590701,2243
336.9824589109231,2373
339.36026467803447,2324
341.7374153677,2298
344.113911187295,2277
346.48975234427337,2241
348.8649390461686,2224
351.2394715005918,2281
353.61334991523415,2296
355.9865744978655,2233
358.35914545633375,2202
360.73106299856715,2252
363.10232733257146,2318
365.47293866643247,2267
367.84289720831396,2181
370.2122031664593,2242
372.5808567491905,2223
374.9488581649083,2118
377.31620762209275,2024
379.6829053293021,2051
382.0489514951745,2079
384.4143463284262,2136
386.7790900378528,2017
389.14318283232853,2094
391.50662492080653,2124
393.86941651231916,2080
396.23155781597745,2165
398.5930490409713,2200
400.9538903965696,2135
403.3140820921202,2136
405.6736243370498,2157
408.03251734086336,2045
410.3907613131465,1998
412.74835646356166,1997
415.10530300185144,2061
417.4616011378372,2010
419.81725108141893,2043
422.1722530425758,2169
424.5266072313656,2043
426.880313857925,2046
429.2333731324701,2066
431.58578526529516,2056
433.9375504667738,2057
436.2886689473588,1946
438.63914091758113,2048
440.9889665880513,2028
443.33814616945835,1992
445.68667987257015,1951
448.03456790823395,2019
450.3818104873759,1945
452.72840782100013,2068
455.07436012019105,1935
457.41966759611057,1922
459.7643304600007,1972
462.10834892318155,1937
464.4517231970525,2020
466.79445349309174,1873
469.1365400228566,2026
471.4779829979826,1978
473.81878263018564,1902
476.15893913125876,2019
478.4984527130747,1925
480.8373235875855,1996
483.17555196682144,2028
485.5131380628919,2050
487.8500820879857,2191
490.1863842543697,2330
492.52204477439034,2329
494.8570638604725,2528
497.1914417251204,2698
499.52517858091653,3125
501.85827464052306,3515
504.19073011668036,3680
506.5225452222086,3842
508.85372017000566,3779
511.18425517304956,3646
513.514150444396,3646
515.8434061971808,4336
518.1720226446176,5223
520.4999999999999,5499
522.8273384766991,5181
525.1540382881666,4615
527.480099647932,4049
529.8055227696037,3428
532.1303078668694,2839
534.454455153496,2373
536.777964843328,2212
539.1008371502907,2152
541.4230722883866,2084
543.744670471698,2131
546.0656319143858,2156
548.3859568306899,2073
550.7056454349294,2091
553.0246979415016,2073
555.3431145648834,2194
557.6608955196306,2205
559.978041020377,2015
562.2945512818363,2027
564.6104265188006,2005
566.9256669461412,2025
569.2402727788082,1991
571.5542442318302,1978
573.8675815203156,2049
576.1802848594508,2073
578.4923544645015,1960
580.8037905508126,2096
583.114593333807,2093
585.4247630289875,2066
587.7342998519354,2030
590.0432040183106,2027
592.3514757438526,2052
594.6591152443794,2072
596.9661227357875,2043
599.2724984340531,2095
601.578242555231,2079
603.8833553154542,2110
606.1878369309362,2126
608.4916876179676,2066
610.7949075929192,2045
613.0974970722403,2104
615.3994562724587,2056
617.7007854101818,1998
620.0014847020951,2045
622.3015543649641,2118
624.6009946156324,2044
626.8998056710224,1978
629.1979877481361,2050
631.4955410640538,2132
633.7924658359349,2127
636.0887622810175,2009
638.3844306166192,2055
640.6794710601358,2094
642.9738838290426,2100
645.2676691408932,2137
647.5608272133207,2141
649.853358264037,2123
652.1452625108324,2158
654.4365401715764,2164
656.7271914642178,2199
659.0172166067838,2069
661.3066158173809,2201
663.5953893141935,2144
665.8835373154867,2142
668.1710600396028,2150
670.4579577049639,2208
672.7442305300709,2152
675.0298787335033,2151
677.3149025339197,2189
679.599302150058,2151
681.8830778007342,2140
684.1662297048437,2156
686.4487580813608,2107
688.7306631493387,2173
691.0119451279091,2131
693.2926042362834,2126
695.5726406937516,2071
697.8520547196814,2097
700.1308465335215,2124
702.4090163547982,2196
704.6865644031171,2098
706.9634908981619,2105
709.2397960596965,2017
711.5154801075631,2119
713.7905432616823,2083
716.0649857420548,2061
718.3388077687592,2131
720.612009561953,2154
722.8845913418733,2065
725.1565533288352,2144
727.427895743234,2170
729.6986188055427,2092
731.9687227363137,2135
734.238207756178,2092
736.5070740858458,2090
738.7753219461066,2089
741.0429515578281,2111
743.3099631419569,2073
745.5763569195191,2093
747.8421331116193,2103
750.1072919394409,2073
752.3718336242467,2115
754.6357583873777,2083
756.8990664502545,2134
759.1617580343765,2107
761.423833361321,2058
763.6852926527457,2136
765.9461361303862,2160
768.206364016058,2121
770.4659765316536,2071
772.7249738991469,2053
774.9833563405886,2100
777.2411240781092,2252
779.4982773339183,2137
781.7548163303044,2110
784.010741289634,2098
786.2660524343538,2185
788.5207499869881,2150
790.7748341701416,2197
793.0283052064964,2165
795.2811633188143,2087
797.5334087299362,2199
799.7850416627813,2149
802.0360623403484,2129
804.2864709857143,2127
806.5362678220353,2116
808.7854530725468,2169
811.0340269605625,2182
813.2819897094754,2135
815.5293415427581,2098
817.77608268396,2169
820.0222133567116,2157
822.2677337847211,2166
824.5126441917765,2133
826.7569448017433,2219
829.0006358385675,2144
831.2437175262731,2163
833.4861900889629,2077
835.7280537508192,2083
837.9693087361026,2110
840.2099552691533,2185
842.4499935743896,2136
844.689423876309,2161
846.9282463994886,2168
849.1664613685833,2187
851.4040690083276,2182
853.6410695435349,2156
855.877463199097,2119
858.1132501999847,2051
860.3484307712487,2227
862.5830051380175,2149
864.8169735254988,2165
867.0503361589791,2217
869.2830932638243,2158
871.5152450654786,2160
873.7467917894654,2207
875.9777336613873,2147
878.2080709069252,2122
880.4378037518389,2170
882.666932421968,2151
884.8954571432301,2129
887.1233781416219,2206
889.3506956432192,2223
891.5774098741766,2169
893.803521060728,2170
896.0290294291852,2088
898.2539352059397,2111
900.4782386174619,2143
902.7019398903011,2144
904.925039251085,2144
907.147536926521,2111
909.3694331433943,2112
911.59072812857,2125
913.8114221089921,2174
916.0315153116827,2227
918.2510079637437,2160
920.4699002923547,2128
922.6881925247761,2149
924.905884888345,2166
927.1229776104793,2168
929.3394709186747,2139
931.555365040506,2136
933.7706602036275,2223
935.9853566357709,2115
938.1994545647489,2136
940.4129542184515,2130
942.6258558248488,2102
944.8381596119883,2168
947.0498658079974,2207
949.2609746410825,2180
951.4714863395287,2096
953.6814011316998,2109
955.8907192460387,2132
958.0994409110671,2090
960.3075663553858,2136
962.5150958076741,2184
964.7220294966913,2161
966.928367651274,2114
969.1341105003388,2140
971.3392582728806,2045
973.5438111979742,2080
975.747769504772,2068
977.9511334225061,1950
980.153903180487,1946
982.3560790081052,2029
984.5576611348289,2038
986.7586497902058,1900
988.9590452038618,1955
991.158847605503,1879
993.3580572249133,1890
995.5566742919558,1994
997.7546990365728,1916
999.952131688785,1877
1002.1489724786926,1893
1004.3452216364743,1909
1006.5408793923874,1897
1008.7359459767691,1796
1010.9304216200343,1830
1013.1243065526781,1714
1015.3176010052733,1756
1017.510305208472,1762
1019.7024193930064,1722
1021.8939437896848,1764
1024.0848786293977,1824
1026.2752241431122,1769
1028.4649805618747,1778
1030.6541481168115,1746
1032.842727039127,1719
1035.0307175601051,1739
1037.2181199111074,1710
1039.4049343235752,1717
1041.591161029029,1787
1043.7768002590683,1778
1045.9618522453698,1711
1048.1463172196918,1726
1050.3301954138697,1683
1052.513487059818,1712
1054.69619238953,1730
1056.8783116350783,1765
1059.0598450286152,1746
1061.2407928023704,1663
1063.4211551886528,1720
1065.6009324198508,1681
1067.780124728432,1730
1069.9587323469414,1648
1072.1367555080046,1724
1074.314194444325,1697
1076.4910493886855,1738
1078.667320573947,1651
1080.843008233051,1647
1083.0181125990161,1644
1085.1926339049414,1601
1087.3665723840027,1691
1089.5399282694575,1632
1091.7127017946405,1630
1093.8848931929647,1554
1096.0565026979243,1690
1098.2275305430899,1596
1100.3979769621128,1609
1102.567842188722,1601
1104.737126456726,1608
1106.9058300000124,1614
1109.0739530525475,1632
1111.2414958483764,1585
1113.4084586216231,1569
1115.5748416064907,1584
1117.7406450372605,1537
1119.9058691482942,1610
1122.0705141740304,1605
1124.2345803489884,1546
1126.3980679077658,1580
1128.5609770850388,1574
1130.7233081155623,1511
1132.8850612341707,1542
1135.0462366757774,1559
1137.2068346753745,1578
1139.3668554680326,1555
1141.526299288901,1562
1143.68516637321,1533
1145.8434569562655,1536
1148.001171273455,1530
1150.158309560244,1550
1152.3148720521767,1558
1154.470858984876,1481
1156.626270594044,1646
1158.7811071154629,1532
1160.9353687849912,1546
1163.089055838569,1526
1165.242168512213,1516
1167.3947070420209,1491
1169.5466716641677,1581
1171.6980626149075,1502
1173.8488801305748,1539
1175.9991244475814,1549
1178.1487958024186,1548
1180.2978944316555,1532
1182.4464205719428,1514
1184.5943744600072,1543
1186.7417563326567,1556
1188.8885664267755,1575
1191.0348049793297,1522
1193.1804722273619,1526
1195.325568407995,1547
1197.4700937584303,1541
1199.614048515948,1634
1201.7574329179074,1498
1203.900247201746,1545
1206.042491604982,1493
1208.1841663652099,1560
1210.3252717201053,1560
1212.465807907422,1548
1214.6057751649923,1604
1216.7451737307279,1583
1218.8840038426192,1540
1221.0222657387353,1548
1223.1599596572241,1572
1225.2970858363137,1542
1227.4336445143094,1617
1229.5696359295966,1584
1231.705060320639,1561
1233.8399179259786,1571
1235.9742089842384,1500
1238.107933734118,1627
1240.2410924143974,1598
1242.373685263935,1568
1244.5057125216676,1620
1246.6371744266116,1574
1248.7680712178621,1548
1250.898403134593,1597
1253.028170416058,1626
1255.1573733015875,1649
1257.2860120305932,1621
1259.4140868425648,1647
1261.54159797707,1648
1263.6685456737569,1685
1265.7949301723515,1601
1267.9207517126597,1570
1270.046010534565,1564
1272.1707068780306,1620
1274.2948409830983,1617
1276.4184130898889,1629
1278.541423438603,1668
1280.6638722695184,1627
1282.785759822993,1580
1284.9070863394636,1642
1287.0278520594447,1666
1289.1480572235314,1689
1291.2677020723963,1669
1293.3867868467923,1646
1295.5053117875495,1642
1297.623277135579,1766
1299.740683131868,1708
1301.8575300174857,1673
1303.973818033578,1733
1306.0895474213703,1716
1308.2047184221678,1698
1310.3193312773528,1718
1312.4333862283888,1728
1314.5468835168163,1716
1316.659823384255,1716
1318.7722060724045,1771
1320.8840318230418,1732
1322.9953008780249,1713
1325.1060134792888,1666
1327.2161698688478,1742
1329.3257702887959,1712
1331.4348149813054,1722
1333.5433041886276,1740
1335.6512381530933,1725
1337.7586171171101,1659
1339.8654413231675,1683
1341.9717110138317,1724
1344.0774264317488,1703
1346.1825878196432,1703
1348.2871954203192,1653
1350.3912494766587,1745
1352.4947502316231,1710
1354.5976979282532,1716
1356.7000928096686,1714
1358.8019351190665,1736
1360.9032250997243,1689
1363.0039629949988,1700
1365.1041490483235,1687
1367.2037835032133,1728
1369.3028666032606,1716
1371.401398592137,1746
1373.4993797135926,1690
1375.5968102114575,1697
1377.6936903296396,1710
1379.7900203121262,1721
1381.8858004029835,1663
1383.9810308463561,1745
1386.075711886469,1708
1388.1698437676241,1757
1390.2634267342032,1753
1392.356461030667,1781
1394.4489469015557,1799
1396.5408845914872,1773
1398.6322743451592,1855
1400.7231164073469,1726
1402.813411022907,1769
1404.903158436773,1816
1406.9923588939578,1790
1409.0810126395531,1844
1411.1691199187303,1790
1413.2566809767386,1832
1415.343696058907,1865
1417.4301654106425,1876
1419.5160892774315,1842
1421.6014679048399,1879
1423.6863015385125,1901
1425.7705904241707,1933
1427.8543348076178,1958
1429.9375349347342,1911
1432.0201910514802,1947
1434.102303403894,1963
1436.1838722380944,2010
1438.2648978002767,2057
1440.3453803367174,2056
1442.4253200937692,2021
1444.5047173178677,2105
1446.5835722555234,2113
1448.6618851533285,2155
1450.739656257952,2228
1452.8168858161434,2154
1454.8935740747306,2197
1456.96972128062,2202
1459.045327680797,2354
1461.120393522327,2354
1463.1949190523528,2396
1465.2689045180973,2410
1467.3423501668608,2427
1469.415256246024,2542
1471.4876230030463,2554
1473.559450685465,2578
1475.6307395408976,2670
1477.7014898170391,2673
1479.771701761665,2700
1481.8413756226287,2800
1483.9105116478618,2717
1485.9791100853772,2896
1488.0471711832643,2840
1490.1146951896926,2879
1492.1816823529098,2865
1494.2481329212433,2993
1496.3140471430984,3030
1498.3794252669609,3066
1500.4442675413939,3102
1502.5085742150404,3229
1504.572345536622,3157
1506.6355817549388,3145
1508.6982831188702,3247
1510.7604498773744,3190
1512.8220822794883,3213
1514.8831805743293,3300
1516.9437450110909,3245
1519.003775839048,3303
1521.0632733075522,3377
1523.1222376660367,3443
1525.1806691640113,3358
1527.2385680510652,3520
1529.2959345768668,3497
1531.3527689911643,3546
1533.4090715437833,3664
1535.4648424846291,3650
1537.5200820636855,3773
1539.5747905310159,3809
1541.6289681367616,3885
1543.6826151311434,3993
1545.7357317644614,3992
1547.7883182870937,3950
1549.8403749494987,4071
1551.8919020022113,4170
1553.9428996958477,4047
1555.9933682811015,4222
1558.0433080087469,4341
1560.0927191296346,4477
1562.1416018946961,4621
1564.1899565549415,4643
1566.2377833614592,4834
1568.2850825654164,4679
1570.3318544180606,4779
1572.3780991707158,4664
1574.423817074788,4465
1576.4690083817595,4356
1578.5136733431923,4211
1580.5578122107272,4022
1582.601425236085,3829
1584.6445126710646,3604
1586.6870747675434,3387
1588.7291117774776,3227
1590.7706239529034,3104
1592.8116115459347,2854
1594.8520748087658,2761
1596.8920139936686,2742
1598.9314293529933,2589
1600.9703211391711,2461
1603.008689604711,2435
1605.0465350022005,2455
1607.0838575843068,2285
1609.1206576037753,2196
1611.1569353134305,2192
1613.1926909661765,2065
1615.2279248149953,2092
1617.2626371129481,2018
1619.2968281131757,2022
1621.3304980688963,1987
1623.3636472334088,1950
1625.39627586009,1950
1627.428384202396,1850
1629.459972513861,1792
1631.4910410480993,1832
1633.5215900588028,1777
1635.551619799744,1841
1637.5811305247717,1772
1639.6101224878166,1762
1641.6385959428862,1752
1643.6665511440683,1745
1645.693988345528,1764
1647.7209078015112,1756
1649.7473097663405,1709
1651.7731944944203,1675
1653.7985622402307,1676
1655.823413258333,1689
1657.847747803366,1672
1659.8715661300494,1648
1661.8948684931793,1639
1663.9176551476316,1705
1665.9399263483624,1672
1667.9616823504057,1746
1669.982923408873,1705
1672.0036497789574,1696
1674.0238617159293,1733
1676.043559475138,1678
1678.0627433120121,1681
1680.081413482059,1678
1682.0995702408654,1711
1684.117213844096,1739
1686.134344547495,1703
1688.1509626068864,1746
1690.1670682781705,1669
1692.182661817329,1649
1694.1977434804217,1705
1696.2123135235875,1709
1698.226372203043,1758
1700.2399197750851,1726
1702.2529564960905,1732
1704.2654826225112,1662
1706.277498410882,1649
1708.2890041178139,1663
1710.2999999999988,1640
1712.3104863142066,1673
1714.3204633172854,1626
1716.329931266163,1665
1718.3388904178469,1667
1720.3473410294214,1598
1722.3552833580516,1691
1724.3627176609807,1639
1726.3696441955308,1636
1728.3760632191033,1603
1730.3819749891782,1632
1732.3873797633146,1651
1734.3922777991502,1618
1736.3966693544012,1579
1738.4005546868639,1589
1740.4039340544127,1650
1742.406807715001,1588
1744.4091759266616,1521
1746.4110389475054,1561
1748.4123970357223,1624
1750.413250449582,1586
1752.4135994474318,1524
1754.4134442876993,1568
1756.4127852288902,1555
1758.4116225295893,1525
1760.4099564484595,1540
1762.407787244244,1481
1764.405115175764,1491
1766.4019405019203,1479
1768.3982634816916,1576
1770.3940843741357,1517
1772.3894034383907,1505
1774.3842209336717,1500
1776.378537119274,1467
1778.372352254571,1495
1780.3656665990156,1490
1782.3584804121397,1511
1784.3507939535534,1514
1786.3426074829463,1472
1788.3339212600863,1453
1790.3247355448211,1433
1792.3150505970766,1499
1794.3048666768573,1510
1796.2941840442477,1485
1798.2830029594106,1512
1800.2713236825884,1448
1802.2591464741004,1485
1804.2464715943465,1455
1806.2332993038058,1489
1808.2196298630352,1480
1810.2054635326708,1511
1812.190800573428,1439
1814.175641246101,1464
1816.1599858115628,1397
1818.1438345307652,1404
1820.127187664738,1492
1822.1100454745924,1475
1824.092408221516,1451
1826.0742761667766,1487
1828.055649571721,1427
1830.0365286977735,1475
1832.0169138064398,1407
1833.9968051593014,1442
1835.9762030180214,1440
1837.9551076443408,1410
1839.9335193000788,1382
1841.9114382471344,1449
1843.888864747485,1336
1845.8657990631878,1408
1847.842241456378,1406
1849.8181921892697,1430
1851.7936515241558,1474
1853.7686197234098,1373
1855.7430970494815,1445
1857.7170837649014,1417
1859.6905801322787,1368
1861.6635864143004,1462
1863.6361028737338,1428
1865.608129773424,1459
1867.5796673762961,1438
1869.5507159453537,1469
1871.521275743678,1499
1873.4913470344313,1484
1875.4609300808534,1453
1877.4300251462632,1482
1879.3986324940588,1465
1881.366752387717,1476
1883.3343850907936,1442
1885.3015308669228,1483
1887.268189979819,1500
1889.2343626932739,1466
1891.2000492711595,1450
1893.1652499774254,1490
1895.1299650761011,1547
1897.0941948312952,1492
1899.0579395071945,1451
1901.0211993680641,1534
1902.98397467825,1461
1904.9462657021745,1456
1906.9080727043415,1494
1908.869395949332,1483
1910.8302357018065,1506
1912.790592226504,1537
1914.7504657882428,1497
1916.7098566519212,1531
1918.6687650825133,1499
1920.6271913450764,1505
1922.5851357047422,1479
1924.5425984267245,1504
1926.499579776314,1462
1928.4560800188833,1444
1930.4120994198802,1409
1932.367638244833,1480
1934.32269675935,1451
1936.2772752291175,1477
1938.231373919899,1518
1940.1849930975404,1433
1942.1381330279637,1431
1944.0907939771696,1467
1946.0429762112412,1480
1947.9946799963363,1464
1949.9459055986945,1421
1951.896653284633,1454
1953.8469233205478,1459
1955.7967159729142,1453
1957.7460315082863,1486
1959.6948701932974,1484
1961.6432322946594,1492
1963.5911180791632,1438
1965.5385278136787,1501
1967.4854617651545,1512
1969.4319202006182,1499
1971.377903387176,1462
1973.3234115920136,1481
1975.268445082395,1450
1977.2130041256642,1472
1979.1570889892423,1489
1981.1006999406304,1400
1983.04383724741,1469
1984.986501177238,1468
1986.928691997853,1444
1988.8704099770712,1461
1990.811655382789,1457
1992.7524284829801,1426
1994.692729545698,1427
1996.6325588390755,1473
1998.5719166313224,1482
2000.5108031907307,1462
2002.4492187856677,1478
2004.387163684583,1399
2006.3246381560011,1426
2008.2616424685298,1421
2010.1981768908527,1486
2012.1342416917332,1455
2014.069837140014,1432
2016.0049635046162,1470
2017.9396210545406,1407
2019.8738100588666,1477
2021.8075307867502,1458
2023.740783507431,1430
2025.6735684902228,1412
2027.6058860045214,1421
2029.5377363198004,1397
2031.4691197056118,1403
2033.4000364315875,1444
2035.3304867674374,1443
2037.260470982952,1429
2039.189989347998,1496
2041.1190421325232,1372
2043.047629606554,1435
2044.9757520401945,1429
2046.9034097036288,1416
2048.8306028671195,1424
2050.7573318010086,1416
2052.683596775716,1461
2054.609398061742,1434
2056.5347359296647,1410
2058.4596106501403,1389
2060.384022493906,1428
2062.3079717317764,1419
2064.231458634646,1468
2066.1544834734873,1399
2068.077046519352,1363
2069.99914804337,1425
2071.9207883167524,1420
2073.8419676107865,1425
2075.7626861968406,1338
2077.6829443463607,1395
2079.6027423308715,1375
2081.522080421977,1417
2083.440958891362,1398
2085.359378010786,1406
2087.2773380520907,1465
2089.194839287196,1438
2091.111881988101,1412
2093.0284664268825,1352
2094.9445928756973,1408
2096.86026160678,1474
2098.775472892446,1422
2100.690227005088,1405
2102.604524217178,1377
2104.5183648012676,1425
2106.431749029985,1429
2108.34467717604,1384
2110.2571495122206,1372
2112.169166311393,1443
2114.080727846503,1443
2115.9918343905747,1411
2117.902486216711,1469
2119.8126835980956,1359
2121.722426807987,1409
2123.6317161197285,1343
2125.5405518067364,1478
2127.448934142509,1387
2129.356863400624,1442
2131.264339854737,1428
2133.1713637785815,1434
2135.077935445972,1429
2136.9840551308002,1395
2138.889723107037,1376
2140.7949396487334,1405
2142.699705030018,1357
2144.6040195250994,1430
2146.507883408264,1430
2148.4112969538774,1393
2150.3142604363848,1445
2152.2167741303097,1473
2154.1188383102535,1467
2156.0204532508997,1450
2157.9216192270064,1442
2159.822336513414,1407
2161.7226053850413,1434
2163.622426116884,1450
2165.5217989840185,1417
2167.4207242616,1414
2169.319202224862,1413
2171.2172331491165,1426
2173.1148173097563,1477
2175.0119549822507,1472
2176.90864644215,1448
2178.8048919650823,1471
2180.7006918267534,1458
2182.596046302952,1409
2184.4909556695407,1410
2186.3854202024645,1455
2188.279440177746,1466
2190.173015871487,1518
2192.066147559868,1448
2193.958835519149,1433
2195.851080025667,1413
2197.7428813558417,1386
2199.6342397861667,1428
2201.5251555932186,1479
2203.415629053651,1519
2205.3056604441986,1405
2207.19525004167,1458
2209.084398122958,1514
2210.9731049650327,1477
2212.861370844941,1437
2214.749196039812,1473
2216.636580826851,1499
2218.523525483344,1567
2220.410030286655,1545
2222.296095514226,1509
2224.1817214435805,1513
2226.066908352319,1506
2227.951656518121,1498
2229.835966218746,1472
2231.71983773203,1453
2233.6032713358913,1476
2235.486267308324,1475
2237.3688259274036,1534
2239.2509474712824,1485
2241.132632218193,1504
2243.013880446447,1488
2244.8946924344323,1496
2246.7750684606203,1446
2248.6550088035574,1481
2250.534513741871,1449
2252.413583554265,1476
2254.292218519526,1503
2256.170418916517,1512
2258.0481850241786,1468
2259.925517121534,1509
2261.8024154876825,1413
2263.678880401803,1467
2265.5549121431536,1463
2267.430510991071,1455
2269.305677224971,1475
2271.180411124348,1460
2273.0547129687766,1464
2274.9285830379076,1463
2276.8020216114737,1448
2278.6750289692845,1448
2280.5476053912294,1434
2282.4197511572766,1499
2284.2914665474727,1439
2286.162751841943,1482
2288.0336073208937,1520
2289.904033264608,1489
2291.774029953448,1469
2293.6435976678554,1501
2295.5127366883517,1481
2297.381447295534,1425
2299.2497297700825,1487
2301.1175843927526,1406
2302.9850114443825,1374
2304.852011205885,1396
2306.7185839582553,1417
2308.5847299825664,1367
2310.4504495599676,1344
2312.3157429716925,1350
2314.1806104990483,1377
2316.0450524234247,1332
2317.9090690262888,1319
2319.772660589186,1312
2321.635827393742,1313
2323.498569721661,1331
2325.3608878547248,1305
2327.2227820747967,1330
2329.0842526638157,1360
2330.945299903803,1360
2332.805924076857,1277
2334.6661254651535,1271
2336.525904350951,1312
2338.3852610165827,1290
2340.244195744464,1326
2342.102708817088,1347
2343.9608005170253,1328
2345.8184711269287,1377
2347.675720929526,1326
2349.532550207628,1337
2351.38895924412,1362
2353.24494832197,1317
2355.100517724223,1341
2356.955667734004,1299
2358.810398634514,1395
2360.664710709037,1320
2362.5186042409337,1376
2364.3720795136437,1339
2366.225136810686,1395
2368.0777764156583,1326
2369.929998612237,1371
2371.7818036841777,1348
2373.633191915315,1317
2375.484163589562,1349
2377.3347189909114,1332
2379.184858403434,1329
2381.03458211128,1362
2382.8838903986775,1349
2384.732783549936,1337
2386.5812618494406,1361
2388.4293255816588,1358
2390.2769750311327,1382
2392.1242104824883,1376
2393.971032220427,1339
2395.8174405297295,1408
2397.6634356952563,1379
2399.509018001947,1407
2401.3541877348193,1340
2403.1989451789705,1381
2405.043290619576,1389
2406.8872243418905,1327
2408.730746631247,1352
2410.5738577730594,1362
2412.4165580528183,1320
2414.258847756095,1379
2416.100727168537,1380
2417.9421965758734,1382
2419.783256263912,1390
2421.623906518538,1358
2423.4641476257157,1436
2425.303979871491,1374
2427.143403541984,1436
2428.9824189233977,1366
2430.821026302012,1453
2432.6592259641866,1406
2434.497018196361,1428
2436.33440328505,1476
2438.171381516851,1401
2440.00795317844,1391
2441.844118556569,1442
2443.6798779380724,1435
2445.5152316098606,1486
2447.3501798589255,1414
2449.1847229723357,1378
2451.0188612372403,1457
2452.8525949408663,1425
2454.6859243705203,1355
2456.518849813587,1414
2458.3513715575314,1410
2460.183489889895,1424
2462.015205098301,1390
2463.8465174704493,1421
2465.67742729412,1367
2467.5079348571717,1405
2469.338040447542,1409
2471.1677443532476,1398
2472.9970468623833,1432
2474.825948263123,1476
2476.6544488437207,1382
2478.482548892508,1458
2480.310248697896,1383
2482.137548548374,1439
2483.9644487325118,1419
2485.790949538956,1434
2487.617051256433,1449
2489.44275417375,1388
2491.26805857979,1458
2493.0929647635157,1408
2494.917473013971,1429
2496.741583620276,1427
2498.5652968716304,1523
2500.3886130573137,1446
2502.2115324666834,1484
2504.0340553891765,1429
2505.856182114308,1374
2507.6779129316733,1498
2509.499248130945,1483
2511.3201880018764,1444
2513.140732834298,1500
2514.9608829181198,1434
2516.780638543331,1467
2518.6,1485
2520.418967578273,1494
2522.237541568376,1443
2524.0557222606144,1463
2525.8735099453706,1474
2527.6909049131086,1472
2529.507907454368,1437
2531.32451785977,1491
2533.140736420014,1485
2534.9565634258774,1532
2536.771999168218,1552
2538.5870439379714,1522
2540.4016980261526,1545
2542.2159617238544,1543
2544.02983532225,1592
2545.8433191125914,1595
2547.656413386209,1646
2549.4691184345115,1623
2551.2814345489874,1605
2553.093362021204,1629
2554.904901142808,1647
2556.716052205523,1697
2558.526815501153,1685
2560.3371913215824,1669
2562.147179958771,1714
2563.956781704761,1641
2565.7659968516705,1719
2567.5748256916986,1732
2569.3832685171224,1750
2571.1913256202984,1795
2572.9989972936614,1763
2574.806283829725,1794
2576.613185521084,1803
2578.4197026604074,1811
2580.2258355404483,1787
2582.031584454035,1843
2583.836949694077,1823
2585.6419315535613,1824
2587.4465303255533,1878
2589.2507463032002,1825
2591.0545797797245,1902
2592.8580310484303,1942
2594.6611004026995,1944
2596.463788135992,1921
2598.266094541849,1940
2600.0680199138874,1893
2601.869564545807,1885
2603.670728731383,1879
2605.4715127644704,1893
2607.2719169390048,1876
2609.071941548998,1939
2610.8715868885433,1983
2612.670853251811,1889
2614.469740933052,1942
2616.268250226594,1864
2618.0663814268455,1943
2619.864134828292,1842
2621.6615107255006,1956
2623.458509413115,1894
2625.2551311858597,1893
2627.0513763385347,1806
2628.8472451660223,1844
2630.6427379632833,1829
2632.4378550253564,1785
2634.232596647359,1775
2636.026963124488,1806
2637.8209547520187,1829
2639.6145718253065,1748
2641.407814639785,1753
2643.200683490966,1769
2644.9931786744414,1754
2646.7853004858807,1758
2648.577049221034,1707
2650.3684251757277,1722
2652.1594286458712,1701
2653.9500599274484,1674
2655.740319316525,1616
2657.5302071092437,1645
2659.3197236018286,1639
2661.10886909058,1645
2662.8976438718782,1629
2664.686048242183,1610
2666.4740824980327,1582
2668.2617469360443,1612
2670.0490418529134,1567
2671.8359675454153,1533
2673.622524310403,1488
2675.408712444811,1525
2677.1945322456495,1548
2678.979984010009,1505
2680.76506803506,1514
2682.5497846180497,1558
2684.334134056306,1485
2686.1181166472343,1423
2687.9017326883213,1481
2689.6849824771293,1446
2691.4678663113013,1456
2693.2503844885596,1500
2695.032537306705,1492
2696.8143250636167,1436
2698.5957480572542,1483
2700.3768065856534,1449
2702.1575009469316,1407
2703.937831439283,1389
2705.717798360982,1440
2707.4974020103837,1353
2709.276642685917,1335
2711.055520686095,1413
2712.834036309506,1412
2714.612189854819,1391
2716.389981620782,1362
2718.1674119062204,1444
2719.944481010041,1374
2721.721189231226,1378
2723.4975368688415,1388
2725.273524222027,1324
2727.0491515900053,1328
2728.824419272075,1342
2730.5993275676146,1410
2732.3738767760838,1298
2734.148067197016,1338
2735.921899130031,1313
2737.6953728748194,1378
2739.468488731156,1342
2741.2412469988926,1306
2743.0136479779617,1331
2744.785691968372,1328
2746.5573792702116,1317
2748.3287101836504,1317
2750.099685008934,1373
2751.870304046388,1342
2753.640567596418,1338
2755.4104759595057,1380
2757.1800294362156,1309
2758.949228327187,1333
2760.7180729331412,1353
2762.486563554877,1359
2764.254700493272,1293
2766.022484049284,1285
2767.789914523947,1338
2769.5569922183786,1315
2771.3237174337705,1300
2773.090090471394,1321
2774.8561116326036,1281
2776.6217812188274,1277
2778.3870995315756,1321
2780.1520668724356,1279
2781.9166835430747,1282
2783.6809498452394,1351
2785.444866080754,1316
2787.2084325515225,1305
2788.971649559527,1297
2790.73451740683,1350
2792.4970363955713,1375
2794.2592068279705,1278
2796.0210290063264,1307
2797.7825032330147,1332
2799.543629810493,1266
2801.304409041296,1246
2803.0648412280366,1313
2804.8249266734088,1362
2806.5846656801846,1387
2808.344058551212,1367
2810.1031055894246,1332
2811.8618070978273,1307
2813.6201633795085,1362
2815.378174737636,1314
2817.1358414754536,1326
2818.893163896285,1312
2820.6501423035334,1352
2822.4067770006814,1303
2824.1630682912883,1306
2825.9190164789957,1272
2827.6746218675207,1323
2829.429884760661,1349
2831.184805462294,1272
2832.9393842763743,1303
2834.693621506936,1318
2836.4475174580916,1287
2838.201072434034,1339
2839.954286739034,1326
2841.707160677441,1351
2843.459694553685,1296
2845.2118886722724,1273
2846.96374333779,1266
2848.7152588549034,1263
2850.4664355283567,1355
2852.217273662973,1304
2853.9677735636546,1286
2855.7179355353833,1300
2857.4677598832186,1313
2859.217246912299,1298
2860.9663969278427,1293
2862.715210235146,1275
2864.4636871395846,1260
2866.211827946614,1275
2867.9596329617652,1278
2869.7071024906536,1292
2871.4542368389684,1296
2873.20103631248,1302
2874.947501217038,1266
2876.6936318585695,1295
2878.4394285430812,1284
2880.1848915766604,1321
2881.9300212654707,1268
2883.6748179157553,1285
2885.4192818338374,1329
2887.1634133261173,1256
2888.907212699077,1292
2890.6506802592744,1296
2892.393816313348,1308
2894.1366211680142,1302
2895.8790951300693,1291
2897.621238506388,1323
2899.363051603925,1321
2901.1045347297118,1265
2902.8456881908596,1325
2904.58651229456,1335
2906.327007348081,1294
2908.067173658772,1297
2909.8070115340597,1293
2911.5465212814497,1359
2913.285703208527,1332
2915.0245576229563,1259
2916.7630848324807,1316
2918.5012851449196,1285
2920.2391588681758,1281
2921.976706310227,1332
2923.7139277791334,1297
2925.4508235830313,1304
2927.187394030137,1334
2928.923639428745,1338
2930.6595600872306,1328
2932.395156314046,1321
2934.1304284177218,1314
2935.8653767068713,1335
2937.6000014901815,1329
2939.3343030764227,1364
2941.068281774442,1388
2942.8019378931644,1326
2944.5352717415976,1318
2946.2682836288236,1316
2948.0009738640065,1329
2949.7333427563885,1387
2951.465390615289,1301
2953.1971177501086,1294
2954.9285244703265,1265
2956.6596110855,1299
2958.3903779052657,1333
2960.1208252393385,1267
2961.8509533975125,1331
2963.5807626896617,1338
2965.3102534257378,1264
2967.0394259157715,1221
2968.768280469873,1273
2970.496817398232,1243
2972.2250370111146,1298
2973.952939618869,1293
2975.6805255319196,1309
2977.4077950607707,1289
2979.134748516006,1340
2980.861386208289,1292
2982.587708448359,1302
2984.313715547037,1264
2986.039407815222,1289
2987.764785563891,1257
2989.489849104102,1261
2991.2145987469908,1295
2992.9390348037705,1280
2994.6631575857346,1363
2996.3869674042576,1338
2998.1104645707887,1325
2999.83364939686,1296
3001.5565221940783,1321
3003.2790832741334,1296
3005.0013329487924,1283
3006.7232715298996,1241
3008.4448993293804,1270
3010.166216659239,1225
3011.887223831558,1240
3013.607921158498,1266
3015.3283089522993,1290
3017.0483875252826,1256
3018.7681571898443,1264
3020.4876182584626,1289
3022.2067710436927,1321
3023.9256158581707,1296
3025.644153014609,1253
3027.362382825801,1295
3029.0803056046193,1227
3030.797921664012,1280
3032.5152313170106,1263
3034.2322348767225,1278
3035.9489326563353,1271
3037.665324969115,1257
3039.3814121284063,1239
3041.097194447633,1278
3042.812672240299,1329
3044.5278458199855,1283
3046.2427155003525,1335
3047.9572815951406,1274
3049.671544418167,1324
3051.38550428333,1267
3053.0991615046073,1319
3054.812516396051,1285
3056.5255692717974,1296
3058.2383204460575,1269
3059.9507702331257,1299
3061.662918947372,1252
3063.3747669032446,1340
3065.0863144152736,1315
3066.7975617980674,1297
3068.508509366309,1305
3070.219157434767,1348
3071.9295063182844,1330
3073.639556331785,1281
3075.3493077902704,1275
3077.058761008821,1293
3078.7679163025964,1257
3080.476773986837,1242
3082.1853343768594,1279
3083.89359778806,1291
3085.6015645359153,1301
3087.3092349359786,1253
3089.016609303884,1306
3090.7236879553434,1381
3092.4304712061476,1299
3094.136959372166,1273
3095.843152769349,1314
3097.5490517137237,1285
3099.2546565213966,1277
3100.959967508554,1293
3102.66498499146,1327
3104.3697092864577,1287
3106.0741407099695,1312
3107.778279578498,1286
3109.482126208622,1294
3111.1856809170004,1308
3112.8889440203716,1325
3114.5919158355528,1355
3116.294596679439,1336
3117.996986869006,1291
3119.6990867213062,1363
3121.4008965534726,1248
3123.102416682717,1336
3124.803647426329,1335
3126.5045891016784,1296
3128.205242026213,1334
3129.90560651746,1381
3131.605682893025,1367
3133.3054714705922,1252
3135.0049725679282,1301
3136.7041865028714,1353
3138.4031135933465,1290
3140.101754157353,1318
3141.800108512971,1269
3143.498176978357,1315
3145.1959598717494,1284
3146.8934575114636,1317
3148.5906702158954,1265
3150.2875983035183,1266
3151.9842420928853,1294
3153.680601902627,1251
3155.376678051456,1242
3157.07247085816,1297
3158.767980641609,1291
3160.463207720748,1291
3162.158152414606,1313
3163.8528150422862,1308
3165.5471959229726,1313
3167.2412953759303,1297
3168.9351137204976,1255
3170.628651276098,1296
3172.3219083622307,1291
3174.014885298474,1311
3175.707582404485,1271
3177.4000000000005,1261
3179.092138404835,1292
3180.7839979388846,1310
3182.47557892212,1304
3184.166881674594,1292
3185.8579065164386,1309
3187.5486537678626,1274
3189.2391237491547,1247
3190.9293167806827,1275
3192.6192331828934,1274
3194.3088732763117,1199
3195.998237381542,1277
3197.687325819268,1336
3199.376138910251,1272
3201.064676975334,1243
3202.7529403354347,1245
3204.4409293115523,1311
3206.1286442247647,1297
3207.816085396229,1233
3209.5032531471825,1255
3211.190147798936,1262
3212.8767696728846,1202
3214.5631190905015,1242
3216.2491963733373,1232
3217.9350018430214,1246
3219.6205358212637,1213
3221.305798629851,1248
3222.990790590651,1211
3224.6755120256103,1262
3226.359963256751,1225
3228.0441446061795,1176
3229.7280563960758,1201
3231.411698948703,1237
3233.0950725863995,1256
3234.778177631587,1257
3236.461014406761,1225
3238.1435832345005,1261
3239.8258844374595,1259
3241.507918338374,1318
3243.1896852600576,1273
3244.8711855254023,1277
3246.552419457381,1236
3248.233387379042,1238
3249.914089613516,1317
3251.59452648401,1296
3253.274698313813,1289
3254.95460542629,1273
3256.6342481448855,1262
3258.313626793125,1273
3259.9927416946084,1233
3261.6715931730196,1247
3263.3501815521176,1214
3265.0285071557437,1263
3266.706570307815,1283
3268.3843713323286,1271
3270.0619105533615,1271
3271.739188295068,1277
3273.4162048816834,1218
3275.0929606375184,1273
3276.769455886966,1297
3278.445690954498,1280
3280.1216661646613,1257
3281.797381842087,1297
3283.4728383114807,1291
3285.1480358976296,1305
3286.8229749253996,1289
3288.4976557197333,1224
3290.172078605655,1241
3291.846243908266,1236
3293.5201519527463,1222
3295.193803064357,1227
3296.8671975684374,1223
3298.5403357904024,1226
3300.21321805575,1253
3301.8858446900567,1258
3303.558216018975,1266
3305.23033236824,1255
3306.9021940636603,1202
3308.57380143113,1273
3310.2451547966184,1286
3311.916254486174,1240
3313.5871008259246,1236
3315.2576941420766,1221
3316.9280347609147,1298
3318.5981230088046,1233
3320.2679592121895,1276
3321.9375436975924,1269
3323.606876791612,1305
3325.27595882093,1247
3326.944790112305,1310
3328.6133709925753,1289
3330.2817017886573,1198
3331.949782827547,1274
3333.617614436319,1275
3335.2851969421245,1280
3336.952530672199,1249
3338.619615953853,1233
3340.286453114475,1259
3341.9530424815357,1258
3343.619384382583,1297
3345.2854791452437,1301
3346.951327097224,1268
3348.6169285663073,1250
3350.2822838803577,1219
3351.947393367319,1257
3353.61225735521,1255
3355.2768761721345,1185
3356.9412501462693,1285
3358.605379605873,1225
3360.2692648792827,1243
3361.9329062949146,1240
3363.596304181263,1236
