CollectionTime,6/26/2024 3:30:41 PM
ExposureUsed,3
CalibratedSpectrum
-962.7078968117929,1050
-959.9714848408522,1131
-957.2358232597828,1114
-954.5009119013725,1101
-951.7667505983302,1038
-949.0333391832855,1123
-946.3006774887896,1110
-943.5687653473143,1107
-940.837602591253,1139
-938.1071890529199,1151
-935.3775245645503,1101
-932.6486089583007,1212
-929.9204420662485,1184
-927.1930237203925,1174
-924.4663537526524,1205
-921.7404319948689,1175
-919.0152582788041,1190
-916.2908324361409,1217
-913.5671542984834,1174
-910.8442236973568,1185
-908.1220404642074,1201
-905.4006044304027,1166
-902.679915427231,1128
-899.959973285902,1188
-897.2407778375464,1191
-894.5223289132158,1194
-891.8046263438832,1165
-889.0876699604426,1140
-886.3714595937089,1145
-883.6559950744183,1123
-880.9412762332282,1114
-878.2273029007168,1146
-875.5140749073835,1168
-872.8015920836489,1158
-870.0898542598545,1129
-867.3788612662631,1096
-864.6686129330585,1137
-861.9591090903457,1131
-859.2503495681506,1079
-856.5423341964203,1163
-853.8350628050229,1143
-851.1285352237478,1141
-848.4227512823054,1118
-845.7177108103272,1179
-843.0134136373656,1197
-840.3098595928943,1172
-837.6070485063082,1151
-834.9049802069229,1143
-832.2036545239757,1195
-829.5030712866244,1229
-826.8032303239481,1146
-824.1041314649472,1158
-821.4057745385428,1154
-818.7081593735775,1103
-816.0112857988148,1169
-813.3151536429393,1176
-810.6197627345566,1127
-807.9251129021936,1108
-805.2312039742981,1122
-802.5380357792392,1187
-799.8456081453069,1088
-797.1539209007124,1151
-794.462973873588,1152
-791.772766891987,1135
-789.083299783884,1153
-786.3945723771743,1220
-783.7065844996748,1214
-781.0193359791231,1180
-778.3328266431781,1203
-775.6470563194197,1198
-772.9620248353489,1173
-770.2777320183878,1166
-767.5941776958798,1175
-764.9113616950891,1153
-762.2292838432011,1198
-759.5479439673222,1228
-756.8673418944801,1172
-754.1874774516235,1154
-751.5083504656222,1158
-748.8299607632671,1196
-746.15230817127,1155
-743.475392516264,1179
-740.7992136248035,1177
-738.1237713233636,1192
-735.4490654383407,1190
-732.7750957960521,1183
-730.1018622227365,1206
-727.4293645445534,1193
-724.7576025875837,1168
-722.0865761778291,1212
-719.4162851412126,1209
-716.7467293035781,1191
-714.0779084906909,1183
-711.409822528237,1250
-708.7424712418238,1298
-706.0758544569796,1226
-703.4099719991541,1219
-700.7448236937178,1272
-698.0804093659622,1280
-695.4167288411002,1255
-692.7537819442656,1226
-690.0915685005134,1255
-687.4300883348199,1274
-684.7693412720819,1222
-682.1093271371178,1268
-679.4500457546669,1227
-676.7914969493897,1236
-674.1336805458676,1305
-671.4765963686034,1276
-668.8202442420206,1303
-666.1646239904642,1321
-663.5097354382001,1299
-660.8555784094151,1323
-658.2021527282176,1283
-655.5494582186366,1291
-652.8974947046223,1355
-650.2462620100463,1329
-647.5957599587009,1355
-644.9459883742998,1332
-642.2969470804776,1353
-639.6486359007902,1335
-637.0010546587141,1325
-634.3542031776476,1340
-631.7080812809096,1286
-629.0626887917401,1320
-626.4180255333008,1268
-623.7740913286734,1344
-621.1308860008619,1294
-618.4884093727904,1309
-615.8466612673046,1295
-613.2056415071715,1270
-610.5653499150785,1300
-607.9257863136347,1350
-605.28695052537,1322
-602.6488423727357,1335
-600.0114616781036,1383
-597.3748082637674,1401
-594.7388819519412,1404
-592.1036825647604,1336
-589.4692099242818,1373
-586.8354638524829,1284
-584.2024441712624,1349
-581.5701507024403,1378
-578.9385832677575,1399
-576.3077416888759,1382
-573.6776257873787,1367
-571.0482353847704,1381
-568.4195703024757,1427
-565.7916303618415,1363
-563.164415384135,1411
-560.5379251905453,1358
-557.9121596021815,1361
-555.2871184400748,1353
-552.6628015251767,1335
-550.0392086783606,1323
-547.4163397204204,1410
-544.794194472071,1433
-542.1727727539491,1445
-539.5520743866118,1390
-536.9320991905377,1448
-534.3128469861261,1480
-531.6943175936979,1458
-529.0765108334947,1498
-526.4594265256793,1567
-523.8430644903358,1784
-521.2274245474689,1966
-518.612506517005,2045
-515.9983102187913,2042
-513.3848354725959,2208
-510.77208209810846,2212
-508.16004991493924,2320
-505.5487387426199,2330
-502.9381484006032,2488
-500.3282787082628,2662
-497.71912948489364,2711
-495.1107005497117,2821
-492.5029917218539,2720
-489.8960028203786,2559
-487.28973366426493,2526
-484.68418407241325,2178
-482.07935386364494,1987
-479.47524285670266,1908
-476.87185087025,1853
-474.2691777228715,1848
-471.66722323307334,1747
-469.0659872192821,1768
-466.4654694998459,1657
-463.86566989303384,1718
-461.26658821703614,1699
-458.66822428996414,1655
-456.07057792985,1669
-453.4736489546475,1617
-450.877437182231,1649
-448.28194243039627,1723
-445.68716451686,1571
-443.09310325926003,1524
-440.49975847515555,1597
-437.9071299820263,1567
-435.31521759727354,1597
-432.72402113821954,1583
-430.13354042210767,1579
-427.5437752661022,1652
-424.95472548728867,1684
-422.36639090267386,1741
-419.7787713291855,1716
-417.1918665836721,1678
-414.60567648290385,1714
-412.0202008435715,1694
-409.4354394822874,1746
-406.8513922155845,1764
-404.26805885991723,1691
-401.685439231661,1684
-399.103533147112,1696
-396.522340422488,1657
-393.9418608739278,1717
-391.3620943174908,1751
-388.7830405691583,1647
-386.2046994448317,1639
-383.6270707603344,1515
-381.05015433141045,1415
-378.473949973725,1326
-375.8984575028645,1179
-373.32367673433623,1102
-370.74960748356875,985
-368.1762495659117,869
-365.60360279663576,862
-363.03166699093265,790
-360.4604419639154,761
-357.8899275306178,669
-355.32012350599507,636
-352.7510297049233,614
-350.1826459421999,581
-347.61497203254316,588
-345.04800779059235,588
-342.4817530309082,545
-339.91620756797226,569
-337.35137121618743,557
-334.7872437898774,557
-332.22382510328725,566
-329.66111497058273,535
-327.09911320585127,551
-324.53781962310075,535
-321.9772340362607,563
-319.4173562591816,623
-316.8581861056348,692
-314.2997233893127,633
-311.7419679238294,609
-309.1849195227194,615
-306.62857799943856,636
-304.0729431673641,597
-301.51801483979375,604
-298.963792829947,612
-296.41027695096386,627
-293.85746701590574,622
-291.3053628377552,612
-288.7539642294155,658
-286.2032710037115,715
-283.65328297338897,666
-281.1039999511146,713
-278.5554217494762,768
-276.007548180983,758
-273.4603790580651,739
-270.9139141930734,710
-268.3681533982807,705
-265.8230964858798,691
-263.27874326798565,732
-260.7350935566336,731
-258.1921471637804,778
-255.6499039013039,823
-253.10836358100266,778
-250.56752601459698,744
-248.02739101372765,806
-245.48795838995704,871
-242.94922795476816,896
-240.41119951956557,804
-237.8738728956746,913
-235.33724789434166,1029
-232.80132432673452,1070
-230.2661020039418,1039
-227.73158073697357,948
-225.19776033676033,871
-222.66464061415422,907
-220.1322213799284,855
-217.60050244477725,848
-215.06948361931552,871
-212.53916471408013,837
-210.00954553952818,886
-207.48062590603843,988
-204.9524056239104,991
-202.4248845033651,902
-199.8980623545441,920
-197.37193898751036,921
-194.84651421224817,951
-192.32178783866232,1029
-189.79775967657952,1069
-187.27442953574644,987
-184.7517972258321,1049
-182.2298625564256,1080
-179.7086253370378,1104
-177.18808537710026,1178
-174.66824248596583,1343
-172.14909647290835,1319
-169.6306471471229,1187
-167.11289431772548,1148
-164.59583779375328,1262
-162.07947738416453,1309
-159.5638128978386,1283
-157.04884414357605,1340
-154.53457093009854,1448
-152.02099306604828,1370
-149.50811035998936,1347
-146.99592262040665,1411
-144.48442965570587,1490
-141.97363127421409,1456
-139.46352728417958,1442
-136.95411749377126,1631
-134.44540171107985,1753
-131.93737974411636,1606
-129.43005140081357,1768
-126.92341648902493,1778
-124.41747481652521,2111
-121.91222619101006,1833
-119.40767042009657,1799
-116.90380731132257,1688
-114.40063667214702,1774
-111.8981583099503,2082
-109.3963720320337,2193
-106.89527764561933,2079
-104.39487495785067,1987
-101.89516377579241,2141
-99.39614390642998,2024
-96.89781515667039,1926
-94.40017733334128,2553
-91.90323024319173,2438
-89.40697369289148,2286
-86.91140748903172,2135
-84.41653143812482,2229
-81.92234534660395,2332
-79.42884902082358,2714
-76.93604226705907,2898
-74.4439248915071,2656
-71.95249670028534,2778
-69.46175749943245,3053
-66.97170709490854,3011
-64.48234529259423,3347
-61.99367189829195,3446
-59.50568671772464,3358
-57.01838955653636,3457
-54.53178022029283,3537
-52.045858514480074,3764
-49.560624244506016,4431
-47.07607721569923,4291
-44.59221723330904,4239
-42.10904410250669,3932
-39.62655762838392,4938
-37.14475761595372,6296
-34.66364387015028,7466
-32.18321619582866,7060
-29.70347439776515,7928
-27.224418280657005,10727
-24.74604764912317,14862
-22.26836230770266,22230
-19.7913620608565,40958
-17.315046712966478,65039
-14.83941606833514,65039
-12.36446993118659,65039
-9.89020810566592,65039
-7.416630395839093,65039
-4.94373660569363,65039
-2.471526539137585,65039
-6.821210263296962E-13,65039
2.47084320796705,65039
4.941003281093458,65039
7.410480415786196,65039
9.879274808531363,65039
12.347386655893956,65039
14.814816154518212,65039
17.28156350112681,65039
19.74762889252179,65039
22.21301252558385,65039
24.67771459727237,65039
27.141735304626195,65039
29.605074844762612,38225
32.06773341487792,14636
34.52971121224755,10683
36.99100843422559,11133
39.45162527824516,13274
41.91156194181792,14635
44.370818622535126,17454
46.82939551806646,17971
49.287292826160524,19653
51.74451074464503,18687
54.201049471426245,11685
56.65690920448981,6383
59.112090141899785,4625
61.56659248179983,4118
64.02041642241159,4193
66.4735621620365,4137
68.92602989905402,3262
71.37781983192338,2869
73.82893215918205,3974
76.27936707944684,3866
78.72912479141326,3930
81.17820549385567,3700
83.62660938562783,3517
86.07433666566146,3773
88.5213875329681,4179
90.96776218663751,3570
93.41346082583925,3745
95.85848364982041,3347
98.30283085790859,2332
100.7465026495089,2643
103.18949922410604,3327
105.63182078126385,2754
108.07346752062438,2721
110.51443964190923,3004
112.95473734491827,2508
115.39436082953114,2313
117.83331029570547,2246
120.27158594347827,2790
122.7091879729652,2250
125.1461165843615,2281
127.58237197794062,2133
130.01795435405518,1647
132.4528639131364,1473
134.88710085569494,1883
137.32066538231982,2065
139.75355769367923,2094
142.1857779905207,1925
144.61732647366978,1733
147.04820334403132,1685
149.47840880258934,1806
151.90794305040674,1830
154.33680628862487,1962
156.76499871846443,2078
159.19252054122433,2357
161.61937195828352,2373
164.04555317109896,2345
166.47106438120693,2658
168.89590579022217,3176
171.320077599839,3214
173.7435800118302,3267
176.16641322804742,3184
178.58857745042144,3526
181.01007288096173,3652
183.43089972175687,3670
185.85105817497413,3636
188.27054844285988,3791
190.6893707277394,3802
193.10752523201643,3658
195.5250121581745,3804
197.9418317087751,3896
200.3579840864594,3816
202.7734694939469,3763
205.18828813403627,3806
207.6024402096051,3691
210.01592592360964,3735
212.42874547908548,3754
214.84089907914665,3633
217.2523869269868,3731
219.66320922587727,3744
222.0733661791695,3803
224.48285799029293,3729
226.8916848627572,3826
229.29984700014882,3943
231.7073446061355,3742
234.11417788446204,3862
236.520347038953,3795
238.92585227351185,3978
241.33069379212054,4051
243.73487179884035,3993
246.1383864978112,4128
248.541238093252,3990
250.9434267894609,4065
253.34495279081432,3955
255.74581630176783,3852
258.1460175268563,3750
260.54555667069314,3906
262.9444339379703,3864
265.3426495334594,3918
267.7402036620107,3858
270.1370965285529,3769
272.53332833809407,3866
274.9288992957214,3648
277.32380960660055,3613
279.718059475976,3696
282.1116491091717,3762
284.5045787115897,3938
286.89684848871195,3871
289.2884586460981,3860
291.67940938938807,3749
294.0697009242996,3820
296.4593334566299,3740
298.84830719225477,3675
301.23662233712923,3646
303.6242790972866,3686
306.01127767884,3643
308.39761828798066,3646
310.78330113097934,3574
313.16832641418534,3536
315.5526943440269,3420
317.9364051270112,3579
320.3194589697242,3492
322.70185607883093,3470
325.0835966610754,3477
327.4646809232805,3524
329.8451090723478,3357
332.2248813152577,3426
334.6039978590701,3330
336.9824589109231,3347
339.36026467803447,3362
341.7374153677,3284
344.113911187295,3271
346.48975234427337,3220
348.8649390461686,3122
351.2394715005918,3198
353.61334991523415,3247
355.9865744978655,3232
358.35914545633375,3207
360.73106299856715,3244
363.10232733257146,3284
365.47293866643247,3091
367.84289720831396,3154
370.2122031664593,3199
372.5808567491905,3220
374.9488581649083,3135
377.31620762209275,3132
379.6829053293021,3106
382.0489514951745,3106
384.4143463284262,3145
386.7790900378528,3148
389.14318283232853,3077
391.50662492080653,3005
393.86941651231916,3040
396.23155781597745,3108
398.5930490409713,3177
400.9538903965696,3130
403.3140820921202,2977
405.6736243370498,2944
408.03251734086336,3080
410.3907613131465,2984
412.74835646356166,3080
415.10530300185144,2994
417.4616011378372,3073
419.81725108141893,3111
422.1722530425758,3075
424.5266072313656,3019
426.880313857925,2966
429.2333731324701,3091
431.58578526529516,2971
433.9375504667738,2934
436.2886689473588,3009
438.63914091758113,3028
440.9889665880513,2979
443.33814616945835,2967
445.68667987257015,2988
448.03456790823395,3101
450.3818104873759,3050
452.72840782100013,2913
455.07436012019105,2982
457.41966759611057,2981
459.7643304600007,3035
462.10834892318155,3024
464.4517231970525,2989
466.79445349309174,2985
469.1365400228566,2945
471.4779829979826,3020
473.81878263018564,3134
476.15893913125876,3063
478.4984527130747,3108
480.8373235875855,3203
483.17555196682144,3180
485.5131380628919,3285
487.8500820879857,3436
490.1863842543697,3638
492.52204477439034,3879
494.8570638604725,4111
497.1914417251204,4349
499.52517858091653,4559
501.85827464052306,4670
504.19073011668036,4790
506.5225452222086,4667
508.85372017000566,4595
511.18425517304956,4449
513.514150444396,4527
515.8434061971808,5166
518.1720226446176,5763
520.4999999999999,6138
522.8273384766991,6721
525.1540382881666,6953
527.480099647932,6647
529.8055227696037,5792
532.1303078668694,4301
534.454455153496,3449
536.777964843328,3191
539.1008371502907,3014
541.4230722883866,2892
543.744670471698,2905
546.0656319143858,2910
548.3859568306899,2811
550.7056454349294,2917
553.0246979415016,2855
555.3431145648834,2790
557.6608955196306,2826
559.978041020377,2760
562.2945512818363,2773
564.6104265188006,2809
566.9256669461412,2752
569.2402727788082,2744
571.5542442318302,2734
573.8675815203156,2818
576.1802848594508,2737
578.4923544645015,2780
580.8037905508126,2816
583.114593333807,2743
585.4247630289875,2846
587.7342998519354,2740
590.0432040183106,2758
592.3514757438526,2806
594.6591152443794,2803
596.9661227357875,2779
599.2724984340531,2791
601.578242555231,2791
603.8833553154542,2868
606.1878369309362,2827
608.4916876179676,2967
610.7949075929192,2884
613.0974970722403,2878
615.3994562724587,2727
617.7007854101818,2818
620.0014847020951,2831
622.3015543649641,2771
624.6009946156324,2735
626.8998056710224,2803
629.1979877481361,2757
631.4955410640538,2728
633.7924658359349,2854
636.0887622810175,2825
638.3844306166192,2768
640.6794710601358,2847
642.9738838290426,2831
645.2676691408932,2775
647.5608272133207,2830
649.853358264037,2857
652.1452625108324,2885
654.4365401715764,2768
656.7271914642178,2876
659.0172166067838,2867
661.3066158173809,2843
663.5953893141935,2869
665.8835373154867,2886
668.1710600396028,2907
670.4579577049639,2824
672.7442305300709,2844
675.0298787335033,2844
677.3149025339197,2976
679.599302150058,2930
681.8830778007342,2877
684.1662297048437,2839
686.4487580813608,2901
688.7306631493387,2888
691.0119451279091,2959
693.2926042362834,2913
695.5726406937516,2862
697.8520547196814,2865
700.1308465335215,2952
702.4090163547982,2822
704.6865644031171,2874
706.9634908981619,2845
709.2397960596965,2840
711.5154801075631,2820
713.7905432616823,2886
716.0649857420548,2841
718.3388077687592,2813
720.612009561953,2840
722.8845913418733,2835
725.1565533288352,2846
727.427895743234,2817
729.6986188055427,2905
731.9687227363137,2914
734.238207756178,2969
736.5070740858458,2931
738.7753219461066,2843
741.0429515578281,2888
743.3099631419569,2929
745.5763569195191,2861
747.8421331116193,2928
750.1072919394409,2882
752.3718336242467,2875
754.6357583873777,2899
756.8990664502545,2928
759.1617580343765,2856
761.423833361321,2907
763.6852926527457,2809
765.9461361303862,2901
768.206364016058,2902
770.4659765316536,2937
772.7249738991469,2867
774.9833563405886,2920
777.2411240781092,2897
779.4982773339183,2952
781.7548163303044,2958
784.010741289634,2990
786.2660524343538,3032
788.5207499869881,2932
790.7748341701416,2899
793.0283052064964,2957
795.2811633188143,2933
797.5334087299362,3031
799.7850416627813,2972
802.0360623403484,2933
804.2864709857143,2960
806.5362678220353,2902
808.7854530725468,3051
811.0340269605625,2923
813.2819897094754,2858
815.5293415427581,2972
817.77608268396,2976
820.0222133567116,2938
822.2677337847211,2939
824.5126441917765,2990
826.7569448017433,2971
829.0006358385675,2891
831.2437175262731,2873
833.4861900889629,2932
835.7280537508192,2861
837.9693087361026,2839
840.2099552691533,2913
842.4499935743896,2914
844.689423876309,2975
846.9282463994886,2920
849.1664613685833,3022
851.4040690083276,2801
853.6410695435349,2915
855.877463199097,2940
858.1132501999847,2870
860.3484307712487,2907
862.5830051380175,2961
864.8169735254988,2981
867.0503361589791,3012
869.2830932638243,2909
871.5152450654786,3027
873.7467917894654,2983
875.9777336613873,3007
878.2080709069252,3017
880.4378037518389,3110
882.666932421968,3011
884.8954571432301,3000
887.1233781416219,3078
889.3506956432192,2976
891.5774098741766,2994
893.803521060728,3020
896.0290294291852,2972
898.2539352059397,2984
900.4782386174619,3098
902.7019398903011,3039
904.925039251085,3069
907.147536926521,3054
909.3694331433943,2914
911.59072812857,2945
913.8114221089921,2920
916.0315153116827,2873
918.2510079637437,3005
920.4699002923547,2933
922.6881925247761,2968
924.905884888345,2947
927.1229776104793,2932
929.3394709186747,2897
931.555365040506,2894
933.7706602036275,2965
935.9853566357709,2931
938.1994545647489,2935
940.4129542184515,2956
942.6258558248488,3000
944.8381596119883,2985
947.0498658079974,2930
949.2609746410825,2929
951.4714863395287,2916
953.6814011316998,2854
955.8907192460387,2936
958.0994409110671,2889
960.3075663553858,2892
962.5150958076741,2868
964.7220294966913,2828
966.928367651274,2887
969.1341105003388,2899
971.3392582728806,2987
973.5438111979742,2874
975.747769504772,2791
977.9511334225061,2869
980.153903180487,2938
982.3560790081052,2816
984.5576611348289,2810
986.7586497902058,2833
988.9590452038618,2811
991.158847605503,2803
993.3580572249133,2768
995.5566742919558,2707
997.7546990365728,2729
999.952131688785,2645
1002.1489724786926,2610
1004.3452216364743,2655
1006.5408793923874,2604
1008.7359459767691,2691
1010.9304216200343,2575
1013.1243065526781,2520
1015.3176010052733,2563
1017.510305208472,2553
1019.7024193930064,2648
1021.8939437896848,2560
1024.0848786293977,2550
1026.2752241431122,2482
1028.4649805618747,2572
1030.6541481168115,2561
1032.842727039127,2490
1035.0307175601051,2535
1037.2181199111074,2563
1039.4049343235752,2590
1041.591161029029,2498
1043.7768002590683,2545
1045.9618522453698,2576
1048.1463172196918,2564
1050.3301954138697,2489
1052.513487059818,2580
1054.69619238953,2476
1056.8783116350783,2534
1059.0598450286152,2479
1061.2407928023704,2581
1063.4211551886528,2559
1065.6009324198508,2441
1067.780124728432,2510
1069.9587323469414,2520
1072.1367555080046,2504
1074.314194444325,2571
1076.4910493886855,2573
1078.667320573947,2507
1080.843008233051,2510
1083.0181125990161,2471
1085.1926339049414,2432
1087.3665723840027,2497
1089.5399282694575,2522
1091.7127017946405,2397
1093.8848931929647,2430
1096.0565026979243,2477
1098.2275305430899,2419
1100.3979769621128,2428
1102.567842188722,2412
1104.737126456726,2459
1106.9058300000124,2449
1109.0739530525475,2389
1111.2414958483764,2441
1113.4084586216231,2350
1115.5748416064907,2442
1117.7406450372605,2382
1119.9058691482942,2341
1122.0705141740304,2439
1124.2345803489884,2430
1126.3980679077658,2428
1128.5609770850388,2399
1130.7233081155623,2384
1132.8850612341707,2434
1135.0462366757774,2360
1137.2068346753745,2446
1139.3668554680326,2386
1141.526299288901,2355
1143.68516637321,2430
1145.8434569562655,2356
1148.001171273455,2377
1150.158309560244,2400
1152.3148720521767,2400
1154.470858984876,2435
1156.626270594044,2447
1158.7811071154629,2435
1160.9353687849912,2416
1163.089055838569,2571
1165.242168512213,2407
1167.3947070420209,2399
1169.5466716641677,2407
1171.6980626149075,2447
1173.8488801305748,2410
1175.9991244475814,2412
1178.1487958024186,2392
1180.2978944316555,2379
1182.4464205719428,2390
1184.5943744600072,2387
1186.7417563326567,2330
1188.8885664267755,2324
1191.0348049793297,2375
1193.1804722273619,2474
1195.325568407995,2399
1197.4700937584303,2400
1199.614048515948,2331
1201.7574329179074,2361
1203.900247201746,2397
1206.042491604982,2326
1208.1841663652099,2385
1210.3252717201053,2446
1212.465807907422,2392
1214.6057751649923,2327
1216.7451737307279,2375
1218.8840038426192,2402
1221.0222657387353,2356
1223.1599596572241,2497
1225.2970858363137,2476
1227.4336445143094,2353
1229.5696359295966,2440
1231.705060320639,2414
1233.8399179259786,2450
1235.9742089842384,2479
1238.107933734118,2369
1240.2410924143974,2531
1242.373685263935,2431
1244.5057125216676,2446
1246.6371744266116,2459
1248.7680712178621,2366
1250.898403134593,2440
1253.028170416058,2425
1255.1573733015875,2438
1257.2860120305932,2409
1259.4140868425648,2417
1261.54159797707,2484
1263.6685456737569,2566
1265.7949301723515,2402
1267.9207517126597,2410
1270.046010534565,2457
1272.1707068780306,2432
1274.2948409830983,2464
1276.4184130898889,2469
1278.541423438603,2421
1280.6638722695184,2419
1282.785759822993,2428
1284.9070863394636,2437
1287.0278520594447,2519
1289.1480572235314,2463
1291.2677020723963,2511
1293.3867868467923,2567
1295.5053117875495,2572
1297.623277135579,2534
1299.740683131868,2531
1301.8575300174857,2606
1303.973818033578,2473
1306.0895474213703,2544
1308.2047184221678,2561
1310.3193312773528,2605
1312.4333862283888,2536
1314.5468835168163,2595
1316.659823384255,2572
1318.7722060724045,2605
1320.8840318230418,2608
1322.9953008780249,2616
1325.1060134792888,2656
1327.2161698688478,2619
1329.3257702887959,2530
1331.4348149813054,2588
1333.5433041886276,2669
1335.6512381530933,2483
1337.7586171171101,2533
1339.8654413231675,2482
1341.9717110138317,2528
1344.0774264317488,2530
1346.1825878196432,2573
1348.2871954203192,2547
1350.3912494766587,2527
1352.4947502316231,2410
1354.5976979282532,2497
1356.7000928096686,2488
1358.8019351190665,2524
1360.9032250997243,2508
1363.0039629949988,2523
1365.1041490483235,2546
1367.2037835032133,2497
1369.3028666032606,2524
1371.401398592137,2552
1373.4993797135926,2507
1375.5968102114575,2478
1377.6936903296396,2529
1379.7900203121262,2561
1381.8858004029835,2565
1383.9810308463561,2582
1386.075711886469,2527
1388.1698437676241,2585
1390.2634267342032,2576
1392.356461030667,2672
1394.4489469015557,2534
1396.5408845914872,2525
1398.6322743451592,2594
1400.7231164073469,2501
1402.813411022907,2475
1404.903158436773,2563
1406.9923588939578,2572
1409.0810126395531,2518
1411.1691199187303,2548
1413.2566809767386,2556
1415.343696058907,2586
1417.4301654106425,2606
1419.5160892774315,2603
1421.6014679048399,2484
1423.6863015385125,2577
1425.7705904241707,2608
1427.8543348076178,2520
1429.9375349347342,2555
1432.0201910514802,2544
1434.102303403894,2488
1436.1838722380944,2540
1438.2648978002767,2565
1440.3453803367174,2574
1442.4253200937692,2677
1444.5047173178677,2648
1446.5835722555234,2622
1448.6618851533285,2685
1450.739656257952,2678
1452.8168858161434,2730
1454.8935740747306,2770
1456.96972128062,2649
1459.045327680797,2697
1461.120393522327,2695
1463.1949190523528,2732
1465.2689045180973,2770
1467.3423501668608,2772
1469.415256246024,2851
1471.4876230030463,2840
1473.559450685465,2972
1475.6307395408976,2883
1477.7014898170391,2973
1479.771701761665,2938
1481.8413756226287,2854
1483.9105116478618,2962
1485.9791100853772,2937
1488.0471711832643,2988
1490.1146951896926,3041
1492.1816823529098,3035
1494.2481329212433,3030
1496.3140471430984,3073
1498.3794252669609,3085
1500.4442675413939,3024
1502.5085742150404,3181
1504.572345536622,3107
1506.6355817549388,3189
1508.6982831188702,3197
1510.7604498773744,3236
1512.8220822794883,3246
1514.8831805743293,3309
1516.9437450110909,3301
1519.003775839048,3420
1521.0632733075522,3406
1523.1222376660367,3356
1525.1806691640113,3449
1527.2385680510652,3538
1529.2959345768668,3620
1531.3527689911643,3711
1533.4090715437833,3704
1535.4648424846291,3744
1537.5200820636855,3806
1539.5747905310159,3847
1541.6289681367616,3846
1543.6826151311434,3908
1545.7357317644614,3922
1547.7883182870937,3968
1549.8403749494987,4027
1551.8919020022113,4102
1553.9428996958477,4211
1555.9933682811015,4163
1558.0433080087469,4358
1560.0927191296346,4296
1562.1416018946961,4377
1564.1899565549415,4322
1566.2377833614592,4414
1568.2850825654164,4406
1570.3318544180606,4336
1572.3780991707158,4194
1574.423817074788,4163
1576.4690083817595,4123
1578.5136733431923,3851
1580.5578122107272,3839
1582.601425236085,3760
1584.6445126710646,3586
1586.6870747675434,3420
1588.7291117774776,3284
1590.7706239529034,3322
1592.8116115459347,3173
1594.8520748087658,3106
1596.8920139936686,3107
1598.9314293529933,3056
1600.9703211391711,2986
1603.008689604711,2896
1605.0465350022005,2866
1607.0838575843068,2765
1609.1206576037753,2697
1611.1569353134305,2731
1613.1926909661765,2688
1615.2279248149953,2770
1617.2626371129481,2694
1619.2968281131757,2622
1621.3304980688963,2598
1623.3636472334088,2592
1625.39627586009,2580
1627.428384202396,2511
1629.459972513861,2681
1631.4910410480993,2581
1633.5215900588028,2550
1635.551619799744,2682
1637.5811305247717,2571
1639.6101224878166,2579
1641.6385959428862,2662
1643.6665511440683,2560
1645.693988345528,2487
1647.7209078015112,2573
1649.7473097663405,2548
1651.7731944944203,2499
1653.7985622402307,2537
1655.823413258333,2558
1657.847747803366,2426
1659.8715661300494,2580
1661.8948684931793,2613
1663.9176551476316,2525
1665.9399263483624,2523
1667.9616823504057,2456
1669.982923408873,2511
1672.0036497789574,2468
1674.0238617159293,2436
1676.043559475138,2473
1678.0627433120121,2522
1680.081413482059,2470
1682.0995702408654,2448
1684.117213844096,2541
1686.134344547495,2483
1688.1509626068864,2534
1690.1670682781705,2489
1692.182661817329,2510
1694.1977434804217,2440
1696.2123135235875,2477
1698.226372203043,2523
1700.2399197750851,2470
1702.2529564960905,2484
1704.2654826225112,2533
1706.277498410882,2452
1708.2890041178139,2548
1710.2999999999988,2553
1712.3104863142066,2528
1714.3204633172854,2493
1716.329931266163,2493
1718.3388904178469,2530
1720.3473410294214,2465
1722.3552833580516,2435
1724.3627176609807,2449
1726.3696441955308,2504
1728.3760632191033,2472
1730.3819749891782,2453
1732.3873797633146,2495
1734.3922777991502,2507
1736.3966693544012,2443
1738.4005546868639,2509
1740.4039340544127,2509
1742.406807715001,2472
1744.4091759266616,2503
1746.4110389475054,2430
1748.4123970357223,2445
1750.413250449582,2450
1752.4135994474318,2438
1754.4134442876993,2475
1756.4127852288902,2448
1758.4116225295893,2512
1760.4099564484595,2395
1762.407787244244,2486
1764.405115175764,2433
1766.4019405019203,2354
1768.3982634816916,2469
1770.3940843741357,2414
1772.3894034383907,2443
1774.3842209336717,2412
1776.378537119274,2396
1778.372352254571,2497
1780.3656665990156,2451
1782.3584804121397,2496
1784.3507939535534,2386
1786.3426074829463,2439
1788.3339212600863,2491
1790.3247355448211,2369
1792.3150505970766,2463
1794.3048666768573,2421
1796.2941840442477,2485
1798.2830029594106,2487
1800.2713236825884,2510
1802.2591464741004,2441
1804.2464715943465,2423
1806.2332993038058,2434
1808.2196298630352,2515
1810.2054635326708,2438
1812.190800573428,2383
1814.175641246101,2531
1816.1599858115628,2436
1818.1438345307652,2465
1820.127187664738,2439
1822.1100454745924,2407
1824.092408221516,2415
1826.0742761667766,2431
1828.055649571721,2441
1830.0365286977735,2403
1832.0169138064398,2324
1833.9968051593014,2466
1835.9762030180214,2449
1837.9551076443408,2429
1839.9335193000788,2364
1841.9114382471344,2440
1843.888864747485,2494
1845.8657990631878,2421
1847.842241456378,2375
1849.8181921892697,2454
1851.7936515241558,2397
1853.7686197234098,2296
1855.7430970494815,2462
1857.7170837649014,2432
1859.6905801322787,2403
1861.6635864143004,2437
1863.6361028737338,2444
1865.608129773424,2367
1867.5796673762961,2395
1869.5507159453537,2364
1871.521275743678,2422
1873.4913470344313,2486
1875.4609300808534,2467
1877.4300251462632,2411
1879.3986324940588,2478
1881.366752387717,2494
1883.3343850907936,2449
1885.3015308669228,2394
1887.268189979819,2474
1889.2343626932739,2403
1891.2000492711595,2456
1893.1652499774254,2484
1895.1299650761011,2384
1897.0941948312952,2425
1899.0579395071945,2434
1901.0211993680641,2517
1902.98397467825,2414
1904.9462657021745,2376
1906.9080727043415,2447
1908.869395949332,2426
1910.8302357018065,2528
1912.790592226504,2386
1914.7504657882428,2416
1916.7098566519212,2572
1918.6687650825133,2431
1920.6271913450764,2495
1922.5851357047422,2437
1924.5425984267245,2480
1926.499579776314,2510
1928.4560800188833,2459
1930.4120994198802,2529
1932.367638244833,2434
1934.32269675935,2425
1936.2772752291175,2492
1938.231373919899,2488
1940.1849930975404,2401
1942.1381330279637,2461
1944.0907939771696,2508
1946.0429762112412,2523
1947.9946799963363,2542
1949.9459055986945,2516
1951.896653284633,2496
1953.8469233205478,2503
1955.7967159729142,2447
1957.7460315082863,2501
1959.6948701932974,2484
1961.6432322946594,2555
1963.5911180791632,2447
1965.5385278136787,2448
1967.4854617651545,2509
1969.4319202006182,2468
1971.377903387176,2380
1973.3234115920136,2509
1975.268445082395,2549
1977.2130041256642,2455
1979.1570889892423,2473
1981.1006999406304,2427
1983.04383724741,2496
1984.986501177238,2487
1986.928691997853,2477
1988.8704099770712,2464
1990.811655382789,2446
1992.7524284829801,2438
1994.692729545698,2370
1996.6325588390755,2476
1998.5719166313224,2468
2000.5108031907307,2552
2002.4492187856677,2470
2004.387163684583,2281
2006.3246381560011,2437
2008.2616424685298,2459
2010.1981768908527,2478
2012.1342416917332,2395
2014.069837140014,2527
2016.0049635046162,2519
2017.9396210545406,2484
2019.8738100588666,2454
2021.8075307867502,2436
2023.740783507431,2378
2025.6735684902228,2408
2027.6058860045214,2453
2029.5377363198004,2494
2031.4691197056118,2529
2033.4000364315875,2452
2035.3304867674374,2410
2037.260470982952,2404
2039.189989347998,2469
2041.1190421325232,2446
2043.047629606554,2523
2044.9757520401945,2322
2046.9034097036288,2495
2048.8306028671195,2479
2050.7573318010086,2386
2052.683596775716,2481
2054.609398061742,2446
2056.5347359296647,2512
2058.4596106501403,2497
2060.384022493906,2520
2062.3079717317764,2512
2064.231458634646,2465
2066.1544834734873,2487
2068.077046519352,2460
2069.99914804337,2478
2071.9207883167524,2417
2073.8419676107865,2495
2075.7626861968406,2466
2077.6829443463607,2484
2079.6027423308715,2505
2081.522080421977,2504
2083.440958891362,2444
2085.359378010786,2435
2087.2773380520907,2391
2089.194839287196,2556
2091.111881988101,2491
2093.0284664268825,2496
2094.9445928756973,2499
2096.86026160678,2474
2098.775472892446,2487
2100.690227005088,2493
2102.604524217178,2464
2104.5183648012676,2444
2106.431749029985,2493
2108.34467717604,2484
2110.2571495122206,2508
2112.169166311393,2475
2114.080727846503,2456
2115.9918343905747,2437
2117.902486216711,2466
2119.8126835980956,2484
2121.722426807987,2461
2123.6317161197285,2489
2125.5405518067364,2459
2127.448934142509,2480
2129.356863400624,2608
2131.264339854737,2519
2133.1713637785815,2439
2135.077935445972,2585
2136.9840551308002,2403
2138.889723107037,2471
2140.7949396487334,2450
2142.699705030018,2461
2144.6040195250994,2464
2146.507883408264,2495
2148.4112969538774,2529
2150.3142604363848,2438
2152.2167741303097,2486
2154.1188383102535,2513
2156.0204532508997,2399
2157.9216192270064,2432
2159.822336513414,2540
2161.7226053850413,2536
2163.622426116884,2470
2165.5217989840185,2495
2167.4207242616,2511
2169.319202224862,2521
2171.2172331491165,2428
2173.1148173097563,2487
2175.0119549822507,2430
2176.90864644215,2482
2178.8048919650823,2537
2180.7006918267534,2476
2182.596046302952,2483
2184.4909556695407,2485
2186.3854202024645,2475
2188.279440177746,2490
2190.173015871487,2479
2192.066147559868,2480
2193.958835519149,2406
2195.851080025667,2435
2197.7428813558417,2446
2199.6342397861667,2468
2201.5251555932186,2468
2203.415629053651,2478
2205.3056604441986,2491
2207.19525004167,2481
2209.084398122958,2520
2210.9731049650327,2499
2212.861370844941,2462
2214.749196039812,2561
2216.636580826851,2430
2218.523525483344,2483
2220.410030286655,2529
2222.296095514226,2475
2224.1817214435805,2445
2226.066908352319,2535
2227.951656518121,2507
2229.835966218746,2483
2231.71983773203,2478
2233.6032713358913,2532
2235.486267308324,2474
2237.3688259274036,2507
2239.2509474712824,2470
2241.132632218193,2552
2243.013880446447,2458
2244.8946924344323,2509
2246.7750684606203,2456
2248.6550088035574,2442
2250.534513741871,2515
2252.413583554265,2385
2254.292218519526,2441
2256.170418916517,2411
2258.0481850241786,2486
2259.925517121534,2495
2261.8024154876825,2489
2263.678880401803,2492
2265.5549121431536,2414
2267.430510991071,2471
2269.305677224971,2487
2271.180411124348,2510
2273.0547129687766,2484
2274.9285830379076,2521
2276.8020216114737,2458
2278.6750289692845,2489
2280.5476053912294,2466
2282.4197511572766,2489
2284.2914665474727,2484
2286.162751841943,2468
2288.0336073208937,2466
2289.904033264608,2499
2291.774029953448,2499
2293.6435976678554,2468
2295.5127366883517,2528
2297.381447295534,2421
2299.2497297700825,2544
2301.1175843927526,2527
2302.9850114443825,2526
2304.852011205885,2498
2306.7185839582553,2479
2308.5847299825664,2481
2310.4504495599676,2483
2312.3157429716925,2529
2314.1806104990483,2597
2316.0450524234247,2542
2317.9090690262888,2581
2319.772660589186,2550
2321.635827393742,2597
2323.498569721661,2561
2325.3608878547248,2639
2327.2227820747967,2549
2329.0842526638157,2600
2330.945299903803,2619
2332.805924076857,2558
2334.6661254651535,2556
2336.525904350951,2557
2338.3852610165827,2527
2340.244195744464,2488
2342.102708817088,2544
2343.9608005170253,2568
2345.8184711269287,2552
2347.675720929526,2611
2349.532550207628,2545
2351.38895924412,2534
2353.24494832197,2546
2355.100517724223,2506
2356.955667734004,2518
2358.810398634514,2481
2360.664710709037,2575
2362.5186042409337,2502
2364.3720795136437,2525
2366.225136810686,2566
2368.0777764156583,2557
2369.929998612237,2488
2371.7818036841777,2616
2373.633191915315,2611
2375.484163589562,2611
2377.3347189909114,2621
2379.184858403434,2562
2381.03458211128,2595
2382.8838903986775,2506
2384.732783549936,2521
2386.5812618494406,2632
2388.4293255816588,2525
2390.2769750311327,2642
2392.1242104824883,2595
2393.971032220427,2568
2395.8174405297295,2592
2397.6634356952563,2557
2399.509018001947,2600
2401.3541877348193,2552
2403.1989451789705,2627
2405.043290619576,2511
2406.8872243418905,2533
2408.730746631247,2608
2410.5738577730594,2610
2412.4165580528183,2631
2414.258847756095,2615
2416.100727168537,2628
2417.9421965758734,2577
2419.783256263912,2649
2421.623906518538,2695
2423.4641476257157,2589
2425.303979871491,2584
2427.143403541984,2619
2428.9824189233977,2570
2430.821026302012,2560
2432.6592259641866,2634
2434.497018196361,2652
2436.33440328505,2642
2438.171381516851,2638
2440.00795317844,2648
2441.844118556569,2719
2443.6798779380724,2627
2445.5152316098606,2572
2447.3501798589255,2654
2449.1847229723357,2673
2451.0188612372403,2598
2452.8525949408663,2631
2454.6859243705203,2698
2456.518849813587,2538
2458.3513715575314,2602
2460.183489889895,2551
2462.015205098301,2646
2463.8465174704493,2521
2465.67742729412,2631
2467.5079348571717,2594
2469.338040447542,2566
2471.1677443532476,2583
2472.9970468623833,2678
2474.825948263123,2712
2476.6544488437207,2617
2478.482548892508,2682
2480.310248697896,2658
2482.137548548374,2658
2483.9644487325118,2541
2485.790949538956,2719
2487.617051256433,2560
2489.44275417375,2610
2491.26805857979,2588
2493.0929647635157,2549
2494.917473013971,2593
2496.741583620276,2641
2498.5652968716304,2626
2500.3886130573137,2640
2502.2115324666834,2538
2504.0340553891765,2607
2505.856182114308,2603
2507.6779129316733,2526
2509.499248130945,2659
2511.3201880018764,2574
2513.140732834298,2618
2514.9608829181198,2641
2516.780638543331,2676
2518.6,2685
2520.418967578273,2558
2522.237541568376,2709
2524.0557222606144,2632
2525.8735099453706,2597
2527.6909049131086,2583
2529.507907454368,2608
2531.32451785977,2715
2533.140736420014,2584
2534.9565634258774,2644
2536.771999168218,2704
2538.5870439379714,2662
2540.4016980261526,2649
2542.2159617238544,2707
2544.02983532225,2747
2545.8433191125914,2773
2547.656413386209,2679
2549.4691184345115,2686
2551.2814345489874,2689
2553.093362021204,2673
2554.904901142808,2728
2556.716052205523,2768
2558.526815501153,2650
2560.3371913215824,2732
2562.147179958771,2811
2563.956781704761,2803
2565.7659968516705,2738
2567.5748256916986,2681
2569.3832685171224,2754
2571.1913256202984,2769
2572.9989972936614,2755
2574.806283829725,2796
2576.613185521084,2709
2578.4197026604074,2753
2580.2258355404483,2718
2582.031584454035,2766
2583.836949694077,2743
2585.6419315535613,2826
2587.4465303255533,2816
2589.2507463032002,2864
2591.0545797797245,2792
2592.8580310484303,2831
2594.6611004026995,2793
2596.463788135992,2753
2598.266094541849,2836
2600.0680199138874,2755
2601.869564545807,2818
2603.670728731383,2868
2605.4715127644704,2779
2607.2719169390048,2813
2609.071941548998,2744
2610.8715868885433,2854
2612.670853251811,2904
2614.469740933052,2885
2616.268250226594,2893
2618.0663814268455,2919
2619.864134828292,2900
2621.6615107255006,2817
2623.458509413115,2811
2625.2551311858597,2912
2627.0513763385347,2898
2628.8472451660223,2898
2630.6427379632833,2826
2632.4378550253564,2842
2634.232596647359,2787
2636.026963124488,2819
2637.8209547520187,2794
2639.6145718253065,2792
2641.407814639785,2872
2643.200683490966,2779
2644.9931786744414,2837
2646.7853004858807,2826
2648.577049221034,2826
2650.3684251757277,2727
2652.1594286458712,2758
2653.9500599274484,2756
2655.740319316525,2737
2657.5302071092437,2669
2659.3197236018286,2741
2661.10886909058,2759
2662.8976438718782,2696
2664.686048242183,2693
2666.4740824980327,2716
2668.2617469360443,2662
2670.0490418529134,2750
2671.8359675454153,2774
2673.622524310403,2641
2675.408712444811,2677
2677.1945322456495,2655
2678.979984010009,2619
2680.76506803506,2664
2682.5497846180497,2619
2684.334134056306,2636
2686.1181166472343,2633
2687.9017326883213,2645
2689.6849824771293,2604
2691.4678663113013,2696
2693.2503844885596,2652
2695.032537306705,2753
2696.8143250636167,2673
2698.5957480572542,2640
2700.3768065856534,2559
2702.1575009469316,2603
2703.937831439283,2654
2705.717798360982,2656
2707.4974020103837,2598
2709.276642685917,2642
2711.055520686095,2628
2712.834036309506,2646
2714.612189854819,2683
2716.389981620782,2708
2718.1674119062204,2638
2719.944481010041,2555
2721.721189231226,2539
2723.4975368688415,2602
2725.273524222027,2617
2727.0491515900053,2634
2728.824419272075,2568
2730.5993275676146,2557
2732.3738767760838,2580
2734.148067197016,2601
2735.921899130031,2595
2737.6953728748194,2528
2739.468488731156,2530
2741.2412469988926,2575
2743.0136479779617,2604
2744.785691968372,2611
2746.5573792702116,2593
2748.3287101836504,2510
2750.099685008934,2581
2751.870304046388,2622
2753.640567596418,2550
2755.4104759595057,2585
2757.1800294362156,2531
2758.949228327187,2594
2760.7180729331412,2553
2762.486563554877,2533
2764.254700493272,2508
2766.022484049284,2528
2767.789914523947,2551
2769.5569922183786,2563
2771.3237174337705,2547
2773.090090471394,2581
2774.8561116326036,2661
2776.6217812188274,2599
2778.3870995315756,2589
2780.1520668724356,2572
2781.9166835430747,2623
2783.6809498452394,2517
2785.444866080754,2623
2787.2084325515225,2605
2788.971649559527,2655
2790.73451740683,2631
2792.4970363955713,2496
2794.2592068279705,2584
2796.0210290063264,2566
2797.7825032330147,2585
2799.543629810493,2638
2801.304409041296,2627
2803.0648412280366,2608
2804.8249266734088,2571
2806.5846656801846,2591
2808.344058551212,2550
2810.1031055894246,2627
2811.8618070978273,2562
2813.6201633795085,2624
2815.378174737636,2656
2817.1358414754536,2663
2818.893163896285,2607
2820.6501423035334,2538
2822.4067770006814,2565
2824.1630682912883,2585
2825.9190164789957,2568
2827.6746218675207,2574
2829.429884760661,2657
2831.184805462294,2629
2832.9393842763743,2588
2834.693621506936,2547
2836.4475174580916,2538
2838.201072434034,2604
2839.954286739034,2626
2841.707160677441,2609
2843.459694553685,2659
2845.2118886722724,2615
2846.96374333779,2577
2848.7152588549034,2637
2850.4664355283567,2653
2852.217273662973,2630
2853.9677735636546,2613
2855.7179355353833,2609
2857.4677598832186,2578
2859.217246912299,2627
2860.9663969278427,2658
2862.715210235146,2742
2864.4636871395846,2663
2866.211827946614,2611
2867.9596329617652,2631
2869.7071024906536,2656
2871.4542368389684,2525
2873.20103631248,2498
2874.947501217038,2552
2876.6936318585695,2648
2878.4394285430812,2590
2880.1848915766604,2659
2881.9300212654707,2603
2883.6748179157553,2610
2885.4192818338374,2606
2887.1634133261173,2591
2888.907212699077,2577
2890.6506802592744,2618
2892.393816313348,2645
2894.1366211680142,2612
2895.8790951300693,2559
2897.621238506388,2525
2899.363051603925,2582
2901.1045347297118,2604
2902.8456881908596,2573
2904.58651229456,2527
2906.327007348081,2641
2908.067173658772,2589
2909.8070115340597,2628
2911.5465212814497,2555
2913.285703208527,2514
2915.0245576229563,2606
2916.7630848324807,2602
2918.5012851449196,2582
2920.2391588681758,2621
2921.976706310227,2574
2923.7139277791334,2543
2925.4508235830313,2587
2927.187394030137,2607
2928.923639428745,2605
2930.6595600872306,2593
2932.395156314046,2578
2934.1304284177218,2634
2935.8653767068713,2650
2937.6000014901815,2626
2939.3343030764227,2628
2941.068281774442,2613
2942.8019378931644,2666
2944.5352717415976,2621
2946.2682836288236,2602
2948.0009738640065,2628
2949.7333427563885,2664
2951.465390615289,2522
2953.1971177501086,2652
2954.9285244703265,2571
2956.6596110855,2565
2958.3903779052657,2552
2960.1208252393385,2587
2961.8509533975125,2536
2963.5807626896617,2570
2965.3102534257378,2556
2967.0394259157715,2625
2968.768280469873,2600
2970.496817398232,2506
2972.2250370111146,2576
2973.952939618869,2649
2975.6805255319196,2615
2977.4077950607707,2575
2979.134748516006,2637
2980.861386208289,2603
2982.587708448359,2635
2984.313715547037,2592
2986.039407815222,2627
2987.764785563891,2660
2989.489849104102,2612
2991.2145987469908,2567
2992.9390348037705,2594
2994.6631575857346,2579
2996.3869674042576,2691
2998.1104645707887,2616
2999.83364939686,2586
3001.5565221940783,2575
3003.2790832741334,2653
3005.0013329487924,2593
3006.7232715298996,2563
3008.4448993293804,2602
3010.166216659239,2560
3011.887223831558,2512
3013.607921158498,2656
3015.3283089522993,2583
3017.0483875252826,2542
3018.7681571898443,2540
3020.4876182584626,2576
3022.2067710436927,2578
3023.9256158581707,2631
3025.644153014609,2549
3027.362382825801,2682
3029.0803056046193,2646
3030.797921664012,2600
3032.5152313170106,2547
3034.2322348767225,2609
3035.9489326563353,2588
3037.665324969115,2556
3039.3814121284063,2504
3041.097194447633,2576
3042.812672240299,2595
3044.5278458199855,2640
3046.2427155003525,2652
3047.9572815951406,2652
3049.671544418167,2672
3051.38550428333,2633
3053.0991615046073,2651
3054.812516396051,2599
3056.5255692717974,2556
3058.2383204460575,2598
3059.9507702331257,2603
3061.662918947372,2658
3063.3747669032446,2667
3065.0863144152736,2681
3066.7975617980674,2613
3068.508509366309,2625
3070.219157434767,2530
3071.9295063182844,2636
3073.639556331785,2592
3075.3493077902704,2533
3077.058761008821,2580
3078.7679163025964,2614
3080.476773986837,2594
3082.1853343768594,2518
3083.89359778806,2606
3085.6015645359153,2652
3087.3092349359786,2540
3089.016609303884,2585
3090.7236879553434,2590
3092.4304712061476,2612
3094.136959372166,2607
3095.843152769349,2565
3097.5490517137237,2633
3099.2546565213966,2618
3100.959967508554,2579
3102.66498499146,2581
3104.3697092864577,2671
3106.0741407099695,2613
3107.778279578498,2634
3109.482126208622,2713
3111.1856809170004,2612
3112.8889440203716,2577
3114.5919158355528,2635
3116.294596679439,2612
3117.996986869006,2628
3119.6990867213062,2641
3121.4008965534726,2714
3123.102416682717,2694
3124.803647426329,2606
3126.5045891016784,2683
3128.205242026213,2632
3129.90560651746,2633
3131.605682893025,2687
3133.3054714705922,2647
3135.0049725679282,2741
3136.7041865028714,2709
3138.4031135933465,2605
3140.101754157353,2691
3141.800108512971,2642
3143.498176978357,2630
3145.1959598717494,2609
3146.8934575114636,2643
3148.5906702158954,2638
3150.2875983035183,2647
3151.9842420928853,2576
3153.680601902627,2653
3155.376678051456,2594
3157.07247085816,2572
3158.767980641609,2624
3160.463207720748,2554
3162.158152414606,2551
3163.8528150422862,2715
3165.5471959229726,2615
3167.2412953759303,2631
3168.9351137204976,2623
3170.628651276098,2613
3172.3219083622307,2697
3174.014885298474,2720
3175.707582404485,2629
3177.4000000000005,2576
3179.092138404835,2620
3180.7839979388846,2697
3182.47557892212,2651
3184.166881674594,2607
3185.8579065164386,2709
3187.5486537678626,2629
3189.2391237491547,2664
3190.9293167806827,2701
3192.6192331828934,2674
3194.3088732763117,2670
3195.998237381542,2610
3197.687325819268,2676
3199.376138910251,2634
3201.064676975334,2616
3202.7529403354347,2588
3204.4409293115523,2598
3206.1286442247647,2653
3207.816085396229,2710
3209.5032531471825,2598
3211.190147798936,2688
3212.8767696728846,2626
3214.5631190905015,2601
3216.2491963733373,2537
3217.9350018430214,2528
3219.6205358212637,2484
3221.305798629851,2628
3222.990790590651,2542
3224.6755120256103,2615
3226.359963256751,2547
3228.0441446061795,2549
3229.7280563960758,2618
3231.411698948703,2596
3233.0950725863995,2617
3234.778177631587,2603
3236.461014406761,2678
3238.1435832345005,2641
3239.8258844374595,2576
3241.507918338374,2635
3243.1896852600576,2601
3244.8711855254023,2642
3246.552419457381,2737
3248.233387379042,2653
3249.914089613516,2699
3251.59452648401,2659
3253.274698313813,2561
3254.95460542629,2584
3256.6342481448855,2516
3258.313626793125,2535
3259.9927416946084,2646
3261.6715931730196,2548
3263.3501815521176,2542
3265.0285071557437,2524
3266.706570307815,2555
3268.3843713323286,2527
3270.0619105533615,2622
3271.739188295068,2595
3273.4162048816834,2578
3275.0929606375184,2599
3276.769455886966,2567
3278.445690954498,2565
3280.1216661646613,2621
3281.797381842087,2577
3283.4728383114807,2678
3285.1480358976296,2624
3286.8229749253996,2667
3288.4976557197333,2646
3290.172078605655,2553
3291.846243908266,2557
3293.5201519527463,2555
3295.193803064357,2668
3296.8671975684374,2612
3298.5403357904024,2625
3300.21321805575,2505
3301.8858446900567,2599
3303.558216018975,2578
3305.23033236824,2629
3306.9021940636603,2572
3308.57380143113,2610
3310.2451547966184,2588
3311.916254486174,2569
3313.5871008259246,2438
3315.2576941420766,2596
3316.9280347609147,2638
3318.5981230088046,2616
3320.2679592121895,2604
3321.9375436975924,2595
3323.606876791612,2677
3325.27595882093,2579
3326.944790112305,2539
3328.6133709925753,2640
3330.2817017886573,2558
3331.949782827547,2591
3333.617614436319,2589
3335.2851969421245,2559
3336.952530672199,2587
3338.619615953853,2663
3340.286453114475,2634
3341.9530424815357,2623
3343.619384382583,2667
3345.2854791452437,2608
3346.951327097224,2679
3348.6169285663073,2683
3350.2822838803577,2612
3351.947393367319,2555
3353.61225735521,2579
3355.2768761721345,2654
3356.9412501462693,2681
3358.605379605873,2713
3360.2692648792827,2592
3361.9329062949146,2626
3363.596304181263,2676
