CollectionTime,6/26/2024 3:31:24 PM
ExposureUsed,3
CalibratedSpectrum
-962.7078968117929,943
-959.9714848408522,1024
-957.2358232597828,1015
-954.5009119013725,1038
-951.7667505983302,1022
-949.0333391832855,1027
-946.3006774887896,1063
-943.5687653473143,1055
-940.837602591253,1103
-938.1071890529199,1034
-935.3775245645503,1034
-932.6486089583007,1068
-929.9204420662485,1059
-927.1930237203925,1094
-924.4663537526524,1081
-921.7404319948689,1067
-919.0152582788041,1046
-916.2908324361409,1051
-913.5671542984834,1119
-910.8442236973568,1115
-908.1220404642074,1105
-905.4006044304027,1157
-902.679915427231,1064
-899.959973285902,1119
-897.2407778375464,1103
-894.5223289132158,1046
-891.8046263438832,999
-889.0876699604426,1008
-886.3714595937089,1099
-883.6559950744183,1067
-880.9412762332282,1050
-878.2273029007168,1038
-875.5140749073835,1056
-872.8015920836489,1061
-870.0898542598545,1025
-867.3788612662631,1042
-864.6686129330585,1039
-861.9591090903457,1014
-859.2503495681506,1055
-856.5423341964203,1017
-853.8350628050229,1057
-851.1285352237478,1087
-848.4227512823054,1054
-845.7177108103272,1048
-843.0134136373656,1058
-840.3098595928943,1060
-837.6070485063082,1046
-834.9049802069229,1075
-832.2036545239757,1059
-829.5030712866244,1067
-826.8032303239481,1047
-824.1041314649472,1078
-821.4057745385428,1026
-818.7081593735775,1032
-816.0112857988148,1016
-813.3151536429393,1072
-810.6197627345566,1036
-807.9251129021936,1035
-805.2312039742981,1033
-802.5380357792392,1011
-799.8456081453069,1009
-797.1539209007124,1079
-794.462973873588,1073
-791.772766891987,1086
-789.083299783884,1091
-786.3945723771743,1052
-783.7065844996748,1098
-781.0193359791231,1084
-778.3328266431781,1127
-775.6470563194197,1118
-772.9620248353489,1119
-770.2777320183878,1037
-767.5941776958798,1081
-764.9113616950891,1077
-762.2292838432011,1062
-759.5479439673222,1061
-756.8673418944801,1118
-754.1874774516235,1094
-751.5083504656222,1077
-748.8299607632671,1107
-746.15230817127,1099
-743.475392516264,1119
-740.7992136248035,1089
-738.1237713233636,1126
-735.4490654383407,1075
-732.7750957960521,1153
-730.1018622227365,1169
-727.4293645445534,1105
-724.7576025875837,1109
-722.0865761778291,1109
-719.4162851412126,1106
-716.7467293035781,1066
-714.0779084906909,1110
-711.409822528237,1247
-708.7424712418238,1183
-706.0758544569796,1143
-703.4099719991541,1154
-700.7448236937178,1225
-698.0804093659622,1228
-695.4167288411002,1108
-692.7537819442656,1150
-690.0915685005134,1171
-687.4300883348199,1160
-684.7693412720819,1071
-682.1093271371178,1090
-679.4500457546669,1064
-676.7914969493897,1146
-674.1336805458676,1127
-671.4765963686034,1210
-668.8202442420206,1121
-666.1646239904642,1195
-663.5097354382001,1191
-660.8555784094151,1175
-658.2021527282176,1188
-655.5494582186366,1194
-652.8974947046223,1162
-650.2462620100463,1189
-647.5957599587009,1188
-644.9459883742998,1207
-642.2969470804776,1219
-639.6486359007902,1260
-637.0010546587141,1265
-634.3542031776476,1245
-631.7080812809096,1260
-629.0626887917401,1194
-626.4180255333008,1207
-623.7740913286734,1178
-621.1308860008619,1184
-618.4884093727904,1173
-615.8466612673046,1184
-613.2056415071715,1170
-610.5653499150785,1203
-607.9257863136347,1194
-605.28695052537,1233
-602.6488423727357,1219
-600.0114616781036,1205
-597.3748082637674,1278
-594.7388819519412,1260
-592.1036825647604,1245
-589.4692099242818,1254
-586.8354638524829,1153
-584.2024441712624,1241
-581.5701507024403,1207
-578.9385832677575,1237
-576.3077416888759,1242
-573.6776257873787,1223
-571.0482353847704,1237
-568.4195703024757,1249
-565.7916303618415,1250
-563.164415384135,1331
-560.5379251905453,1243
-557.9121596021815,1278
-555.2871184400748,1291
-552.6628015251767,1271
-550.0392086783606,1287
-547.4163397204204,1257
-544.794194472071,1228
-542.1727727539491,1280
-539.5520743866118,1310
-536.9320991905377,1312
-534.3128469861261,1397
-531.6943175936979,1353
-529.0765108334947,1364
-526.4594265256793,1389
-523.8430644903358,1546
-521.2274245474689,1780
-518.612506517005,1884
-515.9983102187913,1930
-513.3848354725959,2004
-510.77208209810846,2060
-508.16004991493924,2069
-505.5487387426199,2244
-502.9381484006032,2400
-500.3282787082628,2558
-497.71912948489364,2570
-495.1107005497117,2595
-492.5029917218539,2549
-489.8960028203786,2490
-487.28973366426493,2233
-484.68418407241325,2001
-482.07935386364494,1797
-479.47524285670266,1698
-476.87185087025,1648
-474.2691777228715,1621
-471.66722323307334,1611
-469.0659872192821,1634
-466.4654694998459,1539
-463.86566989303384,1538
-461.26658821703614,1545
-458.66822428996414,1496
-456.07057792985,1542
-453.4736489546475,1548
-450.877437182231,1518
-448.28194243039627,1524
-445.68716451686,1463
-443.09310325926003,1420
-440.49975847515555,1414
-437.9071299820263,1464
-435.31521759727354,1471
-432.72402113821954,1489
-430.13354042210767,1535
-427.5437752661022,1488
-424.95472548728867,1534
-422.36639090267386,1538
-419.7787713291855,1532
-417.1918665836721,1539
-414.60567648290385,1536
-412.0202008435715,1647
-409.4354394822874,1640
-406.8513922155845,1595
-404.26805885991723,1620
-401.685439231661,1647
-399.103533147112,1563
-396.522340422488,1573
-393.9418608739278,1554
-391.3620943174908,1534
-388.7830405691583,1601
-386.2046994448317,1533
-383.6270707603344,1443
-381.05015433141045,1294
-378.473949973725,1205
-375.8984575028645,1147
-373.32367673433623,1110
-370.74960748356875,982
-368.1762495659117,946
-365.60360279663576,850
-363.03166699093265,748
-360.4604419639154,731
-357.8899275306178,683
-355.32012350599507,646
-352.7510297049233,574
-350.1826459421999,596
-347.61497203254316,656
-345.04800779059235,625
-342.4817530309082,566
-339.91620756797226,573
-337.35137121618743,565
-334.7872437898774,545
-332.22382510328725,620
-329.66111497058273,665
-327.09911320585127,702
-324.53781962310075,638
-321.9772340362607,596
-319.4173562591816,621
-316.8581861056348,651
-314.2997233893127,696
-311.7419679238294,702
-309.1849195227194,701
-306.62857799943856,675
-304.0729431673641,568
-301.51801483979375,588
-298.963792829947,614
-296.41027695096386,699
-293.85746701590574,675
-291.3053628377552,716
-288.7539642294155,702
-286.2032710037115,762
-283.65328297338897,784
-281.1039999511146,865
-278.5554217494762,872
-276.007548180983,795
-273.4603790580651,769
-270.9139141930734,778
-268.3681533982807,772
-265.8230964858798,777
-263.27874326798565,726
-260.7350935566336,795
-258.1921471637804,798
-255.6499039013039,836
-253.10836358100266,806
-250.56752601459698,827
-248.02739101372765,804
-245.48795838995704,792
-242.94922795476816,775
-240.41119951956557,745
-237.8738728956746,933
-235.33724789434166,960
-232.80132432673452,1039
-230.2661020039418,1369
-227.73158073697357,1279
-225.19776033676033,939
-222.66464061415422,937
-220.1322213799284,945
-217.60050244477725,938
-215.06948361931552,893
-212.53916471408013,900
-210.00954553952818,952
-207.48062590603843,1069
-204.9524056239104,1077
-202.4248845033651,1063
-199.8980623545441,1117
-197.37193898751036,1002
-194.84651421224817,1036
-192.32178783866232,1047
-189.79775967657952,1106
-187.27442953574644,1115
-184.7517972258321,967
-182.2298625564256,1084
-179.7086253370378,1296
-177.18808537710026,1235
-174.66824248596583,1208
-172.14909647290835,1304
-169.6306471471229,1269
-167.11289431772548,1206
-164.59583779375328,1215
-162.07947738416453,1169
-159.5638128978386,1390
-157.04884414357605,1391
-154.53457093009854,1446
-152.02099306604828,1267
-149.50811035998936,1255
-146.99592262040665,1450
-144.48442965570587,1467
-141.97363127421409,1585
-139.46352728417958,1850
-136.95411749377126,2012
-134.44540171107985,2095
-131.93737974411636,1841
-129.43005140081357,1922
-126.92341648902493,1894
-124.41747481652521,2130
-121.91222619101006,1933
-119.40767042009657,1788
-116.90380731132257,1799
-114.40063667214702,1991
-111.8981583099503,2182
-109.3963720320337,2103
-106.89527764561933,1842
-104.39487495785067,1978
-101.89516377579241,2251
-99.39614390642998,2216
-96.89781515667039,2074
-94.40017733334128,2284
-91.90323024319173,2700
-89.40697369289148,2534
-86.91140748903172,2281
-84.41653143812482,2332
-81.92234534660395,2579
-79.42884902082358,2582
-76.93604226705907,2649
-74.4439248915071,2905
-71.95249670028534,2848
-69.46175749943245,2811
-66.97170709490854,3230
-64.48234529259423,3540
-61.99367189829195,3799
-59.50568671772464,3815
-57.01838955653636,4029
-54.53178022029283,3809
-52.045858514480074,4019
-49.560624244506016,4609
-47.07607721569923,4576
-44.59221723330904,4525
-42.10904410250669,4521
-39.62655762838392,5735
-37.14475761595372,7415
-34.66364387015028,8775
-32.18321619582866,7705
-29.70347439776515,7857
-27.224418280657005,10650
-24.74604764912317,14294
-22.26836230770266,19360
-19.7913620608565,32804
-17.315046712966478,51645
-14.83941606833514,54613
-12.36446993118659,65038
-9.89020810566592,65038
-7.416630395839093,65038
-4.94373660569363,65038
-2.471526539137585,65038
-6.821210263296962E-13,65038
2.47084320796705,65038
4.941003281093458,65038
7.410480415786196,65038
9.879274808531363,65038
12.347386655893956,65038
14.814816154518212,65038
17.28156350112681,65038
19.74762889252179,65038
22.21301252558385,65038
24.67771459727237,65038
27.141735304626195,65038
29.605074844762612,39225
32.06773341487792,14170
34.52971121224755,11279
36.99100843422559,13146
39.45162527824516,14657
41.91156194181792,14044
44.370818622535126,16876
46.82939551806646,18125
49.287292826160524,19897
51.74451074464503,20767
54.201049471426245,13437
56.65690920448981,7908
59.112090141899785,6175
61.56659248179983,5533
64.02041642241159,4698
66.4735621620365,4720
68.92602989905402,3697
71.37781983192338,3639
73.82893215918205,4660
76.27936707944684,4204
78.72912479141326,4164
81.17820549385567,3977
83.62660938562783,4138
86.07433666566146,3955
88.5213875329681,4419
90.96776218663751,3662
93.41346082583925,3718
95.85848364982041,3734
98.30283085790859,2923
100.7465026495089,3342
103.18949922410604,3419
105.63182078126385,2746
108.07346752062438,3366
110.51443964190923,3453
112.95473734491827,2763
115.39436082953114,2292
117.83331029570547,2688
120.27158594347827,2635
122.7091879729652,2211
125.1461165843615,2562
127.58237197794062,2287
130.01795435405518,1704
132.4528639131364,1656
134.88710085569494,1804
137.32066538231982,1821
139.75355769367923,1829
142.1857779905207,2008
144.61732647366978,2033
147.04820334403132,2055
149.47840880258934,1678
151.90794305040674,1997
154.33680628862487,2224
156.76499871846443,2019
159.19252054122433,1996
161.61937195828352,2284
164.04555317109896,2237
166.47106438120693,2643
168.89590579022217,3183
171.320077599839,3150
173.7435800118302,3030
176.16641322804742,3121
178.58857745042144,3180
181.01007288096173,3447
183.43089972175687,3533
185.85105817497413,3532
188.27054844285988,3520
190.6893707277394,3514
193.10752523201643,3506
195.5250121581745,3533
197.9418317087751,3596
200.3579840864594,3528
202.7734694939469,3613
205.18828813403627,3678
207.6024402096051,3531
210.01592592360964,3514
212.42874547908548,3557
214.84089907914665,3588
217.2523869269868,3527
219.66320922587727,3684
222.0733661791695,3580
224.48285799029293,3580
226.8916848627572,3694
229.29984700014882,3708
231.7073446061355,3786
234.11417788446204,3577
236.520347038953,3580
238.92585227351185,3632
241.33069379212054,3788
243.73487179884035,3745
246.1383864978112,3890
248.541238093252,3605
250.9434267894609,3731
253.34495279081432,3865
255.74581630176783,3759
258.1460175268563,3835
260.54555667069314,3856
262.9444339379703,3744
265.3426495334594,3672
267.7402036620107,3704
270.1370965285529,3633
272.53332833809407,3585
274.9288992957214,3473
277.32380960660055,3398
279.718059475976,3451
282.1116491091717,3453
284.5045787115897,3627
286.89684848871195,3558
289.2884586460981,3481
291.67940938938807,3490
294.0697009242996,3423
296.4593334566299,3467
298.84830719225477,3351
301.23662233712923,3404
303.6242790972866,3466
306.01127767884,3417
308.39761828798066,3427
310.78330113097934,3265
313.16832641418534,3263
315.5526943440269,3303
317.9364051270112,3315
320.3194589697242,3173
322.70185607883093,3172
325.0835966610754,3142
327.4646809232805,3161
329.8451090723478,3204
332.2248813152577,3170
334.6039978590701,3095
336.9824589109231,3044
339.36026467803447,3083
341.7374153677,3093
344.113911187295,3013
346.48975234427337,2960
348.8649390461686,2942
351.2394715005918,2918
353.61334991523415,2932
355.9865744978655,2935
358.35914545633375,2971
360.73106299856715,2884
363.10232733257146,2898
365.47293866643247,2844
367.84289720831396,2883
370.2122031664593,2921
372.5808567491905,2860
374.9488581649083,2860
377.31620762209275,2910
379.6829053293021,2923
382.0489514951745,2876
384.4143463284262,2974
386.7790900378528,2851
389.14318283232853,2836
391.50662492080653,2886
393.86941651231916,2813
396.23155781597745,2870
398.5930490409713,2750
400.9538903965696,2810
403.3140820921202,2782
405.6736243370498,2827
408.03251734086336,2783
410.3907613131465,2633
412.74835646356166,2726
415.10530300185144,2743
417.4616011378372,2715
419.81725108141893,2751
422.1722530425758,2817
424.5266072313656,2725
426.880313857925,2765
429.2333731324701,2812
431.58578526529516,2857
433.9375504667738,2743
436.2886689473588,2662
438.63914091758113,2688
440.9889665880513,2642
443.33814616945835,2690
445.68667987257015,2656
448.03456790823395,2686
450.3818104873759,2674
452.72840782100013,2794
455.07436012019105,2712
457.41966759611057,2766
459.7643304600007,2762
462.10834892318155,2761
464.4517231970525,2737
466.79445349309174,2724
469.1365400228566,2852
471.4779829979826,2781
473.81878263018564,2833
476.15893913125876,2724
478.4984527130747,2792
480.8373235875855,2889
483.17555196682144,2872
485.5131380628919,2966
487.8500820879857,3048
490.1863842543697,3315
492.52204477439034,3437
494.8570638604725,3699
497.1914417251204,3929
499.52517858091653,4266
501.85827464052306,4358
504.19073011668036,4443
506.5225452222086,4494
508.85372017000566,4339
511.18425517304956,4186
513.514150444396,4261
515.8434061971808,4803
518.1720226446176,5447
520.4999999999999,5938
522.8273384766991,6087
525.1540382881666,6194
527.480099647932,6143
529.8055227696037,5364
532.1303078668694,4022
534.454455153496,3217
536.777964843328,2863
539.1008371502907,2737
541.4230722883866,2592
543.744670471698,2622
546.0656319143858,2655
548.3859568306899,2564
550.7056454349294,2480
553.0246979415016,2589
555.3431145648834,2463
557.6608955196306,2467
559.978041020377,2531
562.2945512818363,2552
564.6104265188006,2479
566.9256669461412,2455
569.2402727788082,2473
571.5542442318302,2466
573.8675815203156,2546
576.1802848594508,2551
578.4923544645015,2457
580.8037905508126,2519
583.114593333807,2484
585.4247630289875,2485
587.7342998519354,2519
590.0432040183106,2511
592.3514757438526,2473
594.6591152443794,2489
596.9661227357875,2576
599.2724984340531,2477
601.578242555231,2555
603.8833553154542,2473
606.1878369309362,2541
608.4916876179676,2552
610.7949075929192,2448
613.0974970722403,2510
615.3994562724587,2506
617.7007854101818,2583
620.0014847020951,2561
622.3015543649641,2590
624.6009946156324,2527
626.8998056710224,2537
629.1979877481361,2512
631.4955410640538,2522
633.7924658359349,2582
636.0887622810175,2471
638.3844306166192,2561
640.6794710601358,2539
642.9738838290426,2602
645.2676691408932,2625
647.5608272133207,2545
649.853358264037,2547
652.1452625108324,2540
654.4365401715764,2590
656.7271914642178,2525
659.0172166067838,2482
661.3066158173809,2560
663.5953893141935,2560
665.8835373154867,2506
668.1710600396028,2568
670.4579577049639,2645
672.7442305300709,2571
675.0298787335033,2579
677.3149025339197,2604
679.599302150058,2622
681.8830778007342,2658
684.1662297048437,2582
686.4487580813608,2650
688.7306631493387,2654
691.0119451279091,2537
693.2926042362834,2616
695.5726406937516,2640
697.8520547196814,2632
700.1308465335215,2542
702.4090163547982,2569
704.6865644031171,2535
706.9634908981619,2504
709.2397960596965,2653
711.5154801075631,2616
713.7905432616823,2564
716.0649857420548,2538
718.3388077687592,2593
720.612009561953,2586
722.8845913418733,2547
725.1565533288352,2556
727.427895743234,2569
729.6986188055427,2625
731.9687227363137,2580
734.238207756178,2598
736.5070740858458,2562
738.7753219461066,2555
741.0429515578281,2624
743.3099631419569,2599
745.5763569195191,2557
747.8421331116193,2572
750.1072919394409,2590
752.3718336242467,2578
754.6357583873777,2596
756.8990664502545,2540
759.1617580343765,2589
761.423833361321,2624
763.6852926527457,2563
765.9461361303862,2494
768.206364016058,2538
770.4659765316536,2566
772.7249738991469,2627
774.9833563405886,2615
777.2411240781092,2604
779.4982773339183,2616
781.7548163303044,2603
784.010741289634,2572
786.2660524343538,2716
788.5207499869881,2649
790.7748341701416,2578
793.0283052064964,2602
795.2811633188143,2621
797.5334087299362,2683
799.7850416627813,2693
802.0360623403484,2601
804.2864709857143,2605
806.5362678220353,2576
808.7854530725468,2593
811.0340269605625,2608
813.2819897094754,2673
815.5293415427581,2633
817.77608268396,2583
820.0222133567116,2664
822.2677337847211,2569
824.5126441917765,2699
826.7569448017433,2624
829.0006358385675,2579
831.2437175262731,2551
833.4861900889629,2605
835.7280537508192,2715
837.9693087361026,2496
840.2099552691533,2619
842.4499935743896,2611
844.689423876309,2666
846.9282463994886,2539
849.1664613685833,2617
851.4040690083276,2633
853.6410695435349,2573
855.877463199097,2627
858.1132501999847,2599
860.3484307712487,2627
862.5830051380175,2563
864.8169735254988,2623
867.0503361589791,2615
869.2830932638243,2647
871.5152450654786,2618
873.7467917894654,2661
875.9777336613873,2663
878.2080709069252,2649
880.4378037518389,2642
882.666932421968,2673
884.8954571432301,2595
887.1233781416219,2719
889.3506956432192,2632
891.5774098741766,2753
893.803521060728,2675
896.0290294291852,2621
898.2539352059397,2754
900.4782386174619,2671
902.7019398903011,2626
904.925039251085,2732
907.147536926521,2728
909.3694331433943,2719
911.59072812857,2593
913.8114221089921,2518
916.0315153116827,2704
918.2510079637437,2681
920.4699002923547,2651
922.6881925247761,2693
924.905884888345,2656
927.1229776104793,2726
929.3394709186747,2644
931.555365040506,2642
933.7706602036275,2535
935.9853566357709,2639
938.1994545647489,2625
940.4129542184515,2584
942.6258558248488,2611
944.8381596119883,2567
947.0498658079974,2566
949.2609746410825,2661
951.4714863395287,2643
953.6814011316998,2574
955.8907192460387,2666
958.0994409110671,2681
960.3075663553858,2661
962.5150958076741,2611
964.7220294966913,2515
966.928367651274,2617
969.1341105003388,2602
971.3392582728806,2620
973.5438111979742,2496
975.747769504772,2578
977.9511334225061,2518
980.153903180487,2545
982.3560790081052,2562
984.5576611348289,2491
986.7586497902058,2506
988.9590452038618,2511
991.158847605503,2472
993.3580572249133,2459
995.5566742919558,2417
997.7546990365728,2418
999.952131688785,2369
1002.1489724786926,2418
1004.3452216364743,2370
1006.5408793923874,2372
1008.7359459767691,2303
1010.9304216200343,2383
1013.1243065526781,2334
1015.3176010052733,2338
1017.510305208472,2244
1019.7024193930064,2310
1021.8939437896848,2285
1024.0848786293977,2323
1026.2752241431122,2250
1028.4649805618747,2238
1030.6541481168115,2229
1032.842727039127,2234
1035.0307175601051,2231
1037.2181199111074,2203
1039.4049343235752,2160
1041.591161029029,2165
1043.7768002590683,2209
1045.9618522453698,2302
1048.1463172196918,2179
1050.3301954138697,2206
1052.513487059818,2265
1054.69619238953,2288
1056.8783116350783,2124
1059.0598450286152,2214
1061.2407928023704,2248
1063.4211551886528,2243
1065.6009324198508,2263
1067.780124728432,2241
1069.9587323469414,2276
1072.1367555080046,2211
1074.314194444325,2251
1076.4910493886855,2184
1078.667320573947,2297
1080.843008233051,2226
1083.0181125990161,2102
1085.1926339049414,2163
1087.3665723840027,2184
1089.5399282694575,2096
1091.7127017946405,2127
1093.8848931929647,2104
1096.0565026979243,2125
1098.2275305430899,2169
1100.3979769621128,2203
1102.567842188722,2119
1104.737126456726,2072
1106.9058300000124,2122
1109.0739530525475,2078
1111.2414958483764,2091
1113.4084586216231,2091
1115.5748416064907,2067
1117.7406450372605,2122
1119.9058691482942,2088
1122.0705141740304,2183
1124.2345803489884,2106
1126.3980679077658,2170
1128.5609770850388,2172
1130.7233081155623,2130
1132.8850612341707,2069
1135.0462366757774,2052
1137.2068346753745,2051
1139.3668554680326,2071
1141.526299288901,2112
1143.68516637321,2092
1145.8434569562655,2057
1148.001171273455,2052
1150.158309560244,2131
1152.3148720521767,2030
1154.470858984876,2039
1156.626270594044,2042
1158.7811071154629,2112
1160.9353687849912,2107
1163.089055838569,2170
1165.242168512213,2113
1167.3947070420209,2111
1169.5466716641677,2136
1171.6980626149075,2063
1173.8488801305748,2037
1175.9991244475814,2106
1178.1487958024186,2083
1180.2978944316555,2056
1182.4464205719428,2127
1184.5943744600072,2018
1186.7417563326567,1988
1188.8885664267755,2060
1191.0348049793297,2099
1193.1804722273619,2131
1195.325568407995,2112
1197.4700937584303,2133
1199.614048515948,2123
1201.7574329179074,2002
1203.900247201746,1999
1206.042491604982,2065
1208.1841663652099,2119
1210.3252717201053,2078
1212.465807907422,2109
1214.6057751649923,2064
1216.7451737307279,2070
1218.8840038426192,2149
1221.0222657387353,2093
1223.1599596572241,2064
1225.2970858363137,2127
1227.4336445143094,2101
1229.5696359295966,2102
1231.705060320639,2005
1233.8399179259786,2153
1235.9742089842384,2177
1238.107933734118,2133
1240.2410924143974,2139
1242.373685263935,2054
1244.5057125216676,2071
1246.6371744266116,2076
1248.7680712178621,2148
1250.898403134593,2103
1253.028170416058,2087
1255.1573733015875,2089
1257.2860120305932,2104
1259.4140868425648,2035
1261.54159797707,2068
1263.6685456737569,2110
1265.7949301723515,2095
1267.9207517126597,2108
1270.046010534565,2135
1272.1707068780306,2124
1274.2948409830983,2079
1276.4184130898889,2131
1278.541423438603,2142
1280.6638722695184,2175
1282.785759822993,2193
1284.9070863394636,2262
1287.0278520594447,2167
1289.1480572235314,2231
1291.2677020723963,2157
1293.3867868467923,2171
1295.5053117875495,2219
1297.623277135579,2157
1299.740683131868,2206
1301.8575300174857,2249
1303.973818033578,2265
1306.0895474213703,2356
1308.2047184221678,2297
1310.3193312773528,2223
1312.4333862283888,2240
1314.5468835168163,2282
1316.659823384255,2344
1318.7722060724045,2225
1320.8840318230418,2213
1322.9953008780249,2241
1325.1060134792888,2293
1327.2161698688478,2338
1329.3257702887959,2260
1331.4348149813054,2220
1333.5433041886276,2259
1335.6512381530933,2207
1337.7586171171101,2170
1339.8654413231675,2302
1341.9717110138317,2236
1344.0774264317488,2255
1346.1825878196432,2285
1348.2871954203192,2221
1350.3912494766587,2286
1352.4947502316231,2182
1354.5976979282532,2163
1356.7000928096686,2183
1358.8019351190665,2210
1360.9032250997243,2150
1363.0039629949988,2163
1365.1041490483235,2188
1367.2037835032133,2180
1369.3028666032606,2110
1371.401398592137,2178
1373.4993797135926,2152
1375.5968102114575,2098
1377.6936903296396,2200
1379.7900203121262,2234
1381.8858004029835,2169
1383.9810308463561,2212
1386.075711886469,2206
1388.1698437676241,2155
1390.2634267342032,2216
1392.356461030667,2207
1394.4489469015557,2253
1396.5408845914872,2194
1398.6322743451592,2212
1400.7231164073469,2224
1402.813411022907,2263
1404.903158436773,2202
1406.9923588939578,2188
1409.0810126395531,2177
1411.1691199187303,2290
1413.2566809767386,2278
1415.343696058907,2161
1417.4301654106425,2249
1419.5160892774315,2211
1421.6014679048399,2273
1423.6863015385125,2251
1425.7705904241707,2222
1427.8543348076178,2187
1429.9375349347342,2287
1432.0201910514802,2291
1434.102303403894,2236
1436.1838722380944,2258
1438.2648978002767,2166
1440.3453803367174,2270
1442.4253200937692,2375
1444.5047173178677,2262
1446.5835722555234,2271
1448.6618851533285,2307
1450.739656257952,2427
1452.8168858161434,2324
1454.8935740747306,2420
1456.96972128062,2394
1459.045327680797,2436
1461.120393522327,2354
1463.1949190523528,2415
1465.2689045180973,2368
1467.3423501668608,2419
1469.415256246024,2540
1471.4876230030463,2402
1473.559450685465,2467
1475.6307395408976,2576
1477.7014898170391,2547
1479.771701761665,2596
1481.8413756226287,2598
1483.9105116478618,2621
1485.9791100853772,2681
1488.0471711832643,2695
1490.1146951896926,2644
1492.1816823529098,2753
1494.2481329212433,2689
1496.3140471430984,2667
1498.3794252669609,2713
1500.4442675413939,2769
1502.5085742150404,2793
1504.572345536622,2792
1506.6355817549388,2878
1508.6982831188702,2863
1510.7604498773744,2928
1512.8220822794883,3029
1514.8831805743293,2985
1516.9437450110909,2978
1519.003775839048,3041
1521.0632733075522,3050
1523.1222376660367,3068
1525.1806691640113,3170
1527.2385680510652,3181
1529.2959345768668,3280
1531.3527689911643,3252
1533.4090715437833,3310
1535.4648424846291,3298
1537.5200820636855,3406
1539.5747905310159,3439
1541.6289681367616,3519
1543.6826151311434,3555
1545.7357317644614,3704
1547.7883182870937,3718
1549.8403749494987,3771
1551.8919020022113,3760
1553.9428996958477,3796
1555.9933682811015,3902
1558.0433080087469,3875
1560.0927191296346,4003
1562.1416018946961,4074
1564.1899565549415,4141
1566.2377833614592,4241
1568.2850825654164,4082
1570.3318544180606,3994
1572.3780991707158,4091
1574.423817074788,3855
1576.4690083817595,3688
1578.5136733431923,3571
1580.5578122107272,3453
1582.601425236085,3432
1584.6445126710646,3250
1586.6870747675434,3230
1588.7291117774776,3085
1590.7706239529034,3046
1592.8116115459347,2891
1594.8520748087658,2687
1596.8920139936686,2729
1598.9314293529933,2665
1600.9703211391711,2596
1603.008689604711,2516
1605.0465350022005,2556
1607.0838575843068,2476
1609.1206576037753,2516
1611.1569353134305,2489
1613.1926909661765,2398
1615.2279248149953,2347
1617.2626371129481,2287
1619.2968281131757,2295
1621.3304980688963,2209
1623.3636472334088,2300
1625.39627586009,2230
1627.428384202396,2367
1629.459972513861,2263
1631.4910410480993,2239
1633.5215900588028,2234
1635.551619799744,2221
1637.5811305247717,2178
1639.6101224878166,2200
1641.6385959428862,2193
1643.6665511440683,2250
1645.693988345528,2213
1647.7209078015112,2173
1649.7473097663405,2216
1651.7731944944203,2140
1653.7985622402307,2195
1655.823413258333,2146
1657.847747803366,2166
1659.8715661300494,2134
1661.8948684931793,2118
1663.9176551476316,2179
1665.9399263483624,2196
1667.9616823504057,2152
1669.982923408873,2112
1672.0036497789574,2144
1674.0238617159293,2100
1676.043559475138,2073
1678.0627433120121,2106
1680.081413482059,2105
1682.0995702408654,2120
1684.117213844096,2133
1686.134344547495,2085
1688.1509626068864,2105
1690.1670682781705,2094
1692.182661817329,2071
1694.1977434804217,2130
1696.2123135235875,2151
1698.226372203043,2143
1700.2399197750851,2127
1702.2529564960905,2189
1704.2654826225112,2130
1706.277498410882,2161
1708.2890041178139,2140
1710.2999999999988,2146
1712.3104863142066,2185
1714.3204633172854,2096
1716.329931266163,2114
1718.3388904178469,2122
1720.3473410294214,2099
1722.3552833580516,2090
1724.3627176609807,2167
1726.3696441955308,2145
1728.3760632191033,2151
1730.3819749891782,2134
1732.3873797633146,2065
1734.3922777991502,2111
1736.3966693544012,2089
1738.4005546868639,2145
1740.4039340544127,2121
1742.406807715001,2071
1744.4091759266616,2090
1746.4110389475054,2077
1748.4123970357223,2136
1750.413250449582,2054
1752.4135994474318,2088
1754.4134442876993,2081
1756.4127852288902,2133
1758.4116225295893,2045
1760.4099564484595,2086
1762.407787244244,2177
1764.405115175764,2158
1766.4019405019203,2002
1768.3982634816916,2047
1770.3940843741357,2056
1772.3894034383907,1993
1774.3842209336717,1982
1776.378537119274,2070
1778.372352254571,2079
1780.3656665990156,2101
1782.3584804121397,2020
1784.3507939535534,2038
1786.3426074829463,2058
1788.3339212600863,1999
1790.3247355448211,1993
1792.3150505970766,2063
1794.3048666768573,1949
1796.2941840442477,2115
1798.2830029594106,2003
1800.2713236825884,2014
1802.2591464741004,2043
1804.2464715943465,2012
1806.2332993038058,2026
1808.2196298630352,2033
1810.2054635326708,2094
1812.190800573428,2051
1814.175641246101,1979
1816.1599858115628,2064
1818.1438345307652,2049
1820.127187664738,2055
1822.1100454745924,2036
1824.092408221516,2078
1826.0742761667766,2031
1828.055649571721,2047
1830.0365286977735,2083
1832.0169138064398,1976
1833.9968051593014,2083
1835.9762030180214,2024
1837.9551076443408,2019
1839.9335193000788,2059
1841.9114382471344,2093
1843.888864747485,2019
1845.8657990631878,1999
1847.842241456378,2093
1849.8181921892697,2009
1851.7936515241558,1982
1853.7686197234098,2081
1855.7430970494815,2066
1857.7170837649014,2048
1859.6905801322787,2044
1861.6635864143004,2094
1863.6361028737338,2067
1865.608129773424,2076
1867.5796673762961,2100
1869.5507159453537,2090
1871.521275743678,2031
1873.4913470344313,2071
1875.4609300808534,2030
1877.4300251462632,2043
1879.3986324940588,2129
1881.366752387717,2152
1883.3343850907936,2053
1885.3015308669228,2046
1887.268189979819,2061
1889.2343626932739,2060
1891.2000492711595,2098
1893.1652499774254,2065
1895.1299650761011,2112
1897.0941948312952,2093
1899.0579395071945,2143
1901.0211993680641,2137
1902.98397467825,2123
1904.9462657021745,2048
1906.9080727043415,2064
1908.869395949332,2056
1910.8302357018065,2091
1912.790592226504,2046
1914.7504657882428,2007
1916.7098566519212,2038
1918.6687650825133,2075
1920.6271913450764,2012
1922.5851357047422,2000
1924.5425984267245,2104
1926.499579776314,2115
1928.4560800188833,2053
1930.4120994198802,2091
1932.367638244833,2142
1934.32269675935,2026
1936.2772752291175,2085
1938.231373919899,2071
1940.1849930975404,2089
1942.1381330279637,2113
1944.0907939771696,2108
1946.0429762112412,2109
1947.9946799963363,2073
1949.9459055986945,2039
1951.896653284633,2047
1953.8469233205478,2099
1955.7967159729142,2088
1957.7460315082863,2115
1959.6948701932974,2018
1961.6432322946594,2138
1963.5911180791632,2069
1965.5385278136787,2074
1967.4854617651545,2077
1969.4319202006182,2009
1971.377903387176,2062
1973.3234115920136,2079
1975.268445082395,2115
1977.2130041256642,2055
1979.1570889892423,2122
1981.1006999406304,2048
1983.04383724741,2129
1984.986501177238,2065
1986.928691997853,2022
1988.8704099770712,2122
1990.811655382789,2033
1992.7524284829801,2027
1994.692729545698,2048
1996.6325588390755,1983
1998.5719166313224,2118
2000.5108031907307,2061
2002.4492187856677,2080
2004.387163684583,2035
2006.3246381560011,2062
2008.2616424685298,2118
2010.1981768908527,2069
2012.1342416917332,2062
2014.069837140014,2095
2016.0049635046162,2005
2017.9396210545406,2049
2019.8738100588666,2049
2021.8075307867502,2032
2023.740783507431,1986
2025.6735684902228,1968
2027.6058860045214,2024
2029.5377363198004,2116
2031.4691197056118,2085
2033.4000364315875,2071
2035.3304867674374,2040
2037.260470982952,1997
2039.189989347998,2020
2041.1190421325232,2042
2043.047629606554,2039
2044.9757520401945,1994
2046.9034097036288,2030
2048.8306028671195,2016
2050.7573318010086,2025
2052.683596775716,2033
2054.609398061742,2017
2056.5347359296647,2057
2058.4596106501403,2056
2060.384022493906,2097
2062.3079717317764,2036
2064.231458634646,2033
2066.1544834734873,2010
2068.077046519352,2095
2069.99914804337,2054
2071.9207883167524,2023
2073.8419676107865,2083
2075.7626861968406,2044
2077.6829443463607,2123
2079.6027423308715,2032
2081.522080421977,2081
2083.440958891362,1979
2085.359378010786,2042
2087.2773380520907,2018
2089.194839287196,1969
2091.111881988101,2067
2093.0284664268825,1998
2094.9445928756973,2078
2096.86026160678,2047
2098.775472892446,2014
2100.690227005088,1986
2102.604524217178,2058
2104.5183648012676,2050
2106.431749029985,1985
2108.34467717604,2067
2110.2571495122206,2065
2112.169166311393,2043
2114.080727846503,2071
2115.9918343905747,2049
2117.902486216711,2016
2119.8126835980956,1990
2121.722426807987,1996
2123.6317161197285,2051
2125.5405518067364,2023
2127.448934142509,1988
2129.356863400624,2065
2131.264339854737,2055
2133.1713637785815,2098
2135.077935445972,2099
2136.9840551308002,2015
2138.889723107037,2046
2140.7949396487334,2026
2142.699705030018,2056
2144.6040195250994,2074
2146.507883408264,1987
2148.4112969538774,2077
2150.3142604363848,2026
2152.2167741303097,2033
2154.1188383102535,2017
2156.0204532508997,1979
2157.9216192270064,2103
2159.822336513414,2057
2161.7226053850413,2051
2163.622426116884,2142
2165.5217989840185,2095
2167.4207242616,2127
2169.319202224862,2113
2171.2172331491165,2123
2173.1148173097563,2031
2175.0119549822507,2070
2176.90864644215,2046
2178.8048919650823,2127
2180.7006918267534,2035
2182.596046302952,1961
2184.4909556695407,2081
2186.3854202024645,2066
2188.279440177746,2084
2190.173015871487,2047
2192.066147559868,2001
2193.958835519149,2098
2195.851080025667,2047
2197.7428813558417,2050
2199.6342397861667,2051
2201.5251555932186,2060
2203.415629053651,2049
2205.3056604441986,2085
2207.19525004167,1998
2209.084398122958,2121
2210.9731049650327,2099
2212.861370844941,2108
2214.749196039812,2048
2216.636580826851,2133
2218.523525483344,2092
2220.410030286655,2025
2222.296095514226,2001
2224.1817214435805,2103
2226.066908352319,2095
2227.951656518121,2138
2229.835966218746,2113
2231.71983773203,2147
2233.6032713358913,2006
2235.486267308324,2087
2237.3688259274036,2061
2239.2509474712824,2079
2241.132632218193,2159
2243.013880446447,2104
2244.8946924344323,2088
2246.7750684606203,2131
2248.6550088035574,2070
2250.534513741871,2016
2252.413583554265,2092
2254.292218519526,2166
2256.170418916517,2135
2258.0481850241786,2126
2259.925517121534,2088
2261.8024154876825,2086
2263.678880401803,2117
2265.5549121431536,2034
2267.430510991071,2033
2269.305677224971,2147
2271.180411124348,2102
2273.0547129687766,2100
2274.9285830379076,2110
2276.8020216114737,2100
2278.6750289692845,2082
2280.5476053912294,2114
2282.4197511572766,2053
2284.2914665474727,2122
2286.162751841943,2093
2288.0336073208937,2098
2289.904033264608,2022
2291.774029953448,2106
2293.6435976678554,2042
2295.5127366883517,2136
2297.381447295534,2116
2299.2497297700825,2101
2301.1175843927526,2048
2302.9850114443825,2074
2304.852011205885,2090
2306.7185839582553,2119
2308.5847299825664,2050
2310.4504495599676,2127
2312.3157429716925,2110
2314.1806104990483,2046
2316.0450524234247,2062
2317.9090690262888,2098
2319.772660589186,2174
2321.635827393742,2157
2323.498569721661,2150
2325.3608878547248,2084
2327.2227820747967,2134
2329.0842526638157,2106
2330.945299903803,2183
2332.805924076857,2135
2334.6661254651535,2074
2336.525904350951,2123
2338.3852610165827,2128
2340.244195744464,2212
2342.102708817088,2138
2343.9608005170253,2148
2345.8184711269287,2106
2347.675720929526,2127
2349.532550207628,2103
2351.38895924412,2105
2353.24494832197,2097
2355.100517724223,2163
2356.955667734004,2100
2358.810398634514,2110
2360.664710709037,2162
2362.5186042409337,2112
2364.3720795136437,2093
2366.225136810686,2156
2368.0777764156583,2104
2369.929998612237,2106
2371.7818036841777,2187
2373.633191915315,2133
2375.484163589562,2111
2377.3347189909114,2138
2379.184858403434,2143
2381.03458211128,2198
2382.8838903986775,2161
2384.732783549936,2141
2386.5812618494406,2112
2388.4293255816588,2173
2390.2769750311327,2148
2392.1242104824883,2096
2393.971032220427,2063
2395.8174405297295,2143
2397.6634356952563,2186
2399.509018001947,2118
2401.3541877348193,2129
2403.1989451789705,2202
2405.043290619576,2189
2406.8872243418905,2196
2408.730746631247,2141
2410.5738577730594,2150
2412.4165580528183,2185
2414.258847756095,2133
2416.100727168537,2167
2417.9421965758734,2161
2419.783256263912,2124
2421.623906518538,2195
2423.4641476257157,2166
2425.303979871491,2135
2427.143403541984,2175
2428.9824189233977,2223
2430.821026302012,2153
2432.6592259641866,2228
2434.497018196361,2140
2436.33440328505,2133
2438.171381516851,2128
2440.00795317844,2255
2441.844118556569,2170
2443.6798779380724,2191
2445.5152316098606,2120
2447.3501798589255,2194
2449.1847229723357,2219
2451.0188612372403,2161
2452.8525949408663,2066
2454.6859243705203,2165
2456.518849813587,2155
2458.3513715575314,2136
2460.183489889895,2130
2462.015205098301,2176
2463.8465174704493,2121
2465.67742729412,2172
2467.5079348571717,2169
2469.338040447542,2149
2471.1677443532476,2178
2472.9970468623833,2257
2474.825948263123,2168
2476.6544488437207,2169
2478.482548892508,2215
2480.310248697896,2118
2482.137548548374,2114
2483.9644487325118,2075
2485.790949538956,2203
2487.617051256433,2207
2489.44275417375,2131
2491.26805857979,2161
2493.0929647635157,2182
2494.917473013971,2228
2496.741583620276,2205
2498.5652968716304,2135
2500.3886130573137,2197
2502.2115324666834,2183
2504.0340553891765,2127
2505.856182114308,2199
2507.6779129316733,2185
2509.499248130945,2194
2511.3201880018764,2135
2513.140732834298,2214
2514.9608829181198,2209
2516.780638543331,2243
2518.6,2182
2520.418967578273,2192
2522.237541568376,2189
2524.0557222606144,2238
2525.8735099453706,2252
2527.6909049131086,2195
2529.507907454368,2236
2531.32451785977,2168
2533.140736420014,2227
2534.9565634258774,2181
2536.771999168218,2265
2538.5870439379714,2150
2540.4016980261526,2250
2542.2159617238544,2217
2544.02983532225,2218
2545.8433191125914,2330
2547.656413386209,2283
2549.4691184345115,2225
2551.2814345489874,2291
2553.093362021204,2304
2554.904901142808,2204
2556.716052205523,2294
2558.526815501153,2276
2560.3371913215824,2238
2562.147179958771,2259
2563.956781704761,2304
2565.7659968516705,2247
2567.5748256916986,2246
2569.3832685171224,2282
2571.1913256202984,2310
2572.9989972936614,2287
2574.806283829725,2261
2576.613185521084,2294
2578.4197026604074,2313
2580.2258355404483,2359
2582.031584454035,2392
2583.836949694077,2324
2585.6419315535613,2331
2587.4465303255533,2351
2589.2507463032002,2402
2591.0545797797245,2390
2592.8580310484303,2361
2594.6611004026995,2410
2596.463788135992,2370
2598.266094541849,2415
2600.0680199138874,2402
2601.869564545807,2413
2603.670728731383,2347
2605.4715127644704,2394
2607.2719169390048,2442
2609.071941548998,2388
2610.8715868885433,2380
2612.670853251811,2451
2614.469740933052,2356
2616.268250226594,2392
2618.0663814268455,2423
2619.864134828292,2469
2621.6615107255006,2344
2623.458509413115,2369
2625.2551311858597,2407
2627.0513763385347,2368
2628.8472451660223,2340
2630.6427379632833,2373
2632.4378550253564,2369
2634.232596647359,2358
2636.026963124488,2397
2637.8209547520187,2398
2639.6145718253065,2351
2641.407814639785,2394
2643.200683490966,2386
2644.9931786744414,2386
2646.7853004858807,2386
2648.577049221034,2319
2650.3684251757277,2364
2652.1594286458712,2408
2653.9500599274484,2323
2655.740319316525,2250
2657.5302071092437,2251
2659.3197236018286,2242
2661.10886909058,2319
2662.8976438718782,2382
2664.686048242183,2282
2666.4740824980327,2284
2668.2617469360443,2247
2670.0490418529134,2261
2671.8359675454153,2236
2673.622524310403,2213
2675.408712444811,2191
2677.1945322456495,2201
2678.979984010009,2245
2680.76506803506,2266
2682.5497846180497,2188
2684.334134056306,2247
2686.1181166472343,2324
2687.9017326883213,2280
2689.6849824771293,2243
2691.4678663113013,2178
2693.2503844885596,2180
2695.032537306705,2155
2696.8143250636167,2200
2698.5957480572542,2228
2700.3768065856534,2171
2702.1575009469316,2215
2703.937831439283,2180
2705.717798360982,2163
2707.4974020103837,2135
2709.276642685917,2204
2711.055520686095,2081
2712.834036309506,2195
2714.612189854819,2125
2716.389981620782,2221
2718.1674119062204,2185
2719.944481010041,2157
2721.721189231226,2098
2723.4975368688415,2092
2725.273524222027,2143
2727.0491515900053,2184
2728.824419272075,2143
2730.5993275676146,2166
2732.3738767760838,2154
2734.148067197016,2117
2735.921899130031,2115
2737.6953728748194,2145
2739.468488731156,2122
2741.2412469988926,2120
2743.0136479779617,2114
2744.785691968372,2149
2746.5573792702116,2164
2748.3287101836504,2238
2750.099685008934,2138
2751.870304046388,2146
2753.640567596418,2130
2755.4104759595057,2157
2757.1800294362156,2162
2758.949228327187,2141
2760.7180729331412,2160
2762.486563554877,2219
2764.254700493272,2137
2766.022484049284,2104
2767.789914523947,2134
2769.5569922183786,2175
2771.3237174337705,2159
2773.090090471394,2135
2774.8561116326036,2120
2776.6217812188274,2185
2778.3870995315756,2076
2780.1520668724356,2150
2781.9166835430747,2077
2783.6809498452394,2042
2785.444866080754,2177
2787.2084325515225,2131
2788.971649559527,2108
2790.73451740683,2140
2792.4970363955713,2173
2794.2592068279705,2066
2796.0210290063264,2134
2797.7825032330147,2113
2799.543629810493,2121
2801.304409041296,2145
2803.0648412280366,2057
2804.8249266734088,2169
2806.5846656801846,2107
2808.344058551212,2100
2810.1031055894246,2137
2811.8618070978273,2202
2813.6201633795085,2113
2815.378174737636,2188
2817.1358414754536,2181
2818.893163896285,2176
2820.6501423035334,2160
2822.4067770006814,2154
2824.1630682912883,2118
2825.9190164789957,2122
2827.6746218675207,2091
2829.429884760661,2095
2831.184805462294,2179
2832.9393842763743,2151
2834.693621506936,2163
2836.4475174580916,2105
2838.201072434034,2074
2839.954286739034,2182
2841.707160677441,2150
2843.459694553685,2133
2845.2118886722724,2178
2846.96374333779,2109
2848.7152588549034,2152
2850.4664355283567,2192
2852.217273662973,2232
2853.9677735636546,2144
2855.7179355353833,2154
2857.4677598832186,2118
2859.217246912299,2215
2860.9663969278427,2129
2862.715210235146,2118
2864.4636871395846,2239
2866.211827946614,2153
2867.9596329617652,2194
2869.7071024906536,2166
2871.4542368389684,2197
2873.20103631248,2146
2874.947501217038,2170
2876.6936318585695,2171
2878.4394285430812,2257
2880.1848915766604,2167
2881.9300212654707,2125
2883.6748179157553,2172
2885.4192818338374,2137
2887.1634133261173,2102
2888.907212699077,2164
2890.6506802592744,2100
2892.393816313348,2182
2894.1366211680142,2184
2895.8790951300693,2119
2897.621238506388,2129
2899.363051603925,2177
2901.1045347297118,2130
2902.8456881908596,2110
2904.58651229456,2205
2906.327007348081,2204
2908.067173658772,2094
2909.8070115340597,2165
2911.5465212814497,2079
2913.285703208527,2190
2915.0245576229563,2194
2916.7630848324807,2115
2918.5012851449196,2134
2920.2391588681758,2111
2921.976706310227,2113
2923.7139277791334,2163
2925.4508235830313,2177
2927.187394030137,2194
2928.923639428745,2097
2930.6595600872306,2143
2932.395156314046,2142
2934.1304284177218,2188
2935.8653767068713,2132
2937.6000014901815,2130
2939.3343030764227,2205
2941.068281774442,2128
2942.8019378931644,2172
2944.5352717415976,2199
2946.2682836288236,2189
2948.0009738640065,2131
2949.7333427563885,2088
2951.465390615289,2118
2953.1971177501086,2157
2954.9285244703265,2150
2956.6596110855,2073
2958.3903779052657,2090
2960.1208252393385,2143
2961.8509533975125,2101
2963.5807626896617,2114
2965.3102534257378,2147
2967.0394259157715,2173
2968.768280469873,2183
2970.496817398232,2143
2972.2250370111146,2151
2973.952939618869,2166
2975.6805255319196,2137
2977.4077950607707,2199
2979.134748516006,2118
2980.861386208289,2095
2982.587708448359,2208
2984.313715547037,2157
2986.039407815222,2114
2987.764785563891,2241
2989.489849104102,2238
2991.2145987469908,2122
2992.9390348037705,2226
2994.6631575857346,2179
2996.3869674042576,2177
2998.1104645707887,2172
2999.83364939686,2161
3001.5565221940783,2142
3003.2790832741334,2128
3005.0013329487924,2082
3006.7232715298996,2134
3008.4448993293804,2162
3010.166216659239,2142
3011.887223831558,2100
3013.607921158498,2133
3015.3283089522993,2097
3017.0483875252826,2151
3018.7681571898443,2111
3020.4876182584626,2152
3022.2067710436927,2145
3023.9256158581707,2119
3025.644153014609,2150
3027.362382825801,2190
3029.0803056046193,2186
3030.797921664012,2080
3032.5152313170106,2109
3034.2322348767225,2204
3035.9489326563353,2257
3037.665324969115,2106
3039.3814121284063,2174
3041.097194447633,2086
3042.812672240299,2082
3044.5278458199855,2137
3046.2427155003525,2171
3047.9572815951406,2154
3049.671544418167,2186
3051.38550428333,2140
3053.0991615046073,2185
3054.812516396051,2098
3056.5255692717974,2156
3058.2383204460575,2182
3059.9507702331257,2161
3061.662918947372,2137
3063.3747669032446,2168
3065.0863144152736,2173
3066.7975617980674,2149
3068.508509366309,2183
3070.219157434767,2187
3071.9295063182844,2229
3073.639556331785,2224
3075.3493077902704,2168
3077.058761008821,2214
3078.7679163025964,2088
3080.476773986837,2141
3082.1853343768594,2161
3083.89359778806,2099
3085.6015645359153,2214
3087.3092349359786,2160
3089.016609303884,2143
3090.7236879553434,2111
3092.4304712061476,2089
3094.136959372166,2075
3095.843152769349,2162
3097.5490517137237,2114
3099.2546565213966,2157
3100.959967508554,2160
3102.66498499146,2146
3104.3697092864577,2128
3106.0741407099695,2156
3107.778279578498,2058
3109.482126208622,2206
3111.1856809170004,2201
3112.8889440203716,2181
3114.5919158355528,2147
3116.294596679439,2099
3117.996986869006,2158
3119.6990867213062,2177
3121.4008965534726,2153
3123.102416682717,2153
3124.803647426329,2209
3126.5045891016784,2075
3128.205242026213,2187
3129.90560651746,2171
3131.605682893025,2216
3133.3054714705922,2151
3135.0049725679282,2261
3136.7041865028714,2251
3138.4031135933465,2233
3140.101754157353,2152
3141.800108512971,2209
3143.498176978357,2193
3145.1959598717494,2096
3146.8934575114636,2205
3148.5906702158954,2147
3150.2875983035183,2174
3151.9842420928853,2159
3153.680601902627,2185
3155.376678051456,2121
3157.07247085816,2127
3158.767980641609,2147
3160.463207720748,2154
3162.158152414606,2136
3163.8528150422862,2131
3165.5471959229726,2190
3167.2412953759303,2243
3168.9351137204976,2183
3170.628651276098,2155
3172.3219083622307,2239
3174.014885298474,2210
3175.707582404485,2182
3177.4000000000005,2181
3179.092138404835,2264
3180.7839979388846,2160
3182.47557892212,2205
3184.166881674594,2208
3185.8579065164386,2250
3187.5486537678626,2175
3189.2391237491547,2216
3190.9293167806827,2293
3192.6192331828934,2173
3194.3088732763117,2171
3195.998237381542,2178
3197.687325819268,2126
3199.376138910251,2187
3201.064676975334,2101
3202.7529403354347,2182
3204.4409293115523,2093
3206.1286442247647,2128
3207.816085396229,2204
3209.5032531471825,2159
3211.190147798936,2170
3212.8767696728846,2121
3214.5631190905015,2115
3216.2491963733373,2220
3217.9350018430214,2076
3219.6205358212637,2054
3221.305798629851,2131
3222.990790590651,2103
3224.6755120256103,2157
3226.359963256751,2169
3228.0441446061795,2176
3229.7280563960758,2118
3231.411698948703,2146
3233.0950725863995,2082
3234.778177631587,2156
3236.461014406761,2195
3238.1435832345005,2147
3239.8258844374595,2176
3241.507918338374,2218
3243.1896852600576,2138
3244.8711855254023,2169
3246.552419457381,2162
3248.233387379042,2141
3249.914089613516,2104
3251.59452648401,2172
3253.274698313813,2125
3254.95460542629,2170
3256.6342481448855,2065
3258.313626793125,2102
3259.9927416946084,2077
3261.6715931730196,2134
3263.3501815521176,2114
3265.0285071557437,2090
3266.706570307815,2039
3268.3843713323286,2180
3270.0619105533615,2082
3271.739188295068,2146
3273.4162048816834,2081
3275.0929606375184,2121
3276.769455886966,2117
3278.445690954498,2160
3280.1216661646613,2202
3281.797381842087,2122
3283.4728383114807,2171
3285.1480358976296,2101
3286.8229749253996,2149
3288.4976557197333,2213
3290.172078605655,2105
3291.846243908266,2124
3293.5201519527463,2123
3295.193803064357,2122
3296.8671975684374,2128
3298.5403357904024,2106
3300.21321805575,2118
3301.8858446900567,2087
3303.558216018975,2078
3305.23033236824,2122
3306.9021940636603,2129
3308.57380143113,2114
3310.2451547966184,2241
3311.916254486174,2167
3313.5871008259246,2073
3315.2576941420766,2178
3316.9280347609147,2115
3318.5981230088046,2131
3320.2679592121895,2094
3321.9375436975924,2107
3323.606876791612,2132
3325.27595882093,2088
3326.944790112305,2108
3328.6133709925753,2125
3330.2817017886573,2091
3331.949782827547,2160
3333.617614436319,2110
3335.2851969421245,2128
3336.952530672199,2180
3338.619615953853,2195
3340.286453114475,2194
3341.9530424815357,2185
3343.619384382583,2196
3345.2854791452437,2175
3346.951327097224,2141
3348.6169285663073,2114
3350.2822838803577,2212
3351.947393367319,2152
3353.61225735521,2143
3355.2768761721345,2197
3356.9412501462693,2078
3358.605379605873,2170
3360.2692648792827,2169
3361.9329062949146,2157
3363.596304181263,2075
