CollectionTime,6/26/2024 3:28:10 PM
ExposureUsed,3
CalibratedSpectrum
-962.7078968117929,664
-959.9714848408522,720
-957.2358232597828,636
-954.5009119013725,619
-951.7667505983302,647
-949.0333391832855,685
-946.3006774887896,715
-943.5687653473143,705
-940.837602591253,712
-938.1071890529199,731
-935.3775245645503,683
-932.6486089583007,715
-929.9204420662485,723
-927.1930237203925,733
-924.4663537526524,708
-921.7404319948689,673
-919.0152582788041,669
-916.2908324361409,738
-913.5671542984834,778
-910.8442236973568,778
-908.1220404642074,768
-905.4006044304027,737
-902.679915427231,728
-899.959973285902,730
-897.2407778375464,714
-894.5223289132158,728
-891.8046263438832,693
-889.0876699604426,702
-886.3714595937089,666
-883.6559950744183,678
-880.9412762332282,660
-878.2273029007168,654
-875.5140749073835,670
-872.8015920836489,693
-870.0898542598545,666
-867.3788612662631,681
-864.6686129330585,656
-861.9591090903457,679
-859.2503495681506,667
-856.5423341964203,650
-853.8350628050229,668
-851.1285352237478,689
-848.4227512823054,676
-845.7177108103272,693
-843.0134136373656,694
-840.3098595928943,700
-837.6070485063082,723
-834.9049802069229,674
-832.2036545239757,687
-829.5030712866244,679
-826.8032303239481,655
-824.1041314649472,665
-821.4057745385428,629
-818.7081593735775,663
-816.0112857988148,652
-813.3151536429393,641
-810.6197627345566,679
-807.9251129021936,672
-805.2312039742981,667
-802.5380357792392,631
-799.8456081453069,643
-797.1539209007124,692
-794.462973873588,636
-791.772766891987,680
-789.083299783884,699
-786.3945723771743,699
-783.7065844996748,697
-781.0193359791231,656
-778.3328266431781,719
-775.6470563194197,727
-772.9620248353489,698
-770.2777320183878,682
-767.5941776958798,656
-764.9113616950891,715
-762.2292838432011,699
-759.5479439673222,704
-756.8673418944801,698
-754.1874774516235,709
-751.5083504656222,666
-748.8299607632671,651
-746.15230817127,675
-743.475392516264,735
-740.7992136248035,733
-738.1237713233636,688
-735.4490654383407,708
-732.7750957960521,717
-730.1018622227365,727
-727.4293645445534,666
-724.7576025875837,663
-722.0865761778291,715
-719.4162851412126,720
-716.7467293035781,685
-714.0779084906909,729
-711.409822528237,809
-708.7424712418238,748
-706.0758544569796,695
-703.4099719991541,737
-700.7448236937178,748
-698.0804093659622,765
-695.4167288411002,736
-692.7537819442656,703
-690.0915685005134,746
-687.4300883348199,710
-684.7693412720819,775
-682.1093271371178,732
-679.4500457546669,714
-676.7914969493897,756
-674.1336805458676,751
-671.4765963686034,797
-668.8202442420206,731
-666.1646239904642,786
-663.5097354382001,810
-660.8555784094151,727
-658.2021527282176,756
-655.5494582186366,832
-652.8974947046223,775
-650.2462620100463,767
-647.5957599587009,819
-644.9459883742998,779
-642.2969470804776,833
-639.6486359007902,821
-637.0010546587141,854
-634.3542031776476,787
-631.7080812809096,800
-629.0626887917401,761
-626.4180255333008,735
-623.7740913286734,795
-621.1308860008619,749
-618.4884093727904,775
-615.8466612673046,780
-613.2056415071715,745
-610.5653499150785,789
-607.9257863136347,746
-605.28695052537,787
-602.6488423727357,770
-600.0114616781036,795
-597.3748082637674,829
-594.7388819519412,859
-592.1036825647604,815
-589.4692099242818,850
-586.8354638524829,803
-584.2024441712624,819
-581.5701507024403,841
-578.9385832677575,832
-576.3077416888759,835
-573.6776257873787,828
-571.0482353847704,787
-568.4195703024757,804
-565.7916303618415,887
-563.164415384135,879
-560.5379251905453,839
-557.9121596021815,799
-555.2871184400748,781
-552.6628015251767,847
-550.0392086783606,866
-547.4163397204204,875
-544.794194472071,829
-542.1727727539491,867
-539.5520743866118,857
-536.9320991905377,884
-534.3128469861261,968
-531.6943175936979,944
-529.0765108334947,969
-526.4594265256793,1059
-523.8430644903358,1221
-521.2274245474689,1372
-518.612506517005,1595
-515.9983102187913,1594
-513.3848354725959,1685
-510.77208209810846,1768
-508.16004991493924,1787
-505.5487387426199,1863
-502.9381484006032,2055
-500.3282787082628,2225
-497.71912948489364,2265
-495.1107005497117,2329
-492.5029917218539,2368
-489.8960028203786,2141
-487.28973366426493,1978
-484.68418407241325,1721
-482.07935386364494,1540
-479.47524285670266,1398
-476.87185087025,1335
-474.2691777228715,1312
-471.66722323307334,1230
-469.0659872192821,1245
-466.4654694998459,1154
-463.86566989303384,1193
-461.26658821703614,1147
-458.66822428996414,1095
-456.07057792985,1095
-453.4736489546475,1064
-450.877437182231,1127
-448.28194243039627,1077
-445.68716451686,1030
-443.09310325926003,1097
-440.49975847515555,1047
-437.9071299820263,1043
-435.31521759727354,1032
-432.72402113821954,1053
-430.13354042210767,1064
-427.5437752661022,1052
-424.95472548728867,1187
-422.36639090267386,1136
-419.7787713291855,1162
-417.1918665836721,1207
-414.60567648290385,1166
-412.0202008435715,1159
-409.4354394822874,1122
-406.8513922155845,1141
-404.26805885991723,1099
-401.685439231661,1164
-399.103533147112,1168
-396.522340422488,1117
-393.9418608739278,1225
-391.3620943174908,1177
-388.7830405691583,1216
-386.2046994448317,1153
-383.6270707603344,1028
-381.05015433141045,973
-378.473949973725,928
-375.8984575028645,947
-373.32367673433623,836
-370.74960748356875,789
-368.1762495659117,729
-365.60360279663576,701
-363.03166699093265,705
-360.4604419639154,711
-357.8899275306178,689
-355.32012350599507,635
-352.7510297049233,575
-350.1826459421999,561
-347.61497203254316,578
-345.04800779059235,583
-342.4817530309082,567
-339.91620756797226,564
-337.35137121618743,586
-334.7872437898774,579
-332.22382510328725,550
-329.66111497058273,574
-327.09911320585127,626
-324.53781962310075,581
-321.9772340362607,578
-319.4173562591816,635
-316.8581861056348,676
-314.2997233893127,652
-311.7419679238294,708
-309.1849195227194,655
-306.62857799943856,622
-304.0729431673641,590
-301.51801483979375,595
-298.963792829947,568
-296.41027695096386,574
-293.85746701590574,648
-291.3053628377552,693
-288.7539642294155,696
-286.2032710037115,676
-283.65328297338897,669
-281.1039999511146,724
-278.5554217494762,851
-276.007548180983,752
-273.4603790580651,692
-270.9139141930734,675
-268.3681533982807,715
-265.8230964858798,662
-263.27874326798565,673
-260.7350935566336,734
-258.1921471637804,798
-255.6499039013039,858
-253.10836358100266,825
-250.56752601459698,836
-248.02739101372765,882
-245.48795838995704,891
-242.94922795476816,895
-240.41119951956557,760
-237.8738728956746,906
-235.33724789434166,1018
-232.80132432673452,1092
-230.2661020039418,1172
-227.73158073697357,1101
-225.19776033676033,908
-222.66464061415422,899
-220.1322213799284,870
-217.60050244477725,878
-215.06948361931552,912
-212.53916471408013,876
-210.00954553952818,927
-207.48062590603843,1051
-204.9524056239104,1057
-202.4248845033651,952
-199.8980623545441,891
-197.37193898751036,942
-194.84651421224817,1012
-192.32178783866232,1101
-189.79775967657952,1088
-187.27442953574644,1012
-184.7517972258321,1072
-182.2298625564256,1055
-179.7086253370378,1186
-177.18808537710026,1241
-174.66824248596583,1269
-172.14909647290835,1270
-169.6306471471229,1279
-167.11289431772548,1215
-164.59583779375328,1142
-162.07947738416453,1237
-159.5638128978386,1257
-157.04884414357605,1383
-154.53457093009854,1544
-152.02099306604828,1405
-149.50811035998936,1353
-146.99592262040665,1337
-144.48442965570587,1326
-141.97363127421409,1323
-139.46352728417958,1323
-136.95411749377126,1487
-134.44540171107985,1635
-131.93737974411636,1629
-129.43005140081357,1724
-126.92341648902493,1736
-124.41747481652521,1783
-121.91222619101006,1670
-119.40767042009657,1612
-116.90380731132257,1615
-114.40063667214702,1775
-111.8981583099503,1997
-109.3963720320337,2027
-106.89527764561933,1864
-104.39487495785067,1941
-101.89516377579241,1999
-99.39614390642998,1992
-96.89781515667039,2027
-94.40017733334128,2480
-91.90323024319173,2409
-89.40697369289148,2215
-86.91140748903172,2088
-84.41653143812482,2122
-81.92234534660395,2320
-79.42884902082358,2501
-76.93604226705907,2554
-74.4439248915071,2395
-71.95249670028534,2393
-69.46175749943245,2825
-66.97170709490854,2914
-64.48234529259423,3253
-61.99367189829195,3190
-59.50568671772464,3327
-57.01838955653636,4106
-54.53178022029283,3939
-52.045858514480074,3828
-49.560624244506016,4225
-47.07607721569923,4146
-44.59221723330904,4439
-42.10904410250669,4028
-39.62655762838392,4716
-37.14475761595372,6372
-34.66364387015028,6642
-32.18321619582866,7062
-29.70347439776515,8345
-27.224418280657005,10632
-24.74604764912317,15503
-22.26836230770266,23756
-19.7913620608565,39903
-17.315046712966478,62894
-14.83941606833514,65039
-12.36446993118659,65039
-9.89020810566592,65039
-7.416630395839093,65039
-4.94373660569363,65039
-2.471526539137585,65039
-6.821210263296962E-13,65039
2.47084320796705,65039
4.941003281093458,65039
7.410480415786196,65039
9.879274808531363,65039
12.347386655893956,65039
14.814816154518212,65039
17.28156350112681,65039
19.74762889252179,65039
22.21301252558385,65039
24.67771459727237,65039
27.141735304626195,65039
29.605074844762612,38144
32.06773341487792,18288
34.52971121224755,13408
36.99100843422559,11478
39.45162527824516,10619
41.91156194181792,11243
44.370818622535126,12773
46.82939551806646,12189
49.287292826160524,14621
51.74451074464503,13967
54.201049471426245,9537
56.65690920448981,6709
59.112090141899785,4926
61.56659248179983,4584
64.02041642241159,4451
66.4735621620365,4444
68.92602989905402,3410
71.37781983192338,3170
73.82893215918205,3978
76.27936707944684,3993
78.72912479141326,4123
81.17820549385567,3934
83.62660938562783,3670
86.07433666566146,3292
88.5213875329681,4128
90.96776218663751,3775
93.41346082583925,3699
95.85848364982041,3273
98.30283085790859,2379
100.7465026495089,2792
103.18949922410604,3312
105.63182078126385,2541
108.07346752062438,2292
110.51443964190923,2726
112.95473734491827,2223
115.39436082953114,2104
117.83331029570547,2237
120.27158594347827,2698
122.7091879729652,2091
125.1461165843615,1811
127.58237197794062,1816
130.01795435405518,1450
132.4528639131364,1411
134.88710085569494,1930
137.32066538231982,2005
139.75355769367923,1946
142.1857779905207,1878
144.61732647366978,1703
147.04820334403132,1588
149.47840880258934,1637
151.90794305040674,1959
154.33680628862487,1995
156.76499871846443,1919
159.19252054122433,2038
161.61937195828352,2132
164.04555317109896,2079
166.47106438120693,2339
168.89590579022217,2762
171.320077599839,2800
173.7435800118302,2805
176.16641322804742,2777
178.58857745042144,2901
181.01007288096173,3192
183.43089972175687,2978
185.85105817497413,3014
188.27054844285988,2898
190.6893707277394,3008
193.10752523201643,3056
195.5250121581745,3249
197.9418317087751,3433
200.3579840864594,3260
202.7734694939469,3167
205.18828813403627,3197
207.6024402096051,3220
210.01592592360964,3235
212.42874547908548,3216
214.84089907914665,3030
217.2523869269868,2973
219.66320922587727,3116
222.0733661791695,3144
224.48285799029293,2937
226.8916848627572,3131
229.29984700014882,3216
231.7073446061355,3143
234.11417788446204,3220
236.520347038953,3139
238.92585227351185,3403
241.33069379212054,3343
243.73487179884035,3313
246.1383864978112,3290
248.541238093252,3102
250.9434267894609,3225
253.34495279081432,3293
255.74581630176783,3212
258.1460175268563,3322
260.54555667069314,3291
262.9444339379703,3355
265.3426495334594,3257
267.7402036620107,3290
270.1370965285529,3196
272.53332833809407,3226
274.9288992957214,3096
277.32380960660055,3077
279.718059475976,3028
282.1116491091717,3032
284.5045787115897,3116
286.89684848871195,3257
289.2884586460981,3175
291.67940938938807,3074
294.0697009242996,3021
296.4593334566299,3033
298.84830719225477,2994
301.23662233712923,2935
303.6242790972866,2971
306.01127767884,2998
308.39761828798066,2962
310.78330113097934,2838
313.16832641418534,2733
315.5526943440269,2782
317.9364051270112,2706
320.3194589697242,2714
322.70185607883093,2675
325.0835966610754,2710
327.4646809232805,2713
329.8451090723478,2727
332.2248813152577,2694
334.6039978590701,2638
336.9824589109231,2630
339.36026467803447,2627
341.7374153677,2569
344.113911187295,2498
346.48975234427337,2487
348.8649390461686,2509
351.2394715005918,2486
353.61334991523415,2437
355.9865744978655,2452
358.35914545633375,2533
360.73106299856715,2457
363.10232733257146,2523
365.47293866643247,2430
367.84289720831396,2419
370.2122031664593,2495
372.5808567491905,2509
374.9488581649083,2363
377.31620762209275,2367
379.6829053293021,2399
382.0489514951745,2497
384.4143463284262,2308
386.7790900378528,2336
389.14318283232853,2239
391.50662492080653,2294
393.86941651231916,2336
396.23155781597745,2263
398.5930490409713,2331
400.9538903965696,2359
403.3140820921202,2346
405.6736243370498,2255
408.03251734086336,2283
410.3907613131465,2223
412.74835646356166,2256
415.10530300185144,2277
417.4616011378372,2262
419.81725108141893,2291
422.1722530425758,2295
424.5266072313656,2320
426.880313857925,2231
429.2333731324701,2239
431.58578526529516,2245
433.9375504667738,2199
436.2886689473588,2218
438.63914091758113,2190
440.9889665880513,2108
443.33814616945835,2144
445.68667987257015,2195
448.03456790823395,2152
450.3818104873759,2131
452.72840782100013,2196
455.07436012019105,2096
457.41966759611057,2261
459.7643304600007,2180
462.10834892318155,2237
464.4517231970525,2224
466.79445349309174,2221
469.1365400228566,2190
471.4779829979826,2322
473.81878263018564,2334
476.15893913125876,2342
478.4984527130747,2339
480.8373235875855,2357
483.17555196682144,2494
485.5131380628919,2575
487.8500820879857,2776
490.1863842543697,2926
492.52204477439034,3193
494.8570638604725,3491
497.1914417251204,3822
499.52517858091653,3942
501.85827464052306,4059
504.19073011668036,3967
506.5225452222086,4027
508.85372017000566,3899
511.18425517304956,3651
513.514150444396,3727
515.8434061971808,4461
518.1720226446176,5077
520.4999999999999,5515
522.8273384766991,5933
525.1540382881666,6147
527.480099647932,6140
529.8055227696037,5056
532.1303078668694,3650
534.454455153496,2692
536.777964843328,2498
539.1008371502907,2149
541.4230722883866,2116
543.744670471698,2199
546.0656319143858,2066
548.3859568306899,2014
550.7056454349294,1984
553.0246979415016,2055
555.3431145648834,2041
557.6608955196306,2014
559.978041020377,1949
562.2945512818363,1955
564.6104265188006,1988
566.9256669461412,2001
569.2402727788082,1963
571.5542442318302,1981
573.8675815203156,1962
576.1802848594508,1963
578.4923544645015,1909
580.8037905508126,1930
583.114593333807,1888
585.4247630289875,1936
587.7342998519354,1903
590.0432040183106,1962
592.3514757438526,1895
594.6591152443794,1934
596.9661227357875,1923
599.2724984340531,1936
601.578242555231,2026
603.8833553154542,1930
606.1878369309362,2033
608.4916876179676,2078
610.7949075929192,2039
613.0974970722403,1927
615.3994562724587,1941
617.7007854101818,1951
620.0014847020951,1919
622.3015543649641,1953
624.6009946156324,1945
626.8998056710224,1989
629.1979877481361,1960
631.4955410640538,1969
633.7924658359349,1907
636.0887622810175,1975
638.3844306166192,1932
640.6794710601358,2075
642.9738838290426,1978
645.2676691408932,1963
647.5608272133207,1933
649.853358264037,1941
652.1452625108324,1987
654.4365401715764,1965
656.7271914642178,1979
659.0172166067838,1936
661.3066158173809,2038
663.5953893141935,2019
665.8835373154867,1972
668.1710600396028,1943
670.4579577049639,2049
672.7442305300709,2030
675.0298787335033,2065
677.3149025339197,2026
679.599302150058,2009
681.8830778007342,2008
684.1662297048437,2011
686.4487580813608,1970
688.7306631493387,1993
691.0119451279091,1967
693.2926042362834,1950
695.5726406937516,2027
697.8520547196814,2040
700.1308465335215,2081
702.4090163547982,2097
704.6865644031171,1951
706.9634908981619,1982
709.2397960596965,2034
711.5154801075631,2043
713.7905432616823,1992
716.0649857420548,2016
718.3388077687592,1962
720.612009561953,1919
722.8845913418733,1889
725.1565533288352,1965
727.427895743234,1973
729.6986188055427,1990
731.9687227363137,1987
734.238207756178,2009
736.5070740858458,2008
738.7753219461066,1978
741.0429515578281,1955
743.3099631419569,2005
745.5763569195191,2001
747.8421331116193,2001
750.1072919394409,1971
752.3718336242467,1956
754.6357583873777,1995
756.8990664502545,2025
759.1617580343765,1968
761.423833361321,2059
763.6852926527457,1998
765.9461361303862,2036
768.206364016058,1944
770.4659765316536,2069
772.7249738991469,2032
774.9833563405886,2058
777.2411240781092,1964
779.4982773339183,2025
781.7548163303044,2158
784.010741289634,2061
786.2660524343538,2100
788.5207499869881,2131
790.7748341701416,2006
793.0283052064964,2035
795.2811633188143,2051
797.5334087299362,2134
799.7850416627813,2077
802.0360623403484,2084
804.2864709857143,2074
806.5362678220353,2062
808.7854530725468,2053
811.0340269605625,2089
813.2819897094754,2058
815.5293415427581,2111
817.77608268396,2051
820.0222133567116,2017
822.2677337847211,2048
824.5126441917765,2049
826.7569448017433,1952
829.0006358385675,2045
831.2437175262731,2037
833.4861900889629,2020
835.7280537508192,2045
837.9693087361026,2032
840.2099552691533,2011
842.4499935743896,2046
844.689423876309,1960
846.9282463994886,1967
849.1664613685833,2074
851.4040690083276,1998
853.6410695435349,1965
855.877463199097,1947
858.1132501999847,2012
860.3484307712487,2058
862.5830051380175,2092
864.8169735254988,2028
867.0503361589791,1996
869.2830932638243,2111
871.5152450654786,2113
873.7467917894654,2078
875.9777336613873,2131
878.2080709069252,2182
880.4378037518389,2128
882.666932421968,2074
884.8954571432301,2138
887.1233781416219,2125
889.3506956432192,2177
891.5774098741766,2161
893.803521060728,2114
896.0290294291852,2045
898.2539352059397,2168
900.4782386174619,2062
902.7019398903011,2068
904.925039251085,2029
907.147536926521,2084
909.3694331433943,2101
911.59072812857,2097
913.8114221089921,2111
916.0315153116827,2131
918.2510079637437,2027
920.4699002923547,2068
922.6881925247761,2011
924.905884888345,2085
927.1229776104793,2054
929.3394709186747,2129
931.555365040506,1990
933.7706602036275,2063
935.9853566357709,2031
938.1994545647489,2055
940.4129542184515,2040
942.6258558248488,2033
944.8381596119883,2142
947.0498658079974,2054
949.2609746410825,2035
951.4714863395287,2015
953.6814011316998,1967
955.8907192460387,1976
958.0994409110671,1996
960.3075663553858,2034
962.5150958076741,2017
964.7220294966913,1927
966.928367651274,1943
969.1341105003388,1904
971.3392582728806,1999
973.5438111979742,1931
975.747769504772,1996
977.9511334225061,1934
980.153903180487,1961
982.3560790081052,1944
984.5576611348289,1948
986.7586497902058,1900
988.9590452038618,1855
991.158847605503,1863
993.3580572249133,1829
995.5566742919558,1846
997.7546990365728,1820
999.952131688785,1795
1002.1489724786926,1717
1004.3452216364743,1716
1006.5408793923874,1769
1008.7359459767691,1693
1010.9304216200343,1675
1013.1243065526781,1694
1015.3176010052733,1653
1017.510305208472,1672
1019.7024193930064,1666
1021.8939437896848,1608
1024.0848786293977,1595
1026.2752241431122,1671
1028.4649805618747,1608
1030.6541481168115,1655
1032.842727039127,1649
1035.0307175601051,1607
1037.2181199111074,1631
1039.4049343235752,1565
1041.591161029029,1541
1043.7768002590683,1606
1045.9618522453698,1545
1048.1463172196918,1552
1050.3301954138697,1552
1052.513487059818,1624
1054.69619238953,1552
1056.8783116350783,1506
1059.0598450286152,1590
1061.2407928023704,1572
1063.4211551886528,1659
1065.6009324198508,1557
1067.780124728432,1557
1069.9587323469414,1577
1072.1367555080046,1535
1074.314194444325,1527
1076.4910493886855,1515
1078.667320573947,1569
1080.843008233051,1550
1083.0181125990161,1522
1085.1926339049414,1513
1087.3665723840027,1573
1089.5399282694575,1495
1091.7127017946405,1447
1093.8848931929647,1553
1096.0565026979243,1476
1098.2275305430899,1468
1100.3979769621128,1477
1102.567842188722,1465
1104.737126456726,1477
1106.9058300000124,1507
1109.0739530525475,1450
1111.2414958483764,1501
1113.4084586216231,1469
1115.5748416064907,1579
1117.7406450372605,1513
1119.9058691482942,1496
1122.0705141740304,1445
1124.2345803489884,1407
1126.3980679077658,1482
1128.5609770850388,1435
1130.7233081155623,1411
1132.8850612341707,1443
1135.0462366757774,1397
1137.2068346753745,1444
1139.3668554680326,1524
1141.526299288901,1409
1143.68516637321,1429
1145.8434569562655,1473
1148.001171273455,1415
1150.158309560244,1431
1152.3148720521767,1471
1154.470858984876,1479
1156.626270594044,1378
1158.7811071154629,1438
1160.9353687849912,1435
1163.089055838569,1432
1165.242168512213,1459
1167.3947070420209,1424
1169.5466716641677,1420
1171.6980626149075,1421
1173.8488801305748,1439
1175.9991244475814,1406
1178.1487958024186,1432
1180.2978944316555,1451
1182.4464205719428,1440
1184.5943744600072,1405
1186.7417563326567,1410
1188.8885664267755,1429
1191.0348049793297,1398
1193.1804722273619,1401
1195.325568407995,1441
1197.4700937584303,1352
1199.614048515948,1496
1201.7574329179074,1449
1203.900247201746,1406
1206.042491604982,1381
1208.1841663652099,1402
1210.3252717201053,1392
1212.465807907422,1429
1214.6057751649923,1363
1216.7451737307279,1438
1218.8840038426192,1437
1221.0222657387353,1425
1223.1599596572241,1462
1225.2970858363137,1424
1227.4336445143094,1416
1229.5696359295966,1396
1231.705060320639,1425
1233.8399179259786,1418
1235.9742089842384,1438
1238.107933734118,1464
1240.2410924143974,1447
1242.373685263935,1447
1244.5057125216676,1398
1246.6371744266116,1389
1248.7680712178621,1441
1250.898403134593,1507
1253.028170416058,1492
1255.1573733015875,1447
1257.2860120305932,1444
1259.4140868425648,1402
1261.54159797707,1376
1263.6685456737569,1395
1265.7949301723515,1489
1267.9207517126597,1463
1270.046010534565,1442
1272.1707068780306,1414
1274.2948409830983,1488
1276.4184130898889,1472
1278.541423438603,1567
1280.6638722695184,1480
1282.785759822993,1477
1284.9070863394636,1527
1287.0278520594447,1470
1289.1480572235314,1609
1291.2677020723963,1492
1293.3867868467923,1483
1295.5053117875495,1507
1297.623277135579,1500
1299.740683131868,1580
1301.8575300174857,1580
1303.973818033578,1539
1306.0895474213703,1575
1308.2047184221678,1532
1310.3193312773528,1524
1312.4333862283888,1515
1314.5468835168163,1508
1316.659823384255,1544
1318.7722060724045,1601
1320.8840318230418,1627
1322.9953008780249,1560
1325.1060134792888,1606
1327.2161698688478,1565
1329.3257702887959,1575
1331.4348149813054,1510
1333.5433041886276,1535
1335.6512381530933,1542
1337.7586171171101,1595
1339.8654413231675,1548
1341.9717110138317,1565
1344.0774264317488,1562
1346.1825878196432,1537
1348.2871954203192,1517
1350.3912494766587,1503
1352.4947502316231,1541
1354.5976979282532,1493
1356.7000928096686,1484
1358.8019351190665,1524
1360.9032250997243,1552
1363.0039629949988,1500
1365.1041490483235,1574
1367.2037835032133,1521
1369.3028666032606,1512
1371.401398592137,1491
1373.4993797135926,1524
1375.5968102114575,1540
1377.6936903296396,1573
1379.7900203121262,1613
1381.8858004029835,1456
1383.9810308463561,1530
1386.075711886469,1498
1388.1698437676241,1464
1390.2634267342032,1589
1392.356461030667,1533
1394.4489469015557,1544
1396.5408845914872,1525
1398.6322743451592,1541
1400.7231164073469,1540
1402.813411022907,1480
1404.903158436773,1485
1406.9923588939578,1517
1409.0810126395531,1549
1411.1691199187303,1581
1413.2566809767386,1541
1415.343696058907,1540
1417.4301654106425,1556
1419.5160892774315,1548
1421.6014679048399,1614
1423.6863015385125,1549
1425.7705904241707,1578
1427.8543348076178,1520
1429.9375349347342,1595
1432.0201910514802,1579
1434.102303403894,1588
1436.1838722380944,1619
1438.2648978002767,1523
1440.3453803367174,1597
1442.4253200937692,1578
1444.5047173178677,1718
1446.5835722555234,1690
1448.6618851533285,1668
1450.739656257952,1621
1452.8168858161434,1711
1454.8935740747306,1732
1456.96972128062,1713
1459.045327680797,1701
1461.120393522327,1725
1463.1949190523528,1750
1465.2689045180973,1824
1467.3423501668608,1721
1469.415256246024,1809
1471.4876230030463,1843
1473.559450685465,1831
1475.6307395408976,1825
1477.7014898170391,1875
1479.771701761665,1928
1481.8413756226287,1935
1483.9105116478618,2052
1485.9791100853772,1993
1488.0471711832643,2020
1490.1146951896926,2044
1492.1816823529098,2015
1494.2481329212433,2089
1496.3140471430984,2078
1498.3794252669609,2052
1500.4442675413939,2115
1502.5085742150404,2106
1504.572345536622,2182
1506.6355817549388,2129
1508.6982831188702,2179
1510.7604498773744,2255
1512.8220822794883,2301
1514.8831805743293,2234
1516.9437450110909,2245
1519.003775839048,2327
1521.0632733075522,2351
1523.1222376660367,2477
1525.1806691640113,2495
1527.2385680510652,2548
1529.2959345768668,2525
1531.3527689911643,2527
1533.4090715437833,2651
1535.4648424846291,2733
1537.5200820636855,2759
1539.5747905310159,2814
1541.6289681367616,2835
1543.6826151311434,2843
1545.7357317644614,2960
1547.7883182870937,2960
1549.8403749494987,2973
1551.8919020022113,3132
1553.9428996958477,3071
1555.9933682811015,3266
1558.0433080087469,3246
1560.0927191296346,3356
1562.1416018946961,3353
1564.1899565549415,3414
1566.2377833614592,3356
1568.2850825654164,3400
1570.3318544180606,3204
1572.3780991707158,3180
1574.423817074788,3041
1576.4690083817595,2917
1578.5136733431923,2909
1580.5578122107272,2726
1582.601425236085,2684
1584.6445126710646,2529
1586.6870747675434,2369
1588.7291117774776,2337
1590.7706239529034,2236
1592.8116115459347,2142
1594.8520748087658,2020
1596.8920139936686,1987
1598.9314293529933,1913
1600.9703211391711,1911
1603.008689604711,1878
1605.0465350022005,1831
1607.0838575843068,1828
1609.1206576037753,1768
1611.1569353134305,1704
1613.1926909661765,1722
1615.2279248149953,1706
1617.2626371129481,1661
1619.2968281131757,1639
1621.3304980688963,1670
1623.3636472334088,1605
1625.39627586009,1546
1627.428384202396,1566
1629.459972513861,1619
1631.4910410480993,1540
1633.5215900588028,1580
1635.551619799744,1521
1637.5811305247717,1522
1639.6101224878166,1514
1641.6385959428862,1563
1643.6665511440683,1537
1645.693988345528,1543
1647.7209078015112,1541
1649.7473097663405,1499
1651.7731944944203,1473
1653.7985622402307,1438
1655.823413258333,1477
1657.847747803366,1530
1659.8715661300494,1430
1661.8948684931793,1486
1663.9176551476316,1524
1665.9399263483624,1477
1667.9616823504057,1479
1669.982923408873,1470
1672.0036497789574,1479
1674.0238617159293,1496
1676.043559475138,1471
1678.0627433120121,1516
1680.081413482059,1534
1682.0995702408654,1499
1684.117213844096,1409
1686.134344547495,1481
1688.1509626068864,1442
1690.1670682781705,1442
1692.182661817329,1491
1694.1977434804217,1469
1696.2123135235875,1423
1698.226372203043,1427
1700.2399197750851,1421
1702.2529564960905,1440
1704.2654826225112,1508
1706.277498410882,1518
1708.2890041178139,1466
1710.2999999999988,1481
1712.3104863142066,1568
1714.3204633172854,1452
1716.329931266163,1525
1718.3388904178469,1500
1720.3473410294214,1401
1722.3552833580516,1513
1724.3627176609807,1500
1726.3696441955308,1462
1728.3760632191033,1450
1730.3819749891782,1418
1732.3873797633146,1467
1734.3922777991502,1491
1736.3966693544012,1470
1738.4005546868639,1478
1740.4039340544127,1399
1742.406807715001,1456
1744.4091759266616,1445
1746.4110389475054,1434
1748.4123970357223,1403
1750.413250449582,1383
1752.4135994474318,1443
1754.4134442876993,1422
1756.4127852288902,1450
1758.4116225295893,1424
1760.4099564484595,1385
1762.407787244244,1395
1764.405115175764,1447
1766.4019405019203,1415
1768.3982634816916,1423
1770.3940843741357,1373
1772.3894034383907,1399
1774.3842209336717,1424
1776.378537119274,1392
1778.372352254571,1406
1780.3656665990156,1440
1782.3584804121397,1367
1784.3507939535534,1353
1786.3426074829463,1344
1788.3339212600863,1412
1790.3247355448211,1405
1792.3150505970766,1346
1794.3048666768573,1420
1796.2941840442477,1357
1798.2830029594106,1411
1800.2713236825884,1363
1802.2591464741004,1424
1804.2464715943465,1407
1806.2332993038058,1364
1808.2196298630352,1371
1810.2054635326708,1384
1812.190800573428,1354
1814.175641246101,1318
1816.1599858115628,1353
1818.1438345307652,1381
1820.127187664738,1382
1822.1100454745924,1379
1824.092408221516,1393
1826.0742761667766,1363
1828.055649571721,1440
1830.0365286977735,1407
1832.0169138064398,1323
1833.9968051593014,1388
1835.9762030180214,1382
1837.9551076443408,1413
1839.9335193000788,1361
1841.9114382471344,1345
1843.888864747485,1379
1845.8657990631878,1382
1847.842241456378,1355
1849.8181921892697,1316
1851.7936515241558,1368
1853.7686197234098,1426
1855.7430970494815,1373
1857.7170837649014,1368
1859.6905801322787,1324
1861.6635864143004,1394
1863.6361028737338,1359
1865.608129773424,1397
1867.5796673762961,1355
1869.5507159453537,1416
1871.521275743678,1412
1873.4913470344313,1420
1875.4609300808534,1402
1877.4300251462632,1339
1879.3986324940588,1435
1881.366752387717,1348
1883.3343850907936,1327
1885.3015308669228,1369
1887.268189979819,1413
1889.2343626932739,1336
1891.2000492711595,1353
1893.1652499774254,1365
1895.1299650761011,1456
1897.0941948312952,1380
1899.0579395071945,1388
1901.0211993680641,1432
1902.98397467825,1375
1904.9462657021745,1368
1906.9080727043415,1400
1908.869395949332,1442
1910.8302357018065,1418
1912.790592226504,1354
1914.7504657882428,1384
1916.7098566519212,1388
1918.6687650825133,1370
1920.6271913450764,1362
1922.5851357047422,1418
1924.5425984267245,1410
1926.499579776314,1368
1928.4560800188833,1478
1930.4120994198802,1431
1932.367638244833,1360
1934.32269675935,1400
1936.2772752291175,1412
1938.231373919899,1350
1940.1849930975404,1382
1942.1381330279637,1350
1944.0907939771696,1369
1946.0429762112412,1383
1947.9946799963363,1399
1949.9459055986945,1392
1951.896653284633,1348
1953.8469233205478,1381
1955.7967159729142,1359
1957.7460315082863,1394
1959.6948701932974,1353
1961.6432322946594,1344
1963.5911180791632,1415
1965.5385278136787,1352
1967.4854617651545,1404
1969.4319202006182,1371
1971.377903387176,1367
1973.3234115920136,1324
1975.268445082395,1368
1977.2130041256642,1406
1979.1570889892423,1351
1981.1006999406304,1369
1983.04383724741,1334
1984.986501177238,1414
1986.928691997853,1470
1988.8704099770712,1340
1990.811655382789,1350
1992.7524284829801,1418
1994.692729545698,1385
1996.6325588390755,1415
1998.5719166313224,1452
2000.5108031907307,1367
2002.4492187856677,1302
2004.387163684583,1384
2006.3246381560011,1366
2008.2616424685298,1360
2010.1981768908527,1357
2012.1342416917332,1357
2014.069837140014,1318
2016.0049635046162,1387
2017.9396210545406,1370
2019.8738100588666,1409
2021.8075307867502,1326
2023.740783507431,1368
2025.6735684902228,1326
2027.6058860045214,1367
2029.5377363198004,1382
2031.4691197056118,1364
2033.4000364315875,1334
2035.3304867674374,1350
2037.260470982952,1389
2039.189989347998,1385
2041.1190421325232,1320
2043.047629606554,1294
2044.9757520401945,1321
2046.9034097036288,1366
2048.8306028671195,1381
2050.7573318010086,1304
2052.683596775716,1324
2054.609398061742,1366
2056.5347359296647,1323
2058.4596106501403,1340
2060.384022493906,1363
2062.3079717317764,1353
2064.231458634646,1313
2066.1544834734873,1332
2068.077046519352,1336
2069.99914804337,1349
2071.9207883167524,1342
2073.8419676107865,1438
2075.7626861968406,1375
2077.6829443463607,1322
2079.6027423308715,1330
2081.522080421977,1366
2083.440958891362,1321
2085.359378010786,1358
2087.2773380520907,1334
2089.194839287196,1417
2091.111881988101,1379
2093.0284664268825,1338
2094.9445928756973,1262
2096.86026160678,1348
2098.775472892446,1328
2100.690227005088,1331
2102.604524217178,1360
2104.5183648012676,1376
2106.431749029985,1405
2108.34467717604,1357
2110.2571495122206,1341
2112.169166311393,1353
2114.080727846503,1341
2115.9918343905747,1429
2117.902486216711,1313
2119.8126835980956,1321
2121.722426807987,1377
2123.6317161197285,1387
2125.5405518067364,1326
2127.448934142509,1348
2129.356863400624,1323
2131.264339854737,1403
2133.1713637785815,1393
2135.077935445972,1379
2136.9840551308002,1366
2138.889723107037,1364
2140.7949396487334,1387
2142.699705030018,1363
2144.6040195250994,1365
2146.507883408264,1346
2148.4112969538774,1416
2150.3142604363848,1407
2152.2167741303097,1374
2154.1188383102535,1357
2156.0204532508997,1350
2157.9216192270064,1348
2159.822336513414,1372
2161.7226053850413,1393
2163.622426116884,1403
2165.5217989840185,1392
2167.4207242616,1402
2169.319202224862,1323
2171.2172331491165,1383
2173.1148173097563,1376
2175.0119549822507,1381
2176.90864644215,1413
2178.8048919650823,1368
2180.7006918267534,1351
2182.596046302952,1356
2184.4909556695407,1318
2186.3854202024645,1364
2188.279440177746,1341
2190.173015871487,1388
2192.066147559868,1356
2193.958835519149,1352
2195.851080025667,1368
2197.7428813558417,1381
2199.6342397861667,1392
2201.5251555932186,1406
2203.415629053651,1330
2205.3056604441986,1393
2207.19525004167,1364
2209.084398122958,1330
2210.9731049650327,1389
2212.861370844941,1390
2214.749196039812,1363
2216.636580826851,1359
2218.523525483344,1358
2220.410030286655,1351
2222.296095514226,1365
2224.1817214435805,1386
2226.066908352319,1409
2227.951656518121,1353
2229.835966218746,1374
2231.71983773203,1349
2233.6032713358913,1405
2235.486267308324,1346
2237.3688259274036,1369
2239.2509474712824,1320
2241.132632218193,1386
2243.013880446447,1405
2244.8946924344323,1312
2246.7750684606203,1394
2248.6550088035574,1332
2250.534513741871,1378
2252.413583554265,1375
2254.292218519526,1340
2256.170418916517,1348
2258.0481850241786,1359
2259.925517121534,1354
2261.8024154876825,1410
2263.678880401803,1344
2265.5549121431536,1350
2267.430510991071,1346
2269.305677224971,1330
2271.180411124348,1351
2273.0547129687766,1331
2274.9285830379076,1421
2276.8020216114737,1424
2278.6750289692845,1391
2280.5476053912294,1363
2282.4197511572766,1354
2284.2914665474727,1341
2286.162751841943,1397
2288.0336073208937,1410
2289.904033264608,1378
2291.774029953448,1322
2293.6435976678554,1375
2295.5127366883517,1339
2297.381447295534,1407
2299.2497297700825,1405
2301.1175843927526,1366
2302.9850114443825,1426
2304.852011205885,1374
2306.7185839582553,1371
2308.5847299825664,1399
2310.4504495599676,1435
2312.3157429716925,1421
2314.1806104990483,1415
2316.0450524234247,1410
2317.9090690262888,1379
2319.772660589186,1393
2321.635827393742,1420
2323.498569721661,1424
2325.3608878547248,1436
2327.2227820747967,1370
2329.0842526638157,1377
2330.945299903803,1333
2332.805924076857,1422
2334.6661254651535,1390
2336.525904350951,1396
2338.3852610165827,1371
2340.244195744464,1352
2342.102708817088,1429
2343.9608005170253,1378
2345.8184711269287,1343
2347.675720929526,1441
2349.532550207628,1381
2351.38895924412,1392
2353.24494832197,1375
2355.100517724223,1436
2356.955667734004,1434
2358.810398634514,1385
2360.664710709037,1443
2362.5186042409337,1486
2364.3720795136437,1386
2366.225136810686,1356
2368.0777764156583,1412
2369.929998612237,1366
2371.7818036841777,1392
2373.633191915315,1385
2375.484163589562,1409
2377.3347189909114,1426
2379.184858403434,1400
2381.03458211128,1419
2382.8838903986775,1396
2384.732783549936,1425
2386.5812618494406,1410
2388.4293255816588,1424
2390.2769750311327,1422
2392.1242104824883,1477
2393.971032220427,1409
2395.8174405297295,1429
2397.6634356952563,1411
2399.509018001947,1371
2401.3541877348193,1429
2403.1989451789705,1480
2405.043290619576,1412
2406.8872243418905,1503
2408.730746631247,1427
2410.5738577730594,1496
2412.4165580528183,1392
2414.258847756095,1447
2416.100727168537,1425
2417.9421965758734,1420
2419.783256263912,1453
2421.623906518538,1459
2423.4641476257157,1481
2425.303979871491,1447
2427.143403541984,1461
2428.9824189233977,1444
2430.821026302012,1456
2432.6592259641866,1456
2434.497018196361,1481
2436.33440328505,1484
2438.171381516851,1432
2440.00795317844,1429
2441.844118556569,1427
2443.6798779380724,1427
2445.5152316098606,1378
2447.3501798589255,1370
2449.1847229723357,1462
2451.0188612372403,1486
2452.8525949408663,1458
2454.6859243705203,1443
2456.518849813587,1475
2458.3513715575314,1474
2460.183489889895,1393
2462.015205098301,1427
2463.8465174704493,1443
2465.67742729412,1439
2467.5079348571717,1472
2469.338040447542,1441
2471.1677443532476,1451
2472.9970468623833,1466
2474.825948263123,1426
2476.6544488437207,1469
2478.482548892508,1430
2480.310248697896,1424
2482.137548548374,1457
2483.9644487325118,1483
2485.790949538956,1474
2487.617051256433,1435
2489.44275417375,1473
2491.26805857979,1379
2493.0929647635157,1455
2494.917473013971,1447
2496.741583620276,1474
2498.5652968716304,1439
2500.3886130573137,1421
2502.2115324666834,1435
2504.0340553891765,1476
2505.856182114308,1503
2507.6779129316733,1483
2509.499248130945,1442
2511.3201880018764,1414
2513.140732834298,1391
2514.9608829181198,1447
2516.780638543331,1443
2518.6,1453
2520.418967578273,1469
2522.237541568376,1518
2524.0557222606144,1466
2525.8735099453706,1430
2527.6909049131086,1458
2529.507907454368,1457
2531.32451785977,1497
2533.140736420014,1531
2534.9565634258774,1553
2536.771999168218,1548
2538.5870439379714,1485
2540.4016980261526,1569
2542.2159617238544,1555
2544.02983532225,1489
2545.8433191125914,1448
2547.656413386209,1527
2549.4691184345115,1460
2551.2814345489874,1547
2553.093362021204,1544
2554.904901142808,1502
2556.716052205523,1606
2558.526815501153,1537
2560.3371913215824,1580
2562.147179958771,1501
2563.956781704761,1531
2565.7659968516705,1530
2567.5748256916986,1592
2569.3832685171224,1579
2571.1913256202984,1504
2572.9989972936614,1567
2574.806283829725,1624
2576.613185521084,1606
2578.4197026604074,1602
2580.2258355404483,1542
2582.031584454035,1594
2583.836949694077,1573
2585.6419315535613,1619
2587.4465303255533,1610
2589.2507463032002,1627
2591.0545797797245,1708
2592.8580310484303,1638
2594.6611004026995,1602
2596.463788135992,1644
2598.266094541849,1660
2600.0680199138874,1635
2601.869564545807,1589
2603.670728731383,1730
2605.4715127644704,1678
2607.2719169390048,1667
2609.071941548998,1683
2610.8715868885433,1678
2612.670853251811,1642
2614.469740933052,1653
2616.268250226594,1698
2618.0663814268455,1719
2619.864134828292,1624
2621.6615107255006,1701
2623.458509413115,1715
2625.2551311858597,1693
2627.0513763385347,1646
2628.8472451660223,1668
2630.6427379632833,1638
2632.4378550253564,1651
2634.232596647359,1667
2636.026963124488,1620
2637.8209547520187,1562
2639.6145718253065,1662
2641.407814639785,1557
2643.200683490966,1647
2644.9931786744414,1637
2646.7853004858807,1606
2648.577049221034,1557
2650.3684251757277,1596
2652.1594286458712,1519
2653.9500599274484,1558
2655.740319316525,1608
2657.5302071092437,1588
2659.3197236018286,1547
2661.10886909058,1631
2662.8976438718782,1565
2664.686048242183,1529
2666.4740824980327,1544
2668.2617469360443,1510
2670.0490418529134,1465
2671.8359675454153,1534
2673.622524310403,1520
2675.408712444811,1481
2677.1945322456495,1508
2678.979984010009,1483
2680.76506803506,1507
2682.5497846180497,1474
2684.334134056306,1481
2686.1181166472343,1494
2687.9017326883213,1444
2689.6849824771293,1482
2691.4678663113013,1453
2693.2503844885596,1449
2695.032537306705,1444
2696.8143250636167,1463
2698.5957480572542,1477
2700.3768065856534,1456
2702.1575009469316,1460
2703.937831439283,1430
2705.717798360982,1454
2707.4974020103837,1439
2709.276642685917,1421
2711.055520686095,1400
2712.834036309506,1449
2714.612189854819,1449
2716.389981620782,1403
2718.1674119062204,1435
2719.944481010041,1475
2721.721189231226,1375
2723.4975368688415,1413
2725.273524222027,1405
2727.0491515900053,1411
2728.824419272075,1402
2730.5993275676146,1428
2732.3738767760838,1351
2734.148067197016,1359
2735.921899130031,1365
2737.6953728748194,1378
2739.468488731156,1407
2741.2412469988926,1427
2743.0136479779617,1394
2744.785691968372,1425
2746.5573792702116,1369
2748.3287101836504,1397
2750.099685008934,1376
2751.870304046388,1397
2753.640567596418,1412
2755.4104759595057,1442
2757.1800294362156,1358
2758.949228327187,1341
2760.7180729331412,1409
2762.486563554877,1362
2764.254700493272,1384
2766.022484049284,1354
2767.789914523947,1326
2769.5569922183786,1395
2771.3237174337705,1468
2773.090090471394,1401
2774.8561116326036,1361
2776.6217812188274,1362
2778.3870995315756,1360
2780.1520668724356,1344
2781.9166835430747,1352
2783.6809498452394,1370
2785.444866080754,1404
2787.2084325515225,1354
2788.971649559527,1465
2790.73451740683,1366
2792.4970363955713,1397
2794.2592068279705,1331
2796.0210290063264,1397
2797.7825032330147,1395
2799.543629810493,1384
2801.304409041296,1384
2803.0648412280366,1410
2804.8249266734088,1362
2806.5846656801846,1395
2808.344058551212,1375
2810.1031055894246,1472
2811.8618070978273,1382
2813.6201633795085,1410
2815.378174737636,1316
2817.1358414754536,1344
2818.893163896285,1429
2820.6501423035334,1361
2822.4067770006814,1302
2824.1630682912883,1374
2825.9190164789957,1402
2827.6746218675207,1407
2829.429884760661,1401
2831.184805462294,1343
2832.9393842763743,1404
2834.693621506936,1355
2836.4475174580916,1414
2838.201072434034,1435
2839.954286739034,1375
2841.707160677441,1384
2843.459694553685,1334
2845.2118886722724,1377
2846.96374333779,1355
2848.7152588549034,1374
2850.4664355283567,1470
2852.217273662973,1352
2853.9677735636546,1372
2855.7179355353833,1365
2857.4677598832186,1348
2859.217246912299,1420
2860.9663969278427,1364
2862.715210235146,1366
2864.4636871395846,1406
2866.211827946614,1371
2867.9596329617652,1353
2869.7071024906536,1400
2871.4542368389684,1341
2873.20103631248,1363
2874.947501217038,1370
2876.6936318585695,1403
2878.4394285430812,1384
2880.1848915766604,1349
2881.9300212654707,1416
2883.6748179157553,1432
2885.4192818338374,1350
2887.1634133261173,1386
2888.907212699077,1347
2890.6506802592744,1344
2892.393816313348,1386
2894.1366211680142,1339
2895.8790951300693,1395
2897.621238506388,1396
2899.363051603925,1384
2901.1045347297118,1398
2902.8456881908596,1368
2904.58651229456,1396
2906.327007348081,1453
2908.067173658772,1369
2909.8070115340597,1430
2911.5465212814497,1420
2913.285703208527,1341
2915.0245576229563,1406
2916.7630848324807,1355
2918.5012851449196,1351
2920.2391588681758,1352
2921.976706310227,1421
2923.7139277791334,1383
2925.4508235830313,1353
2927.187394030137,1405
2928.923639428745,1431
2930.6595600872306,1367
2932.395156314046,1394
2934.1304284177218,1414
2935.8653767068713,1329
2937.6000014901815,1392
2939.3343030764227,1392
2941.068281774442,1392
2942.8019378931644,1393
2944.5352717415976,1373
2946.2682836288236,1393
2948.0009738640065,1387
2949.7333427563885,1429
2951.465390615289,1393
2953.1971177501086,1372
2954.9285244703265,1394
2956.6596110855,1372
2958.3903779052657,1373
2960.1208252393385,1391
2961.8509533975125,1346
2963.5807626896617,1332
2965.3102534257378,1288
2967.0394259157715,1337
2968.768280469873,1371
2970.496817398232,1328
2972.2250370111146,1369
2973.952939618869,1391
2975.6805255319196,1334
2977.4077950607707,1403
2979.134748516006,1346
2980.861386208289,1432
2982.587708448359,1351
2984.313715547037,1421
2986.039407815222,1392
2987.764785563891,1373
2989.489849104102,1370
2991.2145987469908,1411
2992.9390348037705,1381
2994.6631575857346,1306
2996.3869674042576,1325
2998.1104645707887,1377
2999.83364939686,1350
3001.5565221940783,1344
3003.2790832741334,1336
3005.0013329487924,1408
3006.7232715298996,1384
3008.4448993293804,1342
3010.166216659239,1381
3011.887223831558,1439
3013.607921158498,1387
3015.3283089522993,1388
3017.0483875252826,1356
3018.7681571898443,1390
3020.4876182584626,1398
3022.2067710436927,1344
3023.9256158581707,1358
3025.644153014609,1392
3027.362382825801,1443
3029.0803056046193,1399
3030.797921664012,1383
3032.5152313170106,1369
3034.2322348767225,1298
3035.9489326563353,1427
3037.665324969115,1378
3039.3814121284063,1330
3041.097194447633,1370
3042.812672240299,1361
3044.5278458199855,1383
3046.2427155003525,1379
3047.9572815951406,1379
3049.671544418167,1341
3051.38550428333,1336
3053.0991615046073,1373
3054.812516396051,1364
3056.5255692717974,1360
3058.2383204460575,1371
3059.9507702331257,1378
3061.662918947372,1406
3063.3747669032446,1375
3065.0863144152736,1353
3066.7975617980674,1366
3068.508509366309,1401
3070.219157434767,1385
3071.9295063182844,1344
3073.639556331785,1374
3075.3493077902704,1330
3077.058761008821,1357
3078.7679163025964,1360
3080.476773986837,1367
3082.1853343768594,1379
3083.89359778806,1374
3085.6015645359153,1445
3087.3092349359786,1351
3089.016609303884,1370
3090.7236879553434,1405
3092.4304712061476,1363
3094.136959372166,1404
3095.843152769349,1384
3097.5490517137237,1413
3099.2546565213966,1390
3100.959967508554,1397
3102.66498499146,1369
3104.3697092864577,1356
3106.0741407099695,1388
3107.778279578498,1433
3109.482126208622,1381
3111.1856809170004,1452
3112.8889440203716,1385
3114.5919158355528,1348
3116.294596679439,1402
3117.996986869006,1406
3119.6990867213062,1394
3121.4008965534726,1380
3123.102416682717,1363
3124.803647426329,1438
3126.5045891016784,1369
3128.205242026213,1427
3129.90560651746,1369
3131.605682893025,1399
3133.3054714705922,1365
3135.0049725679282,1420
3136.7041865028714,1407
3138.4031135933465,1424
3140.101754157353,1427
3141.800108512971,1336
3143.498176978357,1365
3145.1959598717494,1352
3146.8934575114636,1379
3148.5906702158954,1357
3150.2875983035183,1377
3151.9842420928853,1391
3153.680601902627,1370
3155.376678051456,1365
3157.07247085816,1416
3158.767980641609,1415
3160.463207720748,1383
3162.158152414606,1364
3163.8528150422862,1344
3165.5471959229726,1353
3167.2412953759303,1346
3168.9351137204976,1372
3170.628651276098,1359
3172.3219083622307,1365
3174.014885298474,1339
3175.707582404485,1332
3177.4000000000005,1357
3179.092138404835,1384
3180.7839979388846,1392
3182.47557892212,1351
3184.166881674594,1384
3185.8579065164386,1341
3187.5486537678626,1406
3189.2391237491547,1371
3190.9293167806827,1393
3192.6192331828934,1383
3194.3088732763117,1379
3195.998237381542,1362
3197.687325819268,1351
3199.376138910251,1385
3201.064676975334,1393
3202.7529403354347,1304
3204.4409293115523,1390
3206.1286442247647,1410
3207.816085396229,1353
3209.5032531471825,1373
3211.190147798936,1392
3212.8767696728846,1391
3214.5631190905015,1370
3216.2491963733373,1319
3217.9350018430214,1300
3219.6205358212637,1423
3221.305798629851,1380
3222.990790590651,1366
3224.6755120256103,1387
3226.359963256751,1335
3228.0441446061795,1364
3229.7280563960758,1358
3231.411698948703,1399
3233.0950725863995,1359
3234.778177631587,1370
3236.461014406761,1340
3238.1435832345005,1327
3239.8258844374595,1351
3241.507918338374,1394
3243.1896852600576,1367
3244.8711855254023,1357
3246.552419457381,1383
3248.233387379042,1390
3249.914089613516,1382
3251.59452648401,1328
3253.274698313813,1391
3254.95460542629,1351
3256.6342481448855,1326
3258.313626793125,1364
3259.9927416946084,1287
3261.6715931730196,1285
3263.3501815521176,1335
3265.0285071557437,1381
3266.706570307815,1370
3268.3843713323286,1340
3270.0619105533615,1374
3271.739188295068,1392
3273.4162048816834,1340
3275.0929606375184,1431
3276.769455886966,1374
3278.445690954498,1375
3280.1216661646613,1371
3281.797381842087,1321
3283.4728383114807,1398
3285.1480358976296,1326
3286.8229749253996,1375
3288.4976557197333,1382
3290.172078605655,1340
3291.846243908266,1358
3293.5201519527463,1326
3295.193803064357,1307
3296.8671975684374,1295
3298.5403357904024,1319
3300.21321805575,1340
3301.8858446900567,1367
3303.558216018975,1348
3305.23033236824,1383
3306.9021940636603,1393
3308.57380143113,1371
3310.2451547966184,1390
3311.916254486174,1375
3313.5871008259246,1349
3315.2576941420766,1329
3316.9280347609147,1324
3318.5981230088046,1324
3320.2679592121895,1363
3321.9375436975924,1348
3323.606876791612,1374
3325.27595882093,1300
3326.944790112305,1381
3328.6133709925753,1319
3330.2817017886573,1354
3331.949782827547,1313
3333.617614436319,1377
3335.2851969421245,1313
3336.952530672199,1331
3338.619615953853,1403
3340.286453114475,1359
3341.9530424815357,1335
3343.619384382583,1354
3345.2854791452437,1321
3346.951327097224,1406
3348.6169285663073,1355
3350.2822838803577,1354
3351.947393367319,1357
3353.61225735521,1331
3355.2768761721345,1339
3356.9412501462693,1316
3358.605379605873,1369
3360.2692648792827,1321
3361.9329062949146,1369
3363.596304181263,1406
