CollectionTime,7/11/2024 1:12:24 PM
ExposureUsed,3
CalibratedSpectrum
-962.7078968117929,514
-959.9714848408522,551
-957.2358232597828,590
-954.5009119013725,540
-951.7667505983302,535
-949.0333391832855,553
-946.3006774887896,526
-943.5687653473143,541
-940.837602591253,557
-938.1071890529199,578
-935.3775245645503,564
-932.6486089583007,588
-929.9204420662485,592
-927.1930237203925,612
-924.4663537526524,580
-921.7404319948689,559
-919.0152582788041,585
-916.2908324361409,635
-913.5671542984834,596
-910.8442236973568,567
-908.1220404642074,596
-905.4006044304027,634
-902.679915427231,597
-899.959973285902,565
-897.2407778375464,587
-894.5223289132158,567
-891.8046263438832,562
-889.0876699604426,526
-886.3714595937089,535
-883.6559950744183,562
-880.9412762332282,554
-878.2273029007168,555
-875.5140749073835,561
-872.8015920836489,551
-870.0898542598545,573
-867.3788612662631,532
-864.6686129330585,560
-861.9591090903457,575
-859.2503495681506,536
-856.5423341964203,561
-853.8350628050229,533
-851.1285352237478,568
-848.4227512823054,544
-845.7177108103272,552
-843.0134136373656,574
-840.3098595928943,618
-837.6070485063082,576
-834.9049802069229,592
-832.2036545239757,547
-829.5030712866244,575
-826.8032303239481,565
-824.1041314649472,584
-821.4057745385428,567
-818.7081593735775,549
-816.0112857988148,578
-813.3151536429393,559
-810.6197627345566,558
-807.9251129021936,563
-805.2312039742981,553
-802.5380357792392,554
-799.8456081453069,577
-797.1539209007124,584
-794.462973873588,595
-791.772766891987,604
-789.083299783884,587
-786.3945723771743,549
-783.7065844996748,546
-781.0193359791231,574
-778.3328266431781,561
-775.6470563194197,539
-772.9620248353489,546
-770.2777320183878,561
-767.5941776958798,562
-764.9113616950891,561
-762.2292838432011,594
-759.5479439673222,592
-756.8673418944801,567
-754.1874774516235,585
-751.5083504656222,590
-748.8299607632671,608
-746.15230817127,584
-743.475392516264,569
-740.7992136248035,615
-738.1237713233636,585
-735.4490654383407,613
-732.7750957960521,568
-730.1018622227365,629
-727.4293645445534,590
-724.7576025875837,592
-722.0865761778291,586
-719.4162851412126,613
-716.7467293035781,635
-714.0779084906909,605
-711.409822528237,616
-708.7424712418238,575
-706.0758544569796,587
-703.4099719991541,619
-700.7448236937178,652
-698.0804093659622,617
-695.4167288411002,602
-692.7537819442656,608
-690.0915685005134,610
-687.4300883348199,600
-684.7693412720819,628
-682.1093271371178,615
-679.4500457546669,626
-676.7914969493897,624
-674.1336805458676,610
-671.4765963686034,658
-668.8202442420206,623
-666.1646239904642,636
-663.5097354382001,628
-660.8555784094151,659
-658.2021527282176,673
-655.5494582186366,651
-652.8974947046223,634
-650.2462620100463,616
-647.5957599587009,683
-644.9459883742998,675
-642.2969470804776,658
-639.6486359007902,690
-637.0010546587141,710
-634.3542031776476,668
-631.7080812809096,704
-629.0626887917401,669
-626.4180255333008,685
-623.7740913286734,710
-621.1308860008619,714
-618.4884093727904,684
-615.8466612673046,661
-613.2056415071715,645
-610.5653499150785,681
-607.9257863136347,679
-605.28695052537,666
-602.6488423727357,680
-600.0114616781036,677
-597.3748082637674,671
-594.7388819519412,694
-592.1036825647604,750
-589.4692099242818,783
-586.8354638524829,781
-584.2024441712624,738
-581.5701507024403,721
-578.9385832677575,696
-576.3077416888759,747
-573.6776257873787,724
-571.0482353847704,700
-568.4195703024757,710
-565.7916303618415,692
-563.164415384135,726
-560.5379251905453,655
-557.9121596021815,695
-555.2871184400748,679
-552.6628015251767,714
-550.0392086783606,690
-547.4163397204204,717
-544.794194472071,702
-542.1727727539491,727
-539.5520743866118,764
-536.9320991905377,765
-534.3128469861261,785
-531.6943175936979,751
-529.0765108334947,798
-526.4594265256793,857
-523.8430644903358,956
-521.2274245474689,1027
-518.612506517005,1045
-515.9983102187913,1096
-513.3848354725959,1118
-510.77208209810846,1121
-508.16004991493924,1251
-505.5487387426199,1356
-502.9381484006032,1525
-500.3282787082628,1626
-497.71912948489364,1567
-495.1107005497117,1481
-492.5029917218539,1353
-489.8960028203786,1183
-487.28973366426493,1105
-484.68418407241325,987
-482.07935386364494,916
-479.47524285670266,874
-476.87185087025,902
-474.2691777228715,893
-471.66722323307334,906
-469.0659872192821,849
-466.4654694998459,902
-463.86566989303384,889
-461.26658821703614,902
-458.66822428996414,823
-456.07057792985,862
-453.4736489546475,926
-450.877437182231,862
-448.28194243039627,844
-445.68716451686,805
-443.09310325926003,848
-440.49975847515555,866
-437.9071299820263,841
-435.31521759727354,825
-432.72402113821954,855
-430.13354042210767,894
-427.5437752661022,908
-424.95472548728867,922
-422.36639090267386,869
-419.7787713291855,1009
-417.1918665836721,931
-414.60567648290385,963
-412.0202008435715,949
-409.4354394822874,924
-406.8513922155845,1007
-404.26805885991723,966
-401.685439231661,955
-399.103533147112,993
-396.522340422488,944
-393.9418608739278,895
-391.3620943174908,930
-388.7830405691583,916
-386.2046994448317,885
-383.6270707603344,867
-381.05015433141045,791
-378.473949973725,711
-375.8984575028645,780
-373.32367673433623,686
-370.74960748356875,682
-368.1762495659117,671
-365.60360279663576,612
-363.03166699093265,569
-360.4604419639154,540
-357.8899275306178,519
-355.32012350599507,496
-352.7510297049233,494
-350.1826459421999,456
-347.61497203254316,466
-345.04800779059235,472
-342.4817530309082,505
-339.91620756797226,499
-337.35137121618743,534
-334.7872437898774,566
-332.22382510328725,573
-329.66111497058273,514
-327.09911320585127,512
-324.53781962310075,531
-321.9772340362607,539
-319.4173562591816,501
-316.8581861056348,484
-314.2997233893127,494
-311.7419679238294,450
-309.1849195227194,494
-306.62857799943856,538
-304.0729431673641,545
-301.51801483979375,598
-298.963792829947,553
-296.41027695096386,529
-293.85746701590574,587
-291.3053628377552,590
-288.7539642294155,602
-286.2032710037115,554
-283.65328297338897,540
-281.1039999511146,563
-278.5554217494762,667
-276.007548180983,598
-273.4603790580651,583
-270.9139141930734,525
-268.3681533982807,522
-265.8230964858798,592
-263.27874326798565,679
-260.7350935566336,627
-258.1921471637804,594
-255.6499039013039,546
-253.10836358100266,576
-250.56752601459698,577
-248.02739101372765,631
-245.48795838995704,656
-242.94922795476816,721
-240.41119951956557,663
-237.8738728956746,679
-235.33724789434166,665
-232.80132432673452,619
-230.2661020039418,597
-227.73158073697357,658
-225.19776033676033,641
-222.66464061415422,628
-220.1322213799284,620
-217.60050244477725,611
-215.06948361931552,577
-212.53916471408013,672
-210.00954553952818,777
-207.48062590603843,765
-204.9524056239104,708
-202.4248845033651,750
-199.8980623545441,730
-197.37193898751036,694
-194.84651421224817,692
-192.32178783866232,729
-189.79775967657952,815
-187.27442953574644,808
-184.7517972258321,881
-182.2298625564256,809
-179.7086253370378,875
-177.18808537710026,826
-174.66824248596583,791
-172.14909647290835,733
-169.6306471471229,738
-167.11289431772548,860
-164.59583779375328,897
-162.07947738416453,846
-159.5638128978386,786
-157.04884414357605,1001
-154.53457093009854,954
-152.02099306604828,914
-149.50811035998936,812
-146.99592262040665,803
-144.48442965570587,803
-141.97363127421409,1000
-139.46352728417958,1034
-136.95411749377126,1021
-134.44540171107985,971
-131.93737974411636,828
-129.43005140081357,827
-126.92341648902493,1014
-124.41747481652521,1331
-121.91222619101006,1484
-119.40767042009657,1808
-116.90380731132257,1982
-114.40063667214702,2158
-111.8981583099503,2377
-109.3963720320337,1915
-106.89527764561933,1690
-104.39487495785067,1874
-101.89516377579241,2295
-99.39614390642998,2777
-96.89781515667039,2992
-94.40017733334128,2599
-91.90323024319173,2905
-89.40697369289148,5606
-86.91140748903172,9963
-84.41653143812482,9733
-81.92234534660395,7881
-79.42884902082358,5343
-76.93604226705907,7361
-74.4439248915071,15500
-71.95249670028534,27252
-69.46175749943245,34813
-66.97170709490854,34133
-64.48234529259423,29146
-61.99367189829195,23271
-59.50568671772464,17817
-57.01838955653636,11653
-54.53178022029283,8774
-52.045858514480074,8175
-49.560624244506016,7213
-47.07607721569923,8092
-44.59221723330904,9836
-42.10904410250669,10890
-39.62655762838392,10220
-37.14475761595372,10058
-34.66364387015028,10406
-32.18321619582866,9326
-29.70347439776515,8707
-27.224418280657005,8169
-24.74604764912317,8167
-22.26836230770266,12584
-19.7913620608565,23654
-17.315046712966478,42867
-14.83941606833514,60260
-12.36446993118659,65037
-9.89020810566592,65037
-7.416630395839093,65037
-4.94373660569363,65037
-2.471526539137585,65037
-6.821210263296962E-13,65037
2.47084320796705,65037
4.941003281093458,65037
7.410480415786196,65037
9.879274808531363,65037
12.347386655893956,65037
14.814816154518212,65037
17.28156350112681,65037
19.74762889252179,65037
22.21301252558385,65037
24.67771459727237,21092
27.141735304626195,4077
29.605074844762612,2775
32.06773341487792,3240
34.52971121224755,2801
36.99100843422559,2933
39.45162527824516,2584
41.91156194181792,1980
44.370818622535126,1830
46.82939551806646,1562
49.287292826160524,1769
51.74451074464503,2232
54.201049471426245,2876
56.65690920448981,2428
59.112090141899785,1595
61.56659248179983,1449
64.02041642241159,1241
66.4735621620365,1210
68.92602989905402,1146
71.37781983192338,1404
73.82893215918205,1475
76.27936707944684,1532
78.72912479141326,1416
81.17820549385567,1317
83.62660938562783,1643
86.07433666566146,1707
88.5213875329681,1284
90.96776218663751,1013
93.41346082583925,1032
95.85848364982041,1077
98.30283085790859,1452
100.7465026495089,1561
103.18949922410604,1441
105.63182078126385,1269
108.07346752062438,1160
110.51443964190923,927
112.95473734491827,876
115.39436082953114,1112
117.83331029570547,1230
120.27158594347827,1157
122.7091879729652,1313
125.1461165843615,1296
127.58237197794062,1070
130.01795435405518,923
132.4528639131364,911
134.88710085569494,970
137.32066538231982,961
139.75355769367923,868
142.1857779905207,844
144.61732647366978,833
147.04820334403132,889
149.47840880258934,901
151.90794305040674,1042
154.33680628862487,1235
156.76499871846443,1351
159.19252054122433,1383
161.61937195828352,1470
164.04555317109896,1632
166.47106438120693,1841
168.89590579022217,1956
171.320077599839,2063
173.7435800118302,2089
176.16641322804742,2177
178.58857745042144,2257
181.01007288096173,2345
183.43089972175687,2380
185.85105817497413,2337
188.27054844285988,2407
190.6893707277394,2429
193.10752523201643,2470
195.5250121581745,2533
197.9418317087751,2602
200.3579840864594,2587
202.7734694939469,2526
205.18828813403627,2473
207.6024402096051,2645
210.01592592360964,2635
212.42874547908548,2705
214.84089907914665,2709
217.2523869269868,2640
219.66320922587727,2602
222.0733661791695,2498
224.48285799029293,2560
226.8916848627572,2525
229.29984700014882,2619
231.7073446061355,2647
234.11417788446204,2615
236.520347038953,2772
238.92585227351185,2744
241.33069379212054,2827
243.73487179884035,2766
246.1383864978112,2855
248.541238093252,2848
250.9434267894609,2831
253.34495279081432,2965
255.74581630176783,2821
258.1460175268563,2805
260.54555667069314,2824
262.9444339379703,2828
265.3426495334594,2807
267.7402036620107,2770
270.1370965285529,2830
272.53332833809407,2726
274.9288992957214,2610
277.32380960660055,2525
279.718059475976,2505
282.1116491091717,2514
284.5045787115897,2499
286.89684848871195,2510
289.2884586460981,2450
291.67940938938807,2461
294.0697009242996,2441
296.4593334566299,2479
298.84830719225477,2459
301.23662233712923,2507
303.6242790972866,2442
306.01127767884,2434
308.39761828798066,2310
310.78330113097934,2381
313.16832641418534,2417
315.5526943440269,2311
317.9364051270112,2346
320.3194589697242,2270
322.70185607883093,2354
325.0835966610754,2361
327.4646809232805,2286
329.8451090723478,2151
332.2248813152577,2236
334.6039978590701,2148
336.9824589109231,2231
339.36026467803447,2192
341.7374153677,2146
344.113911187295,2146
346.48975234427337,2056
348.8649390461686,2000
351.2394715005918,2121
353.61334991523415,2105
355.9865744978655,2061
358.35914545633375,2060
360.73106299856715,2110
363.10232733257146,2139
365.47293866643247,2112
367.84289720831396,2001
370.2122031664593,2082
372.5808567491905,2046
374.9488581649083,1991
377.31620762209275,1898
379.6829053293021,1922
382.0489514951745,1959
384.4143463284262,1907
386.7790900378528,1980
389.14318283232853,2022
391.50662492080653,1997
393.86941651231916,2033
396.23155781597745,2011
398.5930490409713,1946
400.9538903965696,2014
403.3140820921202,2029
405.6736243370498,2028
408.03251734086336,1901
410.3907613131465,1949
412.74835646356166,1861
415.10530300185144,1885
417.4616011378372,1968
419.81725108141893,1872
422.1722530425758,1900
424.5266072313656,1977
426.880313857925,1875
429.2333731324701,1900
431.58578526529516,1832
433.9375504667738,1869
436.2886689473588,1858
438.63914091758113,1934
440.9889665880513,1786
443.33814616945835,1831
445.68667987257015,1827
448.03456790823395,1845
450.3818104873759,1800
452.72840782100013,1838
455.07436012019105,1842
457.41966759611057,1842
459.7643304600007,1945
462.10834892318155,1877
464.4517231970525,1820
466.79445349309174,1812
469.1365400228566,1835
471.4779829979826,1893
473.81878263018564,1924
476.15893913125876,1884
478.4984527130747,1931
480.8373235875855,1985
483.17555196682144,1942
485.5131380628919,2029
487.8500820879857,2153
490.1863842543697,2238
492.52204477439034,2437
494.8570638604725,2555
497.1914417251204,2891
499.52517858091653,3227
501.85827464052306,3348
504.19073011668036,3412
506.5225452222086,3400
508.85372017000566,3281
511.18425517304956,3122
513.514150444396,3095
515.8434061971808,3579
518.1720226446176,4219
520.4999999999999,4456
522.8273384766991,4257
525.1540382881666,3971
527.480099647932,3499
529.8055227696037,2968
532.1303078668694,2445
534.454455153496,2104
536.777964843328,2078
539.1008371502907,2073
541.4230722883866,1942
543.744670471698,1939
546.0656319143858,1952
548.3859568306899,1969
550.7056454349294,1918
553.0246979415016,1874
555.3431145648834,1859
557.6608955196306,1907
559.978041020377,1892
562.2945512818363,1876
564.6104265188006,1795
566.9256669461412,1899
569.2402727788082,1910
571.5542442318302,1950
573.8675815203156,1896
576.1802848594508,1856
578.4923544645015,1949
580.8037905508126,1906
583.114593333807,1959
585.4247630289875,1955
587.7342998519354,1962
590.0432040183106,1912
592.3514757438526,1927
594.6591152443794,1938
596.9661227357875,1896
599.2724984340531,1983
601.578242555231,1929
603.8833553154542,1934
606.1878369309362,1997
608.4916876179676,1925
610.7949075929192,1872
613.0974970722403,1976
615.3994562724587,1884
617.7007854101818,1942
620.0014847020951,1819
622.3015543649641,1921
624.6009946156324,1845
626.8998056710224,1955
629.1979877481361,1939
631.4955410640538,1909
633.7924658359349,1980
636.0887622810175,1844
638.3844306166192,1873
640.6794710601358,1895
642.9738838290426,1927
645.2676691408932,1941
647.5608272133207,1978
649.853358264037,2004
652.1452625108324,1967
654.4365401715764,2037
656.7271914642178,2019
659.0172166067838,1986
661.3066158173809,1933
663.5953893141935,1921
665.8835373154867,1961
668.1710600396028,1961
670.4579577049639,1925
672.7442305300709,1929
675.0298787335033,1973
677.3149025339197,1936
679.599302150058,1992
681.8830778007342,1958
684.1662297048437,1889
686.4487580813608,1964
688.7306631493387,2057
691.0119451279091,2011
693.2926042362834,2006
695.5726406937516,1984
697.8520547196814,1946
700.1308465335215,1981
702.4090163547982,1979
704.6865644031171,1958
706.9634908981619,1991
709.2397960596965,1978
711.5154801075631,1983
713.7905432616823,1947
716.0649857420548,1861
718.3388077687592,1984
720.612009561953,1910
722.8845913418733,1934
725.1565533288352,1935
727.427895743234,1981
729.6986188055427,1965
731.9687227363137,1955
734.238207756178,1938
736.5070740858458,1988
738.7753219461066,2004
741.0429515578281,1977
743.3099631419569,2028
745.5763569195191,1948
747.8421331116193,1992
750.1072919394409,1931
752.3718336242467,1932
754.6357583873777,2031
756.8990664502545,1949
759.1617580343765,1985
761.423833361321,1895
763.6852926527457,1916
765.9461361303862,1963
768.206364016058,2050
770.4659765316536,1969
772.7249738991469,2059
774.9833563405886,1933
777.2411240781092,1968
779.4982773339183,1970
781.7548163303044,2015
784.010741289634,1985
786.2660524343538,2012
788.5207499869881,1986
790.7748341701416,1974
793.0283052064964,2031
795.2811633188143,2016
797.5334087299362,1994
799.7850416627813,1986
802.0360623403484,2059
804.2864709857143,1964
806.5362678220353,2015
808.7854530725468,1972
811.0340269605625,1989
813.2819897094754,1996
815.5293415427581,1982
817.77608268396,1966
820.0222133567116,1953
822.2677337847211,1925
824.5126441917765,1946
826.7569448017433,2002
829.0006358385675,2016
831.2437175262731,2057
833.4861900889629,1967
835.7280537508192,1962
837.9693087361026,1972
840.2099552691533,1978
842.4499935743896,2046
844.689423876309,1981
846.9282463994886,1972
849.1664613685833,2010
851.4040690083276,1957
853.6410695435349,1989
855.877463199097,2004
858.1132501999847,1979
860.3484307712487,1908
862.5830051380175,1991
864.8169735254988,2015
867.0503361589791,1986
869.2830932638243,2057
871.5152450654786,2061
873.7467917894654,2011
875.9777336613873,1957
878.2080709069252,2005
880.4378037518389,2041
882.666932421968,2059
884.8954571432301,2031
887.1233781416219,2101
889.3506956432192,2052
891.5774098741766,2056
893.803521060728,2016
896.0290294291852,2017
898.2539352059397,2049
900.4782386174619,2027
902.7019398903011,2081
904.925039251085,2063
907.147536926521,2085
909.3694331433943,2040
911.59072812857,2014
913.8114221089921,2046
916.0315153116827,2064
918.2510079637437,2031
920.4699002923547,1952
922.6881925247761,1975
924.905884888345,1960
927.1229776104793,1925
929.3394709186747,1899
931.555365040506,1949
933.7706602036275,1967
935.9853566357709,1969
938.1994545647489,2000
940.4129542184515,1910
942.6258558248488,1980
944.8381596119883,1924
947.0498658079974,1960
949.2609746410825,1938
951.4714863395287,1887
953.6814011316998,1963
955.8907192460387,1952
958.0994409110671,1880
960.3075663553858,1907
962.5150958076741,1910
964.7220294966913,1953
966.928367651274,1888
969.1341105003388,1890
971.3392582728806,1836
973.5438111979742,1897
975.747769504772,1917
977.9511334225061,1846
980.153903180487,1794
982.3560790081052,1793
984.5576611348289,1850
986.7586497902058,1756
988.9590452038618,1876
991.158847605503,1820
993.3580572249133,1774
995.5566742919558,1812
997.7546990365728,1802
999.952131688785,1735
1002.1489724786926,1769
1004.3452216364743,1702
1006.5408793923874,1690
1008.7359459767691,1625
1010.9304216200343,1658
1013.1243065526781,1683
1015.3176010052733,1668
1017.510305208472,1588
1019.7024193930064,1680
1021.8939437896848,1629
1024.0848786293977,1662
1026.2752241431122,1625
1028.4649805618747,1684
1030.6541481168115,1649
1032.842727039127,1617
1035.0307175601051,1609
1037.2181199111074,1560
1039.4049343235752,1565
1041.591161029029,1617
1043.7768002590683,1617
1045.9618522453698,1532
1048.1463172196918,1649
1050.3301954138697,1623
1052.513487059818,1595
1054.69619238953,1608
1056.8783116350783,1508
1059.0598450286152,1574
1061.2407928023704,1578
1063.4211551886528,1625
1065.6009324198508,1619
1067.780124728432,1507
1069.9587323469414,1615
1072.1367555080046,1524
1074.314194444325,1519
1076.4910493886855,1511
1078.667320573947,1459
1080.843008233051,1506
1083.0181125990161,1526
1085.1926339049414,1535
1087.3665723840027,1513
1089.5399282694575,1561
1091.7127017946405,1536
1093.8848931929647,1438
1096.0565026979243,1473
1098.2275305430899,1507
1100.3979769621128,1477
1102.567842188722,1489
1104.737126456726,1477
1106.9058300000124,1498
1109.0739530525475,1570
1111.2414958483764,1474
1113.4084586216231,1456
1115.5748416064907,1508
1117.7406450372605,1427
1119.9058691482942,1462
1122.0705141740304,1414
1124.2345803489884,1503
1126.3980679077658,1505
1128.5609770850388,1493
1130.7233081155623,1489
1132.8850612341707,1493
1135.0462366757774,1475
1137.2068346753745,1445
1139.3668554680326,1449
1141.526299288901,1434
1143.68516637321,1406
1145.8434569562655,1491
1148.001171273455,1488
1150.158309560244,1434
1152.3148720521767,1363
1154.470858984876,1483
1156.626270594044,1382
1158.7811071154629,1471
1160.9353687849912,1457
1163.089055838569,1389
1165.242168512213,1436
1167.3947070420209,1434
1169.5466716641677,1385
1171.6980626149075,1431
1173.8488801305748,1378
1175.9991244475814,1427
1178.1487958024186,1441
1180.2978944316555,1439
1182.4464205719428,1455
1184.5943744600072,1387
1186.7417563326567,1413
1188.8885664267755,1444
1191.0348049793297,1386
1193.1804722273619,1427
1195.325568407995,1421
1197.4700937584303,1416
1199.614048515948,1367
1201.7574329179074,1357
1203.900247201746,1416
1206.042491604982,1419
1208.1841663652099,1440
1210.3252717201053,1340
1212.465807907422,1454
1214.6057751649923,1422
1216.7451737307279,1461
1218.8840038426192,1395
1221.0222657387353,1401
1223.1599596572241,1482
1225.2970858363137,1454
1227.4336445143094,1429
1229.5696359295966,1417
1231.705060320639,1468
1233.8399179259786,1481
1235.9742089842384,1430
1238.107933734118,1431
1240.2410924143974,1516
1242.373685263935,1425
1244.5057125216676,1452
1246.6371744266116,1463
1248.7680712178621,1408
1250.898403134593,1378
1253.028170416058,1410
1255.1573733015875,1382
1257.2860120305932,1421
1259.4140868425648,1375
1261.54159797707,1459
1263.6685456737569,1443
1265.7949301723515,1437
1267.9207517126597,1489
1270.046010534565,1446
1272.1707068780306,1456
1274.2948409830983,1494
1276.4184130898889,1466
1278.541423438603,1520
1280.6638722695184,1452
1282.785759822993,1534
1284.9070863394636,1508
1287.0278520594447,1456
1289.1480572235314,1577
1291.2677020723963,1515
1293.3867868467923,1487
1295.5053117875495,1502
1297.623277135579,1586
1299.740683131868,1525
1301.8575300174857,1581
1303.973818033578,1601
1306.0895474213703,1551
1308.2047184221678,1541
1310.3193312773528,1530
1312.4333862283888,1591
1314.5468835168163,1552
1316.659823384255,1543
1318.7722060724045,1572
1320.8840318230418,1578
1322.9953008780249,1547
1325.1060134792888,1616
1327.2161698688478,1513
1329.3257702887959,1539
1331.4348149813054,1561
1333.5433041886276,1569
1335.6512381530933,1547
1337.7586171171101,1578
1339.8654413231675,1583
1341.9717110138317,1557
1344.0774264317488,1589
1346.1825878196432,1498
1348.2871954203192,1473
1350.3912494766587,1527
1352.4947502316231,1497
1354.5976979282532,1533
1356.7000928096686,1509
1358.8019351190665,1542
1360.9032250997243,1558
1363.0039629949988,1541
1365.1041490483235,1518
1367.2037835032133,1538
1369.3028666032606,1505
1371.401398592137,1497
1373.4993797135926,1519
1375.5968102114575,1594
1377.6936903296396,1550
1379.7900203121262,1532
1381.8858004029835,1529
1383.9810308463561,1579
1386.075711886469,1594
1388.1698437676241,1544
1390.2634267342032,1564
1392.356461030667,1491
1394.4489469015557,1581
1396.5408845914872,1605
1398.6322743451592,1550
1400.7231164073469,1580
1402.813411022907,1563
1404.903158436773,1600
1406.9923588939578,1601
1409.0810126395531,1663
1411.1691199187303,1608
1413.2566809767386,1624
1415.343696058907,1647
1417.4301654106425,1633
1419.5160892774315,1646
1421.6014679048399,1681
1423.6863015385125,1657
1425.7705904241707,1662
1427.8543348076178,1654
1429.9375349347342,1598
1432.0201910514802,1675
1434.102303403894,1615
1436.1838722380944,1699
1438.2648978002767,1728
1440.3453803367174,1705
1442.4253200937692,1704
1444.5047173178677,1731
1446.5835722555234,1697
1448.6618851533285,1686
1450.739656257952,1768
1452.8168858161434,1814
1454.8935740747306,1773
1456.96972128062,1783
1459.045327680797,1874
1461.120393522327,1785
1463.1949190523528,1852
1465.2689045180973,1996
1467.3423501668608,1946
1469.415256246024,1942
1471.4876230030463,1970
1473.559450685465,1948
1475.6307395408976,1992
1477.7014898170391,1997
1479.771701761665,2032
1481.8413756226287,2150
1483.9105116478618,2128
1485.9791100853772,2196
1488.0471711832643,2187
1490.1146951896926,2117
1492.1816823529098,2117
1494.2481329212433,2239
1496.3140471430984,2254
1498.3794252669609,2277
1500.4442675413939,2234
1502.5085742150404,2297
1504.572345536622,2330
1506.6355817549388,2298
1508.6982831188702,2340
1510.7604498773744,2281
1512.8220822794883,2284
1514.8831805743293,2358
1516.9437450110909,2365
1519.003775839048,2377
1521.0632733075522,2491
1523.1222376660367,2427
1525.1806691640113,2433
1527.2385680510652,2419
1529.2959345768668,2524
1531.3527689911643,2486
1533.4090715437833,2445
1535.4648424846291,2508
1537.5200820636855,2514
1539.5747905310159,2567
1541.6289681367616,2500
1543.6826151311434,2585
1545.7357317644614,2658
1547.7883182870937,2589
1549.8403749494987,2656
1551.8919020022113,2711
1553.9428996958477,2697
1555.9933682811015,2814
1558.0433080087469,2802
1560.0927191296346,2875
1562.1416018946961,2822
1564.1899565549415,2812
1566.2377833614592,2843
1568.2850825654164,2779
1570.3318544180606,2762
1572.3780991707158,2807
1574.423817074788,2724
1576.4690083817595,2531
1578.5136733431923,2490
1580.5578122107272,2415
1582.601425236085,2343
1584.6445126710646,2214
1586.6870747675434,2196
1588.7291117774776,2126
1590.7706239529034,2124
1592.8116115459347,2079
1594.8520748087658,1977
1596.8920139936686,1987
1598.9314293529933,1885
1600.9703211391711,1902
1603.008689604711,1787
1605.0465350022005,1775
1607.0838575843068,1758
1609.1206576037753,1760
1611.1569353134305,1689
1613.1926909661765,1731
1615.2279248149953,1710
1617.2626371129481,1709
1619.2968281131757,1659
1621.3304980688963,1634
1623.3636472334088,1656
1625.39627586009,1607
1627.428384202396,1583
1629.459972513861,1573
1631.4910410480993,1589
1633.5215900588028,1582
1635.551619799744,1566
1637.5811305247717,1611
1639.6101224878166,1548
1641.6385959428862,1535
1643.6665511440683,1608
1645.693988345528,1584
1647.7209078015112,1540
1649.7473097663405,1567
1651.7731944944203,1552
1653.7985622402307,1564
1655.823413258333,1590
1657.847747803366,1591
1659.8715661300494,1555
1661.8948684931793,1534
1663.9176551476316,1532
1665.9399263483624,1537
1667.9616823504057,1527
1669.982923408873,1491
1672.0036497789574,1493
1674.0238617159293,1543
1676.043559475138,1544
1678.0627433120121,1497
1680.081413482059,1553
1682.0995702408654,1520
1684.117213844096,1558
1686.134344547495,1558
1688.1509626068864,1511
1690.1670682781705,1582
1692.182661817329,1534
1694.1977434804217,1560
1696.2123135235875,1543
1698.226372203043,1521
1700.2399197750851,1567
1702.2529564960905,1523
1704.2654826225112,1601
1706.277498410882,1586
1708.2890041178139,1517
1710.2999999999988,1528
1712.3104863142066,1489
1714.3204633172854,1489
1716.329931266163,1533
1718.3388904178469,1538
1720.3473410294214,1565
1722.3552833580516,1521
1724.3627176609807,1502
1726.3696441955308,1539
1728.3760632191033,1537
1730.3819749891782,1533
1732.3873797633146,1530
1734.3922777991502,1470
1736.3966693544012,1497
1738.4005546868639,1483
1740.4039340544127,1517
1742.406807715001,1458
1744.4091759266616,1474
1746.4110389475054,1472
1748.4123970357223,1470
1750.413250449582,1462
1752.4135994474318,1498
1754.4134442876993,1466
1756.4127852288902,1477
1758.4116225295893,1532
1760.4099564484595,1398
1762.407787244244,1533
1764.405115175764,1464
1766.4019405019203,1522
1768.3982634816916,1479
1770.3940843741357,1504
1772.3894034383907,1407
1774.3842209336717,1497
1776.378537119274,1481
1778.372352254571,1475
1780.3656665990156,1461
1782.3584804121397,1380
1784.3507939535534,1450
1786.3426074829463,1408
1788.3339212600863,1432
1790.3247355448211,1486
1792.3150505970766,1483
1794.3048666768573,1453
1796.2941840442477,1393
1798.2830029594106,1501
1800.2713236825884,1461
1802.2591464741004,1454
1804.2464715943465,1484
1806.2332993038058,1494
1808.2196298630352,1471
1810.2054635326708,1441
1812.190800573428,1462
1814.175641246101,1440
1816.1599858115628,1398
1818.1438345307652,1452
1820.127187664738,1450
1822.1100454745924,1466
1824.092408221516,1439
1826.0742761667766,1352
1828.055649571721,1417
1830.0365286977735,1415
1832.0169138064398,1467
1833.9968051593014,1414
1835.9762030180214,1455
1837.9551076443408,1468
1839.9335193000788,1413
1841.9114382471344,1417
1843.888864747485,1388
1845.8657990631878,1387
1847.842241456378,1428
1849.8181921892697,1428
1851.7936515241558,1452
1853.7686197234098,1382
1855.7430970494815,1406
1857.7170837649014,1394
1859.6905801322787,1396
1861.6635864143004,1410
1863.6361028737338,1408
1865.608129773424,1408
1867.5796673762961,1378
1869.5507159453537,1476
1871.521275743678,1439
1873.4913470344313,1469
1875.4609300808534,1428
1877.4300251462632,1370
1879.3986324940588,1318
1881.366752387717,1402
1883.3343850907936,1383
1885.3015308669228,1383
1887.268189979819,1440
1889.2343626932739,1433
1891.2000492711595,1427
1893.1652499774254,1451
1895.1299650761011,1441
1897.0941948312952,1389
1899.0579395071945,1434
1901.0211993680641,1438
1902.98397467825,1446
1904.9462657021745,1396
1906.9080727043415,1391
1908.869395949332,1434
1910.8302357018065,1423
1912.790592226504,1369
1914.7504657882428,1367
1916.7098566519212,1380
1918.6687650825133,1438
1920.6271913450764,1377
1922.5851357047422,1396
1924.5425984267245,1395
1926.499579776314,1353
1928.4560800188833,1392
1930.4120994198802,1394
1932.367638244833,1394
1934.32269675935,1378
1936.2772752291175,1411
1938.231373919899,1423
1940.1849930975404,1455
1942.1381330279637,1452
1944.0907939771696,1396
1946.0429762112412,1383
1947.9946799963363,1331
1949.9459055986945,1407
1951.896653284633,1334
1953.8469233205478,1385
1955.7967159729142,1370
1957.7460315082863,1401
1959.6948701932974,1421
1961.6432322946594,1388
1963.5911180791632,1365
1965.5385278136787,1383
1967.4854617651545,1314
1969.4319202006182,1407
1971.377903387176,1373
1973.3234115920136,1391
1975.268445082395,1362
1977.2130041256642,1387
1979.1570889892423,1351
1981.1006999406304,1411
1983.04383724741,1394
1984.986501177238,1375
1986.928691997853,1374
1988.8704099770712,1390
1990.811655382789,1341
1992.7524284829801,1458
1994.692729545698,1434
1996.6325588390755,1357
1998.5719166313224,1425
2000.5108031907307,1350
2002.4492187856677,1363
2004.387163684583,1412
2006.3246381560011,1380
2008.2616424685298,1377
2010.1981768908527,1375
2012.1342416917332,1350
2014.069837140014,1415
2016.0049635046162,1358
2017.9396210545406,1376
2019.8738100588666,1383
2021.8075307867502,1376
2023.740783507431,1424
2025.6735684902228,1381
2027.6058860045214,1321
2029.5377363198004,1377
2031.4691197056118,1351
2033.4000364315875,1390
2035.3304867674374,1352
2037.260470982952,1349
2039.189989347998,1382
2041.1190421325232,1403
2043.047629606554,1356
2044.9757520401945,1372
2046.9034097036288,1381
2048.8306028671195,1352
2050.7573318010086,1365
2052.683596775716,1329
2054.609398061742,1381
2056.5347359296647,1368
2058.4596106501403,1357
2060.384022493906,1360
2062.3079717317764,1302
2064.231458634646,1410
2066.1544834734873,1378
2068.077046519352,1383
2069.99914804337,1368
2071.9207883167524,1345
2073.8419676107865,1372
2075.7626861968406,1359
2077.6829443463607,1381
2079.6027423308715,1454
2081.522080421977,1355
2083.440958891362,1341
2085.359378010786,1401
2087.2773380520907,1365
2089.194839287196,1370
2091.111881988101,1394
2093.0284664268825,1406
2094.9445928756973,1319
2096.86026160678,1409
2098.775472892446,1304
2100.690227005088,1356
2102.604524217178,1379
2104.5183648012676,1372
2106.431749029985,1337
2108.34467717604,1350
2110.2571495122206,1399
2112.169166311393,1319
2114.080727846503,1360
2115.9918343905747,1367
2117.902486216711,1373
2119.8126835980956,1385
2121.722426807987,1396
2123.6317161197285,1421
2125.5405518067364,1376
2127.448934142509,1416
2129.356863400624,1427
2131.264339854737,1439
2133.1713637785815,1442
2135.077935445972,1366
2136.9840551308002,1465
2138.889723107037,1412
2140.7949396487334,1416
2142.699705030018,1383
2144.6040195250994,1355
2146.507883408264,1433
2148.4112969538774,1390
2150.3142604363848,1406
2152.2167741303097,1396
2154.1188383102535,1423
2156.0204532508997,1361
2157.9216192270064,1426
2159.822336513414,1405
2161.7226053850413,1387
2163.622426116884,1444
2165.5217989840185,1449
2167.4207242616,1441
2169.319202224862,1389
2171.2172331491165,1421
2173.1148173097563,1379
2175.0119549822507,1393
2176.90864644215,1431
2178.8048919650823,1468
2180.7006918267534,1447
2182.596046302952,1456
2184.4909556695407,1472
2186.3854202024645,1505
2188.279440177746,1484
2190.173015871487,1458
2192.066147559868,1442
2193.958835519149,1448
2195.851080025667,1402
2197.7428813558417,1472
2199.6342397861667,1420
2201.5251555932186,1468
2203.415629053651,1464
2205.3056604441986,1430
2207.19525004167,1484
2209.084398122958,1501
2210.9731049650327,1551
2212.861370844941,1501
2214.749196039812,1484
2216.636580826851,1494
2218.523525483344,1477
2220.410030286655,1490
2222.296095514226,1498
2224.1817214435805,1460
2226.066908352319,1484
2227.951656518121,1480
2229.835966218746,1496
2231.71983773203,1502
2233.6032713358913,1517
2235.486267308324,1509
2237.3688259274036,1491
2239.2509474712824,1464
2241.132632218193,1486
2243.013880446447,1515
2244.8946924344323,1466
2246.7750684606203,1447
2248.6550088035574,1484
2250.534513741871,1492
2252.413583554265,1493
2254.292218519526,1477
2256.170418916517,1498
2258.0481850241786,1497
2259.925517121534,1438
2261.8024154876825,1504
2263.678880401803,1553
2265.5549121431536,1495
2267.430510991071,1466
2269.305677224971,1472
2271.180411124348,1467
2273.0547129687766,1452
2274.9285830379076,1498
2276.8020216114737,1510
2278.6750289692845,1480
2280.5476053912294,1478
2282.4197511572766,1521
2284.2914665474727,1550
2286.162751841943,1531
2288.0336073208937,1517
2289.904033264608,1541
2291.774029953448,1527
2293.6435976678554,1531
2295.5127366883517,1498
2297.381447295534,1460
2299.2497297700825,1420
2301.1175843927526,1385
2302.9850114443825,1383
2304.852011205885,1344
2306.7185839582553,1250
2308.5847299825664,1266
2310.4504495599676,1264
2312.3157429716925,1239
2314.1806104990483,1224
2316.0450524234247,1248
2317.9090690262888,1281
2319.772660589186,1265
2321.635827393742,1276
2323.498569721661,1254
2325.3608878547248,1217
2327.2227820747967,1262
2329.0842526638157,1279
2330.945299903803,1254
2332.805924076857,1225
2334.6661254651535,1199
2336.525904350951,1261
2338.3852610165827,1216
2340.244195744464,1265
2342.102708817088,1209
2343.9608005170253,1253
2345.8184711269287,1247
2347.675720929526,1241
2349.532550207628,1186
2351.38895924412,1260
2353.24494832197,1204
2355.100517724223,1268
2356.955667734004,1212
2358.810398634514,1301
2360.664710709037,1256
2362.5186042409337,1272
2364.3720795136437,1272
2366.225136810686,1275
2368.0777764156583,1246
2369.929998612237,1222
2371.7818036841777,1276
2373.633191915315,1276
2375.484163589562,1259
2377.3347189909114,1287
2379.184858403434,1284
2381.03458211128,1269
2382.8838903986775,1241
2384.732783549936,1245
2386.5812618494406,1224
2388.4293255816588,1230
2390.2769750311327,1199
2392.1242104824883,1301
2393.971032220427,1225
2395.8174405297295,1243
2397.6634356952563,1268
2399.509018001947,1266
2401.3541877348193,1290
2403.1989451789705,1256
2405.043290619576,1230
2406.8872243418905,1256
2408.730746631247,1324
2410.5738577730594,1266
2412.4165580528183,1285
2414.258847756095,1276
2416.100727168537,1300
2417.9421965758734,1253
2419.783256263912,1322
2421.623906518538,1260
2423.4641476257157,1270
2425.303979871491,1303
2427.143403541984,1259
2428.9824189233977,1288
2430.821026302012,1340
2432.6592259641866,1273
2434.497018196361,1304
2436.33440328505,1244
2438.171381516851,1286
2440.00795317844,1266
2441.844118556569,1265
2443.6798779380724,1260
2445.5152316098606,1345
2447.3501798589255,1296
2449.1847229723357,1294
2451.0188612372403,1273
2452.8525949408663,1316
2454.6859243705203,1266
2456.518849813587,1217
2458.3513715575314,1280
2460.183489889895,1290
2462.015205098301,1303
2463.8465174704493,1295
2465.67742729412,1244
2467.5079348571717,1300
2469.338040447542,1293
2471.1677443532476,1273
2472.9970468623833,1282
2474.825948263123,1281
2476.6544488437207,1296
2478.482548892508,1304
2480.310248697896,1326
2482.137548548374,1300
2483.9644487325118,1283
2485.790949538956,1333
2487.617051256433,1293
2489.44275417375,1259
2491.26805857979,1345
2493.0929647635157,1340
2494.917473013971,1350
2496.741583620276,1257
2498.5652968716304,1294
2500.3886130573137,1338
2502.2115324666834,1285
2504.0340553891765,1308
2505.856182114308,1289
2507.6779129316733,1318
2509.499248130945,1327
2511.3201880018764,1331
2513.140732834298,1329
2514.9608829181198,1265
2516.780638543331,1267
2518.6,1302
2520.418967578273,1307
2522.237541568376,1325
2524.0557222606144,1310
2525.8735099453706,1388
2527.6909049131086,1316
2529.507907454368,1369
2531.32451785977,1362
2533.140736420014,1406
2534.9565634258774,1436
2536.771999168218,1446
2538.5870439379714,1408
2540.4016980261526,1419
2542.2159617238544,1362
2544.02983532225,1354
2545.8433191125914,1310
2547.656413386209,1417
2549.4691184345115,1409
2551.2814345489874,1433
2553.093362021204,1419
2554.904901142808,1420
2556.716052205523,1465
2558.526815501153,1408
2560.3371913215824,1415
2562.147179958771,1452
2563.956781704761,1431
2565.7659968516705,1446
2567.5748256916986,1448
2569.3832685171224,1494
2571.1913256202984,1461
2572.9989972936614,1413
2574.806283829725,1493
2576.613185521084,1529
2578.4197026604074,1519
2580.2258355404483,1501
2582.031584454035,1493
2583.836949694077,1503
2585.6419315535613,1506
2587.4465303255533,1528
2589.2507463032002,1592
2591.0545797797245,1500
2592.8580310484303,1546
2594.6611004026995,1532
2596.463788135992,1546
2598.266094541849,1574
2600.0680199138874,1581
2601.869564545807,1518
2603.670728731383,1475
2605.4715127644704,1584
2607.2719169390048,1561
2609.071941548998,1514
2610.8715868885433,1550
2612.670853251811,1517
2614.469740933052,1526
2616.268250226594,1478
2618.0663814268455,1531
2619.864134828292,1561
2621.6615107255006,1526
2623.458509413115,1528
2625.2551311858597,1538
2627.0513763385347,1529
2628.8472451660223,1510
2630.6427379632833,1554
2632.4378550253564,1471
2634.232596647359,1459
2636.026963124488,1464
2637.8209547520187,1482
2639.6145718253065,1487
2641.407814639785,1380
2643.200683490966,1460
2644.9931786744414,1459
2646.7853004858807,1470
2648.577049221034,1452
2650.3684251757277,1416
2652.1594286458712,1396
2653.9500599274484,1379
2655.740319316525,1405
2657.5302071092437,1349
2659.3197236018286,1385
2661.10886909058,1342
2662.8976438718782,1412
2664.686048242183,1371
2666.4740824980327,1395
2668.2617469360443,1382
2670.0490418529134,1380
2671.8359675454153,1365
2673.622524310403,1372
2675.408712444811,1367
2677.1945322456495,1343
2678.979984010009,1373
2680.76506803506,1291
2682.5497846180497,1367
2684.334134056306,1313
2686.1181166472343,1313
2687.9017326883213,1327
2689.6849824771293,1328
2691.4678663113013,1314
2693.2503844885596,1323
2695.032537306705,1356
2696.8143250636167,1276
2698.5957480572542,1323
2700.3768065856534,1283
2702.1575009469316,1265
2703.937831439283,1273
2705.717798360982,1282
2707.4974020103837,1252
2709.276642685917,1267
2711.055520686095,1279
2712.834036309506,1288
2714.612189854819,1258
2716.389981620782,1293
2718.1674119062204,1285
2719.944481010041,1282
2721.721189231226,1317
2723.4975368688415,1261
2725.273524222027,1321
2727.0491515900053,1300
2728.824419272075,1236
2730.5993275676146,1191
2732.3738767760838,1289
2734.148067197016,1232
2735.921899130031,1273
2737.6953728748194,1254
2739.468488731156,1182
2741.2412469988926,1232
2743.0136479779617,1237
2744.785691968372,1265
2746.5573792702116,1299
2748.3287101836504,1293
2750.099685008934,1210
2751.870304046388,1254
2753.640567596418,1253
2755.4104759595057,1265
2757.1800294362156,1220
2758.949228327187,1264
2760.7180729331412,1263
2762.486563554877,1276
2764.254700493272,1272
2766.022484049284,1250
2767.789914523947,1273
2769.5569922183786,1271
2771.3237174337705,1229
2773.090090471394,1262
2774.8561116326036,1237
2776.6217812188274,1277
2778.3870995315756,1210
2780.1520668724356,1239
2781.9166835430747,1238
2783.6809498452394,1252
2785.444866080754,1328
2787.2084325515225,1215
2788.971649559527,1265
2790.73451740683,1240
2792.4970363955713,1278
2794.2592068279705,1239
2796.0210290063264,1215
2797.7825032330147,1190
2799.543629810493,1249
2801.304409041296,1227
2803.0648412280366,1190
2804.8249266734088,1254
2806.5846656801846,1217
2808.344058551212,1266
2810.1031055894246,1339
2811.8618070978273,1272
2813.6201633795085,1258
2815.378174737636,1282
2817.1358414754536,1231
2818.893163896285,1267
2820.6501423035334,1268
2822.4067770006814,1252
2824.1630682912883,1212
2825.9190164789957,1229
2827.6746218675207,1256
2829.429884760661,1272
2831.184805462294,1285
2832.9393842763743,1277
2834.693621506936,1319
2836.4475174580916,1208
2838.201072434034,1243
2839.954286739034,1247
2841.707160677441,1285
2843.459694553685,1285
2845.2118886722724,1309
2846.96374333779,1285
2848.7152588549034,1259
2850.4664355283567,1269
2852.217273662973,1226
2853.9677735636546,1245
2855.7179355353833,1246
2857.4677598832186,1254
2859.217246912299,1250
2860.9663969278427,1258
2862.715210235146,1254
2864.4636871395846,1202
2866.211827946614,1216
2867.9596329617652,1217
2869.7071024906536,1213
2871.4542368389684,1221
2873.20103631248,1271
2874.947501217038,1199
2876.6936318585695,1227
2878.4394285430812,1235
2880.1848915766604,1199
2881.9300212654707,1218
2883.6748179157553,1220
2885.4192818338374,1281
2887.1634133261173,1229
2888.907212699077,1225
2890.6506802592744,1211
2892.393816313348,1263
2894.1366211680142,1256
2895.8790951300693,1208
2897.621238506388,1243
2899.363051603925,1269
2901.1045347297118,1247
2902.8456881908596,1305
2904.58651229456,1262
2906.327007348081,1220
2908.067173658772,1250
2909.8070115340597,1254
2911.5465212814497,1212
2913.285703208527,1310
2915.0245576229563,1230
2916.7630848324807,1227
2918.5012851449196,1224
2920.2391588681758,1212
2921.976706310227,1227
2923.7139277791334,1184
2925.4508235830313,1203
2927.187394030137,1263
2928.923639428745,1253
2930.6595600872306,1259
2932.395156314046,1292
2934.1304284177218,1264
2935.8653767068713,1228
2937.6000014901815,1231
2939.3343030764227,1201
2941.068281774442,1215
2942.8019378931644,1262
2944.5352717415976,1241
2946.2682836288236,1213
2948.0009738640065,1238
2949.7333427563885,1268
2951.465390615289,1217
2953.1971177501086,1244
2954.9285244703265,1244
2956.6596110855,1280
2958.3903779052657,1250
2960.1208252393385,1258
2961.8509533975125,1234
2963.5807626896617,1252
2965.3102534257378,1285
2967.0394259157715,1237
2968.768280469873,1300
2970.496817398232,1299
2972.2250370111146,1254
2973.952939618869,1269
2975.6805255319196,1242
2977.4077950607707,1259
2979.134748516006,1306
2980.861386208289,1293
2982.587708448359,1249
2984.313715547037,1274
2986.039407815222,1347
2987.764785563891,1230
2989.489849104102,1223
2991.2145987469908,1214
2992.9390348037705,1236
2994.6631575857346,1241
2996.3869674042576,1268
2998.1104645707887,1238
2999.83364939686,1265
3001.5565221940783,1241
3003.2790832741334,1218
3005.0013329487924,1251
3006.7232715298996,1225
3008.4448993293804,1241
3010.166216659239,1240
3011.887223831558,1283
3013.607921158498,1255
3015.3283089522993,1258
3017.0483875252826,1257
3018.7681571898443,1243
3020.4876182584626,1241
3022.2067710436927,1270
3023.9256158581707,1279
3025.644153014609,1264
3027.362382825801,1267
3029.0803056046193,1250
3030.797921664012,1312
3032.5152313170106,1228
3034.2322348767225,1204
3035.9489326563353,1239
3037.665324969115,1257
3039.3814121284063,1232
3041.097194447633,1224
3042.812672240299,1269
3044.5278458199855,1252
3046.2427155003525,1249
3047.9572815951406,1247
3049.671544418167,1285
3051.38550428333,1230
3053.0991615046073,1196
3054.812516396051,1223
3056.5255692717974,1210
3058.2383204460575,1201
3059.9507702331257,1210
3061.662918947372,1244
3063.3747669032446,1290
3065.0863144152736,1281
3066.7975617980674,1260
3068.508509366309,1281
3070.219157434767,1269
3071.9295063182844,1253
3073.639556331785,1248
3075.3493077902704,1207
3077.058761008821,1229
3078.7679163025964,1282
3080.476773986837,1279
3082.1853343768594,1262
3083.89359778806,1290
3085.6015645359153,1182
3087.3092349359786,1233
3089.016609303884,1191
3090.7236879553434,1263
3092.4304712061476,1266
3094.136959372166,1265
3095.843152769349,1224
3097.5490517137237,1247
3099.2546565213966,1227
3100.959967508554,1253
3102.66498499146,1284
3104.3697092864577,1215
3106.0741407099695,1192
3107.778279578498,1258
3109.482126208622,1273
3111.1856809170004,1237
3112.8889440203716,1240
3114.5919158355528,1216
3116.294596679439,1249
3117.996986869006,1260
3119.6990867213062,1269
3121.4008965534726,1255
3123.102416682717,1251
3124.803647426329,1299
3126.5045891016784,1274
3128.205242026213,1292
3129.90560651746,1228
3131.605682893025,1250
3133.3054714705922,1262
3135.0049725679282,1306
3136.7041865028714,1247
3138.4031135933465,1241
3140.101754157353,1222
3141.800108512971,1241
3143.498176978357,1229
3145.1959598717494,1239
3146.8934575114636,1282
3148.5906702158954,1308
3150.2875983035183,1208
3151.9842420928853,1256
3153.680601902627,1258
3155.376678051456,1179
3157.07247085816,1154
3158.767980641609,1223
3160.463207720748,1280
3162.158152414606,1224
3163.8528150422862,1215
3165.5471959229726,1241
3167.2412953759303,1248
3168.9351137204976,1269
3170.628651276098,1229
3172.3219083622307,1218
3174.014885298474,1252
3175.707582404485,1239
3177.4000000000005,1226
3179.092138404835,1230
3180.7839979388846,1233
3182.47557892212,1234
3184.166881674594,1230
3185.8579065164386,1233
3187.5486537678626,1257
3189.2391237491547,1222
3190.9293167806827,1225
3192.6192331828934,1230
3194.3088732763117,1239
3195.998237381542,1215
3197.687325819268,1221
3199.376138910251,1188
3201.064676975334,1200
3202.7529403354347,1194
3204.4409293115523,1227
3206.1286442247647,1225
3207.816085396229,1190
3209.5032531471825,1203
3211.190147798936,1221
3212.8767696728846,1234
3214.5631190905015,1170
3216.2491963733373,1217
3217.9350018430214,1193
3219.6205358212637,1170
3221.305798629851,1196
3222.990790590651,1142
3224.6755120256103,1211
3226.359963256751,1187
3228.0441446061795,1169
3229.7280563960758,1198
3231.411698948703,1206
3233.0950725863995,1226
3234.778177631587,1230
3236.461014406761,1228
3238.1435832345005,1273
3239.8258844374595,1254
3241.507918338374,1230
3243.1896852600576,1221
3244.8711855254023,1213
3246.552419457381,1244
3248.233387379042,1229
3249.914089613516,1261
3251.59452648401,1175
3253.274698313813,1199
3254.95460542629,1201
3256.6342481448855,1243
3258.313626793125,1179
3259.9927416946084,1159
3261.6715931730196,1219
3263.3501815521176,1194
3265.0285071557437,1234
3266.706570307815,1176
3268.3843713323286,1162
3270.0619105533615,1225
3271.739188295068,1225
3273.4162048816834,1204
3275.0929606375184,1228
3276.769455886966,1198
3278.445690954498,1209
3280.1216661646613,1203
3281.797381842087,1225
3283.4728383114807,1220
3285.1480358976296,1211
3286.8229749253996,1233
3288.4976557197333,1228
3290.172078605655,1240
3291.846243908266,1167
3293.5201519527463,1202
3295.193803064357,1272
3296.8671975684374,1220
3298.5403357904024,1248
3300.21321805575,1234
3301.8858446900567,1165
3303.558216018975,1220
3305.23033236824,1229
3306.9021940636603,1244
3308.57380143113,1211
3310.2451547966184,1199
3311.916254486174,1283
3313.5871008259246,1270
3315.2576941420766,1254
3316.9280347609147,1194
3318.5981230088046,1185
3320.2679592121895,1190
3321.9375436975924,1230
3323.606876791612,1213
3325.27595882093,1184
3326.944790112305,1180
3328.6133709925753,1184
3330.2817017886573,1191
3331.949782827547,1186
3333.617614436319,1167
3335.2851969421245,1198
3336.952530672199,1228
3338.619615953853,1268
3340.286453114475,1243
3341.9530424815357,1201
3343.619384382583,1250
3345.2854791452437,1257
3346.951327097224,1223
3348.6169285663073,1251
3350.2822838803577,1253
3351.947393367319,1194
3353.61225735521,1257
3355.2768761721345,1209
3356.9412501462693,1213
3358.605379605873,1214
3360.2692648792827,1238
3361.9329062949146,1248
3363.596304181263,1183
