CollectionTime,7/11/2024 1:16:22 PM
ExposureUsed,3
CalibratedSpectrum
-962.7078968117929,748
-959.9714848408522,801
-957.2358232597828,845
-954.5009119013725,801
-951.7667505983302,771
-949.0333391832855,853
-946.3006774887896,827
-943.5687653473143,820
-940.837602591253,809
-938.1071890529199,858
-935.3775245645503,830
-932.6486089583007,823
-929.9204420662485,837
-927.1930237203925,831
-924.4663537526524,832
-921.7404319948689,848
-919.0152582788041,847
-916.2908324361409,874
-913.5671542984834,861
-910.8442236973568,832
-908.1220404642074,825
-905.4006044304027,867
-902.679915427231,800
-899.959973285902,786
-897.2407778375464,843
-894.5223289132158,795
-891.8046263438832,789
-889.0876699604426,784
-886.3714595937089,778
-883.6559950744183,811
-880.9412762332282,817
-878.2273029007168,823
-875.5140749073835,810
-872.8015920836489,821
-870.0898542598545,792
-867.3788612662631,805
-864.6686129330585,822
-861.9591090903457,823
-859.2503495681506,816
-856.5423341964203,810
-853.8350628050229,794
-851.1285352237478,800
-848.4227512823054,834
-845.7177108103272,808
-843.0134136373656,856
-840.3098595928943,826
-837.6070485063082,905
-834.9049802069229,878
-832.2036545239757,838
-829.5030712866244,817
-826.8032303239481,824
-824.1041314649472,839
-821.4057745385428,811
-818.7081593735775,838
-816.0112857988148,844
-813.3151536429393,806
-810.6197627345566,850
-807.9251129021936,863
-805.2312039742981,801
-802.5380357792392,829
-799.8456081453069,806
-797.1539209007124,878
-794.462973873588,827
-791.772766891987,853
-789.083299783884,864
-786.3945723771743,846
-783.7065844996748,846
-781.0193359791231,866
-778.3328266431781,845
-775.6470563194197,831
-772.9620248353489,858
-770.2777320183878,830
-767.5941776958798,874
-764.9113616950891,846
-762.2292838432011,865
-759.5479439673222,885
-756.8673418944801,870
-754.1874774516235,901
-751.5083504656222,903
-748.8299607632671,897
-746.15230817127,900
-743.475392516264,855
-740.7992136248035,849
-738.1237713233636,858
-735.4490654383407,905
-732.7750957960521,886
-730.1018622227365,887
-727.4293645445534,889
-724.7576025875837,899
-722.0865761778291,883
-719.4162851412126,951
-716.7467293035781,921
-714.0779084906909,924
-711.409822528237,875
-708.7424712418238,894
-706.0758544569796,939
-703.4099719991541,925
-700.7448236937178,925
-698.0804093659622,929
-695.4167288411002,940
-692.7537819442656,966
-690.0915685005134,935
-687.4300883348199,915
-684.7693412720819,931
-682.1093271371178,903
-679.4500457546669,903
-676.7914969493897,884
-674.1336805458676,931
-671.4765963686034,930
-668.8202442420206,919
-666.1646239904642,958
-663.5097354382001,942
-660.8555784094151,931
-658.2021527282176,978
-655.5494582186366,946
-652.8974947046223,973
-650.2462620100463,1003
-647.5957599587009,982
-644.9459883742998,972
-642.2969470804776,988
-639.6486359007902,1000
-637.0010546587141,1008
-634.3542031776476,961
-631.7080812809096,991
-629.0626887917401,965
-626.4180255333008,998
-623.7740913286734,1018
-621.1308860008619,1025
-618.4884093727904,1028
-615.8466612673046,992
-613.2056415071715,1033
-610.5653499150785,1010
-607.9257863136347,1019
-605.28695052537,1030
-602.6488423727357,1012
-600.0114616781036,998
-597.3748082637674,993
-594.7388819519412,1027
-592.1036825647604,1005
-589.4692099242818,1042
-586.8354638524829,1077
-584.2024441712624,1010
-581.5701507024403,1046
-578.9385832677575,1064
-576.3077416888759,1043
-573.6776257873787,1064
-571.0482353847704,1023
-568.4195703024757,1033
-565.7916303618415,997
-563.164415384135,1016
-560.5379251905453,996
-557.9121596021815,1055
-555.2871184400748,1015
-552.6628015251767,1024
-550.0392086783606,1041
-547.4163397204204,981
-544.794194472071,1017
-542.1727727539491,1035
-539.5520743866118,1021
-536.9320991905377,1129
-534.3128469861261,1098
-531.6943175936979,1031
-529.0765108334947,1081
-526.4594265256793,1163
-523.8430644903358,1250
-521.2274245474689,1230
-518.612506517005,1352
-515.9983102187913,1362
-513.3848354725959,1358
-510.77208209810846,1372
-508.16004991493924,1438
-505.5487387426199,1606
-502.9381484006032,1660
-500.3282787082628,1725
-497.71912948489364,1753
-495.1107005497117,1659
-492.5029917218539,1572
-489.8960028203786,1448
-487.28973366426493,1362
-484.68418407241325,1316
-482.07935386364494,1245
-479.47524285670266,1214
-476.87185087025,1221
-474.2691777228715,1289
-471.66722323307334,1230
-469.0659872192821,1259
-466.4654694998459,1265
-463.86566989303384,1195
-461.26658821703614,1242
-458.66822428996414,1211
-456.07057792985,1230
-453.4736489546475,1232
-450.877437182231,1234
-448.28194243039627,1209
-445.68716451686,1129
-443.09310325926003,1194
-440.49975847515555,1185
-437.9071299820263,1221
-435.31521759727354,1179
-432.72402113821954,1216
-430.13354042210767,1222
-427.5437752661022,1224
-424.95472548728867,1237
-422.36639090267386,1233
-419.7787713291855,1217
-417.1918665836721,1346
-414.60567648290385,1273
-412.0202008435715,1238
-409.4354394822874,1264
-406.8513922155845,1332
-404.26805885991723,1316
-401.685439231661,1286
-399.103533147112,1313
-396.522340422488,1332
-393.9418608739278,1261
-391.3620943174908,1285
-388.7830405691583,1245
-386.2046994448317,1159
-383.6270707603344,1114
-381.05015433141045,1032
-378.473949973725,1030
-375.8984575028645,925
-373.32367673433623,855
-370.74960748356875,805
-368.1762495659117,718
-365.60360279663576,671
-363.03166699093265,592
-360.4604419639154,550
-357.8899275306178,548
-355.32012350599507,495
-352.7510297049233,454
-350.1826459421999,466
-347.61497203254316,467
-345.04800779059235,445
-342.4817530309082,459
-339.91620756797226,451
-337.35137121618743,440
-334.7872437898774,465
-332.22382510328725,500
-329.66111497058273,460
-327.09911320585127,484
-324.53781962310075,495
-321.9772340362607,468
-319.4173562591816,446
-316.8581861056348,439
-314.2997233893127,444
-311.7419679238294,431
-309.1849195227194,456
-306.62857799943856,506
-304.0729431673641,495
-301.51801483979375,519
-298.963792829947,543
-296.41027695096386,509
-293.85746701590574,538
-291.3053628377552,545
-288.7539642294155,528
-286.2032710037115,540
-283.65328297338897,542
-281.1039999511146,536
-278.5554217494762,569
-276.007548180983,573
-273.4603790580651,566
-270.9139141930734,520
-268.3681533982807,522
-265.8230964858798,577
-263.27874326798565,597
-260.7350935566336,597
-258.1921471637804,550
-255.6499039013039,540
-253.10836358100266,545
-250.56752601459698,568
-248.02739101372765,583
-245.48795838995704,605
-242.94922795476816,662
-240.41119951956557,633
-237.8738728956746,593
-235.33724789434166,594
-232.80132432673452,588
-230.2661020039418,564
-227.73158073697357,581
-225.19776033676033,587
-222.66464061415422,625
-220.1322213799284,636
-217.60050244477725,582
-215.06948361931552,601
-212.53916471408013,613
-210.00954553952818,661
-207.48062590603843,724
-204.9524056239104,685
-202.4248845033651,676
-199.8980623545441,632
-197.37193898751036,659
-194.84651421224817,639
-192.32178783866232,673
-189.79775967657952,694
-187.27442953574644,730
-184.7517972258321,777
-182.2298625564256,691
-179.7086253370378,676
-177.18808537710026,682
-174.66824248596583,628
-172.14909647290835,690
-169.6306471471229,753
-167.11289431772548,768
-164.59583779375328,738
-162.07947738416453,733
-159.5638128978386,771
-157.04884414357605,802
-154.53457093009854,948
-152.02099306604828,908
-149.50811035998936,814
-146.99592262040665,787
-144.48442965570587,842
-141.97363127421409,972
-139.46352728417958,1250
-136.95411749377126,1243
-134.44540171107985,970
-131.93737974411636,820
-129.43005140081357,844
-126.92341648902493,972
-124.41747481652521,1181
-121.91222619101006,1474
-119.40767042009657,1837
-116.90380731132257,2040
-114.40063667214702,1944
-111.8981583099503,1792
-109.3963720320337,1841
-106.89527764561933,2407
-104.39487495785067,3460
-101.89516377579241,3761
-99.39614390642998,3085
-96.89781515667039,2348
-94.40017733334128,2427
-91.90323024319173,4466
-89.40697369289148,8473
-86.91140748903172,12011
-84.41653143812482,12765
-81.92234534660395,11630
-79.42884902082358,7853
-76.93604226705907,5285
-74.4439248915071,5707
-71.95249670028534,7926
-69.46175749943245,11439
-66.97170709490854,13824
-64.48234529259423,14919
-61.99367189829195,13237
-59.50568671772464,10630
-57.01838955653636,7691
-54.53178022029283,7298
-52.045858514480074,6989
-49.560624244506016,6363
-47.07607721569923,6975
-44.59221723330904,7642
-42.10904410250669,7872
-39.62655762838392,7221
-37.14475761595372,7582
-34.66364387015028,9099
-32.18321619582866,9062
-29.70347439776515,8341
-27.224418280657005,8002
-24.74604764912317,8395
-22.26836230770266,12454
-19.7913620608565,23431
-17.315046712966478,41458
-14.83941606833514,55305
-12.36446993118659,65038
-9.89020810566592,65038
-7.416630395839093,65038
-4.94373660569363,65038
-2.471526539137585,65038
-6.821210263296962E-13,65038
2.47084320796705,65038
4.941003281093458,65038
7.410480415786196,65038
9.879274808531363,65038
12.347386655893956,65038
14.814816154518212,65038
17.28156350112681,65038
19.74762889252179,65038
22.21301252558385,65038
24.67771459727237,20504
27.141735304626195,4297
29.605074844762612,2648
32.06773341487792,2572
34.52971121224755,2671
36.99100843422559,2614
39.45162527824516,2092
41.91156194181792,1744
44.370818622535126,1378
46.82939551806646,1201
49.287292826160524,1442
51.74451074464503,1712
54.201049471426245,1985
56.65690920448981,1888
59.112090141899785,1584
61.56659248179983,1223
64.02041642241159,992
66.4735621620365,965
68.92602989905402,1167
71.37781983192338,1275
73.82893215918205,1473
76.27936707944684,1552
78.72912479141326,1394
81.17820549385567,1053
83.62660938562783,1043
86.07433666566146,1315
88.5213875329681,1072
90.96776218663751,856
93.41346082583925,844
95.85848364982041,1018
98.30283085790859,1100
100.7465026495089,1209
103.18949922410604,1296
105.63182078126385,1168
108.07346752062438,1176
110.51443964190923,1003
112.95473734491827,952
115.39436082953114,974
117.83331029570547,1065
120.27158594347827,1281
122.7091879729652,1219
125.1461165843615,1013
127.58237197794062,969
130.01795435405518,893
132.4528639131364,838
134.88710085569494,906
137.32066538231982,885
139.75355769367923,882
142.1857779905207,827
144.61732647366978,840
147.04820334403132,864
149.47840880258934,908
151.90794305040674,979
154.33680628862487,1186
156.76499871846443,1267
159.19252054122433,1329
161.61937195828352,1536
164.04555317109896,1649
166.47106438120693,1873
168.89590579022217,2087
171.320077599839,2143
173.7435800118302,2250
176.16641322804742,2418
178.58857745042144,2427
181.01007288096173,2522
183.43089972175687,2596
185.85105817497413,2601
188.27054844285988,2687
190.6893707277394,2811
193.10752523201643,2907
195.5250121581745,2920
197.9418317087751,3058
200.3579840864594,2978
202.7734694939469,2934
205.18828813403627,3086
207.6024402096051,3061
210.01592592360964,3088
212.42874547908548,3106
214.84089907914665,3061
217.2523869269868,3058
219.66320922587727,3061
222.0733661791695,3098
224.48285799029293,3087
226.8916848627572,3029
229.29984700014882,3069
231.7073446061355,3160
234.11417788446204,3151
236.520347038953,3160
238.92585227351185,3274
241.33069379212054,3263
243.73487179884035,3279
246.1383864978112,3273
248.541238093252,3254
250.9434267894609,3292
253.34495279081432,3294
255.74581630176783,3354
258.1460175268563,3428
260.54555667069314,3310
262.9444339379703,3291
265.3426495334594,3140
267.7402036620107,3207
270.1370965285529,3157
272.53332833809407,3146
274.9288992957214,2941
277.32380960660055,2947
279.718059475976,2868
282.1116491091717,2862
284.5045787115897,2970
286.89684848871195,2885
289.2884586460981,2868
291.67940938938807,2801
294.0697009242996,2916
296.4593334566299,2926
298.84830719225477,2932
301.23662233712923,2936
303.6242790972866,2905
306.01127767884,2855
308.39761828798066,2773
310.78330113097934,2752
313.16832641418534,2738
315.5526943440269,2703
317.9364051270112,2690
320.3194589697242,2613
322.70185607883093,2773
325.0835966610754,2683
327.4646809232805,2647
329.8451090723478,2617
332.2248813152577,2625
334.6039978590701,2630
336.9824589109231,2643
339.36026467803447,2610
341.7374153677,2581
344.113911187295,2580
346.48975234427337,2539
348.8649390461686,2529
351.2394715005918,2547
353.61334991523415,2566
355.9865744978655,2567
358.35914545633375,2506
360.73106299856715,2586
363.10232733257146,2505
365.47293866643247,2593
367.84289720831396,2579
370.2122031664593,2589
372.5808567491905,2553
374.9488581649083,2505
377.31620762209275,2439
379.6829053293021,2490
382.0489514951745,2509
384.4143463284262,2447
386.7790900378528,2468
389.14318283232853,2441
391.50662492080653,2462
393.86941651231916,2490
396.23155781597745,2491
398.5930490409713,2460
400.9538903965696,2494
403.3140820921202,2432
405.6736243370498,2485
408.03251734086336,2473
410.3907613131465,2495
412.74835646356166,2407
415.10530300185144,2473
417.4616011378372,2529
419.81725108141893,2445
422.1722530425758,2394
424.5266072313656,2484
426.880313857925,2417
429.2333731324701,2453
431.58578526529516,2440
433.9375504667738,2354
436.2886689473588,2452
438.63914091758113,2394
440.9889665880513,2431
443.33814616945835,2308
445.68667987257015,2303
448.03456790823395,2317
450.3818104873759,2433
452.72840782100013,2407
455.07436012019105,2401
457.41966759611057,2458
459.7643304600007,2375
462.10834892318155,2413
464.4517231970525,2463
466.79445349309174,2492
469.1365400228566,2391
471.4779829979826,2494
473.81878263018564,2386
476.15893913125876,2405
478.4984527130747,2431
480.8373235875855,2477
483.17555196682144,2545
485.5131380628919,2515
487.8500820879857,2584
490.1863842543697,2691
492.52204477439034,2770
494.8570638604725,2991
497.1914417251204,3226
499.52517858091653,3414
501.85827464052306,3485
504.19073011668036,3582
506.5225452222086,3546
508.85372017000566,3450
511.18425517304956,3439
513.514150444396,3446
515.8434061971808,3876
518.1720226446176,4484
520.4999999999999,4714
522.8273384766991,4583
525.1540382881666,4246
527.480099647932,3908
529.8055227696037,3428
532.1303078668694,2981
534.454455153496,2744
536.777964843328,2559
539.1008371502907,2419
541.4230722883866,2592
543.744670471698,2528
546.0656319143858,2469
548.3859568306899,2426
550.7056454349294,2483
553.0246979415016,2457
555.3431145648834,2507
557.6608955196306,2451
559.978041020377,2410
562.2945512818363,2444
564.6104265188006,2460
566.9256669461412,2481
569.2402727788082,2489
571.5542442318302,2438
573.8675815203156,2478
576.1802848594508,2468
578.4923544645015,2471
580.8037905508126,2500
583.114593333807,2503
585.4247630289875,2441
587.7342998519354,2477
590.0432040183106,2499
592.3514757438526,2546
594.6591152443794,2504
596.9661227357875,2485
599.2724984340531,2496
601.578242555231,2568
603.8833553154542,2523
606.1878369309362,2521
608.4916876179676,2507
610.7949075929192,2483
613.0974970722403,2488
615.3994562724587,2455
617.7007854101818,2431
620.0014847020951,2462
622.3015543649641,2478
624.6009946156324,2521
626.8998056710224,2474
629.1979877481361,2537
631.4955410640538,2504
633.7924658359349,2554
636.0887622810175,2459
638.3844306166192,2446
640.6794710601358,2476
642.9738838290426,2553
645.2676691408932,2549
647.5608272133207,2571
649.853358264037,2567
652.1452625108324,2572
654.4365401715764,2506
656.7271914642178,2503
659.0172166067838,2630
661.3066158173809,2546
663.5953893141935,2496
665.8835373154867,2564
668.1710600396028,2572
670.4579577049639,2558
672.7442305300709,2580
675.0298787335033,2602
677.3149025339197,2505
679.599302150058,2678
681.8830778007342,2544
684.1662297048437,2502
686.4487580813608,2569
688.7306631493387,2570
691.0119451279091,2530
693.2926042362834,2599
695.5726406937516,2579
697.8520547196814,2584
700.1308465335215,2654
702.4090163547982,2667
704.6865644031171,2538
706.9634908981619,2563
709.2397960596965,2578
711.5154801075631,2555
713.7905432616823,2543
716.0649857420548,2474
718.3388077687592,2411
720.612009561953,2615
722.8845913418733,2469
725.1565533288352,2555
727.427895743234,2575
729.6986188055427,2513
731.9687227363137,2544
734.238207756178,2520
736.5070740858458,2565
738.7753219461066,2585
741.0429515578281,2624
743.3099631419569,2459
745.5763569195191,2558
747.8421331116193,2592
750.1072919394409,2541
752.3718336242467,2519
754.6357583873777,2622
756.8990664502545,2523
759.1617580343765,2555
761.423833361321,2509
763.6852926527457,2570
765.9461361303862,2618
768.206364016058,2625
770.4659765316536,2528
772.7249738991469,2490
774.9833563405886,2593
777.2411240781092,2592
779.4982773339183,2610
781.7548163303044,2599
784.010741289634,2597
786.2660524343538,2678
788.5207499869881,2578
790.7748341701416,2576
793.0283052064964,2633
795.2811633188143,2553
797.5334087299362,2566
799.7850416627813,2566
802.0360623403484,2658
804.2864709857143,2664
806.5362678220353,2568
808.7854530725468,2637
811.0340269605625,2665
813.2819897094754,2610
815.5293415427581,2697
817.77608268396,2573
820.0222133567116,2730
822.2677337847211,2723
824.5126441917765,2656
826.7569448017433,2588
829.0006358385675,2655
831.2437175262731,2597
833.4861900889629,2666
835.7280537508192,2592
837.9693087361026,2630
840.2099552691533,2745
842.4499935743896,2532
844.689423876309,2613
846.9282463994886,2617
849.1664613685833,2624
851.4040690083276,2617
853.6410695435349,2573
855.877463199097,2594
858.1132501999847,2580
860.3484307712487,2631
862.5830051380175,2637
864.8169735254988,2651
867.0503361589791,2595
869.2830932638243,2609
871.5152450654786,2606
873.7467917894654,2658
875.9777336613873,2660
878.2080709069252,2750
880.4378037518389,2690
882.666932421968,2685
884.8954571432301,2722
887.1233781416219,2701
889.3506956432192,2662
891.5774098741766,2683
893.803521060728,2605
896.0290294291852,2682
898.2539352059397,2664
900.4782386174619,2684
902.7019398903011,2658
904.925039251085,2614
907.147536926521,2723
909.3694331433943,2688
911.59072812857,2655
913.8114221089921,2629
916.0315153116827,2565
918.2510079637437,2673
920.4699002923547,2651
922.6881925247761,2594
924.905884888345,2558
927.1229776104793,2630
929.3394709186747,2625
931.555365040506,2585
933.7706602036275,2527
935.9853566357709,2666
938.1994545647489,2564
940.4129542184515,2683
942.6258558248488,2582
944.8381596119883,2587
947.0498658079974,2493
949.2609746410825,2585
951.4714863395287,2604
953.6814011316998,2561
955.8907192460387,2490
958.0994409110671,2526
960.3075663553858,2523
962.5150958076741,2565
964.7220294966913,2497
966.928367651274,2576
969.1341105003388,2505
971.3392582728806,2549
973.5438111979742,2475
975.747769504772,2506
977.9511334225061,2601
980.153903180487,2533
982.3560790081052,2423
984.5576611348289,2592
986.7586497902058,2530
988.9590452038618,2585
991.158847605503,2468
993.3580572249133,2440
995.5566742919558,2422
997.7546990365728,2419
999.952131688785,2474
1002.1489724786926,2447
1004.3452216364743,2319
1006.5408793923874,2387
1008.7359459767691,2394
1010.9304216200343,2351
1013.1243065526781,2439
1015.3176010052733,2343
1017.510305208472,2292
1019.7024193930064,2339
1021.8939437896848,2355
1024.0848786293977,2349
1026.2752241431122,2278
1028.4649805618747,2347
1030.6541481168115,2314
1032.842727039127,2367
1035.0307175601051,2279
1037.2181199111074,2295
1039.4049343235752,2272
1041.591161029029,2285
1043.7768002590683,2307
1045.9618522453698,2315
1048.1463172196918,2298
1050.3301954138697,2273
1052.513487059818,2295
1054.69619238953,2319
1056.8783116350783,2299
1059.0598450286152,2276
1061.2407928023704,2309
1063.4211551886528,2386
1065.6009324198508,2279
1067.780124728432,2313
1069.9587323469414,2230
1072.1367555080046,2296
1074.314194444325,2314
1076.4910493886855,2300
1078.667320573947,2250
1080.843008233051,2196
1083.0181125990161,2275
1085.1926339049414,2294
1087.3665723840027,2271
1089.5399282694575,2293
1091.7127017946405,2306
1093.8848931929647,2259
1096.0565026979243,2279
1098.2275305430899,2203
1100.3979769621128,2217
1102.567842188722,2202
1104.737126456726,2240
1106.9058300000124,2224
1109.0739530525475,2232
1111.2414958483764,2270
1113.4084586216231,2197
1115.5748416064907,2144
1117.7406450372605,2198
1119.9058691482942,2233
1122.0705141740304,2288
1124.2345803489884,2204
1126.3980679077658,2189
1128.5609770850388,2256
1130.7233081155623,2220
1132.8850612341707,2251
1135.0462366757774,2191
1137.2068346753745,2196
1139.3668554680326,2283
1141.526299288901,2238
1143.68516637321,2162
1145.8434569562655,2230
1148.001171273455,2160
1150.158309560244,2208
1152.3148720521767,2263
1154.470858984876,2227
1156.626270594044,2198
1158.7811071154629,2185
1160.9353687849912,2187
1163.089055838569,2192
1165.242168512213,2229
1167.3947070420209,2217
1169.5466716641677,2210
1171.6980626149075,2093
1173.8488801305748,2219
1175.9991244475814,2231
1178.1487958024186,2213
1180.2978944316555,2218
1182.4464205719428,2208
1184.5943744600072,2194
1186.7417563326567,2164
1188.8885664267755,2202
1191.0348049793297,2220
1193.1804722273619,2197
1195.325568407995,2325
1197.4700937584303,2229
1199.614048515948,2191
1201.7574329179074,2189
1203.900247201746,2168
1206.042491604982,2184
1208.1841663652099,2321
1210.3252717201053,2220
1212.465807907422,2160
1214.6057751649923,2206
1216.7451737307279,2226
1218.8840038426192,2218
1221.0222657387353,2187
1223.1599596572241,2322
1225.2970858363137,2202
1227.4336445143094,2295
1229.5696359295966,2240
1231.705060320639,2246
1233.8399179259786,2297
1235.9742089842384,2224
1238.107933734118,2112
1240.2410924143974,2270
1242.373685263935,2188
1244.5057125216676,2176
1246.6371744266116,2192
1248.7680712178621,2223
1250.898403134593,2330
1253.028170416058,2231
1255.1573733015875,2207
1257.2860120305932,2211
1259.4140868425648,2182
1261.54159797707,2266
1263.6685456737569,2308
1265.7949301723515,2303
1267.9207517126597,2191
1270.046010534565,2280
1272.1707068780306,2293
1274.2948409830983,2352
1276.4184130898889,2377
1278.541423438603,2271
1280.6638722695184,2284
1282.785759822993,2353
1284.9070863394636,2336
1287.0278520594447,2302
1289.1480572235314,2408
1291.2677020723963,2334
1293.3867868467923,2371
1295.5053117875495,2352
1297.623277135579,2402
1299.740683131868,2329
1301.8575300174857,2360
1303.973818033578,2406
1306.0895474213703,2354
1308.2047184221678,2394
1310.3193312773528,2441
1312.4333862283888,2336
1314.5468835168163,2371
1316.659823384255,2420
1318.7722060724045,2434
1320.8840318230418,2300
1322.9953008780249,2353
1325.1060134792888,2347
1327.2161698688478,2421
1329.3257702887959,2452
1331.4348149813054,2411
1333.5433041886276,2340
1335.6512381530933,2454
1337.7586171171101,2418
1339.8654413231675,2294
1341.9717110138317,2391
1344.0774264317488,2322
1346.1825878196432,2437
1348.2871954203192,2409
1350.3912494766587,2383
1352.4947502316231,2450
1354.5976979282532,2339
1356.7000928096686,2395
1358.8019351190665,2418
1360.9032250997243,2359
1363.0039629949988,2349
1365.1041490483235,2357
1367.2037835032133,2342
1369.3028666032606,2426
1371.401398592137,2364
1373.4993797135926,2365
1375.5968102114575,2352
1377.6936903296396,2303
1379.7900203121262,2345
1381.8858004029835,2399
1383.9810308463561,2365
1386.075711886469,2321
1388.1698437676241,2445
1390.2634267342032,2355
1392.356461030667,2412
1394.4489469015557,2487
1396.5408845914872,2389
1398.6322743451592,2449
1400.7231164073469,2394
1402.813411022907,2375
1404.903158436773,2332
1406.9923588939578,2463
1409.0810126395531,2440
1411.1691199187303,2485
1413.2566809767386,2520
1415.343696058907,2432
1417.4301654106425,2463
1419.5160892774315,2548
1421.6014679048399,2450
1423.6863015385125,2512
1425.7705904241707,2455
1427.8543348076178,2565
1429.9375349347342,2578
1432.0201910514802,2549
1434.102303403894,2483
1436.1838722380944,2583
1438.2648978002767,2611
1440.3453803367174,2603
1442.4253200937692,2559
1444.5047173178677,2570
1446.5835722555234,2572
1448.6618851533285,2632
1450.739656257952,2680
1452.8168858161434,2617
1454.8935740747306,2722
1456.96972128062,2779
1459.045327680797,2789
1461.120393522327,2863
1463.1949190523528,2868
1465.2689045180973,2876
1467.3423501668608,2842
1469.415256246024,2910
1471.4876230030463,2869
1473.559450685465,2985
1475.6307395408976,2970
1477.7014898170391,2988
1479.771701761665,2913
1481.8413756226287,3031
1483.9105116478618,3063
1485.9791100853772,3202
1488.0471711832643,3270
1490.1146951896926,3205
1492.1816823529098,3150
1494.2481329212433,3203
1496.3140471430984,3323
1498.3794252669609,3340
1500.4442675413939,3328
1502.5085742150404,3326
1504.572345536622,3276
1506.6355817549388,3330
1508.6982831188702,3424
1510.7604498773744,3506
1512.8220822794883,3379
1514.8831805743293,3446
1516.9437450110909,3403
1519.003775839048,3473
1521.0632733075522,3486
1523.1222376660367,3662
1525.1806691640113,3537
1527.2385680510652,3628
1529.2959345768668,3715
1531.3527689911643,3584
1533.4090715437833,3750
1535.4648424846291,3649
1537.5200820636855,3735
1539.5747905310159,3741
1541.6289681367616,3815
1543.6826151311434,3942
1545.7357317644614,4076
1547.7883182870937,3981
1549.8403749494987,4042
1551.8919020022113,4025
1553.9428996958477,4197
1555.9933682811015,4227
1558.0433080087469,4311
1560.0927191296346,4309
1562.1416018946961,4337
1564.1899565549415,4343
1566.2377833614592,4305
1568.2850825654164,4214
1570.3318544180606,4114
1572.3780991707158,4031
1574.423817074788,4066
1576.4690083817595,3915
1578.5136733431923,3663
1580.5578122107272,3544
1582.601425236085,3560
1584.6445126710646,3383
1586.6870747675434,3233
1588.7291117774776,3159
1590.7706239529034,3105
1592.8116115459347,3036
1594.8520748087658,3112
1596.8920139936686,2929
1598.9314293529933,2892
1600.9703211391711,2845
1603.008689604711,2793
1605.0465350022005,2825
1607.0838575843068,2728
1609.1206576037753,2730
1611.1569353134305,2705
1613.1926909661765,2728
1615.2279248149953,2553
1617.2626371129481,2533
1619.2968281131757,2517
1621.3304980688963,2536
1623.3636472334088,2547
1625.39627586009,2467
1627.428384202396,2527
1629.459972513861,2600
1631.4910410480993,2540
1633.5215900588028,2505
1635.551619799744,2520
1637.5811305247717,2488
1639.6101224878166,2373
1641.6385959428862,2421
1643.6665511440683,2426
1645.693988345528,2414
1647.7209078015112,2470
1649.7473097663405,2463
1651.7731944944203,2386
1653.7985622402307,2439
1655.823413258333,2303
1657.847747803366,2428
1659.8715661300494,2478
1661.8948684931793,2423
1663.9176551476316,2486
1665.9399263483624,2323
1667.9616823504057,2369
1669.982923408873,2371
1672.0036497789574,2342
1674.0238617159293,2452
1676.043559475138,2414
1678.0627433120121,2378
1680.081413482059,2406
1682.0995702408654,2374
1684.117213844096,2421
1686.134344547495,2466
1688.1509626068864,2413
1690.1670682781705,2435
1692.182661817329,2338
1694.1977434804217,2314
1696.2123135235875,2398
1698.226372203043,2387
1700.2399197750851,2412
1702.2529564960905,2406
1704.2654826225112,2437
1706.277498410882,2374
1708.2890041178139,2397
1710.2999999999988,2393
1712.3104863142066,2396
1714.3204633172854,2419
1716.329931266163,2382
1718.3388904178469,2411
1720.3473410294214,2382
1722.3552833580516,2392
1724.3627176609807,2375
1726.3696441955308,2317
1728.3760632191033,2336
1730.3819749891782,2380
1732.3873797633146,2380
1734.3922777991502,2402
1736.3966693544012,2362
1738.4005546868639,2276
1740.4039340544127,2358
1742.406807715001,2326
1744.4091759266616,2244
1746.4110389475054,2304
1748.4123970357223,2413
1750.413250449582,2292
1752.4135994474318,2330
1754.4134442876993,2267
1756.4127852288902,2339
1758.4116225295893,2364
1760.4099564484595,2424
1762.407787244244,2306
1764.405115175764,2287
1766.4019405019203,2325
1768.3982634816916,2246
1770.3940843741357,2338
1772.3894034383907,2282
1774.3842209336717,2342
1776.378537119274,2371
1778.372352254571,2290
1780.3656665990156,2322
1782.3584804121397,2279
1784.3507939535534,2285
1786.3426074829463,2290
1788.3339212600863,2286
1790.3247355448211,2341
1792.3150505970766,2339
1794.3048666768573,2328
1796.2941840442477,2302
1798.2830029594106,2306
1800.2713236825884,2225
1802.2591464741004,2331
1804.2464715943465,2270
1806.2332993038058,2322
1808.2196298630352,2396
1810.2054635326708,2338
1812.190800573428,2345
1814.175641246101,2324
1816.1599858115628,2246
1818.1438345307652,2348
1820.127187664738,2244
1822.1100454745924,2297
1824.092408221516,2259
1826.0742761667766,2338
1828.055649571721,2256
1830.0365286977735,2305
1832.0169138064398,2303
1833.9968051593014,2269
1835.9762030180214,2264
1837.9551076443408,2283
1839.9335193000788,2349
1841.9114382471344,2220
1843.888864747485,2290
1845.8657990631878,2290
1847.842241456378,2306
1849.8181921892697,2293
1851.7936515241558,2226
1853.7686197234098,2290
1855.7430970494815,2287
1857.7170837649014,2306
1859.6905801322787,2266
1861.6635864143004,2348
1863.6361028737338,2352
1865.608129773424,2356
1867.5796673762961,2232
1869.5507159453537,2300
1871.521275743678,2319
1873.4913470344313,2283
1875.4609300808534,2313
1877.4300251462632,2399
1879.3986324940588,2345
1881.366752387717,2364
1883.3343850907936,2447
1885.3015308669228,2390
1887.268189979819,2336
1889.2343626932739,2350
1891.2000492711595,2343
1893.1652499774254,2327
1895.1299650761011,2320
1897.0941948312952,2285
1899.0579395071945,2371
1901.0211993680641,2277
1902.98397467825,2304
1904.9462657021745,2290
1906.9080727043415,2334
1908.869395949332,2275
1910.8302357018065,2358
1912.790592226504,2306
1914.7504657882428,2316
1916.7098566519212,2330
1918.6687650825133,2411
1920.6271913450764,2333
1922.5851357047422,2337
1924.5425984267245,2271
1926.499579776314,2342
1928.4560800188833,2389
1930.4120994198802,2307
1932.367638244833,2314
1934.32269675935,2265
1936.2772752291175,2323
1938.231373919899,2249
1940.1849930975404,2345
1942.1381330279637,2249
1944.0907939771696,2325
1946.0429762112412,2332
1947.9946799963363,2328
1949.9459055986945,2343
1951.896653284633,2358
1953.8469233205478,2270
1955.7967159729142,2321
1957.7460315082863,2337
1959.6948701932974,2391
1961.6432322946594,2321
1963.5911180791632,2374
1965.5385278136787,2364
1967.4854617651545,2287
1969.4319202006182,2278
1971.377903387176,2202
1973.3234115920136,2304
1975.268445082395,2363
1977.2130041256642,2329
1979.1570889892423,2318
1981.1006999406304,2385
1983.04383724741,2328
1984.986501177238,2253
1986.928691997853,2269
1988.8704099770712,2304
1990.811655382789,2244
1992.7524284829801,2334
1994.692729545698,2345
1996.6325588390755,2339
1998.5719166313224,2330
2000.5108031907307,2287
2002.4492187856677,2344
2004.387163684583,2312
2006.3246381560011,2349
2008.2616424685298,2309
2010.1981768908527,2364
2012.1342416917332,2354
2014.069837140014,2285
2016.0049635046162,2319
2017.9396210545406,2280
2019.8738100588666,2327
2021.8075307867502,2282
2023.740783507431,2302
2025.6735684902228,2328
2027.6058860045214,2343
2029.5377363198004,2348
2031.4691197056118,2278
2033.4000364315875,2344
2035.3304867674374,2256
2037.260470982952,2342
2039.189989347998,2358
2041.1190421325232,2354
2043.047629606554,2267
2044.9757520401945,2328
2046.9034097036288,2363
2048.8306028671195,2286
2050.7573318010086,2302
2052.683596775716,2283
2054.609398061742,2302
2056.5347359296647,2325
2058.4596106501403,2382
2060.384022493906,2370
2062.3079717317764,2344
2064.231458634646,2294
2066.1544834734873,2343
2068.077046519352,2334
2069.99914804337,2358
2071.9207883167524,2351
2073.8419676107865,2397
2075.7626861968406,2318
2077.6829443463607,2414
2079.6027423308715,2334
2081.522080421977,2336
2083.440958891362,2342
2085.359378010786,2383
2087.2773380520907,2364
2089.194839287196,2348
2091.111881988101,2358
2093.0284664268825,2345
2094.9445928756973,2284
2096.86026160678,2316
2098.775472892446,2378
2100.690227005088,2300
2102.604524217178,2319
2104.5183648012676,2284
2106.431749029985,2363
2108.34467717604,2361
2110.2571495122206,2296
2112.169166311393,2280
2114.080727846503,2336
2115.9918343905747,2366
2117.902486216711,2393
2119.8126835980956,2363
2121.722426807987,2341
2123.6317161197285,2417
2125.5405518067364,2311
2127.448934142509,2389
2129.356863400624,2356
2131.264339854737,2351
2133.1713637785815,2439
2135.077935445972,2450
2136.9840551308002,2436
2138.889723107037,2464
2140.7949396487334,2408
2142.699705030018,2419
2144.6040195250994,2370
2146.507883408264,2413
2148.4112969538774,2343
2150.3142604363848,2442
2152.2167741303097,2427
2154.1188383102535,2471
2156.0204532508997,2479
2157.9216192270064,2403
2159.822336513414,2422
2161.7226053850413,2405
2163.622426116884,2367
2165.5217989840185,2422
2167.4207242616,2387
2169.319202224862,2450
2171.2172331491165,2405
2173.1148173097563,2469
2175.0119549822507,2414
2176.90864644215,2429
2178.8048919650823,2417
2180.7006918267534,2457
2182.596046302952,2492
2184.4909556695407,2420
2186.3854202024645,2418
2188.279440177746,2458
2190.173015871487,2404
2192.066147559868,2462
2193.958835519149,2501
2195.851080025667,2478
2197.7428813558417,2439
2199.6342397861667,2465
2201.5251555932186,2494
2203.415629053651,2387
2205.3056604441986,2420
2207.19525004167,2526
2209.084398122958,2519
2210.9731049650327,2497
2212.861370844941,2521
2214.749196039812,2568
2216.636580826851,2545
2218.523525483344,2521
2220.410030286655,2528
2222.296095514226,2569
2224.1817214435805,2550
2226.066908352319,2546
2227.951656518121,2471
2229.835966218746,2546
2231.71983773203,2575
2233.6032713358913,2546
2235.486267308324,2570
2237.3688259274036,2558
2239.2509474712824,2491
2241.132632218193,2536
2243.013880446447,2587
2244.8946924344323,2539
2246.7750684606203,2532
2248.6550088035574,2507
2250.534513741871,2531
2252.413583554265,2568
2254.292218519526,2525
2256.170418916517,2551
2258.0481850241786,2509
2259.925517121534,2511
2261.8024154876825,2552
2263.678880401803,2608
2265.5549121431536,2526
2267.430510991071,2505
2269.305677224971,2561
2271.180411124348,2504
2273.0547129687766,2509
2274.9285830379076,2421
2276.8020216114737,2507
2278.6750289692845,2536
2280.5476053912294,2507
2282.4197511572766,2513
2284.2914665474727,2504
2286.162751841943,2596
2288.0336073208937,2609
2289.904033264608,2633
2291.774029953448,2565
2293.6435976678554,2515
2295.5127366883517,2606
2297.381447295534,2446
2299.2497297700825,2546
2301.1175843927526,2476
2302.9850114443825,2521
2304.852011205885,2442
2306.7185839582553,2455
2308.5847299825664,2422
2310.4504495599676,2456
2312.3157429716925,2363
2314.1806104990483,2420
2316.0450524234247,2388
2317.9090690262888,2338
2319.772660589186,2443
2321.635827393742,2424
2323.498569721661,2402
2325.3608878547248,2462
2327.2227820747967,2420
2329.0842526638157,2358
2330.945299903803,2433
2332.805924076857,2386
2334.6661254651535,2353
2336.525904350951,2408
2338.3852610165827,2394
2340.244195744464,2402
2342.102708817088,2436
2343.9608005170253,2400
2345.8184711269287,2389
2347.675720929526,2381
2349.532550207628,2420
2351.38895924412,2320
2353.24494832197,2410
2355.100517724223,2433
2356.955667734004,2406
2358.810398634514,2438
2360.664710709037,2516
2362.5186042409337,2411
2364.3720795136437,2442
2366.225136810686,2486
2368.0777764156583,2385
2369.929998612237,2476
2371.7818036841777,2430
2373.633191915315,2458
2375.484163589562,2468
2377.3347189909114,2507
2379.184858403434,2403
2381.03458211128,2502
2382.8838903986775,2438
2384.732783549936,2447
2386.5812618494406,2408
2388.4293255816588,2487
2390.2769750311327,2511
2392.1242104824883,2434
2393.971032220427,2422
2395.8174405297295,2430
2397.6634356952563,2416
2399.509018001947,2511
2401.3541877348193,2391
2403.1989451789705,2432
2405.043290619576,2522
2406.8872243418905,2466
2408.730746631247,2489
2410.5738577730594,2539
2412.4165580528183,2461
2414.258847756095,2510
2416.100727168537,2513
2417.9421965758734,2445
2419.783256263912,2358
2421.623906518538,2447
2423.4641476257157,2409
2425.303979871491,2438
2427.143403541984,2519
2428.9824189233977,2498
2430.821026302012,2439
2432.6592259641866,2460
2434.497018196361,2458
2436.33440328505,2481
2438.171381516851,2522
2440.00795317844,2459
2441.844118556569,2451
2443.6798779380724,2486
2445.5152316098606,2543
2447.3501798589255,2436
2449.1847229723357,2419
2451.0188612372403,2416
2452.8525949408663,2487
2454.6859243705203,2484
2456.518849813587,2438
2458.3513715575314,2556
2460.183489889895,2447
2462.015205098301,2480
2463.8465174704493,2435
2465.67742729412,2555
2467.5079348571717,2483
2469.338040447542,2459
2471.1677443532476,2550
2472.9970468623833,2582
2474.825948263123,2454
2476.6544488437207,2529
2478.482548892508,2468
2480.310248697896,2502
2482.137548548374,2580
2483.9644487325118,2446
2485.790949538956,2417
2487.617051256433,2586
2489.44275417375,2505
2491.26805857979,2539
2493.0929647635157,2500
2494.917473013971,2618
2496.741583620276,2562
2498.5652968716304,2541
2500.3886130573137,2560
2502.2115324666834,2522
2504.0340553891765,2547
2505.856182114308,2560
2507.6779129316733,2477
2509.499248130945,2598
2511.3201880018764,2556
2513.140732834298,2531
2514.9608829181198,2516
2516.780638543331,2561
2518.6,2632
2520.418967578273,2500
2522.237541568376,2569
2524.0557222606144,2616
2525.8735099453706,2575
2527.6909049131086,2569
2529.507907454368,2598
2531.32451785977,2674
2533.140736420014,2580
2534.9565634258774,2582
2536.771999168218,2579
2538.5870439379714,2658
2540.4016980261526,2616
2542.2159617238544,2644
2544.02983532225,2620
2545.8433191125914,2661
2547.656413386209,2667
2549.4691184345115,2684
2551.2814345489874,2622
2553.093362021204,2709
2554.904901142808,2731
2556.716052205523,2726
2558.526815501153,2715
2560.3371913215824,2725
2562.147179958771,2655
2563.956781704761,2691
2565.7659968516705,2666
2567.5748256916986,2801
2569.3832685171224,2763
2571.1913256202984,2784
2572.9989972936614,2782
2574.806283829725,2838
2576.613185521084,2753
2578.4197026604074,2841
2580.2258355404483,2802
2582.031584454035,2822
2583.836949694077,2746
2585.6419315535613,2711
2587.4465303255533,2780
2589.2507463032002,2860
2591.0545797797245,2769
2592.8580310484303,2788
2594.6611004026995,2836
2596.463788135992,2849
2598.266094541849,2886
2600.0680199138874,2876
2601.869564545807,2929
2603.670728731383,2857
2605.4715127644704,2800
2607.2719169390048,2831
2609.071941548998,2855
2610.8715868885433,2792
2612.670853251811,2803
2614.469740933052,2932
2616.268250226594,2856
2618.0663814268455,2884
2619.864134828292,2755
2621.6615107255006,2937
2623.458509413115,2765
2625.2551311858597,2826
2627.0513763385347,2817
2628.8472451660223,2842
2630.6427379632833,2799
2632.4378550253564,2870
2634.232596647359,2688
2636.026963124488,2712
2637.8209547520187,2850
2639.6145718253065,2799
2641.407814639785,2797
2643.200683490966,2792
2644.9931786744414,2743
2646.7853004858807,2749
2648.577049221034,2814
2650.3684251757277,2766
2652.1594286458712,2733
2653.9500599274484,2682
2655.740319316525,2756
2657.5302071092437,2772
2659.3197236018286,2726
2661.10886909058,2766
2662.8976438718782,2655
2664.686048242183,2615
2666.4740824980327,2681
2668.2617469360443,2721
2670.0490418529134,2668
2671.8359675454153,2594
2673.622524310403,2668
2675.408712444811,2682
2677.1945322456495,2712
2678.979984010009,2615
2680.76506803506,2649
2682.5497846180497,2611
2684.334134056306,2598
2686.1181166472343,2651
2687.9017326883213,2617
2689.6849824771293,2619
2691.4678663113013,2632
2693.2503844885596,2619
2695.032537306705,2628
2696.8143250636167,2550
2698.5957480572542,2632
2700.3768065856534,2567
2702.1575009469316,2574
2703.937831439283,2559
2705.717798360982,2630
2707.4974020103837,2524
2709.276642685917,2563
2711.055520686095,2611
2712.834036309506,2606
2714.612189854819,2563
2716.389981620782,2531
2718.1674119062204,2530
2719.944481010041,2539
2721.721189231226,2635
2723.4975368688415,2610
2725.273524222027,2597
2727.0491515900053,2527
2728.824419272075,2521
2730.5993275676146,2569
2732.3738767760838,2524
2734.148067197016,2488
2735.921899130031,2508
2737.6953728748194,2516
2739.468488731156,2568
2741.2412469988926,2538
2743.0136479779617,2517
2744.785691968372,2585
2746.5573792702116,2583
2748.3287101836504,2494
2750.099685008934,2568
2751.870304046388,2532
2753.640567596418,2610
2755.4104759595057,2602
2757.1800294362156,2658
2758.949228327187,2484
2760.7180729331412,2587
2762.486563554877,2552
2764.254700493272,2567
2766.022484049284,2626
2767.789914523947,2619
2769.5569922183786,2552
2771.3237174337705,2598
2773.090090471394,2594
2774.8561116326036,2562
2776.6217812188274,2512
2778.3870995315756,2528
2780.1520668724356,2647
2781.9166835430747,2639
2783.6809498452394,2514
2785.444866080754,2656
2787.2084325515225,2687
2788.971649559527,2522
2790.73451740683,2586
2792.4970363955713,2559
2794.2592068279705,2593
2796.0210290063264,2556
2797.7825032330147,2565
2799.543629810493,2614
2801.304409041296,2656
2803.0648412280366,2708
2804.8249266734088,2581
2806.5846656801846,2620
2808.344058551212,2532
2810.1031055894246,2570
2811.8618070978273,2579
2813.6201633795085,2581
2815.378174737636,2603
2817.1358414754536,2668
2818.893163896285,2664
2820.6501423035334,2675
2822.4067770006814,2605
2824.1630682912883,2569
2825.9190164789957,2543
2827.6746218675207,2614
2829.429884760661,2591
2831.184805462294,2590
2832.9393842763743,2614
2834.693621506936,2618
2836.4475174580916,2605
2838.201072434034,2670
2839.954286739034,2628
2841.707160677441,2604
2843.459694553685,2521
2845.2118886722724,2586
2846.96374333779,2588
2848.7152588549034,2594
2850.4664355283567,2634
2852.217273662973,2591
2853.9677735636546,2455
2855.7179355353833,2570
2857.4677598832186,2619
2859.217246912299,2619
2860.9663969278427,2611
2862.715210235146,2573
2864.4636871395846,2616
2866.211827946614,2608
2867.9596329617652,2611
2869.7071024906536,2517
2871.4542368389684,2539
2873.20103631248,2520
2874.947501217038,2601
2876.6936318585695,2640
2878.4394285430812,2602
2880.1848915766604,2630
2881.9300212654707,2532
2883.6748179157553,2664
2885.4192818338374,2597
2887.1634133261173,2634
2888.907212699077,2607
2890.6506802592744,2475
2892.393816313348,2673
2894.1366211680142,2512
2895.8790951300693,2573
2897.621238506388,2562
2899.363051603925,2576
2901.1045347297118,2642
2902.8456881908596,2605
2904.58651229456,2598
2906.327007348081,2634
2908.067173658772,2532
2909.8070115340597,2609
2911.5465212814497,2566
2913.285703208527,2546
2915.0245576229563,2618
2916.7630848324807,2585
2918.5012851449196,2587
2920.2391588681758,2578
2921.976706310227,2644
2923.7139277791334,2581
2925.4508235830313,2575
2927.187394030137,2594
2928.923639428745,2602
2930.6595600872306,2541
2932.395156314046,2655
2934.1304284177218,2619
2935.8653767068713,2675
2937.6000014901815,2642
2939.3343030764227,2665
2941.068281774442,2595
2942.8019378931644,2568
2944.5352717415976,2635
2946.2682836288236,2658
2948.0009738640065,2626
2949.7333427563885,2604
2951.465390615289,2630
2953.1971177501086,2658
2954.9285244703265,2625
2956.6596110855,2638
2958.3903779052657,2587
2960.1208252393385,2566
2961.8509533975125,2621
2963.5807626896617,2605
2965.3102534257378,2619
2967.0394259157715,2539
2968.768280469873,2661
2970.496817398232,2619
2972.2250370111146,2615
2973.952939618869,2651
2975.6805255319196,2589
2977.4077950607707,2547
2979.134748516006,2677
2980.861386208289,2630
2982.587708448359,2652
2984.313715547037,2709
2986.039407815222,2648
2987.764785563891,2698
2989.489849104102,2664
2991.2145987469908,2587
2992.9390348037705,2635
2994.6631575857346,2667
2996.3869674042576,2565
2998.1104645707887,2605
2999.83364939686,2670
3001.5565221940783,2647
3003.2790832741334,2552
3005.0013329487924,2594
3006.7232715298996,2614
3008.4448993293804,2694
3010.166216659239,2570
3011.887223831558,2573
3013.607921158498,2689
3015.3283089522993,2695
3017.0483875252826,2654
3018.7681571898443,2635
3020.4876182584626,2648
3022.2067710436927,2629
3023.9256158581707,2650
3025.644153014609,2635
3027.362382825801,2635
3029.0803056046193,2658
3030.797921664012,2603
3032.5152313170106,2652
3034.2322348767225,2651
3035.9489326563353,2635
3037.665324969115,2587
3039.3814121284063,2573
3041.097194447633,2677
3042.812672240299,2758
3044.5278458199855,2643
3046.2427155003525,2621
3047.9572815951406,2626
3049.671544418167,2727
3051.38550428333,2684
3053.0991615046073,2594
3054.812516396051,2594
3056.5255692717974,2635
3058.2383204460575,2617
3059.9507702331257,2677
3061.662918947372,2686
3063.3747669032446,2653
3065.0863144152736,2661
3066.7975617980674,2667
3068.508509366309,2670
3070.219157434767,2553
3071.9295063182844,2688
3073.639556331785,2736
3075.3493077902704,2669
3077.058761008821,2703
3078.7679163025964,2683
3080.476773986837,2738
3082.1853343768594,2691
3083.89359778806,2658
3085.6015645359153,2710
3087.3092349359786,2606
3089.016609303884,2643
3090.7236879553434,2749
3092.4304712061476,2701
3094.136959372166,2612
3095.843152769349,2606
3097.5490517137237,2726
3099.2546565213966,2742
3100.959967508554,2705
3102.66498499146,2705
3104.3697092864577,2747
3106.0741407099695,2700
3107.778279578498,2668
3109.482126208622,2704
3111.1856809170004,2728
3112.8889440203716,2690
3114.5919158355528,2773
3116.294596679439,2782
3117.996986869006,2742
3119.6990867213062,2678
3121.4008965534726,2756
3123.102416682717,2779
3124.803647426329,2689
3126.5045891016784,2818
3128.205242026213,2828
3129.90560651746,2707
3131.605682893025,2740
3133.3054714705922,2680
3135.0049725679282,2744
3136.7041865028714,2740
3138.4031135933465,2791
3140.101754157353,2703
3141.800108512971,2719
3143.498176978357,2701
3145.1959598717494,2717
3146.8934575114636,2638
3148.5906702158954,2693
3150.2875983035183,2780
3151.9842420928853,2740
3153.680601902627,2717
3155.376678051456,2712
3157.07247085816,2713
3158.767980641609,2723
3160.463207720748,2644
3162.158152414606,2695
3163.8528150422862,2679
3165.5471959229726,2746
3167.2412953759303,2638
3168.9351137204976,2751
3170.628651276098,2670
3172.3219083622307,2807
3174.014885298474,2772
3175.707582404485,2621
3177.4000000000005,2731
3179.092138404835,2709
3180.7839979388846,2690
3182.47557892212,2748
3184.166881674594,2675
3185.8579065164386,2766
3187.5486537678626,2697
3189.2391237491547,2660
3190.9293167806827,2695
3192.6192331828934,2809
3194.3088732763117,2656
3195.998237381542,2664
3197.687325819268,2728
3199.376138910251,2658
3201.064676975334,2740
3202.7529403354347,2715
3204.4409293115523,2621
3206.1286442247647,2687
3207.816085396229,2701
3209.5032531471825,2683
3211.190147798936,2705
3212.8767696728846,2639
3214.5631190905015,2687
3216.2491963733373,2594
3217.9350018430214,2642
3219.6205358212637,2671
3221.305798629851,2671
3222.990790590651,2621
3224.6755120256103,2732
3226.359963256751,2602
3228.0441446061795,2701
3229.7280563960758,2755
3231.411698948703,2659
3233.0950725863995,2709
3234.778177631587,2743
3236.461014406761,2801
3238.1435832345005,2732
3239.8258844374595,2681
3241.507918338374,2755
3243.1896852600576,2779
3244.8711855254023,2746
3246.552419457381,2711
3248.233387379042,2721
3249.914089613516,2688
3251.59452648401,2652
3253.274698313813,2748
3254.95460542629,2682
3256.6342481448855,2768
3258.313626793125,2743
3259.9927416946084,2656
3261.6715931730196,2560
3263.3501815521176,2641
3265.0285071557437,2671
3266.706570307815,2740
3268.3843713323286,2673
3270.0619105533615,2667
3271.739188295068,2656
3273.4162048816834,2742
3275.0929606375184,2797
3276.769455886966,2726
3278.445690954498,2690
3280.1216661646613,2750
3281.797381842087,2842
3283.4728383114807,2728
3285.1480358976296,2695
3286.8229749253996,2685
3288.4976557197333,2756
3290.172078605655,2679
3291.846243908266,2591
3293.5201519527463,2707
3295.193803064357,2782
3296.8671975684374,2789
3298.5403357904024,2746
3300.21321805575,2690
3301.8858446900567,2650
3303.558216018975,2746
3305.23033236824,2842
3306.9021940636603,2765
3308.57380143113,2708
3310.2451547966184,2770
3311.916254486174,2770
3313.5871008259246,2827
3315.2576941420766,2688
3316.9280347609147,2741
3318.5981230088046,2654
3320.2679592121895,2734
3321.9375436975924,2628
3323.606876791612,2732
3325.27595882093,2659
3326.944790112305,2720
3328.6133709925753,2712
3330.2817017886573,2774
3331.949782827547,2804
3333.617614436319,2700
3335.2851969421245,2754
3336.952530672199,2800
3338.619615953853,2805
3340.286453114475,2759
3341.9530424815357,2660
3343.619384382583,2806
3345.2854791452437,2738
3346.951327097224,2762
3348.6169285663073,2777
3350.2822838803577,2775
3351.947393367319,2801
3353.61225735521,2725
3355.2768761721345,2761
3356.9412501462693,2740
3358.605379605873,2820
3360.2692648792827,2728
3361.9329062949146,2827
3363.596304181263,2800
