CollectionTime,7/11/2024 1:13:47 PM
ExposureUsed,3
CalibratedSpectrum
-962.7078968117929,484
-959.9714848408522,542
-957.2358232597828,587
-954.5009119013725,555
-951.7667505983302,572
-949.0333391832855,550
-946.3006774887896,550
-943.5687653473143,597
-940.837602591253,581
-938.1071890529199,581
-935.3775245645503,598
-932.6486089583007,581
-929.9204420662485,656
-927.1930237203925,575
-924.4663537526524,568
-921.7404319948689,607
-919.0152582788041,594
-916.2908324361409,658
-913.5671542984834,556
-910.8442236973568,578
-908.1220404642074,573
-905.4006044304027,619
-902.679915427231,615
-899.959973285902,567
-897.2407778375464,592
-894.5223289132158,583
-891.8046263438832,570
-889.0876699604426,553
-886.3714595937089,542
-883.6559950744183,559
-880.9412762332282,594
-878.2273029007168,562
-875.5140749073835,566
-872.8015920836489,585
-870.0898542598545,553
-867.3788612662631,562
-864.6686129330585,555
-861.9591090903457,555
-859.2503495681506,592
-856.5423341964203,588
-853.8350628050229,556
-851.1285352237478,544
-848.4227512823054,536
-845.7177108103272,576
-843.0134136373656,556
-840.3098595928943,563
-837.6070485063082,626
-834.9049802069229,579
-832.2036545239757,558
-829.5030712866244,552
-826.8032303239481,572
-824.1041314649472,584
-821.4057745385428,581
-818.7081593735775,571
-816.0112857988148,539
-813.3151536429393,567
-810.6197627345566,567
-807.9251129021936,561
-805.2312039742981,542
-802.5380357792392,566
-799.8456081453069,559
-797.1539209007124,547
-794.462973873588,597
-791.772766891987,602
-789.083299783884,609
-786.3945723771743,580
-783.7065844996748,562
-781.0193359791231,552
-778.3328266431781,560
-775.6470563194197,568
-772.9620248353489,562
-770.2777320183878,584
-767.5941776958798,613
-764.9113616950891,586
-762.2292838432011,598
-759.5479439673222,576
-756.8673418944801,577
-754.1874774516235,587
-751.5083504656222,610
-748.8299607632671,625
-746.15230817127,595
-743.475392516264,591
-740.7992136248035,636
-738.1237713233636,587
-735.4490654383407,587
-732.7750957960521,590
-730.1018622227365,577
-727.4293645445534,578
-724.7576025875837,627
-722.0865761778291,590
-719.4162851412126,598
-716.7467293035781,634
-714.0779084906909,651
-711.409822528237,644
-708.7424712418238,609
-706.0758544569796,619
-703.4099719991541,609
-700.7448236937178,649
-698.0804093659622,688
-695.4167288411002,656
-692.7537819442656,658
-690.0915685005134,655
-687.4300883348199,647
-684.7693412720819,622
-682.1093271371178,653
-679.4500457546669,646
-676.7914969493897,658
-674.1336805458676,656
-671.4765963686034,677
-668.8202442420206,670
-666.1646239904642,667
-663.5097354382001,650
-660.8555784094151,624
-658.2021527282176,642
-655.5494582186366,644
-652.8974947046223,682
-650.2462620100463,667
-647.5957599587009,656
-644.9459883742998,668
-642.2969470804776,661
-639.6486359007902,638
-637.0010546587141,689
-634.3542031776476,676
-631.7080812809096,717
-629.0626887917401,699
-626.4180255333008,678
-623.7740913286734,740
-621.1308860008619,704
-618.4884093727904,730
-615.8466612673046,687
-613.2056415071715,656
-610.5653499150785,664
-607.9257863136347,696
-605.28695052537,709
-602.6488423727357,712
-600.0114616781036,686
-597.3748082637674,694
-594.7388819519412,687
-592.1036825647604,776
-589.4692099242818,759
-586.8354638524829,730
-584.2024441712624,727
-581.5701507024403,719
-578.9385832677575,710
-576.3077416888759,736
-573.6776257873787,744
-571.0482353847704,715
-568.4195703024757,671
-565.7916303618415,661
-563.164415384135,742
-560.5379251905453,699
-557.9121596021815,712
-555.2871184400748,700
-552.6628015251767,706
-550.0392086783606,718
-547.4163397204204,718
-544.794194472071,695
-542.1727727539491,701
-539.5520743866118,734
-536.9320991905377,787
-534.3128469861261,784
-531.6943175936979,796
-529.0765108334947,813
-526.4594265256793,852
-523.8430644903358,927
-521.2274245474689,1010
-518.612506517005,1081
-515.9983102187913,1081
-513.3848354725959,1084
-510.77208209810846,1149
-508.16004991493924,1164
-505.5487387426199,1317
-502.9381484006032,1441
-500.3282787082628,1488
-497.71912948489364,1414
-495.1107005497117,1311
-492.5029917218539,1236
-489.8960028203786,1166
-487.28973366426493,1071
-484.68418407241325,937
-482.07935386364494,888
-479.47524285670266,901
-476.87185087025,909
-474.2691777228715,865
-471.66722323307334,903
-469.0659872192821,892
-466.4654694998459,867
-463.86566989303384,856
-461.26658821703614,845
-458.66822428996414,864
-456.07057792985,902
-453.4736489546475,901
-450.877437182231,857
-448.28194243039627,841
-445.68716451686,851
-443.09310325926003,866
-440.49975847515555,878
-437.9071299820263,820
-435.31521759727354,832
-432.72402113821954,880
-430.13354042210767,931
-427.5437752661022,904
-424.95472548728867,897
-422.36639090267386,929
-419.7787713291855,930
-417.1918665836721,986
-414.60567648290385,976
-412.0202008435715,892
-409.4354394822874,986
-406.8513922155845,971
-404.26805885991723,948
-401.685439231661,1017
-399.103533147112,1023
-396.522340422488,945
-393.9418608739278,933
-391.3620943174908,953
-388.7830405691583,900
-386.2046994448317,857
-383.6270707603344,860
-381.05015433141045,803
-378.473949973725,719
-375.8984575028645,710
-373.32367673433623,697
-370.74960748356875,666
-368.1762495659117,645
-365.60360279663576,610
-363.03166699093265,517
-360.4604419639154,510
-357.8899275306178,499
-355.32012350599507,456
-352.7510297049233,462
-350.1826459421999,420
-347.61497203254316,472
-345.04800779059235,452
-342.4817530309082,463
-339.91620756797226,489
-337.35137121618743,473
-334.7872437898774,514
-332.22382510328725,522
-329.66111497058273,481
-327.09911320585127,482
-324.53781962310075,493
-321.9772340362607,497
-319.4173562591816,481
-316.8581861056348,451
-314.2997233893127,453
-311.7419679238294,452
-309.1849195227194,475
-306.62857799943856,514
-304.0729431673641,532
-301.51801483979375,527
-298.963792829947,534
-296.41027695096386,526
-293.85746701590574,584
-291.3053628377552,562
-288.7539642294155,555
-286.2032710037115,563
-283.65328297338897,521
-281.1039999511146,572
-278.5554217494762,599
-276.007548180983,581
-273.4603790580651,549
-270.9139141930734,531
-268.3681533982807,513
-265.8230964858798,572
-263.27874326798565,614
-260.7350935566336,613
-258.1921471637804,542
-255.6499039013039,495
-253.10836358100266,529
-250.56752601459698,570
-248.02739101372765,531
-245.48795838995704,598
-242.94922795476816,646
-240.41119951956557,601
-237.8738728956746,670
-235.33724789434166,625
-232.80132432673452,596
-230.2661020039418,551
-227.73158073697357,590
-225.19776033676033,570
-222.66464061415422,555
-220.1322213799284,573
-217.60050244477725,571
-215.06948361931552,563
-212.53916471408013,631
-210.00954553952818,689
-207.48062590603843,678
-204.9524056239104,635
-202.4248845033651,721
-199.8980623545441,638
-197.37193898751036,631
-194.84651421224817,666
-192.32178783866232,693
-189.79775967657952,705
-187.27442953574644,735
-184.7517972258321,786
-182.2298625564256,759
-179.7086253370378,755
-177.18808537710026,738
-174.66824248596583,654
-172.14909647290835,646
-169.6306471471229,713
-167.11289431772548,790
-164.59583779375328,842
-162.07947738416453,799
-159.5638128978386,785
-157.04884414357605,867
-154.53457093009854,908
-152.02099306604828,844
-149.50811035998936,743
-146.99592262040665,735
-144.48442965570587,768
-141.97363127421409,846
-139.46352728417958,1035
-136.95411749377126,932
-134.44540171107985,843
-131.93737974411636,786
-129.43005140081357,769
-126.92341648902493,860
-124.41747481652521,1060
-121.91222619101006,1178
-119.40767042009657,1510
-116.90380731132257,1452
-114.40063667214702,1610
-111.8981583099503,1658
-109.3963720320337,1352
-106.89527764561933,1391
-104.39487495785067,1690
-101.89516377579241,2036
-99.39614390642998,1977
-96.89781515667039,1937
-94.40017733334128,1753
-91.90323024319173,2480
-89.40697369289148,5112
-86.91140748903172,8703
-84.41653143812482,8047
-81.92234534660395,6650
-79.42884902082358,4321
-76.93604226705907,5507
-74.4439248915071,11607
-71.95249670028534,20993
-69.46175749943245,27589
-66.97170709490854,27805
-64.48234529259423,24587
-61.99367189829195,20306
-59.50568671772464,15720
-57.01838955653636,10075
-54.53178022029283,8219
-52.045858514480074,7666
-49.560624244506016,6664
-47.07607721569923,7039
-44.59221723330904,8426
-42.10904410250669,8824
-39.62655762838392,8355
-37.14475761595372,8591
-34.66364387015028,9121
-32.18321619582866,8380
-29.70347439776515,7850
-27.224418280657005,7429
-24.74604764912317,7569
-22.26836230770266,10173
-19.7913620608565,18812
-17.315046712966478,31989
-14.83941606833514,44380
-12.36446993118659,65038
-9.89020810566592,65038
-7.416630395839093,65038
-4.94373660569363,65038
-2.471526539137585,65038
-6.821210263296962E-13,65038
2.47084320796705,65038
4.941003281093458,65038
7.410480415786196,65038
9.879274808531363,65038
12.347386655893956,65038
14.814816154518212,65038
17.28156350112681,65038
19.74762889252179,65038
22.21301252558385,65038
24.67771459727237,20714
27.141735304626195,3664
29.605074844762612,2333
32.06773341487792,2863
34.52971121224755,2530
36.99100843422559,2504
39.45162527824516,2141
41.91156194181792,1656
44.370818622535126,1535
46.82939551806646,1291
49.287292826160524,1537
51.74451074464503,1881
54.201049471426245,2410
56.65690920448981,2196
59.112090141899785,1457
61.56659248179983,1262
64.02041642241159,1016
66.4735621620365,1065
68.92602989905402,1058
71.37781983192338,1282
73.82893215918205,1331
76.27936707944684,1375
78.72912479141326,1267
81.17820549385567,1191
83.62660938562783,1386
86.07433666566146,1556
88.5213875329681,1115
90.96776218663751,879
93.41346082583925,921
95.85848364982041,958
98.30283085790859,1188
100.7465026495089,1417
103.18949922410604,1290
105.63182078126385,1135
108.07346752062438,1016
110.51443964190923,859
112.95473734491827,776
115.39436082953114,995
117.83331029570547,1094
120.27158594347827,1066
122.7091879729652,1219
125.1461165843615,1159
127.58237197794062,982
130.01795435405518,914
132.4528639131364,828
134.88710085569494,874
137.32066538231982,858
139.75355769367923,832
142.1857779905207,817
144.61732647366978,829
147.04820334403132,834
149.47840880258934,848
151.90794305040674,963
154.33680628862487,1111
156.76499871846443,1332
159.19252054122433,1351
161.61937195828352,1406
164.04555317109896,1567
166.47106438120693,1766
168.89590579022217,1964
171.320077599839,2019
173.7435800118302,2089
176.16641322804742,2115
178.58857745042144,2283
181.01007288096173,2364
183.43089972175687,2305
185.85105817497413,2393
188.27054844285988,2447
190.6893707277394,2426
193.10752523201643,2532
195.5250121581745,2565
197.9418317087751,2663
200.3579840864594,2581
202.7734694939469,2593
205.18828813403627,2569
207.6024402096051,2698
210.01592592360964,2596
212.42874547908548,2669
214.84089907914665,2588
217.2523869269868,2674
219.66320922587727,2634
222.0733661791695,2613
224.48285799029293,2639
226.8916848627572,2521
229.29984700014882,2685
231.7073446061355,2705
234.11417788446204,2607
236.520347038953,2690
238.92585227351185,2824
241.33069379212054,2871
243.73487179884035,2949
246.1383864978112,2901
248.541238093252,2834
250.9434267894609,2919
253.34495279081432,2968
255.74581630176783,3074
258.1460175268563,2988
260.54555667069314,2926
262.9444339379703,2959
265.3426495334594,2898
267.7402036620107,2794
270.1370965285529,2758
272.53332833809407,2697
274.9288992957214,2615
277.32380960660055,2458
279.718059475976,2493
282.1116491091717,2585
284.5045787115897,2514
286.89684848871195,2457
289.2884586460981,2318
291.67940938938807,2440
294.0697009242996,2425
296.4593334566299,2454
298.84830719225477,2442
301.23662233712923,2407
303.6242790972866,2392
306.01127767884,2358
308.39761828798066,2361
310.78330113097934,2270
313.16832641418534,2306
315.5526943440269,2282
317.9364051270112,2230
320.3194589697242,2267
322.70185607883093,2226
325.0835966610754,2186
327.4646809232805,2159
329.8451090723478,2153
332.2248813152577,2064
334.6039978590701,2107
336.9824589109231,2154
339.36026467803447,2072
341.7374153677,2022
344.113911187295,2042
346.48975234427337,2018
348.8649390461686,1958
351.2394715005918,2057
353.61334991523415,2033
355.9865744978655,1929
358.35914545633375,1959
360.73106299856715,2011
363.10232733257146,2094
365.47293866643247,2008
367.84289720831396,1939
370.2122031664593,1993
372.5808567491905,1958
374.9488581649083,2000
377.31620762209275,1956
379.6829053293021,1908
382.0489514951745,1941
384.4143463284262,1923
386.7790900378528,1940
389.14318283232853,1935
391.50662492080653,1968
393.86941651231916,1976
396.23155781597745,1979
398.5930490409713,1903
400.9538903965696,1879
403.3140820921202,1950
405.6736243370498,1888
408.03251734086336,1914
410.3907613131465,1882
412.74835646356166,1895
415.10530300185144,1906
417.4616011378372,1893
419.81725108141893,1784
422.1722530425758,1884
424.5266072313656,1936
426.880313857925,1789
429.2333731324701,1882
431.58578526529516,1801
433.9375504667738,1855
436.2886689473588,1902
438.63914091758113,1769
440.9889665880513,1865
443.33814616945835,1831
445.68667987257015,1789
448.03456790823395,1788
450.3818104873759,1811
452.72840782100013,1810
455.07436012019105,1875
457.41966759611057,1825
459.7643304600007,1796
462.10834892318155,1839
464.4517231970525,1766
466.79445349309174,1778
469.1365400228566,1739
471.4779829979826,1827
473.81878263018564,1795
476.15893913125876,1825
478.4984527130747,1779
480.8373235875855,1874
483.17555196682144,1894
485.5131380628919,1968
487.8500820879857,2026
490.1863842543697,2166
492.52204477439034,2202
494.8570638604725,2370
497.1914417251204,2633
499.52517858091653,2933
501.85827464052306,3047
504.19073011668036,3169
506.5225452222086,3089
508.85372017000566,3058
511.18425517304956,2938
513.514150444396,3020
515.8434061971808,3343
518.1720226446176,3978
520.4999999999999,4113
522.8273384766991,3958
525.1540382881666,3683
527.480099647932,3376
529.8055227696037,2933
532.1303078668694,2450
534.454455153496,2051
536.777964843328,2035
539.1008371502907,1983
541.4230722883866,1918
543.744670471698,1936
546.0656319143858,1872
548.3859568306899,1877
550.7056454349294,1854
553.0246979415016,1820
555.3431145648834,1835
557.6608955196306,1872
559.978041020377,1868
562.2945512818363,1817
564.6104265188006,1810
566.9256669461412,1881
569.2402727788082,1855
571.5542442318302,1832
573.8675815203156,1798
576.1802848594508,1776
578.4923544645015,1806
580.8037905508126,1943
583.114593333807,1830
585.4247630289875,1901
587.7342998519354,1880
590.0432040183106,1844
592.3514757438526,1937
594.6591152443794,1887
596.9661227357875,1847
599.2724984340531,1872
601.578242555231,1916
603.8833553154542,1880
606.1878369309362,1849
608.4916876179676,1821
610.7949075929192,1853
613.0974970722403,1821
615.3994562724587,1762
617.7007854101818,1824
620.0014847020951,1835
622.3015543649641,1867
624.6009946156324,1910
626.8998056710224,1897
629.1979877481361,1840
631.4955410640538,1883
633.7924658359349,1833
636.0887622810175,1865
638.3844306166192,1883
640.6794710601358,1977
642.9738838290426,1920
645.2676691408932,1871
647.5608272133207,1915
649.853358264037,1862
652.1452625108324,1894
654.4365401715764,1951
656.7271914642178,1972
659.0172166067838,1827
661.3066158173809,1918
663.5953893141935,1878
665.8835373154867,1943
668.1710600396028,1921
670.4579577049639,1872
672.7442305300709,1886
675.0298787335033,1947
677.3149025339197,1902
679.599302150058,1921
681.8830778007342,1860
684.1662297048437,1861
686.4487580813608,1956
688.7306631493387,1972
691.0119451279091,1893
693.2926042362834,1913
695.5726406937516,1901
697.8520547196814,1882
700.1308465335215,1991
702.4090163547982,1850
704.6865644031171,1922
706.9634908981619,1880
709.2397960596965,1892
711.5154801075631,1835
713.7905432616823,1896
716.0649857420548,1889
718.3388077687592,1913
720.612009561953,1921
722.8845913418733,1870
725.1565533288352,1956
727.427895743234,1815
729.6986188055427,1838
731.9687227363137,1938
734.238207756178,1860
736.5070740858458,1916
738.7753219461066,1960
741.0429515578281,1857
743.3099631419569,1966
745.5763569195191,1909
747.8421331116193,1898
750.1072919394409,1914
752.3718336242467,1852
754.6357583873777,1838
756.8990664502545,1885
759.1617580343765,1938
761.423833361321,1853
763.6852926527457,1938
765.9461361303862,1932
768.206364016058,1924
770.4659765316536,1901
772.7249738991469,1874
774.9833563405886,1962
777.2411240781092,1846
779.4982773339183,1921
781.7548163303044,1877
784.010741289634,1942
786.2660524343538,1954
788.5207499869881,1858
790.7748341701416,1946
793.0283052064964,1938
795.2811633188143,1828
797.5334087299362,1940
799.7850416627813,1923
802.0360623403484,1936
804.2864709857143,1951
806.5362678220353,1917
808.7854530725468,1952
811.0340269605625,1995
813.2819897094754,1953
815.5293415427581,1940
817.77608268396,1848
820.0222133567116,1919
822.2677337847211,1944
824.5126441917765,1883
826.7569448017433,1888
829.0006358385675,1845
831.2437175262731,1910
833.4861900889629,1930
835.7280537508192,1918
837.9693087361026,1931
840.2099552691533,1880
842.4499935743896,1879
844.689423876309,1844
846.9282463994886,1877
849.1664613685833,1903
851.4040690083276,1920
853.6410695435349,1947
855.877463199097,1947
858.1132501999847,1863
860.3484307712487,1899
862.5830051380175,1917
864.8169735254988,1946
867.0503361589791,1971
869.2830932638243,2070
871.5152450654786,1932
873.7467917894654,1997
875.9777336613873,1997
878.2080709069252,1962
880.4378037518389,2023
882.666932421968,2020
884.8954571432301,1934
887.1233781416219,1994
889.3506956432192,1928
891.5774098741766,1977
893.803521060728,1987
896.0290294291852,1942
898.2539352059397,2002
900.4782386174619,1996
902.7019398903011,1964
904.925039251085,2048
907.147536926521,1990
909.3694331433943,1978
911.59072812857,2011
913.8114221089921,1923
916.0315153116827,1906
918.2510079637437,1917
920.4699002923547,1888
922.6881925247761,1951
924.905884888345,1941
927.1229776104793,1925
929.3394709186747,1923
931.555365040506,1902
933.7706602036275,1867
935.9853566357709,1855
938.1994545647489,1909
940.4129542184515,1956
942.6258558248488,1953
944.8381596119883,1980
947.0498658079974,1851
949.2609746410825,1971
951.4714863395287,1912
953.6814011316998,1881
955.8907192460387,1860
958.0994409110671,1897
960.3075663553858,1833
962.5150958076741,1847
964.7220294966913,1843
966.928367651274,1918
969.1341105003388,1787
971.3392582728806,1830
973.5438111979742,1792
975.747769504772,1864
977.9511334225061,1824
980.153903180487,1785
982.3560790081052,1833
984.5576611348289,1795
986.7586497902058,1765
988.9590452038618,1743
991.158847605503,1803
993.3580572249133,1710
995.5566742919558,1727
997.7546990365728,1729
999.952131688785,1673
1002.1489724786926,1675
1004.3452216364743,1670
1006.5408793923874,1648
1008.7359459767691,1632
1010.9304216200343,1656
1013.1243065526781,1687
1015.3176010052733,1649
1017.510305208472,1609
1019.7024193930064,1592
1021.8939437896848,1646
1024.0848786293977,1550
1026.2752241431122,1596
1028.4649805618747,1588
1030.6541481168115,1577
1032.842727039127,1641
1035.0307175601051,1609
1037.2181199111074,1504
1039.4049343235752,1602
1041.591161029029,1551
1043.7768002590683,1547
1045.9618522453698,1552
1048.1463172196918,1517
1050.3301954138697,1551
1052.513487059818,1582
1054.69619238953,1633
1056.8783116350783,1563
1059.0598450286152,1554
1061.2407928023704,1491
1063.4211551886528,1530
1065.6009324198508,1578
1067.780124728432,1571
1069.9587323469414,1533
1072.1367555080046,1545
1074.314194444325,1543
1076.4910493886855,1553
1078.667320573947,1531
1080.843008233051,1550
1083.0181125990161,1505
1085.1926339049414,1496
1087.3665723840027,1476
1089.5399282694575,1527
1091.7127017946405,1463
1093.8848931929647,1536
1096.0565026979243,1442
1098.2275305430899,1485
1100.3979769621128,1466
1102.567842188722,1456
1104.737126456726,1437
1106.9058300000124,1431
1109.0739530525475,1459
1111.2414958483764,1463
1113.4084586216231,1463
1115.5748416064907,1476
1117.7406450372605,1414
1119.9058691482942,1453
1122.0705141740304,1444
1124.2345803489884,1467
1126.3980679077658,1401
1128.5609770850388,1474
1130.7233081155623,1483
1132.8850612341707,1425
1135.0462366757774,1437
1137.2068346753745,1397
1139.3668554680326,1466
1141.526299288901,1440
1143.68516637321,1436
1145.8434569562655,1442
1148.001171273455,1379
1150.158309560244,1379
1152.3148720521767,1436
1154.470858984876,1453
1156.626270594044,1453
1158.7811071154629,1409
1160.9353687849912,1404
1163.089055838569,1384
1165.242168512213,1380
1167.3947070420209,1353
1169.5466716641677,1333
1171.6980626149075,1362
1173.8488801305748,1397
1175.9991244475814,1414
1178.1487958024186,1441
1180.2978944316555,1397
1182.4464205719428,1438
1184.5943744600072,1465
1186.7417563326567,1331
1188.8885664267755,1414
1191.0348049793297,1399
1193.1804722273619,1358
1195.325568407995,1449
1197.4700937584303,1381
1199.614048515948,1356
1201.7574329179074,1405
1203.900247201746,1350
1206.042491604982,1437
1208.1841663652099,1395
1210.3252717201053,1441
1212.465807907422,1436
1214.6057751649923,1372
1216.7451737307279,1444
1218.8840038426192,1395
1221.0222657387353,1415
1223.1599596572241,1506
1225.2970858363137,1451
1227.4336445143094,1449
1229.5696359295966,1430
1231.705060320639,1464
1233.8399179259786,1446
1235.9742089842384,1466
1238.107933734118,1403
1240.2410924143974,1494
1242.373685263935,1484
1244.5057125216676,1438
1246.6371744266116,1397
1248.7680712178621,1486
1250.898403134593,1411
1253.028170416058,1445
1255.1573733015875,1448
1257.2860120305932,1472
1259.4140868425648,1413
1261.54159797707,1456
1263.6685456737569,1401
1265.7949301723515,1454
1267.9207517126597,1491
1270.046010534565,1461
1272.1707068780306,1510
1274.2948409830983,1440
1276.4184130898889,1462
1278.541423438603,1500
1280.6638722695184,1478
1282.785759822993,1458
1284.9070863394636,1455
1287.0278520594447,1479
1289.1480572235314,1514
1291.2677020723963,1452
1293.3867868467923,1520
1295.5053117875495,1513
1297.623277135579,1523
1299.740683131868,1539
1301.8575300174857,1585
1303.973818033578,1528
1306.0895474213703,1520
1308.2047184221678,1554
1310.3193312773528,1495
1312.4333862283888,1511
1314.5468835168163,1542
1316.659823384255,1559
1318.7722060724045,1555
1320.8840318230418,1563
1322.9953008780249,1568
1325.1060134792888,1469
1327.2161698688478,1553
1329.3257702887959,1579
1331.4348149813054,1559
1333.5433041886276,1597
1335.6512381530933,1592
1337.7586171171101,1578
1339.8654413231675,1566
1341.9717110138317,1540
1344.0774264317488,1606
1346.1825878196432,1556
1348.2871954203192,1556
1350.3912494766587,1531
1352.4947502316231,1551
1354.5976979282532,1551
1356.7000928096686,1542
1358.8019351190665,1562
1360.9032250997243,1508
1363.0039629949988,1542
1365.1041490483235,1537
1367.2037835032133,1550
1369.3028666032606,1519
1371.401398592137,1531
1373.4993797135926,1555
1375.5968102114575,1575
1377.6936903296396,1498
1379.7900203121262,1596
1381.8858004029835,1545
1383.9810308463561,1683
1386.075711886469,1565
1388.1698437676241,1550
1390.2634267342032,1569
1392.356461030667,1562
1394.4489469015557,1566
1396.5408845914872,1632
1398.6322743451592,1610
1400.7231164073469,1618
1402.813411022907,1630
1404.903158436773,1646
1406.9923588939578,1577
1409.0810126395531,1636
1411.1691199187303,1618
1413.2566809767386,1677
1415.343696058907,1668
1417.4301654106425,1619
1419.5160892774315,1626
1421.6014679048399,1659
1423.6863015385125,1625
1425.7705904241707,1669
1427.8543348076178,1682
1429.9375349347342,1665
1432.0201910514802,1751
1434.102303403894,1773
1436.1838722380944,1767
1438.2648978002767,1761
1440.3453803367174,1752
1442.4253200937692,1820
1444.5047173178677,1734
1446.5835722555234,1848
1448.6618851533285,1880
1450.739656257952,1865
1452.8168858161434,1928
1454.8935740747306,1939
1456.96972128062,1916
1459.045327680797,1995
1461.120393522327,2074
1463.1949190523528,2010
1465.2689045180973,1990
1467.3423501668608,2129
1469.415256246024,2134
1471.4876230030463,2184
1473.559450685465,2204
1475.6307395408976,2200
1477.7014898170391,2264
1479.771701761665,2333
1481.8413756226287,2278
1483.9105116478618,2332
1485.9791100853772,2357
1488.0471711832643,2485
1490.1146951896926,2448
1492.1816823529098,2431
1494.2481329212433,2539
1496.3140471430984,2576
1498.3794252669609,2664
1500.4442675413939,2654
1502.5085742150404,2571
1504.572345536622,2633
1506.6355817549388,2570
1508.6982831188702,2635
1510.7604498773744,2615
1512.8220822794883,2663
1514.8831805743293,2623
1516.9437450110909,2742
1519.003775839048,2793
1521.0632733075522,2746
1523.1222376660367,2793
1525.1806691640113,2786
1527.2385680510652,2867
1529.2959345768668,2850
1531.3527689911643,2958
1533.4090715437833,2961
1535.4648424846291,3045
1537.5200820636855,2985
1539.5747905310159,2980
1541.6289681367616,2965
1543.6826151311434,3088
1545.7357317644614,3183
1547.7883182870937,3144
1549.8403749494987,3221
1551.8919020022113,3263
1553.9428996958477,3359
1555.9933682811015,3321
1558.0433080087469,3370
1560.0927191296346,3383
1562.1416018946961,3493
1564.1899565549415,3501
1566.2377833614592,3415
1568.2850825654164,3397
1570.3318544180606,3350
1572.3780991707158,3232
1574.423817074788,3156
1576.4690083817595,2988
1578.5136733431923,2874
1580.5578122107272,2764
1582.601425236085,2690
1584.6445126710646,2580
1586.6870747675434,2498
1588.7291117774776,2329
1590.7706239529034,2276
1592.8116115459347,2315
1594.8520748087658,2179
1596.8920139936686,2095
1598.9314293529933,2026
1600.9703211391711,2004
1603.008689604711,1983
1605.0465350022005,1978
1607.0838575843068,1816
1609.1206576037753,1748
1611.1569353134305,1790
1613.1926909661765,1793
1615.2279248149953,1773
1617.2626371129481,1639
1619.2968281131757,1694
1621.3304980688963,1633
1623.3636472334088,1696
1625.39627586009,1684
1627.428384202396,1539
1629.459972513861,1568
1631.4910410480993,1598
1633.5215900588028,1644
1635.551619799744,1530
1637.5811305247717,1521
1639.6101224878166,1514
1641.6385959428862,1589
1643.6665511440683,1571
1645.693988345528,1493
1647.7209078015112,1636
1649.7473097663405,1540
1651.7731944944203,1552
1653.7985622402307,1527
1655.823413258333,1577
1657.847747803366,1505
1659.8715661300494,1522
1661.8948684931793,1498
1663.9176551476316,1558
1665.9399263483624,1511
1667.9616823504057,1602
1669.982923408873,1580
1672.0036497789574,1544
1674.0238617159293,1482
1676.043559475138,1530
1678.0627433120121,1501
1680.081413482059,1535
1682.0995702408654,1476
1684.117213844096,1549
1686.134344547495,1503
1688.1509626068864,1507
1690.1670682781705,1502
1692.182661817329,1474
1694.1977434804217,1526
1696.2123135235875,1496
1698.226372203043,1535
1700.2399197750851,1475
1702.2529564960905,1489
1704.2654826225112,1490
1706.277498410882,1515
1708.2890041178139,1453
1710.2999999999988,1505
1712.3104863142066,1458
1714.3204633172854,1511
1716.329931266163,1521
1718.3388904178469,1516
1720.3473410294214,1435
1722.3552833580516,1503
1724.3627176609807,1478
1726.3696441955308,1505
1728.3760632191033,1506
1730.3819749891782,1466
1732.3873797633146,1481
1734.3922777991502,1454
1736.3966693544012,1454
1738.4005546868639,1475
1740.4039340544127,1372
1742.406807715001,1451
1744.4091759266616,1385
1746.4110389475054,1466
1748.4123970357223,1451
1750.413250449582,1358
1752.4135994474318,1409
1754.4134442876993,1473
1756.4127852288902,1413
1758.4116225295893,1345
1760.4099564484595,1377
1762.407787244244,1373
1764.405115175764,1418
1766.4019405019203,1456
1768.3982634816916,1417
1770.3940843741357,1431
1772.3894034383907,1437
1774.3842209336717,1394
1776.378537119274,1460
1778.372352254571,1387
1780.3656665990156,1421
1782.3584804121397,1440
1784.3507939535534,1422
1786.3426074829463,1330
1788.3339212600863,1399
1790.3247355448211,1408
1792.3150505970766,1430
1794.3048666768573,1340
1796.2941840442477,1339
1798.2830029594106,1369
1800.2713236825884,1378
1802.2591464741004,1309
1804.2464715943465,1420
1806.2332993038058,1384
1808.2196298630352,1360
1810.2054635326708,1358
1812.190800573428,1409
1814.175641246101,1401
1816.1599858115628,1398
1818.1438345307652,1388
1820.127187664738,1429
1822.1100454745924,1324
1824.092408221516,1260
1826.0742761667766,1390
1828.055649571721,1323
1830.0365286977735,1328
1832.0169138064398,1336
1833.9968051593014,1398
1835.9762030180214,1378
1837.9551076443408,1380
1839.9335193000788,1414
1841.9114382471344,1382
1843.888864747485,1388
1845.8657990631878,1376
1847.842241456378,1315
1849.8181921892697,1297
1851.7936515241558,1353
1853.7686197234098,1299
1855.7430970494815,1312
1857.7170837649014,1341
1859.6905801322787,1324
1861.6635864143004,1326
1863.6361028737338,1366
1865.608129773424,1327
1867.5796673762961,1369
1869.5507159453537,1316
1871.521275743678,1291
1873.4913470344313,1356
1875.4609300808534,1328
1877.4300251462632,1330
1879.3986324940588,1384
1881.366752387717,1404
1883.3343850907936,1319
1885.3015308669228,1333
1887.268189979819,1354
1889.2343626932739,1345
1891.2000492711595,1321
1893.1652499774254,1357
1895.1299650761011,1331
1897.0941948312952,1371
1899.0579395071945,1349
1901.0211993680641,1373
1902.98397467825,1332
1904.9462657021745,1294
1906.9080727043415,1387
1908.869395949332,1361
1910.8302357018065,1317
1912.790592226504,1331
1914.7504657882428,1340
1916.7098566519212,1325
1918.6687650825133,1299
1920.6271913450764,1310
1922.5851357047422,1364
1924.5425984267245,1326
1926.499579776314,1344
1928.4560800188833,1330
1930.4120994198802,1333
1932.367638244833,1304
1934.32269675935,1358
1936.2772752291175,1343
1938.231373919899,1358
1940.1849930975404,1345
1942.1381330279637,1345
1944.0907939771696,1359
1946.0429762112412,1337
1947.9946799963363,1320
1949.9459055986945,1327
1951.896653284633,1362
1953.8469233205478,1355
1955.7967159729142,1300
1957.7460315082863,1374
1959.6948701932974,1290
1961.6432322946594,1278
1963.5911180791632,1338
1965.5385278136787,1317
1967.4854617651545,1280
1969.4319202006182,1376
1971.377903387176,1336
1973.3234115920136,1323
1975.268445082395,1377
1977.2130041256642,1370
1979.1570889892423,1336
1981.1006999406304,1307
1983.04383724741,1294
1984.986501177238,1287
1986.928691997853,1339
1988.8704099770712,1340
1990.811655382789,1334
1992.7524284829801,1354
1994.692729545698,1307
1996.6325588390755,1323
1998.5719166313224,1322
2000.5108031907307,1326
2002.4492187856677,1306
2004.387163684583,1240
2006.3246381560011,1332
2008.2616424685298,1258
2010.1981768908527,1326
2012.1342416917332,1291
2014.069837140014,1261
2016.0049635046162,1234
2017.9396210545406,1344
2019.8738100588666,1243
2021.8075307867502,1270
2023.740783507431,1266
2025.6735684902228,1360
2027.6058860045214,1317
2029.5377363198004,1313
2031.4691197056118,1305
2033.4000364315875,1310
2035.3304867674374,1320
2037.260470982952,1336
2039.189989347998,1338
2041.1190421325232,1298
2043.047629606554,1265
2044.9757520401945,1290
2046.9034097036288,1296
2048.8306028671195,1334
2050.7573318010086,1274
2052.683596775716,1296
2054.609398061742,1270
2056.5347359296647,1252
2058.4596106501403,1249
2060.384022493906,1297
2062.3079717317764,1310
2064.231458634646,1290
2066.1544834734873,1345
2068.077046519352,1298
2069.99914804337,1270
2071.9207883167524,1258
2073.8419676107865,1338
2075.7626861968406,1321
2077.6829443463607,1286
2079.6027423308715,1303
2081.522080421977,1294
2083.440958891362,1299
2085.359378010786,1254
2087.2773380520907,1295
2089.194839287196,1293
2091.111881988101,1314
2093.0284664268825,1311
2094.9445928756973,1354
2096.86026160678,1257
2098.775472892446,1276
2100.690227005088,1300
2102.604524217178,1277
2104.5183648012676,1303
2106.431749029985,1329
2108.34467717604,1300
2110.2571495122206,1329
2112.169166311393,1285
2114.080727846503,1286
2115.9918343905747,1229
2117.902486216711,1347
2119.8126835980956,1271
2121.722426807987,1349
2123.6317161197285,1302
2125.5405518067364,1291
2127.448934142509,1339
2129.356863400624,1295
2131.264339854737,1370
2133.1713637785815,1303
2135.077935445972,1297
2136.9840551308002,1326
2138.889723107037,1310
2140.7949396487334,1317
2142.699705030018,1303
2144.6040195250994,1311
2146.507883408264,1328
2148.4112969538774,1309
2150.3142604363848,1351
2152.2167741303097,1356
2154.1188383102535,1297
2156.0204532508997,1284
2157.9216192270064,1321
2159.822336513414,1318
2161.7226053850413,1297
2163.622426116884,1276
2165.5217989840185,1319
2167.4207242616,1360
2169.319202224862,1336
2171.2172331491165,1378
2173.1148173097563,1337
2175.0119549822507,1325
2176.90864644215,1350
2178.8048919650823,1375
2180.7006918267534,1322
2182.596046302952,1367
2184.4909556695407,1387
2186.3854202024645,1390
2188.279440177746,1394
2190.173015871487,1347
2192.066147559868,1328
2193.958835519149,1356
2195.851080025667,1352
2197.7428813558417,1389
2199.6342397861667,1436
2201.5251555932186,1365
2203.415629053651,1358
2205.3056604441986,1368
2207.19525004167,1399
2209.084398122958,1434
2210.9731049650327,1427
2212.861370844941,1424
2214.749196039812,1380
2216.636580826851,1363
2218.523525483344,1389
2220.410030286655,1374
2222.296095514226,1495
2224.1817214435805,1425
2226.066908352319,1379
2227.951656518121,1449
2229.835966218746,1376
2231.71983773203,1379
2233.6032713358913,1395
2235.486267308324,1424
2237.3688259274036,1367
2239.2509474712824,1341
2241.132632218193,1412
2243.013880446447,1390
2244.8946924344323,1446
2246.7750684606203,1360
2248.6550088035574,1396
2250.534513741871,1404
2252.413583554265,1354
2254.292218519526,1414
2256.170418916517,1382
2258.0481850241786,1323
2259.925517121534,1356
2261.8024154876825,1409
2263.678880401803,1436
2265.5549121431536,1395
2267.430510991071,1412
2269.305677224971,1413
2271.180411124348,1364
2273.0547129687766,1393
2274.9285830379076,1314
2276.8020216114737,1397
2278.6750289692845,1349
2280.5476053912294,1399
2282.4197511572766,1361
2284.2914665474727,1431
2286.162751841943,1543
2288.0336073208937,1433
2289.904033264608,1405
2291.774029953448,1430
2293.6435976678554,1417
2295.5127366883517,1395
2297.381447295534,1280
2299.2497297700825,1340
2301.1175843927526,1266
2302.9850114443825,1277
2304.852011205885,1202
2306.7185839582553,1275
2308.5847299825664,1221
2310.4504495599676,1193
2312.3157429716925,1215
2314.1806104990483,1199
2316.0450524234247,1210
2317.9090690262888,1129
2319.772660589186,1197
2321.635827393742,1230
2323.498569721661,1208
2325.3608878547248,1224
2327.2227820747967,1170
2329.0842526638157,1195
2330.945299903803,1190
2332.805924076857,1190
2334.6661254651535,1172
2336.525904350951,1150
2338.3852610165827,1224
2340.244195744464,1202
2342.102708817088,1232
2343.9608005170253,1252
2345.8184711269287,1206
2347.675720929526,1209
2349.532550207628,1170
2351.38895924412,1183
2353.24494832197,1209
2355.100517724223,1208
2356.955667734004,1216
2358.810398634514,1224
2360.664710709037,1185
2362.5186042409337,1203
2364.3720795136437,1193
2366.225136810686,1228
2368.0777764156583,1214
2369.929998612237,1194
2371.7818036841777,1227
2373.633191915315,1247
2375.484163589562,1241
2377.3347189909114,1195
2379.184858403434,1172
2381.03458211128,1227
2382.8838903986775,1237
2384.732783549936,1207
2386.5812618494406,1236
2388.4293255816588,1214
2390.2769750311327,1228
2392.1242104824883,1236
2393.971032220427,1243
2395.8174405297295,1232
2397.6634356952563,1241
2399.509018001947,1269
2401.3541877348193,1214
2403.1989451789705,1265
2405.043290619576,1267
2406.8872243418905,1223
2408.730746631247,1254
2410.5738577730594,1269
2412.4165580528183,1212
2414.258847756095,1270
2416.100727168537,1250
2417.9421965758734,1220
2419.783256263912,1195
2421.623906518538,1184
2423.4641476257157,1184
2425.303979871491,1233
2427.143403541984,1245
2428.9824189233977,1158
2430.821026302012,1238
2432.6592259641866,1242
2434.497018196361,1160
2436.33440328505,1252
2438.171381516851,1282
2440.00795317844,1259
2441.844118556569,1218
2443.6798779380724,1229
2445.5152316098606,1277
2447.3501798589255,1246
2449.1847229723357,1247
2451.0188612372403,1276
2452.8525949408663,1222
2454.6859243705203,1225
2456.518849813587,1228
2458.3513715575314,1282
2460.183489889895,1238
2462.015205098301,1254
2463.8465174704493,1221
2465.67742729412,1225
2467.5079348571717,1234
2469.338040447542,1236
2471.1677443532476,1274
2472.9970468623833,1221
2474.825948263123,1196
2476.6544488437207,1213
2478.482548892508,1244
2480.310248697896,1231
2482.137548548374,1283
2483.9644487325118,1222
2485.790949538956,1245
2487.617051256433,1238
2489.44275417375,1257
2491.26805857979,1270
2493.0929647635157,1369
2494.917473013971,1284
2496.741583620276,1333
2498.5652968716304,1269
2500.3886130573137,1318
2502.2115324666834,1277
2504.0340553891765,1274
2505.856182114308,1318
2507.6779129316733,1288
2509.499248130945,1283
2511.3201880018764,1324
2513.140732834298,1309
2514.9608829181198,1303
2516.780638543331,1226
2518.6,1312
2520.418967578273,1296
2522.237541568376,1327
2524.0557222606144,1272
2525.8735099453706,1336
2527.6909049131086,1365
2529.507907454368,1319
2531.32451785977,1400
2533.140736420014,1351
2534.9565634258774,1379
2536.771999168218,1369
2538.5870439379714,1331
2540.4016980261526,1396
2542.2159617238544,1377
2544.02983532225,1419
2545.8433191125914,1395
2547.656413386209,1382
2549.4691184345115,1381
2551.2814345489874,1423
2553.093362021204,1404
2554.904901142808,1462
2556.716052205523,1411
2558.526815501153,1436
2560.3371913215824,1449
2562.147179958771,1476
2563.956781704761,1442
2565.7659968516705,1465
2567.5748256916986,1546
2569.3832685171224,1542
2571.1913256202984,1514
2572.9989972936614,1525
2574.806283829725,1522
2576.613185521084,1508
2578.4197026604074,1542
2580.2258355404483,1492
2582.031584454035,1508
2583.836949694077,1526
2585.6419315535613,1585
2587.4465303255533,1547
2589.2507463032002,1586
2591.0545797797245,1620
2592.8580310484303,1585
2594.6611004026995,1584
2596.463788135992,1679
2598.266094541849,1628
2600.0680199138874,1517
2601.869564545807,1640
2603.670728731383,1607
2605.4715127644704,1586
2607.2719169390048,1570
2609.071941548998,1604
2610.8715868885433,1594
2612.670853251811,1573
2614.469740933052,1561
2616.268250226594,1553
2618.0663814268455,1602
2619.864134828292,1603
2621.6615107255006,1589
2623.458509413115,1541
2625.2551311858597,1537
2627.0513763385347,1525
2628.8472451660223,1545
2630.6427379632833,1552
2632.4378550253564,1538
2634.232596647359,1523
2636.026963124488,1495
2637.8209547520187,1508
2639.6145718253065,1454
2641.407814639785,1498
2643.200683490966,1499
2644.9931786744414,1486
2646.7853004858807,1450
2648.577049221034,1477
2650.3684251757277,1406
2652.1594286458712,1377
2653.9500599274484,1378
2655.740319316525,1340
2657.5302071092437,1365
2659.3197236018286,1461
2661.10886909058,1384
2662.8976438718782,1392
2664.686048242183,1291
2666.4740824980327,1380
2668.2617469360443,1314
2670.0490418529134,1343
2671.8359675454153,1296
2673.622524310403,1293
2675.408712444811,1299
2677.1945322456495,1293
2678.979984010009,1339
2680.76506803506,1327
2682.5497846180497,1274
2684.334134056306,1317
2686.1181166472343,1287
2687.9017326883213,1264
2689.6849824771293,1238
2691.4678663113013,1274
2693.2503844885596,1333
2695.032537306705,1337
2696.8143250636167,1262
2698.5957480572542,1275
2700.3768065856534,1271
2702.1575009469316,1298
2703.937831439283,1272
2705.717798360982,1231
2707.4974020103837,1243
2709.276642685917,1216
2711.055520686095,1289
2712.834036309506,1218
2714.612189854819,1241
2716.389981620782,1262
2718.1674119062204,1233
2719.944481010041,1255
2721.721189231226,1203
2723.4975368688415,1239
2725.273524222027,1255
2727.0491515900053,1210
2728.824419272075,1218
2730.5993275676146,1250
2732.3738767760838,1256
2734.148067197016,1213
2735.921899130031,1235
2737.6953728748194,1239
2739.468488731156,1247
2741.2412469988926,1189
2743.0136479779617,1218
2744.785691968372,1198
2746.5573792702116,1161
2748.3287101836504,1171
2750.099685008934,1186
2751.870304046388,1230
2753.640567596418,1148
2755.4104759595057,1212
2757.1800294362156,1222
2758.949228327187,1168
2760.7180729331412,1212
2762.486563554877,1204
2764.254700493272,1200
2766.022484049284,1200
2767.789914523947,1184
2769.5569922183786,1196
2771.3237174337705,1216
2773.090090471394,1195
2774.8561116326036,1190
2776.6217812188274,1191
2778.3870995315756,1169
2780.1520668724356,1168
2781.9166835430747,1210
2783.6809498452394,1161
2785.444866080754,1235
2787.2084325515225,1177
2788.971649559527,1211
2790.73451740683,1154
2792.4970363955713,1176
2794.2592068279705,1155
2796.0210290063264,1166
2797.7825032330147,1221
2799.543629810493,1180
2801.304409041296,1205
2803.0648412280366,1110
2804.8249266734088,1207
2806.5846656801846,1224
2808.344058551212,1212
2810.1031055894246,1223
2811.8618070978273,1210
2813.6201633795085,1127
2815.378174737636,1201
2817.1358414754536,1209
2818.893163896285,1207
2820.6501423035334,1195
2822.4067770006814,1241
2824.1630682912883,1207
2825.9190164789957,1190
2827.6746218675207,1187
2829.429884760661,1185
2831.184805462294,1162
2832.9393842763743,1186
2834.693621506936,1200
2836.4475174580916,1201
2838.201072434034,1159
2839.954286739034,1201
2841.707160677441,1204
2843.459694553685,1168
2845.2118886722724,1223
2846.96374333779,1225
2848.7152588549034,1206
2850.4664355283567,1141
2852.217273662973,1193
2853.9677735636546,1150
2855.7179355353833,1203
2857.4677598832186,1254
2859.217246912299,1179
2860.9663969278427,1169
2862.715210235146,1176
2864.4636871395846,1150
2866.211827946614,1222
2867.9596329617652,1182
2869.7071024906536,1226
2871.4542368389684,1195
2873.20103631248,1196
2874.947501217038,1199
2876.6936318585695,1192
2878.4394285430812,1211
2880.1848915766604,1229
2881.9300212654707,1212
2883.6748179157553,1153
2885.4192818338374,1172
2887.1634133261173,1145
2888.907212699077,1211
2890.6506802592744,1136
2892.393816313348,1186
2894.1366211680142,1211
2895.8790951300693,1226
2897.621238506388,1244
2899.363051603925,1255
2901.1045347297118,1181
2902.8456881908596,1244
2904.58651229456,1214
2906.327007348081,1215
2908.067173658772,1171
2909.8070115340597,1150
2911.5465212814497,1172
2913.285703208527,1220
2915.0245576229563,1152
2916.7630848324807,1182
2918.5012851449196,1142
2920.2391588681758,1109
2921.976706310227,1181
2923.7139277791334,1160
2925.4508235830313,1183
2927.187394030137,1182
2928.923639428745,1193
2930.6595600872306,1136
2932.395156314046,1129
2934.1304284177218,1214
2935.8653767068713,1146
2937.6000014901815,1159
2939.3343030764227,1174
2941.068281774442,1160
2942.8019378931644,1185
2944.5352717415976,1192
2946.2682836288236,1170
2948.0009738640065,1205
2949.7333427563885,1177
2951.465390615289,1205
2953.1971177501086,1176
2954.9285244703265,1200
2956.6596110855,1214
2958.3903779052657,1213
2960.1208252393385,1204
2961.8509533975125,1198
2963.5807626896617,1192
2965.3102534257378,1168
2967.0394259157715,1154
2968.768280469873,1152
2970.496817398232,1149
2972.2250370111146,1169
2973.952939618869,1226
2975.6805255319196,1214
2977.4077950607707,1181
2979.134748516006,1228
2980.861386208289,1217
2982.587708448359,1261
2984.313715547037,1211
2986.039407815222,1229
2987.764785563891,1205
2989.489849104102,1131
2991.2145987469908,1143
2992.9390348037705,1190
2994.6631575857346,1177
2996.3869674042576,1162
2998.1104645707887,1173
2999.83364939686,1151
3001.5565221940783,1176
3003.2790832741334,1198
3005.0013329487924,1211
3006.7232715298996,1170
3008.4448993293804,1144
3010.166216659239,1179
3011.887223831558,1142
3013.607921158498,1196
3015.3283089522993,1218
3017.0483875252826,1224
3018.7681571898443,1188
3020.4876182584626,1204
3022.2067710436927,1216
3023.9256158581707,1140
3025.644153014609,1229
3027.362382825801,1174
3029.0803056046193,1215
3030.797921664012,1230
3032.5152313170106,1190
3034.2322348767225,1171
3035.9489326563353,1177
3037.665324969115,1175
3039.3814121284063,1238
3041.097194447633,1168
3042.812672240299,1217
3044.5278458199855,1194
3046.2427155003525,1144
3047.9572815951406,1143
3049.671544418167,1186
3051.38550428333,1219
3053.0991615046073,1181
3054.812516396051,1132
3056.5255692717974,1147
3058.2383204460575,1170
3059.9507702331257,1149
3061.662918947372,1192
3063.3747669032446,1167
3065.0863144152736,1168
3066.7975617980674,1152
3068.508509366309,1222
3070.219157434767,1188
3071.9295063182844,1201
3073.639556331785,1196
3075.3493077902704,1209
3077.058761008821,1140
3078.7679163025964,1206
3080.476773986837,1183
3082.1853343768594,1159
3083.89359778806,1179
3085.6015645359153,1206
3087.3092349359786,1165
3089.016609303884,1172
3090.7236879553434,1178
3092.4304712061476,1170
3094.136959372166,1203
3095.843152769349,1207
3097.5490517137237,1202
3099.2546565213966,1183
3100.959967508554,1184
3102.66498499146,1182
3104.3697092864577,1148
3106.0741407099695,1166
3107.778279578498,1152
3109.482126208622,1159
3111.1856809170004,1196
3112.8889440203716,1239
3114.5919158355528,1203
3116.294596679439,1205
3117.996986869006,1216
3119.6990867213062,1204
3121.4008965534726,1238
3123.102416682717,1219
3124.803647426329,1165
3126.5045891016784,1210
3128.205242026213,1185
3129.90560651746,1225
3131.605682893025,1200
3133.3054714705922,1238
3135.0049725679282,1199
3136.7041865028714,1247
3138.4031135933465,1185
3140.101754157353,1169
3141.800108512971,1138
3143.498176978357,1199
3145.1959598717494,1202
3146.8934575114636,1182
3148.5906702158954,1165
3150.2875983035183,1169
3151.9842420928853,1146
3153.680601902627,1182
3155.376678051456,1184
3157.07247085816,1191
3158.767980641609,1136
3160.463207720748,1206
3162.158152414606,1194
3163.8528150422862,1194
3165.5471959229726,1182
3167.2412953759303,1189
3168.9351137204976,1180
3170.628651276098,1191
3172.3219083622307,1230
3174.014885298474,1147
3175.707582404485,1171
3177.4000000000005,1188
3179.092138404835,1188
3180.7839979388846,1194
3182.47557892212,1149
3184.166881674594,1202
3185.8579065164386,1153
3187.5486537678626,1137
3189.2391237491547,1149
3190.9293167806827,1154
3192.6192331828934,1136
3194.3088732763117,1181
3195.998237381542,1156
3197.687325819268,1125
3199.376138910251,1167
3201.064676975334,1160
3202.7529403354347,1158
3204.4409293115523,1118
3206.1286442247647,1190
3207.816085396229,1117
3209.5032531471825,1151
3211.190147798936,1138
3212.8767696728846,1131
3214.5631190905015,1112
3216.2491963733373,1166
3217.9350018430214,1130
3219.6205358212637,1116
3221.305798629851,1167
3222.990790590651,1181
3224.6755120256103,1154
3226.359963256751,1110
3228.0441446061795,1150
3229.7280563960758,1122
3231.411698948703,1155
3233.0950725863995,1195
3234.778177631587,1152
3236.461014406761,1150
3238.1435832345005,1175
3239.8258844374595,1127
3241.507918338374,1161
3243.1896852600576,1128
3244.8711855254023,1108
3246.552419457381,1204
3248.233387379042,1160
3249.914089613516,1163
3251.59452648401,1144
3253.274698313813,1140
3254.95460542629,1174
3256.6342481448855,1109
3258.313626793125,1131
3259.9927416946084,1148
3261.6715931730196,1138
3263.3501815521176,1151
3265.0285071557437,1096
3266.706570307815,1188
3268.3843713323286,1167
3270.0619105533615,1088
3271.739188295068,1155
3273.4162048816834,1179
3275.0929606375184,1142
3276.769455886966,1168
3278.445690954498,1168
3280.1216661646613,1184
3281.797381842087,1191
3283.4728383114807,1198
3285.1480358976296,1169
3286.8229749253996,1227
3288.4976557197333,1167
3290.172078605655,1124
3291.846243908266,1144
3293.5201519527463,1170
3295.193803064357,1154
3296.8671975684374,1141
3298.5403357904024,1140
3300.21321805575,1136
3301.8858446900567,1157
3303.558216018975,1157
3305.23033236824,1201
3306.9021940636603,1131
3308.57380143113,1138
3310.2451547966184,1145
3311.916254486174,1090
3313.5871008259246,1160
3315.2576941420766,1174
3316.9280347609147,1183
3318.5981230088046,1118
3320.2679592121895,1102
3321.9375436975924,1135
3323.606876791612,1108
3325.27595882093,1164
3326.944790112305,1082
3328.6133709925753,1114
3330.2817017886573,1122
3331.949782827547,1114
3333.617614436319,1183
3335.2851969421245,1114
3336.952530672199,1160
3338.619615953853,1208
3340.286453114475,1138
3341.9530424815357,1147
3343.619384382583,1146
3345.2854791452437,1145
3346.951327097224,1187
3348.6169285663073,1174
3350.2822838803577,1157
3351.947393367319,1126
3353.61225735521,1203
3355.2768761721345,1172
3356.9412501462693,1137
3358.605379605873,1175
3360.2692648792827,1128
3361.9329062949146,1148
3363.596304181263,1144
