CollectionTime,7/11/2024 1:16:18 PM
ExposureUsed,3
CalibratedSpectrum
-962.7078968117929,824
-959.9714848408522,902
-957.2358232597828,910
-954.5009119013725,894
-951.7667505983302,882
-949.0333391832855,879
-946.3006774887896,859
-943.5687653473143,929
-940.837602591253,915
-938.1071890529199,885
-935.3775245645503,915
-932.6486089583007,896
-929.9204420662485,959
-927.1930237203925,919
-924.4663537526524,889
-921.7404319948689,901
-919.0152582788041,879
-916.2908324361409,971
-913.5671542984834,955
-910.8442236973568,931
-908.1220404642074,909
-905.4006044304027,966
-902.679915427231,939
-899.959973285902,910
-897.2407778375464,928
-894.5223289132158,908
-891.8046263438832,914
-889.0876699604426,929
-886.3714595937089,908
-883.6559950744183,923
-880.9412762332282,874
-878.2273029007168,902
-875.5140749073835,868
-872.8015920836489,952
-870.0898542598545,919
-867.3788612662631,883
-864.6686129330585,913
-861.9591090903457,941
-859.2503495681506,928
-856.5423341964203,917
-853.8350628050229,950
-851.1285352237478,935
-848.4227512823054,938
-845.7177108103272,934
-843.0134136373656,944
-840.3098595928943,939
-837.6070485063082,956
-834.9049802069229,975
-832.2036545239757,938
-829.5030712866244,935
-826.8032303239481,928
-824.1041314649472,948
-821.4057745385428,901
-818.7081593735775,927
-816.0112857988148,957
-813.3151536429393,944
-810.6197627345566,955
-807.9251129021936,929
-805.2312039742981,961
-802.5380357792392,985
-799.8456081453069,982
-797.1539209007124,967
-794.462973873588,965
-791.772766891987,966
-789.083299783884,923
-786.3945723771743,967
-783.7065844996748,935
-781.0193359791231,939
-778.3328266431781,954
-775.6470563194197,947
-772.9620248353489,911
-770.2777320183878,922
-767.5941776958798,964
-764.9113616950891,944
-762.2292838432011,907
-759.5479439673222,951
-756.8673418944801,946
-754.1874774516235,935
-751.5083504656222,980
-748.8299607632671,956
-746.15230817127,990
-743.475392516264,967
-740.7992136248035,1000
-738.1237713233636,1000
-735.4490654383407,958
-732.7750957960521,962
-730.1018622227365,1032
-727.4293645445534,1007
-724.7576025875837,979
-722.0865761778291,987
-719.4162851412126,987
-716.7467293035781,1003
-714.0779084906909,1002
-711.409822528237,994
-708.7424712418238,1036
-706.0758544569796,1008
-703.4099719991541,1011
-700.7448236937178,1102
-698.0804093659622,1090
-695.4167288411002,1022
-692.7537819442656,1037
-690.0915685005134,1041
-687.4300883348199,1011
-684.7693412720819,1028
-682.1093271371178,1013
-679.4500457546669,1025
-676.7914969493897,1027
-674.1336805458676,1083
-671.4765963686034,1088
-668.8202442420206,1034
-666.1646239904642,1064
-663.5097354382001,1029
-660.8555784094151,1063
-658.2021527282176,1084
-655.5494582186366,1101
-652.8974947046223,1088
-650.2462620100463,1058
-647.5957599587009,1021
-644.9459883742998,1034
-642.2969470804776,1081
-639.6486359007902,1082
-637.0010546587141,1112
-634.3542031776476,1033
-631.7080812809096,1042
-629.0626887917401,1107
-626.4180255333008,1088
-623.7740913286734,1079
-621.1308860008619,1164
-618.4884093727904,1154
-615.8466612673046,1125
-613.2056415071715,1111
-610.5653499150785,1118
-607.9257863136347,1113
-605.28695052537,1133
-602.6488423727357,1151
-600.0114616781036,1108
-597.3748082637674,1134
-594.7388819519412,1138
-592.1036825647604,1113
-589.4692099242818,1190
-586.8354638524829,1166
-584.2024441712624,1213
-581.5701507024403,1100
-578.9385832677575,1119
-576.3077416888759,1223
-573.6776257873787,1191
-571.0482353847704,1153
-568.4195703024757,1150
-565.7916303618415,1139
-563.164415384135,1137
-560.5379251905453,1158
-557.9121596021815,1164
-555.2871184400748,1192
-552.6628015251767,1123
-550.0392086783606,1131
-547.4163397204204,1143
-544.794194472071,1169
-542.1727727539491,1135
-539.5520743866118,1163
-536.9320991905377,1271
-534.3128469861261,1276
-531.6943175936979,1326
-529.0765108334947,1232
-526.4594265256793,1284
-523.8430644903358,1364
-521.2274245474689,1410
-518.612506517005,1508
-515.9983102187913,1478
-513.3848354725959,1510
-510.77208209810846,1561
-508.16004991493924,1567
-505.5487387426199,1676
-502.9381484006032,1849
-500.3282787082628,1910
-497.71912948489364,1799
-495.1107005497117,1835
-492.5029917218539,1663
-489.8960028203786,1531
-487.28973366426493,1500
-484.68418407241325,1421
-482.07935386364494,1409
-479.47524285670266,1416
-476.87185087025,1359
-474.2691777228715,1390
-471.66722323307334,1380
-469.0659872192821,1365
-466.4654694998459,1411
-463.86566989303384,1348
-461.26658821703614,1391
-458.66822428996414,1340
-456.07057792985,1329
-453.4736489546475,1406
-450.877437182231,1322
-448.28194243039627,1327
-445.68716451686,1311
-443.09310325926003,1373
-440.49975847515555,1376
-437.9071299820263,1344
-435.31521759727354,1274
-432.72402113821954,1320
-430.13354042210767,1363
-427.5437752661022,1357
-424.95472548728867,1298
-422.36639090267386,1376
-419.7787713291855,1339
-417.1918665836721,1398
-414.60567648290385,1390
-412.0202008435715,1384
-409.4354394822874,1390
-406.8513922155845,1446
-404.26805885991723,1476
-401.685439231661,1447
-399.103533147112,1465
-396.522340422488,1471
-393.9418608739278,1416
-391.3620943174908,1344
-388.7830405691583,1394
-386.2046994448317,1380
-383.6270707603344,1245
-381.05015433141045,1205
-378.473949973725,1108
-375.8984575028645,1058
-373.32367673433623,934
-370.74960748356875,842
-368.1762495659117,778
-365.60360279663576,698
-363.03166699093265,619
-360.4604419639154,581
-357.8899275306178,554
-355.32012350599507,486
-352.7510297049233,462
-350.1826459421999,451
-347.61497203254316,475
-345.04800779059235,467
-342.4817530309082,484
-339.91620756797226,457
-337.35137121618743,470
-334.7872437898774,489
-332.22382510328725,490
-329.66111497058273,478
-327.09911320585127,461
-324.53781962310075,508
-321.9772340362607,480
-319.4173562591816,447
-316.8581861056348,486
-314.2997233893127,473
-311.7419679238294,453
-309.1849195227194,458
-306.62857799943856,491
-304.0729431673641,524
-301.51801483979375,527
-298.963792829947,542
-296.41027695096386,519
-293.85746701590574,563
-291.3053628377552,582
-288.7539642294155,555
-286.2032710037115,547
-283.65328297338897,535
-281.1039999511146,531
-278.5554217494762,562
-276.007548180983,617
-273.4603790580651,576
-270.9139141930734,523
-268.3681533982807,540
-265.8230964858798,555
-263.27874326798565,603
-260.7350935566336,615
-258.1921471637804,571
-255.6499039013039,543
-253.10836358100266,535
-250.56752601459698,538
-248.02739101372765,580
-245.48795838995704,622
-242.94922795476816,666
-240.41119951956557,649
-237.8738728956746,581
-235.33724789434166,626
-232.80132432673452,589
-230.2661020039418,584
-227.73158073697357,581
-225.19776033676033,581
-222.66464061415422,594
-220.1322213799284,636
-217.60050244477725,612
-215.06948361931552,618
-212.53916471408013,636
-210.00954553952818,662
-207.48062590603843,691
-204.9524056239104,728
-202.4248845033651,637
-199.8980623545441,592
-197.37193898751036,696
-194.84651421224817,687
-192.32178783866232,704
-189.79775967657952,694
-187.27442953574644,738
-184.7517972258321,725
-182.2298625564256,691
-179.7086253370378,706
-177.18808537710026,710
-174.66824248596583,667
-172.14909647290835,666
-169.6306471471229,730
-167.11289431772548,797
-164.59583779375328,782
-162.07947738416453,706
-159.5638128978386,738
-157.04884414357605,848
-154.53457093009854,990
-152.02099306604828,944
-149.50811035998936,837
-146.99592262040665,827
-144.48442965570587,795
-141.97363127421409,976
-139.46352728417958,1298
-136.95411749377126,1271
-134.44540171107985,1015
-131.93737974411636,873
-129.43005140081357,875
-126.92341648902493,1024
-124.41747481652521,1208
-121.91222619101006,1536
-119.40767042009657,1934
-116.90380731132257,2047
-114.40063667214702,1894
-111.8981583099503,1724
-109.3963720320337,1922
-106.89527764561933,2620
-104.39487495785067,3768
-101.89516377579241,4108
-99.39614390642998,3334
-96.89781515667039,2507
-94.40017733334128,2511
-91.90323024319173,4777
-89.40697369289148,9314
-86.91140748903172,12901
-84.41653143812482,13516
-81.92234534660395,12106
-79.42884902082358,8359
-76.93604226705907,5550
-74.4439248915071,6047
-71.95249670028534,8524
-69.46175749943245,11906
-66.97170709490854,14336
-64.48234529259423,15148
-61.99367189829195,13587
-59.50568671772464,10659
-57.01838955653636,7651
-54.53178022029283,7204
-52.045858514480074,6955
-49.560624244506016,6431
-47.07607721569923,6976
-44.59221723330904,7679
-42.10904410250669,7936
-39.62655762838392,7331
-37.14475761595372,8009
-34.66364387015028,9457
-32.18321619582866,9416
-29.70347439776515,8716
-27.224418280657005,8325
-24.74604764912317,8743
-22.26836230770266,12820
-19.7913620608565,24265
-17.315046712966478,42349
-14.83941606833514,56288
-12.36446993118659,65039
-9.89020810566592,65039
-7.416630395839093,65039
-4.94373660569363,65039
-2.471526539137585,65039
-6.821210263296962E-13,65039
2.47084320796705,65039
4.941003281093458,65039
7.410480415786196,65039
9.879274808531363,65039
12.347386655893956,65039
14.814816154518212,65039
17.28156350112681,65039
19.74762889252179,65039
22.21301252558385,65039
24.67771459727237,20603
27.141735304626195,4402
29.605074844762612,2624
32.06773341487792,2638
34.52971121224755,2775
36.99100843422559,2556
39.45162527824516,2092
41.91156194181792,1733
44.370818622535126,1425
46.82939551806646,1317
49.287292826160524,1474
51.74451074464503,1786
54.201049471426245,2007
56.65690920448981,1950
59.112090141899785,1617
61.56659248179983,1228
64.02041642241159,1045
66.4735621620365,1027
68.92602989905402,1211
71.37781983192338,1317
73.82893215918205,1532
76.27936707944684,1594
78.72912479141326,1434
81.17820549385567,1064
83.62660938562783,1099
86.07433666566146,1304
88.5213875329681,1126
90.96776218663751,885
93.41346082583925,894
95.85848364982041,1091
98.30283085790859,1177
100.7465026495089,1328
103.18949922410604,1300
105.63182078126385,1185
108.07346752062438,1173
110.51443964190923,1016
112.95473734491827,952
115.39436082953114,997
117.83331029570547,1087
120.27158594347827,1226
122.7091879729652,1138
125.1461165843615,1082
127.58237197794062,923
130.01795435405518,893
132.4528639131364,859
134.88710085569494,913
137.32066538231982,896
139.75355769367923,983
142.1857779905207,892
144.61732647366978,866
147.04820334403132,843
149.47840880258934,935
151.90794305040674,984
154.33680628862487,1243
156.76499871846443,1298
159.19252054122433,1440
161.61937195828352,1554
164.04555317109896,1667
166.47106438120693,1999
168.89590579022217,2137
171.320077599839,2325
173.7435800118302,2325
176.16641322804742,2389
178.58857745042144,2560
181.01007288096173,2665
183.43089972175687,2704
185.85105817497413,2856
188.27054844285988,2901
190.6893707277394,2890
193.10752523201643,2995
195.5250121581745,3149
197.9418317087751,3280
200.3579840864594,3134
202.7734694939469,3203
205.18828813403627,3272
207.6024402096051,3286
210.01592592360964,3340
212.42874547908548,3206
214.84089907914665,3285
217.2523869269868,3223
219.66320922587727,3264
222.0733661791695,3229
224.48285799029293,3267
226.8916848627572,3328
229.29984700014882,3435
231.7073446061355,3259
234.11417788446204,3306
236.520347038953,3295
238.92585227351185,3457
241.33069379212054,3409
243.73487179884035,3507
246.1383864978112,3431
248.541238093252,3368
250.9434267894609,3439
253.34495279081432,3436
255.74581630176783,3448
258.1460175268563,3433
260.54555667069314,3411
262.9444339379703,3463
265.3426495334594,3352
267.7402036620107,3441
270.1370965285529,3379
272.53332833809407,3348
274.9288992957214,3281
277.32380960660055,3108
279.718059475976,3017
282.1116491091717,3117
284.5045787115897,3119
286.89684848871195,3102
289.2884586460981,3100
291.67940938938807,3178
294.0697009242996,3027
296.4593334566299,3019
298.84830719225477,3178
301.23662233712923,3044
303.6242790972866,3053
306.01127767884,3117
308.39761828798066,3056
310.78330113097934,2985
313.16832641418534,2899
315.5526943440269,2954
317.9364051270112,2900
320.3194589697242,2878
322.70185607883093,2935
325.0835966610754,2867
327.4646809232805,2899
329.8451090723478,2832
332.2248813152577,2827
334.6039978590701,2831
336.9824589109231,2864
339.36026467803447,2851
341.7374153677,2802
344.113911187295,2828
346.48975234427337,2757
348.8649390461686,2816
351.2394715005918,2787
353.61334991523415,2754
355.9865744978655,2751
358.35914545633375,2746
360.73106299856715,2816
363.10232733257146,2812
365.47293866643247,2794
367.84289720831396,2742
370.2122031664593,2779
372.5808567491905,2818
374.9488581649083,2677
377.31620762209275,2637
379.6829053293021,2604
382.0489514951745,2759
384.4143463284262,2683
386.7790900378528,2701
389.14318283232853,2697
391.50662492080653,2671
393.86941651231916,2732
396.23155781597745,2746
398.5930490409713,2702
400.9538903965696,2712
403.3140820921202,2681
405.6736243370498,2678
408.03251734086336,2664
410.3907613131465,2590
412.74835646356166,2619
415.10530300185144,2680
417.4616011378372,2661
419.81725108141893,2686
422.1722530425758,2740
424.5266072313656,2664
426.880313857925,2622
429.2333731324701,2628
431.58578526529516,2688
433.9375504667738,2606
436.2886689473588,2571
438.63914091758113,2728
440.9889665880513,2599
443.33814616945835,2674
445.68667987257015,2621
448.03456790823395,2606
450.3818104873759,2585
452.72840782100013,2572
455.07436012019105,2555
457.41966759611057,2664
459.7643304600007,2600
462.10834892318155,2544
464.4517231970525,2668
466.79445349309174,2612
469.1365400228566,2614
471.4779829979826,2664
473.81878263018564,2594
476.15893913125876,2632
478.4984527130747,2576
480.8373235875855,2730
483.17555196682144,2679
485.5131380628919,2767
487.8500820879857,2751
490.1863842543697,2921
492.52204477439034,3028
494.8570638604725,3175
497.1914417251204,3319
499.52517858091653,3519
501.85827464052306,3774
504.19073011668036,3778
506.5225452222086,3740
508.85372017000566,3668
511.18425517304956,3519
513.514150444396,3627
515.8434061971808,3976
518.1720226446176,4691
520.4999999999999,4929
522.8273384766991,4824
525.1540382881666,4513
527.480099647932,4129
529.8055227696037,3769
532.1303078668694,3279
534.454455153496,2952
536.777964843328,2809
539.1008371502907,2784
541.4230722883866,2804
543.744670471698,2762
546.0656319143858,2744
548.3859568306899,2725
550.7056454349294,2684
553.0246979415016,2625
555.3431145648834,2677
557.6608955196306,2703
559.978041020377,2643
562.2945512818363,2716
564.6104265188006,2713
566.9256669461412,2746
569.2402727788082,2709
571.5542442318302,2787
573.8675815203156,2774
576.1802848594508,2654
578.4923544645015,2670
580.8037905508126,2747
583.114593333807,2768
585.4247630289875,2718
587.7342998519354,2676
590.0432040183106,2730
592.3514757438526,2760
594.6591152443794,2765
596.9661227357875,2741
599.2724984340531,2750
601.578242555231,2777
603.8833553154542,2825
606.1878369309362,2780
608.4916876179676,2691
610.7949075929192,2724
613.0974970722403,2691
615.3994562724587,2622
617.7007854101818,2718
620.0014847020951,2714
622.3015543649641,2728
624.6009946156324,2777
626.8998056710224,2790
629.1979877481361,2765
631.4955410640538,2774
633.7924658359349,2838
636.0887622810175,2750
638.3844306166192,2728
640.6794710601358,2732
642.9738838290426,2879
645.2676691408932,2795
647.5608272133207,2742
649.853358264037,2793
652.1452625108324,2756
654.4365401715764,2736
656.7271914642178,2840
659.0172166067838,2891
661.3066158173809,2791
663.5953893141935,2794
665.8835373154867,2876
668.1710600396028,2817
670.4579577049639,2791
672.7442305300709,2854
675.0298787335033,2880
677.3149025339197,2727
679.599302150058,2790
681.8830778007342,2781
684.1662297048437,2759
686.4487580813608,2796
688.7306631493387,2802
691.0119451279091,2793
693.2926042362834,2814
695.5726406937516,2720
697.8520547196814,2765
700.1308465335215,2822
702.4090163547982,2828
704.6865644031171,2859
706.9634908981619,2794
709.2397960596965,2713
711.5154801075631,2690
713.7905432616823,2773
716.0649857420548,2817
718.3388077687592,2818
720.612009561953,2877
722.8845913418733,2777
725.1565533288352,2752
727.427895743234,2798
729.6986188055427,2878
731.9687227363137,2883
734.238207756178,2790
736.5070740858458,2715
738.7753219461066,2744
741.0429515578281,2745
743.3099631419569,2749
745.5763569195191,2806
747.8421331116193,2797
750.1072919394409,2787
752.3718336242467,2847
754.6357583873777,2773
756.8990664502545,2785
759.1617580343765,2808
761.423833361321,2798
763.6852926527457,2853
765.9461361303862,2814
768.206364016058,2913
770.4659765316536,2728
772.7249738991469,2874
774.9833563405886,2831
777.2411240781092,2822
779.4982773339183,2779
781.7548163303044,2848
784.010741289634,2919
786.2660524343538,2912
788.5207499869881,2815
790.7748341701416,2858
793.0283052064964,2860
795.2811633188143,2857
797.5334087299362,2806
799.7850416627813,2907
802.0360623403484,2931
804.2864709857143,2841
806.5362678220353,2863
808.7854530725468,2832
811.0340269605625,2885
813.2819897094754,2973
815.5293415427581,2848
817.77608268396,2769
820.0222133567116,2897
822.2677337847211,2882
824.5126441917765,2910
826.7569448017433,2827
829.0006358385675,2902
831.2437175262731,2872
833.4861900889629,2860
835.7280537508192,2904
837.9693087361026,2906
840.2099552691533,2826
842.4499935743896,2740
844.689423876309,2813
846.9282463994886,2858
849.1664613685833,2836
851.4040690083276,2817
853.6410695435349,2809
855.877463199097,2864
858.1132501999847,2881
860.3484307712487,2863
862.5830051380175,2821
864.8169735254988,2868
867.0503361589791,2849
869.2830932638243,2944
871.5152450654786,2843
873.7467917894654,2876
875.9777336613873,2842
878.2080709069252,2874
880.4378037518389,2986
882.666932421968,2902
884.8954571432301,2968
887.1233781416219,2892
889.3506956432192,2851
891.5774098741766,2961
893.803521060728,2939
896.0290294291852,2987
898.2539352059397,2820
900.4782386174619,2938
902.7019398903011,2829
904.925039251085,2954
907.147536926521,2962
909.3694331433943,2832
911.59072812857,2835
913.8114221089921,2818
916.0315153116827,2823
918.2510079637437,2812
920.4699002923547,2771
922.6881925247761,2850
924.905884888345,2752
927.1229776104793,2775
929.3394709186747,2821
931.555365040506,2840
933.7706602036275,2796
935.9853566357709,2797
938.1994545647489,2887
940.4129542184515,2786
942.6258558248488,2878
944.8381596119883,2868
947.0498658079974,2900
949.2609746410825,2859
951.4714863395287,2813
953.6814011316998,2852
955.8907192460387,2806
958.0994409110671,2837
960.3075663553858,2905
962.5150958076741,2903
964.7220294966913,2886
966.928367651274,2839
969.1341105003388,2772
971.3392582728806,2826
973.5438111979742,2843
975.747769504772,2774
977.9511334225061,2905
980.153903180487,2866
982.3560790081052,2771
984.5576611348289,2732
986.7586497902058,2821
988.9590452038618,2837
991.158847605503,2779
993.3580572249133,2755
995.5566742919558,2719
997.7546990365728,2694
999.952131688785,2652
1002.1489724786926,2664
1004.3452216364743,2627
1006.5408793923874,2645
1008.7359459767691,2601
1010.9304216200343,2684
1013.1243065526781,2595
1015.3176010052733,2622
1017.510305208472,2639
1019.7024193930064,2610
1021.8939437896848,2601
1024.0848786293977,2547
1026.2752241431122,2495
1028.4649805618747,2527
1030.6541481168115,2591
1032.842727039127,2556
1035.0307175601051,2611
1037.2181199111074,2620
1039.4049343235752,2555
1041.591161029029,2592
1043.7768002590683,2528
1045.9618522453698,2592
1048.1463172196918,2592
1050.3301954138697,2522
1052.513487059818,2579
1054.69619238953,2596
1056.8783116350783,2593
1059.0598450286152,2600
1061.2407928023704,2549
1063.4211551886528,2581
1065.6009324198508,2549
1067.780124728432,2537
1069.9587323469414,2656
1072.1367555080046,2525
1074.314194444325,2498
1076.4910493886855,2547
1078.667320573947,2559
1080.843008233051,2587
1083.0181125990161,2590
1085.1926339049414,2501
1087.3665723840027,2531
1089.5399282694575,2515
1091.7127017946405,2531
1093.8848931929647,2531
1096.0565026979243,2531
1098.2275305430899,2496
1100.3979769621128,2562
1102.567842188722,2439
1104.737126456726,2473
1106.9058300000124,2507
1109.0739530525475,2569
1111.2414958483764,2503
1113.4084586216231,2492
1115.5748416064907,2513
1117.7406450372605,2507
1119.9058691482942,2427
1122.0705141740304,2444
1124.2345803489884,2483
1126.3980679077658,2458
1128.5609770850388,2453
1130.7233081155623,2534
1132.8850612341707,2552
1135.0462366757774,2437
1137.2068346753745,2409
1139.3668554680326,2423
1141.526299288901,2537
1143.68516637321,2421
1145.8434569562655,2454
1148.001171273455,2442
1150.158309560244,2488
1152.3148720521767,2477
1154.470858984876,2481
1156.626270594044,2438
1158.7811071154629,2513
1160.9353687849912,2435
1163.089055838569,2410
1165.242168512213,2462
1167.3947070420209,2415
1169.5466716641677,2419
1171.6980626149075,2458
1173.8488801305748,2464
1175.9991244475814,2474
1178.1487958024186,2378
1180.2978944316555,2473
1182.4464205719428,2404
1184.5943744600072,2526
1186.7417563326567,2357
1188.8885664267755,2420
1191.0348049793297,2472
1193.1804722273619,2463
1195.325568407995,2501
1197.4700937584303,2369
1199.614048515948,2424
1201.7574329179074,2442
1203.900247201746,2411
1206.042491604982,2485
1208.1841663652099,2499
1210.3252717201053,2428
1212.465807907422,2446
1214.6057751649923,2462
1216.7451737307279,2472
1218.8840038426192,2534
1221.0222657387353,2490
1223.1599596572241,2523
1225.2970858363137,2540
1227.4336445143094,2507
1229.5696359295966,2518
1231.705060320639,2439
1233.8399179259786,2580
1235.9742089842384,2486
1238.107933734118,2552
1240.2410924143974,2457
1242.373685263935,2559
1244.5057125216676,2514
1246.6371744266116,2532
1248.7680712178621,2516
1250.898403134593,2497
1253.028170416058,2578
1255.1573733015875,2524
1257.2860120305932,2467
1259.4140868425648,2483
1261.54159797707,2477
1263.6685456737569,2595
1265.7949301723515,2452
1267.9207517126597,2556
1270.046010534565,2539
1272.1707068780306,2555
1274.2948409830983,2595
1276.4184130898889,2581
1278.541423438603,2509
1280.6638722695184,2567
1282.785759822993,2513
1284.9070863394636,2518
1287.0278520594447,2614
1289.1480572235314,2577
1291.2677020723963,2579
1293.3867868467923,2567
1295.5053117875495,2615
1297.623277135579,2571
1299.740683131868,2654
1301.8575300174857,2656
1303.973818033578,2612
1306.0895474213703,2635
1308.2047184221678,2667
1310.3193312773528,2657
1312.4333862283888,2687
1314.5468835168163,2645
1316.659823384255,2742
1318.7722060724045,2689
1320.8840318230418,2664
1322.9953008780249,2684
1325.1060134792888,2685
1327.2161698688478,2728
1329.3257702887959,2729
1331.4348149813054,2708
1333.5433041886276,2606
1335.6512381530933,2658
1337.7586171171101,2620
1339.8654413231675,2590
1341.9717110138317,2735
1344.0774264317488,2699
1346.1825878196432,2654
1348.2871954203192,2615
1350.3912494766587,2597
1352.4947502316231,2664
1354.5976979282532,2592
1356.7000928096686,2513
1358.8019351190665,2650
1360.9032250997243,2656
1363.0039629949988,2693
1365.1041490483235,2650
1367.2037835032133,2665
1369.3028666032606,2725
1371.401398592137,2575
1373.4993797135926,2630
1375.5968102114575,2670
1377.6936903296396,2624
1379.7900203121262,2622
1381.8858004029835,2657
1383.9810308463561,2675
1386.075711886469,2637
1388.1698437676241,2618
1390.2634267342032,2624
1392.356461030667,2627
1394.4489469015557,2626
1396.5408845914872,2704
1398.6322743451592,2724
1400.7231164073469,2720
1402.813411022907,2708
1404.903158436773,2630
1406.9923588939578,2633
1409.0810126395531,2708
1411.1691199187303,2813
1413.2566809767386,2787
1415.343696058907,2661
1417.4301654106425,2735
1419.5160892774315,2833
1421.6014679048399,2761
1423.6863015385125,2741
1425.7705904241707,2843
1427.8543348076178,2736
1429.9375349347342,2702
1432.0201910514802,2793
1434.102303403894,2805
1436.1838722380944,2837
1438.2648978002767,2817
1440.3453803367174,2850
1442.4253200937692,2810
1444.5047173178677,2791
1446.5835722555234,2953
1448.6618851533285,2927
1450.739656257952,2962
1452.8168858161434,2782
1454.8935740747306,2964
1456.96972128062,2957
1459.045327680797,3034
1461.120393522327,3048
1463.1949190523528,3075
1465.2689045180973,3059
1467.3423501668608,3089
1469.415256246024,3238
1471.4876230030463,3166
1473.559450685465,3226
1475.6307395408976,3195
1477.7014898170391,3240
1479.771701761665,3287
1481.8413756226287,3340
1483.9105116478618,3403
1485.9791100853772,3359
1488.0471711832643,3460
1490.1146951896926,3473
1492.1816823529098,3486
1494.2481329212433,3421
1496.3140471430984,3553
1498.3794252669609,3601
1500.4442675413939,3550
1502.5085742150404,3546
1504.572345536622,3592
1506.6355817549388,3611
1508.6982831188702,3678
1510.7604498773744,3620
1512.8220822794883,3797
1514.8831805743293,3792
1516.9437450110909,3792
1519.003775839048,3880
1521.0632733075522,3805
1523.1222376660367,3787
1525.1806691640113,3847
1527.2385680510652,3904
1529.2959345768668,3949
1531.3527689911643,3863
1533.4090715437833,4030
1535.4648424846291,4065
1537.5200820636855,4079
1539.5747905310159,4129
1541.6289681367616,4052
1543.6826151311434,4200
1545.7357317644614,4146
1547.7883182870937,4286
1549.8403749494987,4238
1551.8919020022113,4357
1553.9428996958477,4469
1555.9933682811015,4432
1558.0433080087469,4570
1560.0927191296346,4644
1562.1416018946961,4637
1564.1899565549415,4563
1566.2377833614592,4587
1568.2850825654164,4484
1570.3318544180606,4487
1572.3780991707158,4535
1574.423817074788,4155
1576.4690083817595,4107
1578.5136733431923,4043
1580.5578122107272,3910
1582.601425236085,3670
1584.6445126710646,3723
1586.6870747675434,3643
1588.7291117774776,3493
1590.7706239529034,3407
1592.8116115459347,3356
1594.8520748087658,3198
1596.8920139936686,3261
1598.9314293529933,3296
1600.9703211391711,3094
1603.008689604711,3004
1605.0465350022005,3083
1607.0838575843068,3011
1609.1206576037753,3005
1611.1569353134305,2956
1613.1926909661765,2988
1615.2279248149953,2834
1617.2626371129481,2833
1619.2968281131757,2880
1621.3304980688963,2822
1623.3636472334088,2868
1625.39627586009,2790
1627.428384202396,2726
1629.459972513861,2764
1631.4910410480993,2689
1633.5215900588028,2680
1635.551619799744,2753
1637.5811305247717,2787
1639.6101224878166,2696
1641.6385959428862,2647
1643.6665511440683,2682
1645.693988345528,2720
1647.7209078015112,2680
1649.7473097663405,2665
1651.7731944944203,2800
1653.7985622402307,2673
1655.823413258333,2731
1657.847747803366,2702
1659.8715661300494,2587
1661.8948684931793,2575
1663.9176551476316,2644
1665.9399263483624,2618
1667.9616823504057,2654
1669.982923408873,2696
1672.0036497789574,2639
1674.0238617159293,2777
1676.043559475138,2622
1678.0627433120121,2714
1680.081413482059,2718
1682.0995702408654,2698
1684.117213844096,2667
1686.134344547495,2630
1688.1509626068864,2658
1690.1670682781705,2590
1692.182661817329,2639
1694.1977434804217,2678
1696.2123135235875,2690
1698.226372203043,2588
1700.2399197750851,2667
1702.2529564960905,2707
1704.2654826225112,2607
1706.277498410882,2623
1708.2890041178139,2714
1710.2999999999988,2652
1712.3104863142066,2679
1714.3204633172854,2689
1716.329931266163,2641
1718.3388904178469,2610
1720.3473410294214,2636
1722.3552833580516,2611
1724.3627176609807,2681
1726.3696441955308,2711
1728.3760632191033,2692
1730.3819749891782,2652
1732.3873797633146,2582
1734.3922777991502,2617
1736.3966693544012,2712
1738.4005546868639,2666
1740.4039340544127,2674
1742.406807715001,2579
1744.4091759266616,2675
1746.4110389475054,2626
1748.4123970357223,2571
1750.413250449582,2547
1752.4135994474318,2561
1754.4134442876993,2604
1756.4127852288902,2601
1758.4116225295893,2641
1760.4099564484595,2556
1762.407787244244,2656
1764.405115175764,2641
1766.4019405019203,2642
1768.3982634816916,2662
1770.3940843741357,2628
1772.3894034383907,2576
1774.3842209336717,2510
1776.378537119274,2539
1778.372352254571,2564
1780.3656665990156,2676
1782.3584804121397,2574
1784.3507939535534,2591
1786.3426074829463,2632
1788.3339212600863,2562
1790.3247355448211,2664
1792.3150505970766,2590
1794.3048666768573,2624
1796.2941840442477,2659
1798.2830029594106,2630
1800.2713236825884,2546
1802.2591464741004,2577
1804.2464715943465,2650
1806.2332993038058,2595
1808.2196298630352,2582
1810.2054635326708,2606
1812.190800573428,2622
1814.175641246101,2575
1816.1599858115628,2567
1818.1438345307652,2597
1820.127187664738,2662
1822.1100454745924,2628
1824.092408221516,2610
1826.0742761667766,2613
1828.055649571721,2602
1830.0365286977735,2538
1832.0169138064398,2559
1833.9968051593014,2618
1835.9762030180214,2632
1837.9551076443408,2690
1839.9335193000788,2535
1841.9114382471344,2621
1843.888864747485,2555
1845.8657990631878,2551
1847.842241456378,2595
1849.8181921892697,2600
1851.7936515241558,2503
1853.7686197234098,2499
1855.7430970494815,2552
1857.7170837649014,2552
1859.6905801322787,2574
1861.6635864143004,2571
1863.6361028737338,2540
1865.608129773424,2626
1867.5796673762961,2643
1869.5507159453537,2560
1871.521275743678,2588
1873.4913470344313,2609
1875.4609300808534,2605
1877.4300251462632,2574
1879.3986324940588,2579
1881.366752387717,2573
1883.3343850907936,2636
1885.3015308669228,2595
1887.268189979819,2635
1889.2343626932739,2552
1891.2000492711595,2665
1893.1652499774254,2575
1895.1299650761011,2603
1897.0941948312952,2651
1899.0579395071945,2638
1901.0211993680641,2599
1902.98397467825,2658
1904.9462657021745,2590
1906.9080727043415,2640
1908.869395949332,2617
1910.8302357018065,2709
1912.790592226504,2589
1914.7504657882428,2564
1916.7098566519212,2659
1918.6687650825133,2520
1920.6271913450764,2639
1922.5851357047422,2630
1924.5425984267245,2587
1926.499579776314,2629
1928.4560800188833,2608
1930.4120994198802,2618
1932.367638244833,2659
1934.32269675935,2618
1936.2772752291175,2656
1938.231373919899,2659
1940.1849930975404,2620
1942.1381330279637,2631
1944.0907939771696,2534
1946.0429762112412,2571
1947.9946799963363,2675
1949.9459055986945,2672
1951.896653284633,2618
1953.8469233205478,2636
1955.7967159729142,2581
1957.7460315082863,2605
1959.6948701932974,2740
1961.6432322946594,2638
1963.5911180791632,2607
1965.5385278136787,2574
1967.4854617651545,2624
1969.4319202006182,2625
1971.377903387176,2644
1973.3234115920136,2634
1975.268445082395,2630
1977.2130041256642,2674
1979.1570889892423,2618
1981.1006999406304,2674
1983.04383724741,2633
1984.986501177238,2590
1986.928691997853,2628
1988.8704099770712,2567
1990.811655382789,2658
1992.7524284829801,2679
1994.692729545698,2577
1996.6325588390755,2668
1998.5719166313224,2555
2000.5108031907307,2626
2002.4492187856677,2634
2004.387163684583,2596
2006.3246381560011,2536
2008.2616424685298,2646
2010.1981768908527,2626
2012.1342416917332,2616
2014.069837140014,2517
2016.0049635046162,2640
2017.9396210545406,2620
2019.8738100588666,2659
2021.8075307867502,2548
2023.740783507431,2670
2025.6735684902228,2630
2027.6058860045214,2578
2029.5377363198004,2576
2031.4691197056118,2641
2033.4000364315875,2590
2035.3304867674374,2522
2037.260470982952,2615
2039.189989347998,2639
2041.1190421325232,2608
2043.047629606554,2645
2044.9757520401945,2606
2046.9034097036288,2600
2048.8306028671195,2639
2050.7573318010086,2552
2052.683596775716,2609
2054.609398061742,2721
2056.5347359296647,2667
2058.4596106501403,2602
2060.384022493906,2514
2062.3079717317764,2655
2064.231458634646,2731
2066.1544834734873,2715
2068.077046519352,2621
2069.99914804337,2565
2071.9207883167524,2732
2073.8419676107865,2641
2075.7626861968406,2692
2077.6829443463607,2680
2079.6027423308715,2710
2081.522080421977,2669
2083.440958891362,2689
2085.359378010786,2606
2087.2773380520907,2683
2089.194839287196,2679
2091.111881988101,2714
2093.0284664268825,2611
2094.9445928756973,2650
2096.86026160678,2635
2098.775472892446,2610
2100.690227005088,2595
2102.604524217178,2628
2104.5183648012676,2647
2106.431749029985,2681
2108.34467717604,2627
2110.2571495122206,2673
2112.169166311393,2743
2114.080727846503,2743
2115.9918343905747,2689
2117.902486216711,2726
2119.8126835980956,2658
2121.722426807987,2753
2123.6317161197285,2698
2125.5405518067364,2703
2127.448934142509,2697
2129.356863400624,2673
2131.264339854737,2688
2133.1713637785815,2696
2135.077935445972,2684
2136.9840551308002,2700
2138.889723107037,2759
2140.7949396487334,2723
2142.699705030018,2720
2144.6040195250994,2773
2146.507883408264,2758
2148.4112969538774,2729
2150.3142604363848,2716
2152.2167741303097,2753
2154.1188383102535,2722
2156.0204532508997,2672
2157.9216192270064,2706
2159.822336513414,2694
2161.7226053850413,2780
2163.622426116884,2645
2165.5217989840185,2820
2167.4207242616,2818
2169.319202224862,2779
2171.2172331491165,2747
2173.1148173097563,2727
2175.0119549822507,2848
2176.90864644215,2779
2178.8048919650823,2798
2180.7006918267534,2738
2182.596046302952,2777
2184.4909556695407,2773
2186.3854202024645,2860
2188.279440177746,2819
2190.173015871487,2758
2192.066147559868,2871
2193.958835519149,2718
2195.851080025667,2814
2197.7428813558417,2785
2199.6342397861667,2774
2201.5251555932186,2761
2203.415629053651,2786
2205.3056604441986,2831
2207.19525004167,2922
2209.084398122958,2888
2210.9731049650327,2797
2212.861370844941,2908
2214.749196039812,2890
2216.636580826851,2794
2218.523525483344,2809
2220.410030286655,2908
2222.296095514226,2862
2224.1817214435805,2834
2226.066908352319,2902
2227.951656518121,2823
2229.835966218746,2812
2231.71983773203,2908
2233.6032713358913,2863
2235.486267308324,2880
2237.3688259274036,2868
2239.2509474712824,2799
2241.132632218193,2875
2243.013880446447,2865
2244.8946924344323,2806
2246.7750684606203,2881
2248.6550088035574,2922
2250.534513741871,2848
2252.413583554265,2815
2254.292218519526,2841
2256.170418916517,2831
2258.0481850241786,2884
2259.925517121534,2919
2261.8024154876825,2771
2263.678880401803,2963
2265.5549121431536,2828
2267.430510991071,2873
2269.305677224971,2790
2271.180411124348,2771
2273.0547129687766,2782
2274.9285830379076,2827
2276.8020216114737,2784
2278.6750289692845,2817
2280.5476053912294,2758
2282.4197511572766,2817
2284.2914665474727,2964
2286.162751841943,2924
2288.0336073208937,2865
2289.904033264608,2940
2291.774029953448,2887
2293.6435976678554,2847
2295.5127366883517,2917
2297.381447295534,2920
2299.2497297700825,2864
2301.1175843927526,2859
2302.9850114443825,2775
2304.852011205885,2733
2306.7185839582553,2758
2308.5847299825664,2840
2310.4504495599676,2723
2312.3157429716925,2746
2314.1806104990483,2742
2316.0450524234247,2801
2317.9090690262888,2705
2319.772660589186,2796
2321.635827393742,2732
2323.498569721661,2685
2325.3608878547248,2765
2327.2227820747967,2651
2329.0842526638157,2713
2330.945299903803,2763
2332.805924076857,2673
2334.6661254651535,2819
2336.525904350951,2681
2338.3852610165827,2730
2340.244195744464,2754
2342.102708817088,2688
2343.9608005170253,2689
2345.8184711269287,2726
2347.675720929526,2730
2349.532550207628,2696
2351.38895924412,2725
2353.24494832197,2847
2355.100517724223,2730
2356.955667734004,2797
2358.810398634514,2715
2360.664710709037,2774
2362.5186042409337,2753
2364.3720795136437,2718
2366.225136810686,2779
2368.0777764156583,2735
2369.929998612237,2781
2371.7818036841777,2702
2373.633191915315,2764
2375.484163589562,2780
2377.3347189909114,2783
2379.184858403434,2744
2381.03458211128,2773
2382.8838903986775,2774
2384.732783549936,2782
2386.5812618494406,2856
2388.4293255816588,2782
2390.2769750311327,2753
2392.1242104824883,2750
2393.971032220427,2808
2395.8174405297295,2824
2397.6634356952563,2792
2399.509018001947,2818
2401.3541877348193,2842
2403.1989451789705,2835
2405.043290619576,2879
2406.8872243418905,2686
2408.730746631247,2776
2410.5738577730594,2814
2412.4165580528183,2811
2414.258847756095,2726
2416.100727168537,2814
2417.9421965758734,2784
2419.783256263912,2798
2421.623906518538,2831
2423.4641476257157,2801
2425.303979871491,2840
2427.143403541984,2846
2428.9824189233977,2846
2430.821026302012,2808
2432.6592259641866,2756
2434.497018196361,2817
2436.33440328505,2836
2438.171381516851,2774
2440.00795317844,2779
2441.844118556569,2765
2443.6798779380724,2773
2445.5152316098606,2713
2447.3501798589255,2768
2449.1847229723357,2794
2451.0188612372403,2817
2452.8525949408663,2951
2454.6859243705203,2895
2456.518849813587,2826
2458.3513715575314,2899
2460.183489889895,2798
2462.015205098301,2759
2463.8465174704493,2808
2465.67742729412,2803
2467.5079348571717,2840
2469.338040447542,2855
2471.1677443532476,2733
2472.9970468623833,2785
2474.825948263123,2862
2476.6544488437207,2892
2478.482548892508,2806
2480.310248697896,2884
2482.137548548374,2753
2483.9644487325118,2762
2485.790949538956,2892
2487.617051256433,2922
2489.44275417375,2850
2491.26805857979,2765
2493.0929647635157,2898
2494.917473013971,2879
2496.741583620276,2879
2498.5652968716304,2870
2500.3886130573137,2956
2502.2115324666834,2919
2504.0340553891765,2956
2505.856182114308,2891
2507.6779129316733,2868
2509.499248130945,2908
2511.3201880018764,2892
2513.140732834298,2914
2514.9608829181198,2872
2516.780638543331,2856
2518.6,2864
2520.418967578273,2846
2522.237541568376,2942
2524.0557222606144,2952
2525.8735099453706,2888
2527.6909049131086,2940
2529.507907454368,3032
2531.32451785977,2962
2533.140736420014,2954
2534.9565634258774,3065
2536.771999168218,2979
2538.5870439379714,3031
2540.4016980261526,2950
2542.2159617238544,2934
2544.02983532225,3066
2545.8433191125914,2982
2547.656413386209,2975
2549.4691184345115,2957
2551.2814345489874,2990
2553.093362021204,3007
2554.904901142808,3039
2556.716052205523,3072
2558.526815501153,3079
2560.3371913215824,3170
2562.147179958771,3025
2563.956781704761,3072
2565.7659968516705,3059
2567.5748256916986,3169
2569.3832685171224,3084
2571.1913256202984,3094
2572.9989972936614,3106
2574.806283829725,2971
2576.613185521084,3099
2578.4197026604074,3154
2580.2258355404483,3091
2582.031584454035,3159
2583.836949694077,3075
2585.6419315535613,3145
2587.4465303255533,3073
2589.2507463032002,3182
2591.0545797797245,3096
2592.8580310484303,3113
2594.6611004026995,3182
2596.463788135992,3218
2598.266094541849,3121
2600.0680199138874,3150
2601.869564545807,3255
2603.670728731383,3244
2605.4715127644704,3205
2607.2719169390048,3213
2609.071941548998,3189
2610.8715868885433,3124
2612.670853251811,3200
2614.469740933052,3260
2616.268250226594,3312
2618.0663814268455,3232
2619.864134828292,3239
2621.6615107255006,3122
2623.458509413115,3146
2625.2551311858597,3158
2627.0513763385347,3178
2628.8472451660223,3224
2630.6427379632833,3153
2632.4378550253564,3040
2634.232596647359,3216
2636.026963124488,3170
2637.8209547520187,3195
2639.6145718253065,3165
2641.407814639785,3197
2643.200683490966,3161
2644.9931786744414,3106
2646.7853004858807,3100
2648.577049221034,3107
2650.3684251757277,3045
2652.1594286458712,3106
2653.9500599274484,3047
2655.740319316525,3110
2657.5302071092437,3023
2659.3197236018286,3048
2661.10886909058,3010
2662.8976438718782,3033
2664.686048242183,3011
2666.4740824980327,3114
2668.2617469360443,3016
2670.0490418529134,3073
2671.8359675454153,3001
2673.622524310403,3023
2675.408712444811,3010
2677.1945322456495,3019
2678.979984010009,2958
2680.76506803506,2960
2682.5497846180497,2855
2684.334134056306,3027
2686.1181166472343,2924
2687.9017326883213,2976
2689.6849824771293,3039
2691.4678663113013,2990
2693.2503844885596,3024
2695.032537306705,3001
2696.8143250636167,2905
2698.5957480572542,2958
2700.3768065856534,2952
2702.1575009469316,2952
2703.937831439283,2997
2705.717798360982,2946
2707.4974020103837,2872
2709.276642685917,2986
2711.055520686095,2960
2712.834036309506,2983
2714.612189854819,2939
2716.389981620782,2968
2718.1674119062204,2934
2719.944481010041,2881
2721.721189231226,2920
2723.4975368688415,3000
2725.273524222027,2871
2727.0491515900053,2871
2728.824419272075,2856
2730.5993275676146,2953
2732.3738767760838,2977
2734.148067197016,2907
2735.921899130031,2893
2737.6953728748194,2883
2739.468488731156,2939
2741.2412469988926,2928
2743.0136479779617,2875
2744.785691968372,2926
2746.5573792702116,2981
2748.3287101836504,2945
2750.099685008934,2933
2751.870304046388,2884
2753.640567596418,2931
2755.4104759595057,2955
2757.1800294362156,2999
2758.949228327187,2962
2760.7180729331412,2898
2762.486563554877,2983
2764.254700493272,2935
2766.022484049284,2899
2767.789914523947,2815
2769.5569922183786,2914
2771.3237174337705,2888
2773.090090471394,2976
2774.8561116326036,2904
2776.6217812188274,2968
2778.3870995315756,2969
2780.1520668724356,2923
2781.9166835430747,2860
2783.6809498452394,2971
2785.444866080754,2943
2787.2084325515225,2926
2788.971649559527,2973
2790.73451740683,2992
2792.4970363955713,2798
2794.2592068279705,2978
2796.0210290063264,2886
2797.7825032330147,2937
2799.543629810493,2935
2801.304409041296,2972
2803.0648412280366,2891
2804.8249266734088,2931
2806.5846656801846,2853
2808.344058551212,2928
2810.1031055894246,2907
2811.8618070978273,2875
2813.6201633795085,3025
2815.378174737636,2922
2817.1358414754536,2951
2818.893163896285,2924
2820.6501423035334,2961
2822.4067770006814,2915
2824.1630682912883,3019
2825.9190164789957,3021
2827.6746218675207,2951
2829.429884760661,2889
2831.184805462294,2922
2832.9393842763743,2945
2834.693621506936,2983
2836.4475174580916,2985
2838.201072434034,2944
2839.954286739034,2962
2841.707160677441,3010
2843.459694553685,2959
2845.2118886722724,3032
2846.96374333779,2955
2848.7152588549034,2985
2850.4664355283567,2979
2852.217273662973,3008
2853.9677735636546,2920
2855.7179355353833,2963
2857.4677598832186,3019
2859.217246912299,2927
2860.9663969278427,3014
2862.715210235146,2991
2864.4636871395846,2913
2866.211827946614,2977
2867.9596329617652,2981
2869.7071024906536,2941
2871.4542368389684,2949
2873.20103631248,2936
2874.947501217038,2918
2876.6936318585695,3049
2878.4394285430812,2913
2880.1848915766604,2939
2881.9300212654707,2871
2883.6748179157553,2997
2885.4192818338374,2962
2887.1634133261173,2906
2888.907212699077,3055
2890.6506802592744,3061
2892.393816313348,3047
2894.1366211680142,2889
2895.8790951300693,3100
2897.621238506388,3010
2899.363051603925,2933
2901.1045347297118,2980
2902.8456881908596,3019
2904.58651229456,2957
2906.327007348081,3000
2908.067173658772,3031
2909.8070115340597,3108
2911.5465212814497,3006
2913.285703208527,2933
2915.0245576229563,2967
2916.7630848324807,2990
2918.5012851449196,2953
2920.2391588681758,2941
2921.976706310227,2958
2923.7139277791334,2876
2925.4508235830313,2924
2927.187394030137,2992
2928.923639428745,2967
2930.6595600872306,2929
2932.395156314046,2869
2934.1304284177218,2936
2935.8653767068713,3005
2937.6000014901815,3021
2939.3343030764227,2966
2941.068281774442,3003
2942.8019378931644,3043
2944.5352717415976,3085
2946.2682836288236,2989
2948.0009738640065,3000
2949.7333427563885,3056
2951.465390615289,3032
2953.1971177501086,3037
2954.9285244703265,2889
2956.6596110855,2976
2958.3903779052657,2932
2960.1208252393385,3047
2961.8509533975125,3003
2963.5807626896617,3050
2965.3102534257378,2992
2967.0394259157715,3073
2968.768280469873,3018
2970.496817398232,3027
2972.2250370111146,3026
2973.952939618869,2998
2975.6805255319196,3084
2977.4077950607707,3023
2979.134748516006,3014
2980.861386208289,3118
2982.587708448359,3039
2984.313715547037,3094
2986.039407815222,3022
2987.764785563891,3034
2989.489849104102,3032
2991.2145987469908,3082
2992.9390348037705,3087
2994.6631575857346,3018
2996.3869674042576,3052
2998.1104645707887,3016
2999.83364939686,2944
3001.5565221940783,2968
3003.2790832741334,3012
3005.0013329487924,3086
3006.7232715298996,3062
3008.4448993293804,3020
3010.166216659239,3001
3011.887223831558,2932
3013.607921158498,3062
3015.3283089522993,2990
3017.0483875252826,2938
3018.7681571898443,3035
3020.4876182584626,3063
3022.2067710436927,3106
3023.9256158581707,3072
3025.644153014609,3136
3027.362382825801,3043
3029.0803056046193,3003
3030.797921664012,3023
3032.5152313170106,3024
3034.2322348767225,3020
3035.9489326563353,3041
3037.665324969115,3043
3039.3814121284063,3023
3041.097194447633,2961
3042.812672240299,3046
3044.5278458199855,3036
3046.2427155003525,2990
3047.9572815951406,3021
3049.671544418167,3033
3051.38550428333,3059
3053.0991615046073,2988
3054.812516396051,2982
3056.5255692717974,2940
3058.2383204460575,3012
3059.9507702331257,3000
3061.662918947372,2954
3063.3747669032446,2993
3065.0863144152736,2969
3066.7975617980674,3000
3068.508509366309,3054
3070.219157434767,3012
3071.9295063182844,3016
3073.639556331785,2996
3075.3493077902704,3072
3077.058761008821,3044
3078.7679163025964,3182
3080.476773986837,3068
3082.1853343768594,3084
3083.89359778806,3121
3085.6015645359153,3067
3087.3092349359786,3137
3089.016609303884,3072
3090.7236879553434,3124
3092.4304712061476,3037
3094.136959372166,3050
3095.843152769349,3047
3097.5490517137237,3036
3099.2546565213966,3095
3100.959967508554,3054
3102.66498499146,3057
3104.3697092864577,3102
3106.0741407099695,3058
3107.778279578498,3111
3109.482126208622,3120
3111.1856809170004,3059
3112.8889440203716,3060
3114.5919158355528,3091
3116.294596679439,3094
3117.996986869006,3088
3119.6990867213062,3137
3121.4008965534726,3083
3123.102416682717,3130
3124.803647426329,3199
3126.5045891016784,3184
3128.205242026213,3125
3129.90560651746,3203
3131.605682893025,3104
3133.3054714705922,3205
3135.0049725679282,3118
3136.7041865028714,3114
3138.4031135933465,3185
3140.101754157353,3128
3141.800108512971,3177
3143.498176978357,3105
3145.1959598717494,3125
3146.8934575114636,3092
3148.5906702158954,3100
3150.2875983035183,3011
3151.9842420928853,3021
3153.680601902627,3087
3155.376678051456,3009
3157.07247085816,3109
3158.767980641609,3138
3160.463207720748,3047
3162.158152414606,3159
3163.8528150422862,3075
3165.5471959229726,3165
3167.2412953759303,3051
3168.9351137204976,3137
3170.628651276098,3155
3172.3219083622307,3178
3174.014885298474,3146
3175.707582404485,3136
3177.4000000000005,3079
3179.092138404835,3164
3180.7839979388846,3081
3182.47557892212,3236
3184.166881674594,3163
3185.8579065164386,3215
3187.5486537678626,3215
3189.2391237491547,3125
3190.9293167806827,3053
3192.6192331828934,3202
3194.3088732763117,3099
3195.998237381542,3140
3197.687325819268,3094
3199.376138910251,3112
3201.064676975334,3135
3202.7529403354347,3102
3204.4409293115523,3084
3206.1286442247647,3085
3207.816085396229,2990
3209.5032531471825,2986
3211.190147798936,3075
3212.8767696728846,3091
3214.5631190905015,3164
3216.2491963733373,3023
3217.9350018430214,3212
3219.6205358212637,3088
3221.305798629851,3118
3222.990790590651,3092
3224.6755120256103,3102
3226.359963256751,3060
3228.0441446061795,3135
3229.7280563960758,3124
3231.411698948703,3064
3233.0950725863995,3068
3234.778177631587,3107
3236.461014406761,3133
3238.1435832345005,3132
3239.8258844374595,3024
3241.507918338374,3109
3243.1896852600576,3073
3244.8711855254023,3079
3246.552419457381,3130
3248.233387379042,3189
3249.914089613516,3217
3251.59452648401,3138
3253.274698313813,3015
3254.95460542629,3055
3256.6342481448855,3039
3258.313626793125,3059
3259.9927416946084,3043
3261.6715931730196,3084
3263.3501815521176,3070
3265.0285071557437,3140
3266.706570307815,3097
3268.3843713323286,3086
3270.0619105533615,3176
3271.739188295068,3109
3273.4162048816834,3162
3275.0929606375184,3119
3276.769455886966,3061
3278.445690954498,3175
3280.1216661646613,3119
3281.797381842087,3123
3283.4728383114807,3130
3285.1480358976296,3076
3286.8229749253996,3070
3288.4976557197333,3109
3290.172078605655,3037
3291.846243908266,3086
3293.5201519527463,3122
3295.193803064357,3040
3296.8671975684374,3098
3298.5403357904024,3060
3300.21321805575,3094
3301.8858446900567,3060
3303.558216018975,3112
3305.23033236824,3170
3306.9021940636603,3164
3308.57380143113,3150
3310.2451547966184,3178
3311.916254486174,3100
3313.5871008259246,3264
3315.2576941420766,3130
3316.9280347609147,3167
3318.5981230088046,3014
3320.2679592121895,3083
3321.9375436975924,3022
3323.606876791612,3044
3325.27595882093,3133
3326.944790112305,3084
3328.6133709925753,3034
3330.2817017886573,3032
3331.949782827547,3134
3333.617614436319,3131
3335.2851969421245,3094
3336.952530672199,3249
3338.619615953853,3219
3340.286453114475,3148
3341.9530424815357,3258
3343.619384382583,3243
3345.2854791452437,3165
3346.951327097224,3111
3348.6169285663073,3149
3350.2822838803577,3240
3351.947393367319,3251
3353.61225735521,3112
3355.2768761721345,3192
3356.9412501462693,3276
3358.605379605873,3147
3360.2692648792827,3134
3361.9329062949146,3215
3363.596304181263,3063
