CollectionTime,7/11/2024 1:17:04 PM
ExposureUsed,3
CalibratedSpectrum
-962.7078968117929,820
-959.9714848408522,859
-957.2358232597828,883
-954.5009119013725,907
-951.7667505983302,860
-949.0333391832855,896
-946.3006774887896,878
-943.5687653473143,907
-940.837602591253,941
-938.1071890529199,918
-935.3775245645503,869
-932.6486089583007,940
-929.9204420662485,912
-927.1930237203925,963
-924.4663537526524,922
-921.7404319948689,936
-919.0152582788041,924
-916.2908324361409,977
-913.5671542984834,951
-910.8442236973568,927
-908.1220404642074,947
-905.4006044304027,978
-902.679915427231,868
-899.959973285902,954
-897.2407778375464,882
-894.5223289132158,924
-891.8046263438832,916
-889.0876699604426,923
-886.3714595937089,924
-883.6559950744183,910
-880.9412762332282,897
-878.2273029007168,916
-875.5140749073835,936
-872.8015920836489,911
-870.0898542598545,899
-867.3788612662631,894
-864.6686129330585,930
-861.9591090903457,964
-859.2503495681506,907
-856.5423341964203,912
-853.8350628050229,890
-851.1285352237478,930
-848.4227512823054,914
-845.7177108103272,910
-843.0134136373656,923
-840.3098595928943,957
-837.6070485063082,953
-834.9049802069229,982
-832.2036545239757,931
-829.5030712866244,935
-826.8032303239481,930
-824.1041314649472,936
-821.4057745385428,895
-818.7081593735775,920
-816.0112857988148,921
-813.3151536429393,944
-810.6197627345566,978
-807.9251129021936,990
-805.2312039742981,962
-802.5380357792392,914
-799.8456081453069,943
-797.1539209007124,959
-794.462973873588,1014
-791.772766891987,959
-789.083299783884,950
-786.3945723771743,964
-783.7065844996748,966
-781.0193359791231,952
-778.3328266431781,969
-775.6470563194197,995
-772.9620248353489,953
-770.2777320183878,940
-767.5941776958798,1001
-764.9113616950891,996
-762.2292838432011,972
-759.5479439673222,958
-756.8673418944801,956
-754.1874774516235,1000
-751.5083504656222,994
-748.8299607632671,1016
-746.15230817127,949
-743.475392516264,987
-740.7992136248035,958
-738.1237713233636,946
-735.4490654383407,1004
-732.7750957960521,1009
-730.1018622227365,1015
-727.4293645445534,989
-724.7576025875837,1047
-722.0865761778291,1001
-719.4162851412126,993
-716.7467293035781,1026
-714.0779084906909,1009
-711.409822528237,986
-708.7424712418238,1035
-706.0758544569796,1062
-703.4099719991541,1052
-700.7448236937178,1051
-698.0804093659622,1061
-695.4167288411002,1055
-692.7537819442656,1003
-690.0915685005134,1033
-687.4300883348199,1019
-684.7693412720819,1042
-682.1093271371178,1039
-679.4500457546669,1034
-676.7914969493897,1048
-674.1336805458676,1036
-671.4765963686034,1039
-668.8202442420206,1077
-666.1646239904642,1017
-663.5097354382001,1056
-660.8555784094151,1102
-658.2021527282176,1040
-655.5494582186366,1049
-652.8974947046223,1080
-650.2462620100463,1122
-647.5957599587009,1116
-644.9459883742998,1104
-642.2969470804776,1035
-639.6486359007902,1128
-637.0010546587141,1069
-634.3542031776476,1097
-631.7080812809096,1116
-629.0626887917401,1119
-626.4180255333008,1126
-623.7740913286734,1099
-621.1308860008619,1134
-618.4884093727904,1107
-615.8466612673046,1117
-613.2056415071715,1088
-610.5653499150785,1141
-607.9257863136347,1135
-605.28695052537,1152
-602.6488423727357,1112
-600.0114616781036,1115
-597.3748082637674,1071
-594.7388819519412,1144
-592.1036825647604,1153
-589.4692099242818,1194
-586.8354638524829,1175
-584.2024441712624,1127
-581.5701507024403,1131
-578.9385832677575,1175
-576.3077416888759,1158
-573.6776257873787,1175
-571.0482353847704,1133
-568.4195703024757,1164
-565.7916303618415,1156
-563.164415384135,1153
-560.5379251905453,1155
-557.9121596021815,1133
-555.2871184400748,1096
-552.6628015251767,1188
-550.0392086783606,1141
-547.4163397204204,1150
-544.794194472071,1180
-542.1727727539491,1170
-539.5520743866118,1186
-536.9320991905377,1220
-534.3128469861261,1240
-531.6943175936979,1266
-529.0765108334947,1267
-526.4594265256793,1302
-523.8430644903358,1341
-521.2274245474689,1433
-518.612506517005,1556
-515.9983102187913,1493
-513.3848354725959,1498
-510.77208209810846,1495
-508.16004991493924,1541
-505.5487387426199,1686
-502.9381484006032,1806
-500.3282787082628,1867
-497.71912948489364,1886
-495.1107005497117,1846
-492.5029917218539,1714
-489.8960028203786,1631
-487.28973366426493,1459
-484.68418407241325,1396
-482.07935386364494,1368
-479.47524285670266,1342
-476.87185087025,1409
-474.2691777228715,1392
-471.66722323307334,1386
-469.0659872192821,1383
-466.4654694998459,1351
-463.86566989303384,1356
-461.26658821703614,1354
-458.66822428996414,1421
-456.07057792985,1364
-453.4736489546475,1388
-450.877437182231,1345
-448.28194243039627,1315
-445.68716451686,1280
-443.09310325926003,1333
-440.49975847515555,1338
-437.9071299820263,1366
-435.31521759727354,1343
-432.72402113821954,1417
-430.13354042210767,1369
-427.5437752661022,1374
-424.95472548728867,1381
-422.36639090267386,1367
-419.7787713291855,1379
-417.1918665836721,1402
-414.60567648290385,1458
-412.0202008435715,1422
-409.4354394822874,1414
-406.8513922155845,1441
-404.26805885991723,1399
-401.685439231661,1397
-399.103533147112,1450
-396.522340422488,1353
-393.9418608739278,1482
-391.3620943174908,1432
-388.7830405691583,1385
-386.2046994448317,1353
-383.6270707603344,1273
-381.05015433141045,1233
-378.473949973725,1103
-375.8984575028645,1057
-373.32367673433623,933
-370.74960748356875,879
-368.1762495659117,782
-365.60360279663576,758
-363.03166699093265,679
-360.4604419639154,588
-357.8899275306178,549
-355.32012350599507,484
-352.7510297049233,493
-350.1826459421999,446
-347.61497203254316,467
-345.04800779059235,469
-342.4817530309082,493
-339.91620756797226,471
-337.35137121618743,484
-334.7872437898774,459
-332.22382510328725,520
-329.66111497058273,483
-327.09911320585127,505
-324.53781962310075,489
-321.9772340362607,452
-319.4173562591816,456
-316.8581861056348,434
-314.2997233893127,467
-311.7419679238294,436
-309.1849195227194,435
-306.62857799943856,499
-304.0729431673641,517
-301.51801483979375,527
-298.963792829947,539
-296.41027695096386,499
-293.85746701590574,552
-291.3053628377552,565
-288.7539642294155,568
-286.2032710037115,541
-283.65328297338897,537
-281.1039999511146,527
-278.5554217494762,612
-276.007548180983,608
-273.4603790580651,577
-270.9139141930734,562
-268.3681533982807,559
-265.8230964858798,571
-263.27874326798565,578
-260.7350935566336,587
-258.1921471637804,590
-255.6499039013039,559
-253.10836358100266,554
-250.56752601459698,568
-248.02739101372765,563
-245.48795838995704,581
-242.94922795476816,626
-240.41119951956557,595
-237.8738728956746,562
-235.33724789434166,664
-232.80132432673452,649
-230.2661020039418,615
-227.73158073697357,594
-225.19776033676033,647
-222.66464061415422,721
-220.1322213799284,699
-217.60050244477725,652
-215.06948361931552,610
-212.53916471408013,671
-210.00954553952818,674
-207.48062590603843,695
-204.9524056239104,678
-202.4248845033651,674
-199.8980623545441,658
-197.37193898751036,702
-194.84651421224817,655
-192.32178783866232,652
-189.79775967657952,755
-187.27442953574644,779
-184.7517972258321,786
-182.2298625564256,763
-179.7086253370378,734
-177.18808537710026,695
-174.66824248596583,706
-172.14909647290835,733
-169.6306471471229,835
-167.11289431772548,822
-164.59583779375328,818
-162.07947738416453,802
-159.5638128978386,789
-157.04884414357605,895
-154.53457093009854,980
-152.02099306604828,957
-149.50811035998936,920
-146.99592262040665,872
-144.48442965570587,846
-141.97363127421409,1010
-139.46352728417958,1274
-136.95411749377126,1211
-134.44540171107985,957
-131.93737974411636,926
-129.43005140081357,998
-126.92341648902493,1072
-124.41747481652521,1212
-121.91222619101006,1574
-119.40767042009657,1967
-116.90380731132257,2138
-114.40063667214702,2009
-111.8981583099503,1878
-109.3963720320337,1986
-106.89527764561933,2640
-104.39487495785067,3866
-101.89516377579241,4378
-99.39614390642998,3521
-96.89781515667039,2693
-94.40017733334128,2941
-91.90323024319173,5868
-89.40697369289148,10424
-86.91140748903172,13966
-84.41653143812482,14303
-81.92234534660395,12174
-79.42884902082358,8215
-76.93604226705907,5866
-74.4439248915071,6849
-71.95249670028534,8997
-69.46175749943245,12098
-66.97170709490854,14268
-64.48234529259423,14799
-61.99367189829195,13528
-59.50568671772464,10692
-57.01838955653636,7948
-54.53178022029283,8220
-52.045858514480074,9358
-49.560624244506016,10142
-47.07607721569923,12630
-44.59221723330904,13954
-42.10904410250669,13573
-39.62655762838392,12382
-37.14475761595372,11052
-34.66364387015028,10610
-32.18321619582866,9808
-29.70347439776515,9405
-27.224418280657005,9461
-24.74604764912317,9930
-22.26836230770266,13900
-19.7913620608565,25654
-17.315046712966478,45164
-14.83941606833514,60705
-12.36446993118659,65038
-9.89020810566592,65038
-7.416630395839093,65038
-4.94373660569363,65038
-2.471526539137585,65038
-6.821210263296962E-13,65038
2.47084320796705,65038
4.941003281093458,65038
7.410480415786196,65038
9.879274808531363,65038
12.347386655893956,65038
14.814816154518212,65038
17.28156350112681,65038
19.74762889252179,65038
22.21301252558385,65038
24.67771459727237,20987
27.141735304626195,4251
29.605074844762612,2680
32.06773341487792,2499
34.52971121224755,2698
36.99100843422559,2561
39.45162527824516,2239
41.91156194181792,1734
44.370818622535126,1558
46.82939551806646,1431
49.287292826160524,1534
51.74451074464503,1722
54.201049471426245,1867
56.65690920448981,1584
59.112090141899785,1413
61.56659248179983,1280
64.02041642241159,1127
66.4735621620365,1094
68.92602989905402,1180
71.37781983192338,1219
73.82893215918205,1555
76.27936707944684,1625
78.72912479141326,1474
81.17820549385567,1158
83.62660938562783,1117
86.07433666566146,1238
88.5213875329681,1030
90.96776218663751,916
93.41346082583925,1011
95.85848364982041,1118
98.30283085790859,1276
100.7465026495089,1340
103.18949922410604,1275
105.63182078126385,1105
108.07346752062438,993
110.51443964190923,849
112.95473734491827,832
115.39436082953114,957
117.83331029570547,1033
120.27158594347827,1181
122.7091879729652,1025
125.1461165843615,956
127.58237197794062,876
130.01795435405518,806
132.4528639131364,825
134.88710085569494,947
137.32066538231982,918
139.75355769367923,974
142.1857779905207,883
144.61732647366978,850
147.04820334403132,853
149.47840880258934,933
151.90794305040674,1070
154.33680628862487,1242
156.76499871846443,1312
159.19252054122433,1474
161.61937195828352,1512
164.04555317109896,1686
166.47106438120693,1838
168.89590579022217,2030
171.320077599839,2315
173.7435800118302,2274
176.16641322804742,2468
178.58857745042144,2596
181.01007288096173,2713
183.43089972175687,2822
185.85105817497413,2809
188.27054844285988,2845
190.6893707277394,2904
193.10752523201643,3095
195.5250121581745,3159
197.9418317087751,3230
200.3579840864594,3218
202.7734694939469,3264
205.18828813403627,3290
207.6024402096051,3273
210.01592592360964,3317
212.42874547908548,3336
214.84089907914665,3302
217.2523869269868,3360
219.66320922587727,3351
222.0733661791695,3305
224.48285799029293,3368
226.8916848627572,3386
229.29984700014882,3444
231.7073446061355,3306
234.11417788446204,3285
236.520347038953,3335
238.92585227351185,3495
241.33069379212054,3627
243.73487179884035,3553
246.1383864978112,3528
248.541238093252,3468
250.9434267894609,3433
253.34495279081432,3706
255.74581630176783,3557
258.1460175268563,3443
260.54555667069314,3527
262.9444339379703,3513
265.3426495334594,3350
267.7402036620107,3428
270.1370965285529,3406
272.53332833809407,3328
274.9288992957214,3227
277.32380960660055,3278
279.718059475976,3159
282.1116491091717,3127
284.5045787115897,3051
286.89684848871195,3229
289.2884586460981,3183
291.67940938938807,3225
294.0697009242996,3263
296.4593334566299,3124
298.84830719225477,3187
301.23662233712923,3143
303.6242790972866,3170
306.01127767884,3069
308.39761828798066,2999
310.78330113097934,2948
313.16832641418534,2958
315.5526943440269,2994
317.9364051270112,2955
320.3194589697242,2905
322.70185607883093,2967
325.0835966610754,2978
327.4646809232805,2926
329.8451090723478,2872
332.2248813152577,2888
334.6039978590701,2807
336.9824589109231,2929
339.36026467803447,2905
341.7374153677,2984
344.113911187295,2866
346.48975234427337,2820
348.8649390461686,2866
351.2394715005918,2746
353.61334991523415,2873
355.9865744978655,2821
358.35914545633375,2787
360.73106299856715,2770
363.10232733257146,2804
365.47293866643247,2865
367.84289720831396,2779
370.2122031664593,2841
372.5808567491905,2847
374.9488581649083,2677
377.31620762209275,2746
379.6829053293021,2704
382.0489514951745,2761
384.4143463284262,2772
386.7790900378528,2613
389.14318283232853,2823
391.50662492080653,2702
393.86941651231916,2682
396.23155781597745,2759
398.5930490409713,2778
400.9538903965696,2793
403.3140820921202,2719
405.6736243370498,2717
408.03251734086336,2715
410.3907613131465,2749
412.74835646356166,2700
415.10530300185144,2697
417.4616011378372,2688
419.81725108141893,2715
422.1722530425758,2651
424.5266072313656,2760
426.880313857925,2754
429.2333731324701,2700
431.58578526529516,2656
433.9375504667738,2612
436.2886689473588,2687
438.63914091758113,2714
440.9889665880513,2688
443.33814616945835,2584
445.68667987257015,2525
448.03456790823395,2650
450.3818104873759,2685
452.72840782100013,2642
455.07436012019105,2589
457.41966759611057,2738
459.7643304600007,2711
462.10834892318155,2600
464.4517231970525,2640
466.79445349309174,2595
469.1365400228566,2651
471.4779829979826,2662
473.81878263018564,2619
476.15893913125876,2626
478.4984527130747,2678
480.8373235875855,2706
483.17555196682144,2715
485.5131380628919,2767
487.8500820879857,2880
490.1863842543697,2955
492.52204477439034,3225
494.8570638604725,3249
497.1914417251204,3414
499.52517858091653,3676
501.85827464052306,3758
504.19073011668036,3856
506.5225452222086,3772
508.85372017000566,3621
511.18425517304956,3553
513.514150444396,3656
515.8434061971808,4077
518.1720226446176,4756
520.4999999999999,4966
522.8273384766991,4821
525.1540382881666,4541
527.480099647932,4294
529.8055227696037,3725
532.1303078668694,3191
534.454455153496,2953
536.777964843328,2764
539.1008371502907,2785
541.4230722883866,2778
543.744670471698,2700
546.0656319143858,2773
548.3859568306899,2767
550.7056454349294,2601
553.0246979415016,2671
555.3431145648834,2701
557.6608955196306,2672
559.978041020377,2625
562.2945512818363,2682
564.6104265188006,2695
566.9256669461412,2705
569.2402727788082,2703
571.5542442318302,2704
573.8675815203156,2719
576.1802848594508,2795
578.4923544645015,2699
580.8037905508126,2794
583.114593333807,2750
585.4247630289875,2790
587.7342998519354,2772
590.0432040183106,2683
592.3514757438526,2707
594.6591152443794,2778
596.9661227357875,2720
599.2724984340531,2760
601.578242555231,2697
603.8833553154542,2763
606.1878369309362,2892
608.4916876179676,2745
610.7949075929192,2762
613.0974970722403,2823
615.3994562724587,2739
617.7007854101818,2704
620.0014847020951,2767
622.3015543649641,2841
624.6009946156324,2818
626.8998056710224,2768
629.1979877481361,2711
631.4955410640538,2822
633.7924658359349,2752
636.0887622810175,2838
638.3844306166192,2810
640.6794710601358,2885
642.9738838290426,2802
645.2676691408932,2840
647.5608272133207,2851
649.853358264037,2811
652.1452625108324,2804
654.4365401715764,2744
656.7271914642178,2846
659.0172166067838,2766
661.3066158173809,2965
663.5953893141935,2867
665.8835373154867,2891
668.1710600396028,2803
670.4579577049639,2804
672.7442305300709,2902
675.0298787335033,2889
677.3149025339197,2839
679.599302150058,2853
681.8830778007342,2870
684.1662297048437,2816
686.4487580813608,2828
688.7306631493387,2921
691.0119451279091,2910
693.2926042362834,2883
695.5726406937516,2885
697.8520547196814,2841
700.1308465335215,2800
702.4090163547982,2878
704.6865644031171,2890
706.9634908981619,2779
709.2397960596965,2848
711.5154801075631,2740
713.7905432616823,2868
716.0649857420548,2807
718.3388077687592,2878
720.612009561953,2847
722.8845913418733,2814
725.1565533288352,2830
727.427895743234,2856
729.6986188055427,2876
731.9687227363137,2864
734.238207756178,2741
736.5070740858458,2834
738.7753219461066,2807
741.0429515578281,2830
743.3099631419569,2904
745.5763569195191,2974
747.8421331116193,2795
750.1072919394409,2935
752.3718336242467,2873
754.6357583873777,2863
756.8990664502545,2845
759.1617580343765,2891
761.423833361321,2724
763.6852926527457,2868
765.9461361303862,2865
768.206364016058,2877
770.4659765316536,2914
772.7249738991469,2865
774.9833563405886,2971
777.2411240781092,2899
779.4982773339183,2861
781.7548163303044,2930
784.010741289634,2859
786.2660524343538,2925
788.5207499869881,2929
790.7748341701416,2904
793.0283052064964,2844
795.2811633188143,2955
797.5334087299362,2896
799.7850416627813,2911
802.0360623403484,2871
804.2864709857143,2954
806.5362678220353,2946
808.7854530725468,2911
811.0340269605625,2962
813.2819897094754,3011
815.5293415427581,2866
817.77608268396,2893
820.0222133567116,2902
822.2677337847211,2878
824.5126441917765,3000
826.7569448017433,2870
829.0006358385675,2829
831.2437175262731,2892
833.4861900889629,2895
835.7280537508192,2921
837.9693087361026,2841
840.2099552691533,2912
842.4499935743896,2972
844.689423876309,2902
846.9282463994886,2893
849.1664613685833,2898
851.4040690083276,2955
853.6410695435349,2859
855.877463199097,2986
858.1132501999847,2876
860.3484307712487,2954
862.5830051380175,2970
864.8169735254988,2875
867.0503361589791,2982
869.2830932638243,2972
871.5152450654786,2994
873.7467917894654,2922
875.9777336613873,2933
878.2080709069252,2944
880.4378037518389,2922
882.666932421968,2961
884.8954571432301,3022
887.1233781416219,2968
889.3506956432192,3035
891.5774098741766,2912
893.803521060728,2978
896.0290294291852,2961
898.2539352059397,2998
900.4782386174619,2941
902.7019398903011,2907
904.925039251085,3004
907.147536926521,3040
909.3694331433943,2970
911.59072812857,2978
913.8114221089921,2902
916.0315153116827,2960
918.2510079637437,2893
920.4699002923547,2928
922.6881925247761,2917
924.905884888345,2851
927.1229776104793,2923
929.3394709186747,2910
931.555365040506,2813
933.7706602036275,2920
935.9853566357709,2894
938.1994545647489,2957
940.4129542184515,2907
942.6258558248488,2970
944.8381596119883,2918
947.0498658079974,2903
949.2609746410825,2918
951.4714863395287,2855
953.6814011316998,2837
955.8907192460387,2875
958.0994409110671,2836
960.3075663553858,2849
962.5150958076741,2874
964.7220294966913,2894
966.928367651274,2881
969.1341105003388,2826
971.3392582728806,2830
973.5438111979742,2805
975.747769504772,2830
977.9511334225061,2730
980.153903180487,2802
982.3560790081052,2739
984.5576611348289,2834
986.7586497902058,2834
988.9590452038618,2798
991.158847605503,2833
993.3580572249133,2778
995.5566742919558,2753
997.7546990365728,2827
999.952131688785,2741
1002.1489724786926,2742
1004.3452216364743,2717
1006.5408793923874,2708
1008.7359459767691,2577
1010.9304216200343,2718
1013.1243065526781,2682
1015.3176010052733,2637
1017.510305208472,2549
1019.7024193930064,2598
1021.8939437896848,2597
1024.0848786293977,2630
1026.2752241431122,2681
1028.4649805618747,2574
1030.6541481168115,2572
1032.842727039127,2674
1035.0307175601051,2618
1037.2181199111074,2648
1039.4049343235752,2683
1041.591161029029,2700
1043.7768002590683,2546
1045.9618522453698,2593
1048.1463172196918,2621
1050.3301954138697,2624
1052.513487059818,2579
1054.69619238953,2609
1056.8783116350783,2615
1059.0598450286152,2639
1061.2407928023704,2641
1063.4211551886528,2633
1065.6009324198508,2599
1067.780124728432,2625
1069.9587323469414,2581
1072.1367555080046,2593
1074.314194444325,2644
1076.4910493886855,2598
1078.667320573947,2656
1080.843008233051,2578
1083.0181125990161,2533
1085.1926339049414,2560
1087.3665723840027,2538
1089.5399282694575,2582
1091.7127017946405,2574
1093.8848931929647,2541
1096.0565026979243,2554
1098.2275305430899,2550
1100.3979769621128,2507
1102.567842188722,2516
1104.737126456726,2514
1106.9058300000124,2559
1109.0739530525475,2557
1111.2414958483764,2512
1113.4084586216231,2530
1115.5748416064907,2490
1117.7406450372605,2481
1119.9058691482942,2495
1122.0705141740304,2547
1124.2345803489884,2538
1126.3980679077658,2615
1128.5609770850388,2521
1130.7233081155623,2501
1132.8850612341707,2446
1135.0462366757774,2501
1137.2068346753745,2544
1139.3668554680326,2486
1141.526299288901,2472
1143.68516637321,2572
1145.8434569562655,2510
1148.001171273455,2447
1150.158309560244,2499
1152.3148720521767,2510
1154.470858984876,2474
1156.626270594044,2474
1158.7811071154629,2467
1160.9353687849912,2447
1163.089055838569,2538
1165.242168512213,2471
1167.3947070420209,2399
1169.5466716641677,2502
1171.6980626149075,2492
1173.8488801305748,2505
1175.9991244475814,2497
1178.1487958024186,2503
1180.2978944316555,2454
1182.4464205719428,2505
1184.5943744600072,2495
1186.7417563326567,2450
1188.8885664267755,2459
1191.0348049793297,2497
1193.1804722273619,2474
1195.325568407995,2489
1197.4700937584303,2541
1199.614048515948,2537
1201.7574329179074,2504
1203.900247201746,2483
1206.042491604982,2497
1208.1841663652099,2521
1210.3252717201053,2495
1212.465807907422,2489
1214.6057751649923,2438
1216.7451737307279,2474
1218.8840038426192,2531
1221.0222657387353,2509
1223.1599596572241,2538
1225.2970858363137,2573
1227.4336445143094,2518
1229.5696359295966,2465
1231.705060320639,2518
1233.8399179259786,2540
1235.9742089842384,2549
1238.107933734118,2571
1240.2410924143974,2566
1242.373685263935,2509
1244.5057125216676,2538
1246.6371744266116,2516
1248.7680712178621,2520
1250.898403134593,2549
1253.028170416058,2493
1255.1573733015875,2584
1257.2860120305932,2464
1259.4140868425648,2508
1261.54159797707,2585
1263.6685456737569,2568
1265.7949301723515,2646
1267.9207517126597,2571
1270.046010534565,2582
1272.1707068780306,2566
1274.2948409830983,2610
1276.4184130898889,2676
1278.541423438603,2695
1280.6638722695184,2592
1282.785759822993,2661
1284.9070863394636,2644
1287.0278520594447,2600
1289.1480572235314,2695
1291.2677020723963,2672
1293.3867868467923,2667
1295.5053117875495,2652
1297.623277135579,2689
1299.740683131868,2685
1301.8575300174857,2617
1303.973818033578,2654
1306.0895474213703,2658
1308.2047184221678,2662
1310.3193312773528,2668
1312.4333862283888,2796
1314.5468835168163,2746
1316.659823384255,2649
1318.7722060724045,2674
1320.8840318230418,2803
1322.9953008780249,2672
1325.1060134792888,2737
1327.2161698688478,2676
1329.3257702887959,2725
1331.4348149813054,2760
1333.5433041886276,2751
1335.6512381530933,2735
1337.7586171171101,2639
1339.8654413231675,2747
1341.9717110138317,2714
1344.0774264317488,2634
1346.1825878196432,2590
1348.2871954203192,2577
1350.3912494766587,2665
1352.4947502316231,2657
1354.5976979282532,2628
1356.7000928096686,2615
1358.8019351190665,2708
1360.9032250997243,2623
1363.0039629949988,2663
1365.1041490483235,2687
1367.2037835032133,2664
1369.3028666032606,2662
1371.401398592137,2742
1373.4993797135926,2698
1375.5968102114575,2588
1377.6936903296396,2640
1379.7900203121262,2749
1381.8858004029835,2708
1383.9810308463561,2640
1386.075711886469,2611
1388.1698437676241,2635
1390.2634267342032,2629
1392.356461030667,2662
1394.4489469015557,2712
1396.5408845914872,2774
1398.6322743451592,2759
1400.7231164073469,2747
1402.813411022907,2757
1404.903158436773,2713
1406.9923588939578,2791
1409.0810126395531,2746
1411.1691199187303,2773
1413.2566809767386,2727
1415.343696058907,2804
1417.4301654106425,2852
1419.5160892774315,2779
1421.6014679048399,2765
1423.6863015385125,2840
1425.7705904241707,2776
1427.8543348076178,2802
1429.9375349347342,2848
1432.0201910514802,2824
1434.102303403894,2890
1436.1838722380944,2915
1438.2648978002767,2917
1440.3453803367174,2878
1442.4253200937692,2806
1444.5047173178677,2903
1446.5835722555234,2944
1448.6618851533285,2978
1450.739656257952,3055
1452.8168858161434,2999
1454.8935740747306,3018
1456.96972128062,3030
1459.045327680797,3026
1461.120393522327,3083
1463.1949190523528,3041
1465.2689045180973,3103
1467.3423501668608,3172
1469.415256246024,3181
1471.4876230030463,3265
1473.559450685465,3359
1475.6307395408976,3298
1477.7014898170391,3379
1479.771701761665,3386
1481.8413756226287,3344
1483.9105116478618,3421
1485.9791100853772,3429
1488.0471711832643,3531
1490.1146951896926,3460
1492.1816823529098,3472
1494.2481329212433,3562
1496.3140471430984,3622
1498.3794252669609,3695
1500.4442675413939,3671
1502.5085742150404,3606
1504.572345536622,3635
1506.6355817549388,3585
1508.6982831188702,3721
1510.7604498773744,3716
1512.8220822794883,3702
1514.8831805743293,3745
1516.9437450110909,3862
1519.003775839048,3831
1521.0632733075522,4012
1523.1222376660367,3966
1525.1806691640113,4020
1527.2385680510652,3945
1529.2959345768668,4014
1531.3527689911643,4282
1533.4090715437833,4110
1535.4648424846291,4213
1537.5200820636855,4197
1539.5747905310159,4199
1541.6289681367616,4224
1543.6826151311434,4326
1545.7357317644614,4270
1547.7883182870937,4197
1549.8403749494987,4496
1551.8919020022113,4385
1553.9428996958477,4515
1555.9933682811015,4525
1558.0433080087469,4554
1560.0927191296346,4671
1562.1416018946961,4575
1564.1899565549415,4625
1566.2377833614592,4558
1568.2850825654164,4495
1570.3318544180606,4434
1572.3780991707158,4337
1574.423817074788,4141
1576.4690083817595,4138
1578.5136733431923,4010
1580.5578122107272,3829
1582.601425236085,3847
1584.6445126710646,3707
1586.6870747675434,3736
1588.7291117774776,3451
1590.7706239529034,3457
1592.8116115459347,3386
1594.8520748087658,3268
1596.8920139936686,3221
1598.9314293529933,3154
1600.9703211391711,3213
1603.008689604711,3160
1605.0465350022005,3103
1607.0838575843068,2976
1609.1206576037753,3065
1611.1569353134305,2957
1613.1926909661765,2956
1615.2279248149953,2923
1617.2626371129481,2955
1619.2968281131757,2880
1621.3304980688963,2930
1623.3636472334088,2870
1625.39627586009,2864
1627.428384202396,2804
1629.459972513861,2817
1631.4910410480993,2759
1633.5215900588028,2767
1635.551619799744,2813
1637.5811305247717,2819
1639.6101224878166,2757
1641.6385959428862,2717
1643.6665511440683,2790
1645.693988345528,2906
1647.7209078015112,2770
1649.7473097663405,2778
1651.7731944944203,2841
1653.7985622402307,2709
1655.823413258333,2738
1657.847747803366,2736
1659.8715661300494,2772
1661.8948684931793,2795
1663.9176551476316,2836
1665.9399263483624,2725
1667.9616823504057,2704
1669.982923408873,2737
1672.0036497789574,2687
1674.0238617159293,2759
1676.043559475138,2733
1678.0627433120121,2781
1680.081413482059,2685
1682.0995702408654,2682
1684.117213844096,2710
1686.134344547495,2698
1688.1509626068864,2752
1690.1670682781705,2819
1692.182661817329,2718
1694.1977434804217,2686
1696.2123135235875,2806
1698.226372203043,2795
1700.2399197750851,2795
1702.2529564960905,2735
1704.2654826225112,2815
1706.277498410882,2769
1708.2890041178139,2758
1710.2999999999988,2721
1712.3104863142066,2762
1714.3204633172854,2695
1716.329931266163,2657
1718.3388904178469,2749
1720.3473410294214,2715
1722.3552833580516,2683
1724.3627176609807,2711
1726.3696441955308,2813
1728.3760632191033,2687
1730.3819749891782,2673
1732.3873797633146,2765
1734.3922777991502,2752
1736.3966693544012,2712
1738.4005546868639,2679
1740.4039340544127,2733
1742.406807715001,2799
1744.4091759266616,2709
1746.4110389475054,2665
1748.4123970357223,2686
1750.413250449582,2585
1752.4135994474318,2714
1754.4134442876993,2749
1756.4127852288902,2722
1758.4116225295893,2736
1760.4099564484595,2591
1762.407787244244,2706
1764.405115175764,2657
1766.4019405019203,2641
1768.3982634816916,2781
1770.3940843741357,2712
1772.3894034383907,2662
1774.3842209336717,2660
1776.378537119274,2656
1778.372352254571,2652
1780.3656665990156,2654
1782.3584804121397,2582
1784.3507939535534,2634
1786.3426074829463,2733
1788.3339212600863,2708
1790.3247355448211,2651
1792.3150505970766,2674
1794.3048666768573,2699
1796.2941840442477,2650
1798.2830029594106,2632
1800.2713236825884,2669
1802.2591464741004,2691
1804.2464715943465,2659
1806.2332993038058,2707
1808.2196298630352,2685
1810.2054635326708,2653
1812.190800573428,2638
1814.175641246101,2638
1816.1599858115628,2695
1818.1438345307652,2601
1820.127187664738,2770
1822.1100454745924,2683
1824.092408221516,2689
1826.0742761667766,2597
1828.055649571721,2673
1830.0365286977735,2709
1832.0169138064398,2685
1833.9968051593014,2744
1835.9762030180214,2653
1837.9551076443408,2741
1839.9335193000788,2616
1841.9114382471344,2651
1843.888864747485,2644
1845.8657990631878,2606
1847.842241456378,2626
1849.8181921892697,2576
1851.7936515241558,2618
1853.7686197234098,2728
1855.7430970494815,2683
1857.7170837649014,2731
1859.6905801322787,2680
1861.6635864143004,2591
1863.6361028737338,2652
1865.608129773424,2670
1867.5796673762961,2635
1869.5507159453537,2713
1871.521275743678,2597
1873.4913470344313,2616
1875.4609300808534,2710
1877.4300251462632,2696
1879.3986324940588,2723
1881.366752387717,2691
1883.3343850907936,2690
1885.3015308669228,2689
1887.268189979819,2705
1889.2343626932739,2756
1891.2000492711595,2662
1893.1652499774254,2629
1895.1299650761011,2638
1897.0941948312952,2727
1899.0579395071945,2633
1901.0211993680641,2662
1902.98397467825,2721
1904.9462657021745,2754
1906.9080727043415,2749
1908.869395949332,2685
1910.8302357018065,2761
1912.790592226504,2635
1914.7504657882428,2674
1916.7098566519212,2735
1918.6687650825133,2695
1920.6271913450764,2600
1922.5851357047422,2705
1924.5425984267245,2704
1926.499579776314,2624
1928.4560800188833,2684
1930.4120994198802,2597
1932.367638244833,2573
1934.32269675935,2695
1936.2772752291175,2683
1938.231373919899,2650
1940.1849930975404,2761
1942.1381330279637,2679
1944.0907939771696,2700
1946.0429762112412,2653
1947.9946799963363,2662
1949.9459055986945,2717
1951.896653284633,2658
1953.8469233205478,2744
1955.7967159729142,2702
1957.7460315082863,2724
1959.6948701932974,2809
1961.6432322946594,2784
1963.5911180791632,2650
1965.5385278136787,2778
1967.4854617651545,2689
1969.4319202006182,2710
1971.377903387176,2681
1973.3234115920136,2723
1975.268445082395,2703
1977.2130041256642,2773
1979.1570889892423,2688
1981.1006999406304,2653
1983.04383724741,2749
1984.986501177238,2662
1986.928691997853,2720
1988.8704099770712,2634
1990.811655382789,2659
1992.7524284829801,2706
1994.692729545698,2644
1996.6325588390755,2737
1998.5719166313224,2710
2000.5108031907307,2723
2002.4492187856677,2759
2004.387163684583,2755
2006.3246381560011,2727
2008.2616424685298,2730
2010.1981768908527,2677
2012.1342416917332,2675
2014.069837140014,2693
2016.0049635046162,2626
2017.9396210545406,2688
2019.8738100588666,2610
2021.8075307867502,2683
2023.740783507431,2684
2025.6735684902228,2675
2027.6058860045214,2670
2029.5377363198004,2655
2031.4691197056118,2683
2033.4000364315875,2714
2035.3304867674374,2693
2037.260470982952,2727
2039.189989347998,2709
2041.1190421325232,2675
2043.047629606554,2734
2044.9757520401945,2712
2046.9034097036288,2704
2048.8306028671195,2720
2050.7573318010086,2740
2052.683596775716,2710
2054.609398061742,2665
2056.5347359296647,2721
2058.4596106501403,2631
2060.384022493906,2703
2062.3079717317764,2718
2064.231458634646,2749
2066.1544834734873,2697
2068.077046519352,2731
2069.99914804337,2729
2071.9207883167524,2685
2073.8419676107865,2696
2075.7626861968406,2801
2077.6829443463607,2748
2079.6027423308715,2665
2081.522080421977,2786
2083.440958891362,2736
2085.359378010786,2722
2087.2773380520907,2755
2089.194839287196,2781
2091.111881988101,2802
2093.0284664268825,2696
2094.9445928756973,2725
2096.86026160678,2780
2098.775472892446,2716
2100.690227005088,2719
2102.604524217178,2769
2104.5183648012676,2710
2106.431749029985,2726
2108.34467717604,2685
2110.2571495122206,2737
2112.169166311393,2777
2114.080727846503,2733
2115.9918343905747,2750
2117.902486216711,2775
2119.8126835980956,2783
2121.722426807987,2736
2123.6317161197285,2806
2125.5405518067364,2784
2127.448934142509,2778
2129.356863400624,2806
2131.264339854737,2879
2133.1713637785815,2763
2135.077935445972,2843
2136.9840551308002,2833
2138.889723107037,2753
2140.7949396487334,2837
2142.699705030018,2756
2144.6040195250994,2846
2146.507883408264,2819
2148.4112969538774,2811
2150.3142604363848,2825
2152.2167741303097,2822
2154.1188383102535,2721
2156.0204532508997,2882
2157.9216192270064,2766
2159.822336513414,2887
2161.7226053850413,2820
2163.622426116884,2804
2165.5217989840185,2734
2167.4207242616,2889
2169.319202224862,2767
2171.2172331491165,2747
2173.1148173097563,2821
2175.0119549822507,2895
2176.90864644215,2879
2178.8048919650823,2868
2180.7006918267534,2811
2182.596046302952,2817
2184.4909556695407,2795
2186.3854202024645,2874
2188.279440177746,2813
2190.173015871487,2822
2192.066147559868,2844
2193.958835519149,2909
2195.851080025667,2785
2197.7428813558417,2800
2199.6342397861667,2870
2201.5251555932186,2766
2203.415629053651,2865
2205.3056604441986,2876
2207.19525004167,2848
2209.084398122958,2915
2210.9731049650327,2927
2212.861370844941,2899
2214.749196039812,2986
2216.636580826851,2933
2218.523525483344,2960
2220.410030286655,2916
2222.296095514226,2944
2224.1817214435805,2909
2226.066908352319,2927
2227.951656518121,2958
2229.835966218746,2886
2231.71983773203,2937
2233.6032713358913,2931
2235.486267308324,2983
2237.3688259274036,2825
2239.2509474712824,2988
2241.132632218193,3018
2243.013880446447,2912
2244.8946924344323,2863
2246.7750684606203,2880
2248.6550088035574,2912
2250.534513741871,2953
2252.413583554265,2914
2254.292218519526,3008
2256.170418916517,2926
2258.0481850241786,2955
2259.925517121534,2910
2261.8024154876825,2853
2263.678880401803,2936
2265.5549121431536,2944
2267.430510991071,2911
2269.305677224971,2977
2271.180411124348,2864
2273.0547129687766,2939
2274.9285830379076,2898
2276.8020216114737,2901
2278.6750289692845,2886
2280.5476053912294,2951
2282.4197511572766,2887
2284.2914665474727,2964
2286.162751841943,2984
2288.0336073208937,3000
2289.904033264608,2900
2291.774029953448,2930
2293.6435976678554,3001
2295.5127366883517,2967
2297.381447295534,2952
2299.2497297700825,2894
2301.1175843927526,2898
2302.9850114443825,2838
2304.852011205885,2798
2306.7185839582553,2773
2308.5847299825664,2828
2310.4504495599676,2862
2312.3157429716925,2810
2314.1806104990483,2815
2316.0450524234247,2841
2317.9090690262888,2812
2319.772660589186,2731
2321.635827393742,2821
2323.498569721661,2893
2325.3608878547248,2857
2327.2227820747967,2862
2329.0842526638157,2870
2330.945299903803,2734
2332.805924076857,2783
2334.6661254651535,2785
2336.525904350951,2725
2338.3852610165827,2856
2340.244195744464,2755
2342.102708817088,2828
2343.9608005170253,2737
2345.8184711269287,2805
2347.675720929526,2822
2349.532550207628,2828
2351.38895924412,2866
2353.24494832197,2738
2355.100517724223,2817
2356.955667734004,2811
2358.810398634514,2754
2360.664710709037,2887
2362.5186042409337,2815
2364.3720795136437,2792
2366.225136810686,2842
2368.0777764156583,2887
2369.929998612237,2922
2371.7818036841777,2807
2373.633191915315,2856
2375.484163589562,2864
2377.3347189909114,2815
2379.184858403434,2820
2381.03458211128,2899
2382.8838903986775,2770
2384.732783549936,2893
2386.5812618494406,2901
2388.4293255816588,2887
2390.2769750311327,2922
2392.1242104824883,2959
2393.971032220427,2873
2395.8174405297295,2922
2397.6634356952563,2799
2399.509018001947,2858
2401.3541877348193,2823
2403.1989451789705,2763
2405.043290619576,2890
2406.8872243418905,2776
2408.730746631247,2858
2410.5738577730594,2946
2412.4165580528183,2871
2414.258847756095,2871
2416.100727168537,2907
2417.9421965758734,2850
2419.783256263912,2972
2421.623906518538,2866
2423.4641476257157,2888
2425.303979871491,2927
2427.143403541984,2891
2428.9824189233977,2931
2430.821026302012,2842
2432.6592259641866,2996
2434.497018196361,2875
2436.33440328505,2780
2438.171381516851,2846
2440.00795317844,2880
2441.844118556569,2923
2443.6798779380724,2835
2445.5152316098606,2880
2447.3501798589255,2890
2449.1847229723357,2896
2451.0188612372403,2941
2452.8525949408663,2924
2454.6859243705203,2898
2456.518849813587,2923
2458.3513715575314,2928
2460.183489889895,2907
2462.015205098301,2906
2463.8465174704493,2835
2465.67742729412,2813
2467.5079348571717,2840
2469.338040447542,2820
2471.1677443532476,2895
2472.9970468623833,2910
2474.825948263123,2896
2476.6544488437207,2853
2478.482548892508,2859
2480.310248697896,2910
2482.137548548374,2846
2483.9644487325118,2884
2485.790949538956,2850
2487.617051256433,2915
2489.44275417375,2919
2491.26805857979,3006
2493.0929647635157,2940
2494.917473013971,2905
2496.741583620276,2881
2498.5652968716304,3061
2500.3886130573137,3009
2502.2115324666834,2989
2504.0340553891765,2973
2505.856182114308,2906
2507.6779129316733,3063
2509.499248130945,2879
2511.3201880018764,2889
2513.140732834298,2943
2514.9608829181198,2971
2516.780638543331,2920
2518.6,2939
2520.418967578273,2969
2522.237541568376,3004
2524.0557222606144,2965
2525.8735099453706,2989
2527.6909049131086,2984
2529.507907454368,3040
2531.32451785977,2976
2533.140736420014,3012
2534.9565634258774,2995
2536.771999168218,3113
2538.5870439379714,3002
2540.4016980261526,3052
2542.2159617238544,3022
2544.02983532225,3054
2545.8433191125914,3075
2547.656413386209,3011
2549.4691184345115,3098
2551.2814345489874,3057
2553.093362021204,3094
2554.904901142808,3119
2556.716052205523,3090
2558.526815501153,3130
2560.3371913215824,3197
2562.147179958771,3059
2563.956781704761,3018
2565.7659968516705,3135
2567.5748256916986,3186
2569.3832685171224,3220
2571.1913256202984,3086
2572.9989972936614,3221
2574.806283829725,3167
2576.613185521084,3158
2578.4197026604074,3235
2580.2258355404483,3193
2582.031584454035,3302
2583.836949694077,3286
2585.6419315535613,3200
2587.4465303255533,3208
2589.2507463032002,3214
2591.0545797797245,3222
2592.8580310484303,3259
2594.6611004026995,3269
2596.463788135992,3159
2598.266094541849,3274
2600.0680199138874,3222
2601.869564545807,3317
2603.670728731383,3366
2605.4715127644704,3270
2607.2719169390048,3223
2609.071941548998,3215
2610.8715868885433,3250
2612.670853251811,3330
2614.469740933052,3223
2616.268250226594,3352
2618.0663814268455,3297
2619.864134828292,3184
2621.6615107255006,3281
2623.458509413115,3199
2625.2551311858597,3298
2627.0513763385347,3228
2628.8472451660223,3209
2630.6427379632833,3226
2632.4378550253564,3270
2634.232596647359,3242
2636.026963124488,3205
2637.8209547520187,3149
2639.6145718253065,3220
2641.407814639785,3216
2643.200683490966,3173
2644.9931786744414,3106
2646.7853004858807,3165
2648.577049221034,3160
2650.3684251757277,3098
2652.1594286458712,3166
2653.9500599274484,3073
2655.740319316525,3114
2657.5302071092437,3135
2659.3197236018286,3114
2661.10886909058,3124
2662.8976438718782,3109
2664.686048242183,3102
2666.4740824980327,3146
2668.2617469360443,3109
2670.0490418529134,3133
2671.8359675454153,3094
2673.622524310403,3122
2675.408712444811,3119
2677.1945322456495,3148
2678.979984010009,3083
2680.76506803506,3078
2682.5497846180497,3026
2684.334134056306,3092
2686.1181166472343,3130
2687.9017326883213,3001
2689.6849824771293,3055
2691.4678663113013,3037
2693.2503844885596,3088
2695.032537306705,3026
2696.8143250636167,3063
2698.5957480572542,3062
2700.3768065856534,2971
2702.1575009469316,2940
2703.937831439283,3157
2705.717798360982,3046
2707.4974020103837,2952
2709.276642685917,3031
2711.055520686095,2965
2712.834036309506,2960
2714.612189854819,3069
2716.389981620782,3096
2718.1674119062204,2879
2719.944481010041,2901
2721.721189231226,3113
2723.4975368688415,2972
2725.273524222027,2945
2727.0491515900053,2946
2728.824419272075,2941
2730.5993275676146,2907
2732.3738767760838,2937
2734.148067197016,2945
2735.921899130031,3106
2737.6953728748194,2979
2739.468488731156,3004
2741.2412469988926,2963
2743.0136479779617,3049
2744.785691968372,2941
2746.5573792702116,2885
2748.3287101836504,2974
2750.099685008934,3024
2751.870304046388,2956
2753.640567596418,2990
2755.4104759595057,2961
2757.1800294362156,3012
2758.949228327187,2984
2760.7180729331412,2972
2762.486563554877,2938
2764.254700493272,3044
2766.022484049284,3001
2767.789914523947,2981
2769.5569922183786,2973
2771.3237174337705,2956
2773.090090471394,2954
2774.8561116326036,3053
2776.6217812188274,2962
2778.3870995315756,3031
2780.1520668724356,2964
2781.9166835430747,2978
2783.6809498452394,2950
2785.444866080754,3030
2787.2084325515225,2945
2788.971649559527,2965
2790.73451740683,2940
2792.4970363955713,3030
2794.2592068279705,2958
2796.0210290063264,3004
2797.7825032330147,3083
2799.543629810493,3042
2801.304409041296,3031
2803.0648412280366,3065
2804.8249266734088,3092
2806.5846656801846,2999
2808.344058551212,2972
2810.1031055894246,3019
2811.8618070978273,3047
2813.6201633795085,3049
2815.378174737636,3051
2817.1358414754536,3013
2818.893163896285,3066
2820.6501423035334,2997
2822.4067770006814,2965
2824.1630682912883,2925
2825.9190164789957,3051
2827.6746218675207,3100
2829.429884760661,2986
2831.184805462294,2996
2832.9393842763743,2999
2834.693621506936,3114
2836.4475174580916,2914
2838.201072434034,3065
2839.954286739034,3097
2841.707160677441,3063
2843.459694553685,3075
2845.2118886722724,3089
2846.96374333779,3064
2848.7152588549034,2942
2850.4664355283567,2959
2852.217273662973,3107
2853.9677735636546,3090
2855.7179355353833,2983
2857.4677598832186,2979
2859.217246912299,3012
2860.9663969278427,2920
2862.715210235146,2994
2864.4636871395846,3068
2866.211827946614,3005
2867.9596329617652,2970
2869.7071024906536,2987
2871.4542368389684,3026
2873.20103631248,3144
2874.947501217038,3087
2876.6936318585695,3068
2878.4394285430812,3113
2880.1848915766604,2959
2881.9300212654707,3027
2883.6748179157553,3057
2885.4192818338374,3085
2887.1634133261173,3002
2888.907212699077,3121
2890.6506802592744,3091
2892.393816313348,2980
2894.1366211680142,2979
2895.8790951300693,3029
2897.621238506388,3056
2899.363051603925,3128
2901.1045347297118,3073
2902.8456881908596,2972
2904.58651229456,3009
2906.327007348081,3002
2908.067173658772,3071
2909.8070115340597,2990
2911.5465212814497,3019
2913.285703208527,3029
2915.0245576229563,3034
2916.7630848324807,3005
2918.5012851449196,2976
2920.2391588681758,2998
2921.976706310227,3037
2923.7139277791334,2960
2925.4508235830313,3090
2927.187394030137,3151
2928.923639428745,3099
2930.6595600872306,3120
2932.395156314046,3107
2934.1304284177218,3134
2935.8653767068713,3105
2937.6000014901815,3081
2939.3343030764227,3081
2941.068281774442,3060
2942.8019378931644,3051
2944.5352717415976,3100
2946.2682836288236,3098
2948.0009738640065,3067
2949.7333427563885,3151
2951.465390615289,3069
2953.1971177501086,3037
2954.9285244703265,3009
2956.6596110855,3090
2958.3903779052657,3047
2960.1208252393385,2960
2961.8509533975125,3043
2963.5807626896617,3067
2965.3102534257378,3075
2967.0394259157715,3086
2968.768280469873,3088
2970.496817398232,3044
2972.2250370111146,3126
2973.952939618869,3059
2975.6805255319196,3126
2977.4077950607707,3088
2979.134748516006,3063
2980.861386208289,3198
2982.587708448359,3127
2984.313715547037,3141
2986.039407815222,3100
2987.764785563891,3123
2989.489849104102,3165
2991.2145987469908,3135
2992.9390348037705,3114
2994.6631575857346,3134
2996.3869674042576,3097
2998.1104645707887,3131
2999.83364939686,3179
3001.5565221940783,3148
3003.2790832741334,3052
3005.0013329487924,3139
3006.7232715298996,3136
3008.4448993293804,3185
3010.166216659239,3138
3011.887223831558,3175
3013.607921158498,3228
3015.3283089522993,3078
3017.0483875252826,3097
3018.7681571898443,3101
3020.4876182584626,3116
3022.2067710436927,3121
3023.9256158581707,3082
3025.644153014609,3075
3027.362382825801,3176
3029.0803056046193,3148
3030.797921664012,3097
3032.5152313170106,3046
3034.2322348767225,3060
3035.9489326563353,3164
3037.665324969115,3085
3039.3814121284063,3176
3041.097194447633,3153
3042.812672240299,3178
3044.5278458199855,3092
3046.2427155003525,3223
3047.9572815951406,3103
3049.671544418167,3132
3051.38550428333,3091
3053.0991615046073,3010
3054.812516396051,3240
3056.5255692717974,3083
3058.2383204460575,3160
3059.9507702331257,3103
3061.662918947372,3114
3063.3747669032446,3072
3065.0863144152736,3247
3066.7975617980674,3025
3068.508509366309,3054
3070.219157434767,3128
3071.9295063182844,3208
3073.639556331785,3151
3075.3493077902704,3181
3077.058761008821,3106
3078.7679163025964,3130
3080.476773986837,3217
3082.1853343768594,3157
3083.89359778806,3207
3085.6015645359153,3009
3087.3092349359786,3156
3089.016609303884,3215
3090.7236879553434,3244
3092.4304712061476,3179
3094.136959372166,3127
3095.843152769349,3091
3097.5490517137237,3091
3099.2546565213966,3192
3100.959967508554,3206
3102.66498499146,3174
3104.3697092864577,3184
3106.0741407099695,3301
3107.778279578498,3197
3109.482126208622,3186
3111.1856809170004,3156
3112.8889440203716,3140
3114.5919158355528,3120
3116.294596679439,3214
3117.996986869006,3289
3119.6990867213062,3219
3121.4008965534726,3309
3123.102416682717,3241
3124.803647426329,3293
3126.5045891016784,3246
3128.205242026213,3171
3129.90560651746,3238
3131.605682893025,3142
3133.3054714705922,3165
3135.0049725679282,3232
3136.7041865028714,3206
3138.4031135933465,3206
3140.101754157353,3111
3141.800108512971,3245
3143.498176978357,3161
3145.1959598717494,3123
3146.8934575114636,3211
3148.5906702158954,3104
3150.2875983035183,3198
3151.9842420928853,3234
3153.680601902627,3140
3155.376678051456,3248
3157.07247085816,3081
3158.767980641609,3201
3160.463207720748,3194
3162.158152414606,3131
3163.8528150422862,3193
3165.5471959229726,3237
3167.2412953759303,3231
3168.9351137204976,3209
3170.628651276098,3192
3172.3219083622307,3279
3174.014885298474,3317
3175.707582404485,3187
3177.4000000000005,3240
3179.092138404835,3245
3180.7839979388846,3214
3182.47557892212,3199
3184.166881674594,3234
3185.8579065164386,3203
3187.5486537678626,3251
3189.2391237491547,3174
3190.9293167806827,3291
3192.6192331828934,3262
3194.3088732763117,3227
3195.998237381542,3186
3197.687325819268,3167
3199.376138910251,3141
3201.064676975334,3199
3202.7529403354347,3187
3204.4409293115523,3120
3206.1286442247647,3277
3207.816085396229,3184
3209.5032531471825,3234
3211.190147798936,3163
3212.8767696728846,3158
3214.5631190905015,3173
3216.2491963733373,3091
3217.9350018430214,3157
3219.6205358212637,3172
3221.305798629851,3114
3222.990790590651,3022
3224.6755120256103,3053
3226.359963256751,3126
3228.0441446061795,3140
3229.7280563960758,3161
3231.411698948703,3129
3233.0950725863995,3282
3234.778177631587,3155
3236.461014406761,3192
3238.1435832345005,3212
3239.8258844374595,3244
3241.507918338374,3325
3243.1896852600576,3258
3244.8711855254023,3153
3246.552419457381,3272
3248.233387379042,3213
3249.914089613516,3233
3251.59452648401,3212
3253.274698313813,3197
3254.95460542629,3202
3256.6342481448855,3236
3258.313626793125,3167
3259.9927416946084,3187
3261.6715931730196,3155
3263.3501815521176,3096
3265.0285071557437,3178
3266.706570307815,3126
3268.3843713323286,3104
3270.0619105533615,3212
3271.739188295068,3263
3273.4162048816834,3194
3275.0929606375184,3201
3276.769455886966,3191
3278.445690954498,3193
3280.1216661646613,3196
3281.797381842087,3213
3283.4728383114807,3214
3285.1480358976296,3275
3286.8229749253996,3208
3288.4976557197333,3279
3290.172078605655,3245
3291.846243908266,3199
3293.5201519527463,3178
3295.193803064357,3237
3296.8671975684374,3221
3298.5403357904024,3157
3300.21321805575,3154
3301.8858446900567,3164
3303.558216018975,3214
3305.23033236824,3229
3306.9021940636603,3182
3308.57380143113,3318
3310.2451547966184,3258
3311.916254486174,3156
3313.5871008259246,3160
3315.2576941420766,3126
3316.9280347609147,3182
3318.5981230088046,3124
3320.2679592121895,3201
3321.9375436975924,3112
3323.606876791612,3270
3325.27595882093,3189
3326.944790112305,3212
3328.6133709925753,3123
3330.2817017886573,3130
3331.949782827547,3176
3333.617614436319,3187
3335.2851969421245,3245
3336.952530672199,3270
3338.619615953853,3275
3340.286453114475,3251
3341.9530424815357,3255
3343.619384382583,3302
3345.2854791452437,3203
3346.951327097224,3245
3348.6169285663073,3307
3350.2822838803577,3214
3351.947393367319,3265
3353.61225735521,3325
3355.2768761721345,3219
3356.9412501462693,3357
3358.605379605873,3253
3360.2692648792827,3275
3361.9329062949146,3205
3363.596304181263,3225
