CollectionTime,9/20/2024 12:15:56 PM
ExposureUsed,3
CalibratedSpectrum
-962.7078968117929,1902
-959.9714848408522,1978
-957.2358232597828,2045
-954.5009119013725,2114
-951.7667505983302,2078
-949.0333391832855,2082
-946.3006774887896,2123
-943.5687653473143,2093
-940.837602591253,2121
-938.1071890529199,2077
-935.3775245645503,2148
-932.6486089583007,2150
-929.9204420662485,2117
-927.1930237203925,2119
-924.4663537526524,2177
-921.7404319948689,2133
-919.0152582788041,2127
-916.2908324361409,2194
-913.5671542984834,2167
-910.8442236973568,2083
-908.1220404642074,2096
-905.4006044304027,2036
-902.679915427231,2084
-899.959973285902,2040
-897.2407778375464,2001
-894.5223289132158,2063
-891.8046263438832,2092
-889.0876699604426,2087
-886.3714595937089,2199
-883.6559950744183,2131
-880.9412762332282,2099
-878.2273029007168,2064
-875.5140749073835,2073
-872.8015920836489,2083
-870.0898542598545,2106
-867.3788612662631,2063
-864.6686129330585,2119
-861.9591090903457,2045
-859.2503495681506,2096
-856.5423341964203,2113
-853.8350628050229,2106
-851.1285352237478,2126
-848.4227512823054,2123
-845.7177108103272,2075
-843.0134136373656,2182
-840.3098595928943,2186
-837.6070485063082,2134
-834.9049802069229,2200
-832.2036545239757,2064
-829.5030712866244,2152
-826.8032303239481,2160
-824.1041314649472,2126
-821.4057745385428,2152
-818.7081593735775,2127
-816.0112857988148,2062
-813.3151536429393,2138
-810.6197627345566,2147
-807.9251129021936,2135
-805.2312039742981,2234
-802.5380357792392,2125
-799.8456081453069,2117
-797.1539209007124,2146
-794.462973873588,2155
-791.772766891987,2172
-789.083299783884,2180
-786.3945723771743,2116
-783.7065844996748,2132
-781.0193359791231,2081
-778.3328266431781,2213
-775.6470563194197,2160
-772.9620248353489,2209
-770.2777320183878,2100
-767.5941776958798,2180
-764.9113616950891,2182
-762.2292838432011,2157
-759.5479439673222,2179
-756.8673418944801,2239
-754.1874774516235,2125
-751.5083504656222,2196
-748.8299607632671,2218
-746.15230817127,2206
-743.475392516264,2204
-740.7992136248035,2236
-738.1237713233636,2128
-735.4490654383407,2221
-732.7750957960521,2209
-730.1018622227365,2227
-727.4293645445534,2231
-724.7576025875837,2210
-722.0865761778291,2211
-719.4162851412126,2293
-716.7467293035781,2233
-714.0779084906909,2269
-711.409822528237,2286
-708.7424712418238,2235
-706.0758544569796,2276
-703.4099719991541,2330
-700.7448236937178,2190
-698.0804093659622,2287
-695.4167288411002,2306
-692.7537819442656,2288
-690.0915685005134,2291
-687.4300883348199,2281
-684.7693412720819,2272
-682.1093271371178,2282
-679.4500457546669,2321
-676.7914969493897,2267
-674.1336805458676,2381
-671.4765963686034,2325
-668.8202442420206,2409
-666.1646239904642,2384
-663.5097354382001,2261
-660.8555784094151,2332
-658.2021527282176,2268
-655.5494582186366,2288
-652.8974947046223,2343
-650.2462620100463,2329
-647.5957599587009,2328
-644.9459883742998,2291
-642.2969470804776,2385
-639.6486359007902,2362
-637.0010546587141,2414
-634.3542031776476,2460
-631.7080812809096,2376
-629.0626887917401,2414
-626.4180255333008,2329
-623.7740913286734,2438
-621.1308860008619,2368
-618.4884093727904,2427
-615.8466612673046,2333
-613.2056415071715,2345
-610.5653499150785,2464
-607.9257863136347,2467
-605.28695052537,2421
-602.6488423727357,2395
-600.0114616781036,2453
-597.3748082637674,2447
-594.7388819519412,2461
-592.1036825647604,2496
-589.4692099242818,2545
-586.8354638524829,2468
-584.2024441712624,2402
-581.5701507024403,2424
-578.9385832677575,2488
-576.3077416888759,2447
-573.6776257873787,2474
-571.0482353847704,2458
-568.4195703024757,2413
-565.7916303618415,2488
-563.164415384135,2591
-560.5379251905453,2464
-557.9121596021815,2436
-555.2871184400748,2500
-552.6628015251767,2407
-550.0392086783606,2505
-547.4163397204204,2467
-544.794194472071,2507
-542.1727727539491,2558
-539.5520743866118,2607
-536.9320991905377,2616
-534.3128469861261,2599
-531.6943175936979,2578
-529.0765108334947,2630
-526.4594265256793,2703
-523.8430644903358,2787
-521.2274245474689,2871
-518.612506517005,3035
-515.9983102187913,3007
-513.3848354725959,3133
-510.77208209810846,3117
-508.16004991493924,3041
-505.5487387426199,3298
-502.9381484006032,3271
-500.3282787082628,3212
-497.71912948489364,3167
-495.1107005497117,3039
-492.5029917218539,2998
-489.8960028203786,2850
-487.28973366426493,2775
-484.68418407241325,2685
-482.07935386364494,2680
-479.47524285670266,2736
-476.87185087025,2797
-474.2691777228715,2728
-471.66722323307334,2687
-469.0659872192821,2709
-466.4654694998459,2766
-463.86566989303384,2798
-461.26658821703614,2704
-458.66822428996414,2803
-456.07057792985,2781
-453.4736489546475,2723
-450.877437182231,2750
-448.28194243039627,2605
-445.68716451686,2757
-443.09310325926003,2710
-440.49975847515555,2731
-437.9071299820263,2687
-435.31521759727354,2648
-432.72402113821954,2646
-430.13354042210767,2658
-427.5437752661022,2739
-424.95472548728867,2835
-422.36639090267386,2814
-419.7787713291855,2828
-417.1918665836721,2825
-414.60567648290385,2846
-412.0202008435715,2766
-409.4354394822874,2770
-406.8513922155845,2908
-404.26805885991723,2872
-401.685439231661,2902
-399.103533147112,2912
-396.522340422488,2858
-393.9418608739278,2726
-391.3620943174908,2722
-388.7830405691583,2684
-386.2046994448317,2534
-383.6270707603344,2516
-381.05015433141045,2229
-378.473949973725,2113
-375.8984575028645,1952
-373.32367673433623,1730
-370.74960748356875,1533
-368.1762495659117,1371
-365.60360279663576,1182
-363.03166699093265,1030
-360.4604419639154,861
-357.8899275306178,725
-355.32012350599507,685
-352.7510297049233,639
-350.1826459421999,626
-347.61497203254316,585
-345.04800779059235,530
-342.4817530309082,557
-339.91620756797226,548
-337.35137121618743,641
-334.7872437898774,630
-332.22382510328725,537
-329.66111497058273,460
-327.09911320585127,499
-324.53781962310075,522
-321.9772340362607,508
-319.4173562591816,505
-316.8581861056348,532
-314.2997233893127,495
-311.7419679238294,478
-309.1849195227194,525
-306.62857799943856,617
-304.0729431673641,599
-301.51801483979375,574
-298.963792829947,535
-296.41027695096386,497
-293.85746701590574,526
-291.3053628377552,542
-288.7539642294155,598
-286.2032710037115,630
-283.65328297338897,632
-281.1039999511146,570
-278.5554217494762,576
-276.007548180983,580
-273.4603790580651,578
-270.9139141930734,528
-268.3681533982807,554
-265.8230964858798,557
-263.27874326798565,663
-260.7350935566336,740
-258.1921471637804,701
-255.6499039013039,653
-253.10836358100266,705
-250.56752601459698,777
-248.02739101372765,770
-245.48795838995704,766
-242.94922795476816,722
-240.41119951956557,773
-237.8738728956746,715
-235.33724789434166,727
-232.80132432673452,693
-230.2661020039418,659
-227.73158073697357,693
-225.19776033676033,804
-222.66464061415422,811
-220.1322213799284,750
-217.60050244477725,772
-215.06948361931552,810
-212.53916471408013,899
-210.00954553952818,811
-207.48062590603843,783
-204.9524056239104,828
-202.4248845033651,919
-199.8980623545441,892
-197.37193898751036,871
-194.84651421224817,930
-192.32178783866232,865
-189.79775967657952,983
-187.27442953574644,967
-184.7517972258321,940
-182.2298625564256,886
-179.7086253370378,845
-177.18808537710026,860
-174.66824248596583,865
-172.14909647290835,978
-169.6306471471229,866
-167.11289431772548,847
-164.59583779375328,871
-162.07947738416453,949
-159.5638128978386,1187
-157.04884414357605,1242
-154.53457093009854,1324
-152.02099306604828,1049
-149.50811035998936,964
-146.99592262040665,1155
-144.48442965570587,1447
-141.97363127421409,1411
-139.46352728417958,1485
-136.95411749377126,1322
-134.44540171107985,1086
-131.93737974411636,1015
-129.43005140081357,1055
-126.92341648902493,1357
-124.41747481652521,1664
-121.91222619101006,1970
-119.40767042009657,1790
-116.90380731132257,1387
-114.40063667214702,1756
-111.8981583099503,2463
-109.3963720320337,3928
-106.89527764561933,6437
-104.39487495785067,10218
-101.89516377579241,14186
-99.39614390642998,20143
-96.89781515667039,23948
-94.40017733334128,27750
-91.90323024319173,32912
-89.40697369289148,32782
-86.91140748903172,21215
-84.41653143812482,12089
-81.92234534660395,11249
-79.42884902082358,20544
-76.93604226705907,35303
-74.4439248915071,44218
-71.95249670028534,42169
-69.46175749943245,28684
-66.97170709490854,16150
-64.48234529259423,8894
-61.99367189829195,6258
-59.50568671772464,5590
-57.01838955653636,6420
-54.53178022029283,9288
-52.045858514480074,10504
-49.560624244506016,12903
-47.07607721569923,12848
-44.59221723330904,13972
-42.10904410250669,16087
-39.62655762838392,18664
-37.14475761595372,17512
-34.66364387015028,18005
-32.18321619582866,16181
-29.70347439776515,18458
-27.224418280657005,22614
-24.74604764912317,24316
-22.26836230770266,33440
-19.7913620608565,64556
-17.315046712966478,65037
-14.83941606833514,65037
-12.36446993118659,65037
-9.89020810566592,65037
-7.416630395839093,65037
-4.94373660569363,65037
-2.471526539137585,65037
-6.821210263296962E-13,65037
2.47084320796705,65037
4.941003281093458,65037
7.410480415786196,65037
9.879274808531363,65037
12.347386655893956,65037
14.814816154518212,65037
17.28156350112681,65037
19.74762889252179,65037
22.21301252558385,24969
24.67771459727237,6208
27.141735304626195,4590
29.605074844762612,6215
32.06773341487792,6865
34.52971121224755,6202
36.99100843422559,4888
39.45162527824516,3709
41.91156194181792,2822
44.370818622535126,2907
46.82939551806646,3000
49.287292826160524,4524
51.74451074464503,5848
54.201049471426245,4589
56.65690920448981,2632
59.112090141899785,1500
61.56659248179983,1835
64.02041642241159,2287
66.4735621620365,2619
68.92602989905402,3560
71.37781983192338,4276
73.82893215918205,3932
76.27936707944684,2750
78.72912479141326,2334
81.17820549385567,2110
83.62660938562783,1982
86.07433666566146,1711
88.5213875329681,1591
90.96776218663751,1664
93.41346082583925,1598
95.85848364982041,2124
98.30283085790859,2428
100.7465026495089,1701
103.18949922410604,1508
105.63182078126385,1305
108.07346752062438,1258
110.51443964190923,1146
112.95473734491827,1155
115.39436082953114,1382
117.83331029570547,1209
120.27158594347827,1268
122.7091879729652,1188
125.1461165843615,1141
127.58237197794062,986
130.01795435405518,1077
132.4528639131364,1221
134.88710085569494,1282
137.32066538231982,1293
139.75355769367923,1434
142.1857779905207,1361
144.61732647366978,1284
147.04820334403132,1164
149.47840880258934,1198
151.90794305040674,1223
154.33680628862487,1446
156.76499871846443,1657
159.19252054122433,1812
161.61937195828352,1926
164.04555317109896,2232
166.47106438120693,2508
168.89590579022217,2950
171.320077599839,3207
173.7435800118302,3308
176.16641322804742,3753
178.58857745042144,3752
181.01007288096173,4007
183.43089972175687,4120
185.85105817497413,4288
188.27054844285988,4505
190.6893707277394,4751
193.10752523201643,4879
195.5250121581745,5079
197.9418317087751,5221
200.3579840864594,5172
202.7734694939469,5044
205.18828813403627,5264
207.6024402096051,5326
210.01592592360964,5280
212.42874547908548,5294
214.84089907914665,5313
217.2523869269868,5370
219.66320922587727,5469
222.0733661791695,5379
224.48285799029293,5419
226.8916848627572,5525
229.29984700014882,5594
231.7073446061355,5747
234.11417788446204,5633
236.520347038953,5791
238.92585227351185,5890
241.33069379212054,5950
243.73487179884035,6016
246.1383864978112,6016
248.541238093252,6091
250.9434267894609,5944
253.34495279081432,5987
255.74581630176783,6018
258.1460175268563,6080
260.54555667069314,6123
262.9444339379703,6070
265.3426495334594,6028
267.7402036620107,6005
270.1370965285529,5806
272.53332833809407,5828
274.9288992957214,5547
277.32380960660055,5406
279.718059475976,5507
282.1116491091717,5409
284.5045787115897,5425
286.89684848871195,5369
289.2884586460981,5438
291.67940938938807,5395
294.0697009242996,5438
296.4593334566299,5454
298.84830719225477,5465
301.23662233712923,5478
303.6242790972866,5386
306.01127767884,5343
308.39761828798066,5277
310.78330113097934,5271
313.16832641418534,5335
315.5526943440269,5115
317.9364051270112,5314
320.3194589697242,5353
322.70185607883093,5292
325.0835966610754,5185
327.4646809232805,5089
329.8451090723478,5010
332.2248813152577,5156
334.6039978590701,5226
336.9824589109231,5242
339.36026467803447,5194
341.7374153677,5036
344.113911187295,5055
346.48975234427337,5062
348.8649390461686,5064
351.2394715005918,5168
353.61334991523415,5045
355.9865744978655,5128
358.35914545633375,5285
360.73106299856715,5061
363.10232733257146,5028
365.47293866643247,5101
367.84289720831396,5127
370.2122031664593,5014
372.5808567491905,5045
374.9488581649083,5049
377.31620762209275,5103
379.6829053293021,5117
382.0489514951745,5005
384.4143463284262,4905
386.7790900378528,4885
389.14318283232853,4988
391.50662492080653,4874
393.86941651231916,4955
396.23155781597745,4958
398.5930490409713,4975
400.9538903965696,4997
403.3140820921202,4968
405.6736243370498,4980
408.03251734086336,5056
410.3907613131465,5060
412.74835646356166,5020
415.10530300185144,4920
417.4616011378372,5033
419.81725108141893,4909
422.1722530425758,4965
424.5266072313656,4904
426.880313857925,5138
429.2333731324701,4971
431.58578526529516,5001
433.9375504667738,4936
436.2886689473588,5022
438.63914091758113,4960
440.9889665880513,5115
443.33814616945835,5041
445.68667987257015,5097
448.03456790823395,4917
450.3818104873759,4814
452.72840782100013,4981
455.07436012019105,4989
457.41966759611057,4963
459.7643304600007,4902
462.10834892318155,4948
464.4517231970525,4976
466.79445349309174,5001
469.1365400228566,5127
471.4779829979826,5039
473.81878263018564,5077
476.15893913125876,5097
478.4984527130747,5157
480.8373235875855,5067
483.17555196682144,5155
485.5131380628919,5094
487.8500820879857,5231
490.1863842543697,5385
492.52204477439034,5367
494.8570638604725,5499
497.1914417251204,5699
499.52517858091653,5982
501.85827464052306,6313
504.19073011668036,6445
506.5225452222086,6674
508.85372017000566,6662
511.18425517304956,6671
513.514150444396,7023
515.8434061971808,7951
518.1720226446176,8540
520.4999999999999,8777
522.8273384766991,8468
525.1540382881666,8165
527.480099647932,7809
529.8055227696037,6909
532.1303078668694,6190
534.454455153496,5625
536.777964843328,5428
539.1008371502907,5285
541.4230722883866,5341
543.744670471698,5306
546.0656319143858,5407
548.3859568306899,5397
550.7056454349294,5240
553.0246979415016,5113
555.3431145648834,5187
557.6608955196306,5136
559.978041020377,5180
562.2945512818363,5204
564.6104265188006,5209
566.9256669461412,5279
569.2402727788082,5146
571.5542442318302,5135
573.8675815203156,5221
576.1802848594508,5264
578.4923544645015,5168
580.8037905508126,5285
583.114593333807,5278
585.4247630289875,5300
587.7342998519354,5298
590.0432040183106,5251
592.3514757438526,5267
594.6591152443794,5362
596.9661227357875,5321
599.2724984340531,5256
601.578242555231,5182
603.8833553154542,5210
606.1878369309362,5239
608.4916876179676,5250
610.7949075929192,5352
613.0974970722403,5324
615.3994562724587,5271
617.7007854101818,5333
620.0014847020951,5388
622.3015543649641,5293
624.6009946156324,5272
626.8998056710224,5443
629.1979877481361,5287
631.4955410640538,5399
633.7924658359349,5413
636.0887622810175,5454
638.3844306166192,5409
640.6794710601358,5357
642.9738838290426,5541
645.2676691408932,5439
647.5608272133207,5536
649.853358264037,5460
652.1452625108324,5426
654.4365401715764,5466
656.7271914642178,5505
659.0172166067838,5417
661.3066158173809,5430
663.5953893141935,5495
665.8835373154867,5483
668.1710600396028,5377
670.4579577049639,5482
672.7442305300709,5553
675.0298787335033,5426
677.3149025339197,5513
679.599302150058,5533
681.8830778007342,5638
684.1662297048437,5530
686.4487580813608,5422
688.7306631493387,5518
691.0119451279091,5618
693.2926042362834,5569
695.5726406937516,5569
697.8520547196814,5521
700.1308465335215,5603
702.4090163547982,5478
704.6865644031171,5529
706.9634908981619,5529
709.2397960596965,5556
711.5154801075631,5633
713.7905432616823,5555
716.0649857420548,5515
718.3388077687592,5443
720.612009561953,5519
722.8845913418733,5509
725.1565533288352,5645
727.427895743234,5531
729.6986188055427,5518
731.9687227363137,5635
734.238207756178,5624
736.5070740858458,5557
738.7753219461066,5571
741.0429515578281,5591
743.3099631419569,5513
745.5763569195191,5518
747.8421331116193,5611
750.1072919394409,5645
752.3718336242467,5562
754.6357583873777,5549
756.8990664502545,5505
759.1617580343765,5462
761.423833361321,5464
763.6852926527457,5604
765.9461361303862,5670
768.206364016058,5496
770.4659765316536,5610
772.7249738991469,5566
774.9833563405886,5724
777.2411240781092,5609
779.4982773339183,5589
781.7548163303044,5565
784.010741289634,5540
786.2660524343538,5697
788.5207499869881,5662
790.7748341701416,5668
793.0283052064964,5500
795.2811633188143,5616
797.5334087299362,5585
799.7850416627813,5666
802.0360623403484,5768
804.2864709857143,5652
806.5362678220353,5712
808.7854530725468,5656
811.0340269605625,5590
813.2819897094754,5593
815.5293415427581,5684
817.77608268396,5798
820.0222133567116,5811
822.2677337847211,5803
824.5126441917765,5750
826.7569448017433,5573
829.0006358385675,5715
831.2437175262731,5674
833.4861900889629,5713
835.7280537508192,5687
837.9693087361026,5738
840.2099552691533,5756
842.4499935743896,5837
844.689423876309,5730
846.9282463994886,5637
849.1664613685833,5769
851.4040690083276,5758
853.6410695435349,5762
855.877463199097,5673
858.1132501999847,5760
860.3484307712487,5839
862.5830051380175,5779
864.8169735254988,5851
867.0503361589791,5683
869.2830932638243,5706
871.5152450654786,5978
873.7467917894654,5666
875.9777336613873,5719
878.2080709069252,5787
880.4378037518389,5799
882.666932421968,5807
884.8954571432301,5813
887.1233781416219,5783
889.3506956432192,5749
891.5774098741766,5792
893.803521060728,5908
896.0290294291852,5799
898.2539352059397,5769
900.4782386174619,5797
902.7019398903011,5780
904.925039251085,5756
907.147536926521,5784
909.3694331433943,5758
911.59072812857,5783
913.8114221089921,5772
916.0315153116827,5732
918.2510079637437,5825
920.4699002923547,5840
922.6881925247761,5726
924.905884888345,5813
927.1229776104793,5854
929.3394709186747,5759
931.555365040506,5834
933.7706602036275,5781
935.9853566357709,5741
938.1994545647489,5947
940.4129542184515,5844
942.6258558248488,5904
944.8381596119883,5804
947.0498658079974,5799
949.2609746410825,5771
951.4714863395287,5769
953.6814011316998,5792
955.8907192460387,5895
958.0994409110671,5887
960.3075663553858,5810
962.5150958076741,5859
964.7220294966913,5918
966.928367651274,5802
969.1341105003388,5890
971.3392582728806,5737
973.5438111979742,5795
975.747769504772,5907
977.9511334225061,5832
980.153903180487,5966
982.3560790081052,5831
984.5576611348289,5832
986.7586497902058,5886
988.9590452038618,5807
991.158847605503,5693
993.3580572249133,5746
995.5566742919558,5665
997.7546990365728,5731
999.952131688785,5656
1002.1489724786926,5674
1004.3452216364743,5631
1006.5408793923874,5676
1008.7359459767691,5693
1010.9304216200343,5627
1013.1243065526781,5568
1015.3176010052733,5583
1017.510305208472,5524
1019.7024193930064,5529
1021.8939437896848,5620
1024.0848786293977,5592
1026.2752241431122,5493
1028.4649805618747,5595
1030.6541481168115,5517
1032.842727039127,5514
1035.0307175601051,5589
1037.2181199111074,5721
1039.4049343235752,5668
1041.591161029029,5640
1043.7768002590683,5516
1045.9618522453698,5592
1048.1463172196918,5579
1050.3301954138697,5573
1052.513487059818,5598
1054.69619238953,5510
1056.8783116350783,5566
1059.0598450286152,5438
1061.2407928023704,5593
1063.4211551886528,5685
1065.6009324198508,5556
1067.780124728432,5527
1069.9587323469414,5500
1072.1367555080046,5563
1074.314194444325,5481
1076.4910493886855,5437
1078.667320573947,5511
1080.843008233051,5413
1083.0181125990161,5510
1085.1926339049414,5564
1087.3665723840027,5522
1089.5399282694575,5561
1091.7127017946405,5557
1093.8848931929647,5415
1096.0565026979243,5518
1098.2275305430899,5362
1100.3979769621128,5558
1102.567842188722,5425
1104.737126456726,5493
1106.9058300000124,5459
1109.0739530525475,5393
1111.2414958483764,5446
1113.4084586216231,5240
1115.5748416064907,5469
1117.7406450372605,5427
1119.9058691482942,5453
1122.0705141740304,5566
1124.2345803489884,5601
1126.3980679077658,5654
1128.5609770850388,5573
1130.7233081155623,5395
1132.8850612341707,5539
1135.0462366757774,5503
1137.2068346753745,5563
1139.3668554680326,5460
1141.526299288901,5502
1143.68516637321,5404
1145.8434569562655,5587
1148.001171273455,5461
1150.158309560244,5532
1152.3148720521767,5442
1154.470858984876,5363
1156.626270594044,5489
1158.7811071154629,5567
1160.9353687849912,5432
1163.089055838569,5526
1165.242168512213,5581
1167.3947070420209,5588
1169.5466716641677,5531
1171.6980626149075,5460
1173.8488801305748,5443
1175.9991244475814,5409
1178.1487958024186,5440
1180.2978944316555,5396
1182.4464205719428,5517
1184.5943744600072,5332
1186.7417563326567,5348
1188.8885664267755,5353
1191.0348049793297,5383
1193.1804722273619,5492
1195.325568407995,5395
1197.4700937584303,5453
1199.614048515948,5503
1201.7574329179074,5375
1203.900247201746,5483
1206.042491604982,5378
1208.1841663652099,5523
1210.3252717201053,5558
1212.465807907422,5629
1214.6057751649923,5526
1216.7451737307279,5529
1218.8840038426192,5543
1221.0222657387353,5500
1223.1599596572241,5441
1225.2970858363137,5617
1227.4336445143094,5538
1229.5696359295966,5558
1231.705060320639,5638
1233.8399179259786,5558
1235.9742089842384,5616
1238.107933734118,5534
1240.2410924143974,5670
1242.373685263935,5640
1244.5057125216676,5581
1246.6371744266116,5622
1248.7680712178621,5562
1250.898403134593,5619
1253.028170416058,5425
1255.1573733015875,5537
1257.2860120305932,5554
1259.4140868425648,5581
1261.54159797707,5531
1263.6685456737569,5579
1265.7949301723515,5441
1267.9207517126597,5469
1270.046010534565,5514
1272.1707068780306,5590
1274.2948409830983,5506
1276.4184130898889,5598
1278.541423438603,5668
1280.6638722695184,5699
1282.785759822993,5689
1284.9070863394636,5580
1287.0278520594447,5625
1289.1480572235314,5617
1291.2677020723963,5627
1293.3867868467923,5767
1295.5053117875495,5771
1297.623277135579,5741
1299.740683131868,5755
1301.8575300174857,5728
1303.973818033578,5822
1306.0895474213703,5892
1308.2047184221678,5852
1310.3193312773528,5750
1312.4333862283888,5717
1314.5468835168163,5867
1316.659823384255,5779
1318.7722060724045,5828
1320.8840318230418,5579
1322.9953008780249,5697
1325.1060134792888,5732
1327.2161698688478,5747
1329.3257702887959,5782
1331.4348149813054,5865
1333.5433041886276,5795
1335.6512381530933,5874
1337.7586171171101,5707
1339.8654413231675,5799
1341.9717110138317,5768
1344.0774264317488,5739
1346.1825878196432,5843
1348.2871954203192,5706
1350.3912494766587,5769
1352.4947502316231,5849
1354.5976979282532,5688
1356.7000928096686,5877
1358.8019351190665,5666
1360.9032250997243,5700
1363.0039629949988,5718
1365.1041490483235,5658
1367.2037835032133,5799
1369.3028666032606,5859
1371.401398592137,5723
1373.4993797135926,5830
1375.5968102114575,5754
1377.6936903296396,5830
1379.7900203121262,5825
1381.8858004029835,5782
1383.9810308463561,5695
1386.075711886469,5653
1388.1698437676241,5668
1390.2634267342032,5873
1392.356461030667,5730
1394.4489469015557,5781
1396.5408845914872,5728
1398.6322743451592,5749
1400.7231164073469,5854
1402.813411022907,5908
1404.903158436773,5892
1406.9923588939578,5857
1409.0810126395531,5811
1411.1691199187303,5804
1413.2566809767386,5930
1415.343696058907,5839
1417.4301654106425,5874
1419.5160892774315,5803
1421.6014679048399,5869
1423.6863015385125,5765
1425.7705904241707,5869
1427.8543348076178,5893
1429.9375349347342,5951
1432.0201910514802,5826
1434.102303403894,5709
1436.1838722380944,5917
1438.2648978002767,5971
1440.3453803367174,6038
1442.4253200937692,6176
1444.5047173178677,6069
1446.5835722555234,6195
1448.6618851533285,6159
1450.739656257952,6296
1452.8168858161434,6308
1454.8935740747306,6311
1456.96972128062,6314
1459.045327680797,6285
1461.120393522327,6404
1463.1949190523528,6438
1465.2689045180973,6556
1467.3423501668608,6638
1469.415256246024,6557
1471.4876230030463,6754
1473.559450685465,6534
1475.6307395408976,6813
1477.7014898170391,6768
1479.771701761665,6834
1481.8413756226287,6871
1483.9105116478618,6933
1485.9791100853772,6932
1488.0471711832643,6895
1490.1146951896926,6958
1492.1816823529098,7202
1494.2481329212433,7178
1496.3140471430984,7152
1498.3794252669609,7106
1500.4442675413939,7130
1502.5085742150404,7318
1504.572345536622,7218
1506.6355817549388,7289
1508.6982831188702,7289
1510.7604498773744,7257
1512.8220822794883,7463
1514.8831805743293,7358
1516.9437450110909,7350
1519.003775839048,7478
1521.0632733075522,7584
1523.1222376660367,7501
1525.1806691640113,7542
1527.2385680510652,7510
1529.2959345768668,7633
1531.3527689911643,7649
1533.4090715437833,7623
1535.4648424846291,7649
1537.5200820636855,7834
1539.5747905310159,7987
1541.6289681367616,7968
1543.6826151311434,7966
1545.7357317644614,8064
1547.7883182870937,8027
1549.8403749494987,8113
1551.8919020022113,8196
1553.9428996958477,8307
1555.9933682811015,8368
1558.0433080087469,8444
1560.0927191296346,8582
1562.1416018946961,8600
1564.1899565549415,8744
1566.2377833614592,8722
1568.2850825654164,8652
1570.3318544180606,8666
1572.3780991707158,8417
1574.423817074788,8314
1576.4690083817595,8027
1578.5136733431923,7901
1580.5578122107272,7844
1582.601425236085,7575
1584.6445126710646,7386
1586.6870747675434,7221
1588.7291117774776,7105
1590.7706239529034,6849
1592.8116115459347,6787
1594.8520748087658,6742
1596.8920139936686,6439
1598.9314293529933,6376
1600.9703211391711,6372
1603.008689604711,6273
1605.0465350022005,6082
1607.0838575843068,6175
1609.1206576037753,6108
1611.1569353134305,6040
1613.1926909661765,5974
1615.2279248149953,5990
1617.2626371129481,5911
1619.2968281131757,5762
1621.3304980688963,5950
1623.3636472334088,5817
1625.39627586009,5688
1627.428384202396,5866
1629.459972513861,5600
1631.4910410480993,5647
1633.5215900588028,5742
1635.551619799744,5585
1637.5811305247717,5604
1639.6101224878166,5656
1641.6385959428862,5689
1643.6665511440683,5539
1645.693988345528,5600
1647.7209078015112,5665
1649.7473097663405,5605
1651.7731944944203,5491
1653.7985622402307,5543
1655.823413258333,5570
1657.847747803366,5511
1659.8715661300494,5482
1661.8948684931793,5536
1663.9176551476316,5456
1665.9399263483624,5448
1667.9616823504057,5502
1669.982923408873,5395
1672.0036497789574,5510
1674.0238617159293,5316
1676.043559475138,5497
1678.0627433120121,5383
1680.081413482059,5484
1682.0995702408654,5450
1684.117213844096,5367
1686.134344547495,5421
1688.1509626068864,5449
1690.1670682781705,5344
1692.182661817329,5487
1694.1977434804217,5483
1696.2123135235875,5426
1698.226372203043,5409
1700.2399197750851,5376
1702.2529564960905,5553
1704.2654826225112,5479
1706.277498410882,5412
1708.2890041178139,5342
1710.2999999999988,5379
1712.3104863142066,5585
1714.3204633172854,5408
1716.329931266163,5317
1718.3388904178469,5384
1720.3473410294214,5455
1722.3552833580516,5410
1724.3627176609807,5456
1726.3696441955308,5463
1728.3760632191033,5331
1730.3819749891782,5282
1732.3873797633146,5468
1734.3922777991502,5322
1736.3966693544012,5377
1738.4005546868639,5473
1740.4039340544127,5379
1742.406807715001,5264
1744.4091759266616,5396
1746.4110389475054,5377
1748.4123970357223,5237
1750.413250449582,5275
1752.4135994474318,5332
1754.4134442876993,5284
1756.4127852288902,5263
1758.4116225295893,5240
1760.4099564484595,5434
1762.407787244244,5329
1764.405115175764,5302
1766.4019405019203,5239
1768.3982634816916,5240
1770.3940843741357,5242
1772.3894034383907,5226
1774.3842209336717,5251
1776.378537119274,5298
1778.372352254571,5189
1780.3656665990156,5236
1782.3584804121397,5153
1784.3507939535534,5230
1786.3426074829463,5195
1788.3339212600863,5246
1790.3247355448211,5200
1792.3150505970766,5283
1794.3048666768573,5157
1796.2941840442477,5165
1798.2830029594106,5249
1800.2713236825884,5332
1802.2591464741004,5191
1804.2464715943465,5177
1806.2332993038058,5277
1808.2196298630352,5261
1810.2054635326708,5218
1812.190800573428,5276
1814.175641246101,5283
1816.1599858115628,5318
1818.1438345307652,5248
1820.127187664738,5276
1822.1100454745924,5207
1824.092408221516,5167
1826.0742761667766,5173
1828.055649571721,5193
1830.0365286977735,5137
1832.0169138064398,5084
1833.9968051593014,5250
1835.9762030180214,5169
1837.9551076443408,5197
1839.9335193000788,5174
1841.9114382471344,5290
1843.888864747485,5263
1845.8657990631878,5122
1847.842241456378,5031
1849.8181921892697,5224
1851.7936515241558,5116
1853.7686197234098,5093
1855.7430970494815,5159
1857.7170837649014,5249
1859.6905801322787,5125
1861.6635864143004,5247
1863.6361028737338,5138
1865.608129773424,5150
1867.5796673762961,5053
1869.5507159453537,5236
1871.521275743678,5204
1873.4913470344313,5219
1875.4609300808534,5267
1877.4300251462632,5055
1879.3986324940588,5208
1881.366752387717,5138
1883.3343850907936,5299
1885.3015308669228,5227
1887.268189979819,5236
1889.2343626932739,5296
1891.2000492711595,5418
1893.1652499774254,5212
1895.1299650761011,5318
1897.0941948312952,5204
1899.0579395071945,5296
1901.0211993680641,5216
1902.98397467825,5410
1904.9462657021745,5304
1906.9080727043415,5072
1908.869395949332,5196
1910.8302357018065,5225
1912.790592226504,5143
1914.7504657882428,5209
1916.7098566519212,5210
1918.6687650825133,5153
1920.6271913450764,5191
1922.5851357047422,5185
1924.5425984267245,5203
1926.499579776314,5221
1928.4560800188833,5138
1930.4120994198802,5138
1932.367638244833,5178
1934.32269675935,5156
1936.2772752291175,5124
1938.231373919899,5252
1940.1849930975404,5110
1942.1381330279637,5209
1944.0907939771696,5204
1946.0429762112412,5177
1947.9946799963363,5119
1949.9459055986945,5282
1951.896653284633,5198
1953.8469233205478,5143
1955.7967159729142,5116
1957.7460315082863,5193
1959.6948701932974,5128
1961.6432322946594,5226
1963.5911180791632,5078
1965.5385278136787,5111
1967.4854617651545,5259
1969.4319202006182,5200
1971.377903387176,5179
1973.3234115920136,5259
1975.268445082395,5294
1977.2130041256642,5125
1979.1570889892423,5016
1981.1006999406304,5097
1983.04383724741,5185
1984.986501177238,5129
1986.928691997853,5139
1988.8704099770712,5177
1990.811655382789,5120
1992.7524284829801,5093
1994.692729545698,5119
1996.6325588390755,5139
1998.5719166313224,5149
2000.5108031907307,5030
2002.4492187856677,5022
2004.387163684583,5291
2006.3246381560011,5010
2008.2616424685298,5121
2010.1981768908527,5123
2012.1342416917332,5088
2014.069837140014,5118
2016.0049635046162,5191
2017.9396210545406,5137
2019.8738100588666,5109
2021.8075307867502,5100
2023.740783507431,5075
2025.6735684902228,5062
2027.6058860045214,5076
2029.5377363198004,5138
2031.4691197056118,5156
2033.4000364315875,5156
2035.3304867674374,5122
2037.260470982952,5031
2039.189989347998,5067
2041.1190421325232,5227
2043.047629606554,5045
2044.9757520401945,5078
2046.9034097036288,5071
2048.8306028671195,5056
2050.7573318010086,5251
2052.683596775716,5091
2054.609398061742,5239
2056.5347359296647,5059
2058.4596106501403,5159
2060.384022493906,5200
2062.3079717317764,5261
2064.231458634646,5168
2066.1544834734873,5087
2068.077046519352,5065
2069.99914804337,5164
2071.9207883167524,5174
2073.8419676107865,5131
2075.7626861968406,5016
2077.6829443463607,5215
2079.6027423308715,5172
2081.522080421977,5077
2083.440958891362,5172
2085.359378010786,5162
2087.2773380520907,5216
2089.194839287196,5166
2091.111881988101,5155
2093.0284664268825,5311
2094.9445928756973,5108
2096.86026160678,5155
2098.775472892446,5173
2100.690227005088,5175
2102.604524217178,5355
2104.5183648012676,5131
2106.431749029985,5208
2108.34467717604,5255
2110.2571495122206,5087
2112.169166311393,4989
2114.080727846503,5167
2115.9918343905747,5202
2117.902486216711,5110
2119.8126835980956,5109
2121.722426807987,5220
2123.6317161197285,5175
2125.5405518067364,5314
2127.448934142509,5261
2129.356863400624,5101
2131.264339854737,5298
2133.1713637785815,5231
2135.077935445972,5275
2136.9840551308002,5142
2138.889723107037,5212
2140.7949396487334,5120
2142.699705030018,5293
2144.6040195250994,5284
2146.507883408264,5287
2148.4112969538774,5327
2150.3142604363848,5282
2152.2167741303097,5274
2154.1188383102535,5295
2156.0204532508997,5356
2157.9216192270064,5211
2159.822336513414,5330
2161.7226053850413,5279
2163.622426116884,5170
2165.5217989840185,5153
2167.4207242616,5223
2169.319202224862,5341
2171.2172331491165,5393
2173.1148173097563,5166
2175.0119549822507,5343
2176.90864644215,5367
2178.8048919650823,5377
2180.7006918267534,5385
2182.596046302952,5361
2184.4909556695407,5287
2186.3854202024645,5350
2188.279440177746,5360
2190.173015871487,5386
2192.066147559868,5336
2193.958835519149,5418
2195.851080025667,5339
2197.7428813558417,5271
2199.6342397861667,5397
2201.5251555932186,5423
2203.415629053651,5296
2205.3056604441986,5415
2207.19525004167,5394
2209.084398122958,5347
2210.9731049650327,5376
2212.861370844941,5393
2214.749196039812,5307
2216.636580826851,5478
2218.523525483344,5463
2220.410030286655,5387
2222.296095514226,5421
2224.1817214435805,5387
2226.066908352319,5420
2227.951656518121,5445
2229.835966218746,5629
2231.71983773203,5411
2233.6032713358913,5458
2235.486267308324,5474
2237.3688259274036,5345
2239.2509474712824,5377
2241.132632218193,5503
2243.013880446447,5443
2244.8946924344323,5312
2246.7750684606203,5485
2248.6550088035574,5383
2250.534513741871,5452
2252.413583554265,5517
2254.292218519526,5468
2256.170418916517,5315
2258.0481850241786,5351
2259.925517121534,5544
2261.8024154876825,5505
2263.678880401803,5617
2265.5549121431536,5427
2267.430510991071,5409
2269.305677224971,5321
2271.180411124348,5323
2273.0547129687766,5460
2274.9285830379076,5445
2276.8020216114737,5425
2278.6750289692845,5412
2280.5476053912294,5461
2282.4197511572766,5432
2284.2914665474727,5461
2286.162751841943,5479
2288.0336073208937,5438
2289.904033264608,5415
2291.774029953448,5452
2293.6435976678554,5429
2295.5127366883517,5369
2297.381447295534,5359
2299.2497297700825,5427
2301.1175843927526,5451
2302.9850114443825,5386
2304.852011205885,5424
2306.7185839582553,5317
2308.5847299825664,5392
2310.4504495599676,5402
2312.3157429716925,5351
2314.1806104990483,5303
2316.0450524234247,5421
2317.9090690262888,5366
2319.772660589186,5346
2321.635827393742,5299
2323.498569721661,5451
2325.3608878547248,5368
2327.2227820747967,5237
2329.0842526638157,5431
2330.945299903803,5452
2332.805924076857,5274
2334.6661254651535,5461
2336.525904350951,5343
2338.3852610165827,5367
2340.244195744464,5343
2342.102708817088,5336
2343.9608005170253,5401
2345.8184711269287,5418
2347.675720929526,5354
2349.532550207628,5315
2351.38895924412,5333
2353.24494832197,5325
2355.100517724223,5326
2356.955667734004,5301
2358.810398634514,5418
2360.664710709037,5246
2362.5186042409337,5368
2364.3720795136437,5332
2366.225136810686,5423
2368.0777764156583,5384
2369.929998612237,5383
2371.7818036841777,5459
2373.633191915315,5355
2375.484163589562,5449
2377.3347189909114,5372
2379.184858403434,5436
2381.03458211128,5380
2382.8838903986775,5340
2384.732783549936,5519
2386.5812618494406,5536
2388.4293255816588,5473
2390.2769750311327,5430
2392.1242104824883,5431
2393.971032220427,5488
2395.8174405297295,5412
2397.6634356952563,5358
2399.509018001947,5549
2401.3541877348193,5575
2403.1989451789705,5446
2405.043290619576,5431
2406.8872243418905,5557
2408.730746631247,5483
2410.5738577730594,5451
2412.4165580528183,5438
2414.258847756095,5485
2416.100727168537,5394
2417.9421965758734,5509
2419.783256263912,5372
2421.623906518538,5294
2423.4641476257157,5487
2425.303979871491,5510
2427.143403541984,5592
2428.9824189233977,5428
2430.821026302012,5554
2432.6592259641866,5614
2434.497018196361,5552
2436.33440328505,5521
2438.171381516851,5552
2440.00795317844,5502
2441.844118556569,5424
2443.6798779380724,5349
2445.5152316098606,5462
2447.3501798589255,5535
2449.1847229723357,5509
2451.0188612372403,5494
2452.8525949408663,5543
2454.6859243705203,5505
2456.518849813587,5482
2458.3513715575314,5532
2460.183489889895,5533
2462.015205098301,5656
2463.8465174704493,5618
2465.67742729412,5544
2467.5079348571717,5565
2469.338040447542,5631
2471.1677443532476,5547
2472.9970468623833,5574
2474.825948263123,5622
2476.6544488437207,5562
2478.482548892508,5657
2480.310248697896,5527
2482.137548548374,5551
2483.9644487325118,5548
2485.790949538956,5632
2487.617051256433,5618
2489.44275417375,5612
2491.26805857979,5655
2493.0929647635157,5557
2494.917473013971,5753
2496.741583620276,5633
2498.5652968716304,5663
2500.3886130573137,5658
2502.2115324666834,5627
2504.0340553891765,5529
2505.856182114308,5767
2507.6779129316733,5813
2509.499248130945,5717
2511.3201880018764,5642
2513.140732834298,5560
2514.9608829181198,5625
2516.780638543331,5600
2518.6,5553
2520.418967578273,5682
2522.237541568376,5697
2524.0557222606144,5577
2525.8735099453706,5606
2527.6909049131086,5735
2529.507907454368,5690
2531.32451785977,5791
2533.140736420014,5759
2534.9565634258774,5713
2536.771999168218,5687
2538.5870439379714,5784
2540.4016980261526,5849
2542.2159617238544,5836
2544.02983532225,5862
2545.8433191125914,5827
2547.656413386209,5846
2549.4691184345115,5915
2551.2814345489874,5869
2553.093362021204,6005
2554.904901142808,5966
2556.716052205523,5979
2558.526815501153,5841
2560.3371913215824,5827
2562.147179958771,5961
2563.956781704761,5989
2565.7659968516705,5932
2567.5748256916986,5954
2569.3832685171224,6042
2571.1913256202984,6056
2572.9989972936614,5992
2574.806283829725,5981
2576.613185521084,5956
2578.4197026604074,6033
2580.2258355404483,6081
2582.031584454035,6077
2583.836949694077,6105
2585.6419315535613,6154
2587.4465303255533,6074
2589.2507463032002,6234
2591.0545797797245,6156
2592.8580310484303,6196
2594.6611004026995,6189
2596.463788135992,6118
2598.266094541849,6270
2600.0680199138874,6196
2601.869564545807,6331
2603.670728731383,6207
2605.4715127644704,6190
2607.2719169390048,6206
2609.071941548998,6096
2610.8715868885433,6034
2612.670853251811,6186
2614.469740933052,6145
2616.268250226594,6323
2618.0663814268455,6248
2619.864134828292,6129
2621.6615107255006,6086
2623.458509413115,6158
2625.2551311858597,6169
2627.0513763385347,6102
2628.8472451660223,6076
2630.6427379632833,6167
2632.4378550253564,6081
2634.232596647359,6198
2636.026963124488,6011
2637.8209547520187,6097
2639.6145718253065,6089
2641.407814639785,5956
2643.200683490966,5968
2644.9931786744414,5980
2646.7853004858807,5873
2648.577049221034,6004
2650.3684251757277,5984
2652.1594286458712,5938
2653.9500599274484,5933
2655.740319316525,5802
2657.5302071092437,5897
2659.3197236018286,5952
2661.10886909058,5890
2662.8976438718782,5965
2664.686048242183,5898
2666.4740824980327,5920
2668.2617469360443,5849
2670.0490418529134,6018
2671.8359675454153,5814
2673.622524310403,5894
2675.408712444811,5712
2677.1945322456495,5864
2678.979984010009,5817
2680.76506803506,5954
2682.5497846180497,5792
2684.334134056306,5670
2686.1181166472343,5795
2687.9017326883213,5858
2689.6849824771293,5796
2691.4678663113013,5721
2693.2503844885596,5824
2695.032537306705,5774
2696.8143250636167,5833
2698.5957480572542,5742
2700.3768065856534,5745
2702.1575009469316,5685
2703.937831439283,5623
2705.717798360982,5733
2707.4974020103837,5789
2709.276642685917,5783
2711.055520686095,5699
2712.834036309506,5649
2714.612189854819,5766
2716.389981620782,5588
2718.1674119062204,5655
2719.944481010041,5718
2721.721189231226,5665
2723.4975368688415,5803
2725.273524222027,5725
2727.0491515900053,5690
2728.824419272075,5660
2730.5993275676146,5795
2732.3738767760838,5701
2734.148067197016,5737
2735.921899130031,5706
2737.6953728748194,5677
2739.468488731156,5804
2741.2412469988926,5716
2743.0136479779617,5703
2744.785691968372,5728
2746.5573792702116,5692
2748.3287101836504,5710
2750.099685008934,5586
2751.870304046388,5700
2753.640567596418,5765
2755.4104759595057,5632
2757.1800294362156,5785
2758.949228327187,5642
2760.7180729331412,5799
2762.486563554877,5645
2764.254700493272,5703
2766.022484049284,5612
2767.789914523947,5675
2769.5569922183786,5663
2771.3237174337705,5824
2773.090090471394,5658
2774.8561116326036,5672
2776.6217812188274,5718
2778.3870995315756,5674
2780.1520668724356,5682
2781.9166835430747,5597
2783.6809498452394,5726
2785.444866080754,5704
2787.2084325515225,5543
2788.971649559527,5615
2790.73451740683,5739
2792.4970363955713,5748
2794.2592068279705,5704
2796.0210290063264,5685
2797.7825032330147,5769
2799.543629810493,5739
2801.304409041296,5782
2803.0648412280366,5749
2804.8249266734088,5676
2806.5846656801846,5675
2808.344058551212,5652
2810.1031055894246,5702
2811.8618070978273,5740
2813.6201633795085,5904
2815.378174737636,5676
2817.1358414754536,5779
2818.893163896285,5603
2820.6501423035334,5755
2822.4067770006814,5763
2824.1630682912883,5727
2825.9190164789957,5756
2827.6746218675207,5738
2829.429884760661,5742
2831.184805462294,5739
2832.9393842763743,5712
2834.693621506936,5881
2836.4475174580916,5732
2838.201072434034,5718
2839.954286739034,5841
2841.707160677441,5681
2843.459694553685,5849
2845.2118886722724,5835
2846.96374333779,5875
2848.7152588549034,5790
2850.4664355283567,5841
2852.217273662973,5754
2853.9677735636546,5882
2855.7179355353833,5801
2857.4677598832186,5791
2859.217246912299,5768
2860.9663969278427,5681
2862.715210235146,5804
2864.4636871395846,5758
2866.211827946614,5732
2867.9596329617652,5772
2869.7071024906536,5713
2871.4542368389684,5825
2873.20103631248,5800
2874.947501217038,5796
2876.6936318585695,5708
2878.4394285430812,5689
2880.1848915766604,5663
2881.9300212654707,5740
2883.6748179157553,5780
2885.4192818338374,5835
2887.1634133261173,5796
2888.907212699077,5701
2890.6506802592744,5710
2892.393816313348,5774
2894.1366211680142,5852
2895.8790951300693,5916
2897.621238506388,5758
2899.363051603925,5806
2901.1045347297118,5837
2902.8456881908596,5764
2904.58651229456,5720
2906.327007348081,5831
2908.067173658772,5803
2909.8070115340597,5902
2911.5465212814497,5688
2913.285703208527,5777
2915.0245576229563,5737
2916.7630848324807,5768
2918.5012851449196,5670
2920.2391588681758,5609
2921.976706310227,5734
2923.7139277791334,5735
2925.4508235830313,5713
2927.187394030137,5643
2928.923639428745,5903
2930.6595600872306,5876
2932.395156314046,5787
2934.1304284177218,5763
2935.8653767068713,5924
2937.6000014901815,5850
2939.3343030764227,5830
2941.068281774442,5966
2942.8019378931644,5816
2944.5352717415976,5805
2946.2682836288236,5935
2948.0009738640065,5951
2949.7333427563885,5876
2951.465390615289,6053
2953.1971177501086,5853
2954.9285244703265,5660
2956.6596110855,5889
2958.3903779052657,5787
2960.1208252393385,5812
2961.8509533975125,5669
2963.5807626896617,5764
2965.3102534257378,5857
2967.0394259157715,5761
2968.768280469873,5681
2970.496817398232,5875
2972.2250370111146,5761
2973.952939618869,5865
2975.6805255319196,5779
2977.4077950607707,5950
2979.134748516006,6024
2980.861386208289,5857
2982.587708448359,5941
2984.313715547037,5814
2986.039407815222,5933
2987.764785563891,5847
2989.489849104102,5838
2991.2145987469908,5931
2992.9390348037705,6023
2994.6631575857346,5893
2996.3869674042576,5857
2998.1104645707887,5829
2999.83364939686,5817
3001.5565221940783,5846
3003.2790832741334,5841
3005.0013329487924,5851
3006.7232715298996,5818
3008.4448993293804,5838
3010.166216659239,5832
3011.887223831558,5713
3013.607921158498,5740
3015.3283089522993,5801
3017.0483875252826,5740
3018.7681571898443,5959
3020.4876182584626,5774
3022.2067710436927,6032
3023.9256158581707,5737
3025.644153014609,5863
3027.362382825801,5916
3029.0803056046193,5919
3030.797921664012,5691
3032.5152313170106,5960
3034.2322348767225,5767
3035.9489326563353,5836
3037.665324969115,5847
3039.3814121284063,5851
3041.097194447633,5829
3042.812672240299,5904
3044.5278458199855,5803
3046.2427155003525,5914
3047.9572815951406,5888
3049.671544418167,5921
3051.38550428333,5837
3053.0991615046073,5773
3054.812516396051,5748
3056.5255692717974,5734
3058.2383204460575,5803
3059.9507702331257,5754
3061.662918947372,5742
3063.3747669032446,5842
3065.0863144152736,5711
3066.7975617980674,5792
3068.508509366309,5818
3070.219157434767,5946
3071.9295063182844,5779
3073.639556331785,5759
3075.3493077902704,5898
3077.058761008821,5842
3078.7679163025964,5938
3080.476773986837,5811
3082.1853343768594,5914
3083.89359778806,5775
3085.6015645359153,5888
3087.3092349359786,5817
3089.016609303884,5955
3090.7236879553434,5851
3092.4304712061476,5906
3094.136959372166,5898
3095.843152769349,5828
3097.5490517137237,5762
3099.2546565213966,5842
3100.959967508554,5887
3102.66498499146,5887
3104.3697092864577,5918
3106.0741407099695,5804
3107.778279578498,5863
3109.482126208622,5876
3111.1856809170004,6047
3112.8889440203716,5961
3114.5919158355528,5849
3116.294596679439,5996
3117.996986869006,5933
3119.6990867213062,5932
3121.4008965534726,6055
3123.102416682717,5926
3124.803647426329,6087
3126.5045891016784,5895
3128.205242026213,5913
3129.90560651746,5989
3131.605682893025,5999
3133.3054714705922,5903
3135.0049725679282,5950
3136.7041865028714,6017
3138.4031135933465,5932
3140.101754157353,5956
3141.800108512971,5900
3143.498176978357,5945
3145.1959598717494,5949
3146.8934575114636,5913
3148.5906702158954,5877
3150.2875983035183,5874
3151.9842420928853,5899
3153.680601902627,5836
3155.376678051456,5872
3157.07247085816,5897
3158.767980641609,5815
3160.463207720748,5947
3162.158152414606,5927
3163.8528150422862,5916
3165.5471959229726,5825
3167.2412953759303,5959
3168.9351137204976,5921
3170.628651276098,6037
3172.3219083622307,6059
3174.014885298474,5903
3175.707582404485,6084
3177.4000000000005,6083
3179.092138404835,5978
3180.7839979388846,5915
3182.47557892212,6000
3184.166881674594,5931
3185.8579065164386,6191
3187.5486537678626,6022
3189.2391237491547,5903
3190.9293167806827,5882
3192.6192331828934,5877
3194.3088732763117,5972
3195.998237381542,5967
3197.687325819268,5947
3199.376138910251,5873
3201.064676975334,5957
3202.7529403354347,5947
3204.4409293115523,5863
3206.1286442247647,5847
3207.816085396229,5655
3209.5032531471825,5969
3211.190147798936,5979
3212.8767696728846,5829
3214.5631190905015,5847
3216.2491963733373,5640
3217.9350018430214,5787
3219.6205358212637,5763
3221.305798629851,5680
3222.990790590651,5800
3224.6755120256103,5682
3226.359963256751,5704
3228.0441446061795,5784
3229.7280563960758,5681
3231.411698948703,5770
3233.0950725863995,5921
3234.778177631587,5782
3236.461014406761,6011
3238.1435832345005,5924
3239.8258844374595,5904
3241.507918338374,5909
3243.1896852600576,5922
3244.8711855254023,5943
3246.552419457381,5950
3248.233387379042,5852
3249.914089613516,5975
3251.59452648401,5885
3253.274698313813,5907
3254.95460542629,5892
3256.6342481448855,5866
3258.313626793125,5794
3259.9927416946084,5720
3261.6715931730196,5795
3263.3501815521176,5828
3265.0285071557437,5817
3266.706570307815,5724
3268.3843713323286,5803
3270.0619105533615,5937
3271.739188295068,5932
3273.4162048816834,5850
3275.0929606375184,5951
3276.769455886966,5943
3278.445690954498,5938
3280.1216661646613,6050
3281.797381842087,5831
3283.4728383114807,5910
3285.1480358976296,5895
3286.8229749253996,5846
3288.4976557197333,5799
3290.172078605655,5828
3291.846243908266,5832
3293.5201519527463,5891
3295.193803064357,5809
3296.8671975684374,5833
3298.5403357904024,5802
3300.21321805575,5702
3301.8858446900567,5717
3303.558216018975,5851
3305.23033236824,5772
3306.9021940636603,5929
3308.57380143113,5902
3310.2451547966184,5881
3311.916254486174,5855
3313.5871008259246,5940
3315.2576941420766,5880
3316.9280347609147,5761
3318.5981230088046,5709
3320.2679592121895,5741
3321.9375436975924,5781
3323.606876791612,5677
3325.27595882093,5752
3326.944790112305,5837
3328.6133709925753,5716
3330.2817017886573,5743
3331.949782827547,5790
3333.617614436319,5864
3335.2851969421245,5902
3336.952530672199,5790
3338.619615953853,5806
3340.286453114475,5872
3341.9530424815357,5891
3343.619384382583,5883
3345.2854791452437,5915
3346.951327097224,5898
3348.6169285663073,6006
3350.2822838803577,5958
3351.947393367319,5925
3353.61225735521,5978
3355.2768761721345,5875
3356.9412501462693,5936
3358.605379605873,5980
3360.2692648792827,5974
3361.9329062949146,5953
3363.596304181263,5718
