CollectionTime,9/20/2024 12:13:48 PM
ExposureUsed,3
CalibratedSpectrum
-962.7078968117929,619
-959.9714848408522,650
-957.2358232597828,648
-954.5009119013725,668
-951.7667505983302,721
-949.0333391832855,723
-946.3006774887896,653
-943.5687653473143,678
-940.837602591253,733
-938.1071890529199,696
-935.3775245645503,703
-932.6486089583007,689
-929.9204420662485,632
-927.1930237203925,659
-924.4663537526524,707
-921.7404319948689,746
-919.0152582788041,713
-916.2908324361409,687
-913.5671542984834,672
-910.8442236973568,675
-908.1220404642074,672
-905.4006044304027,674
-902.679915427231,654
-899.959973285902,645
-897.2407778375464,652
-894.5223289132158,650
-891.8046263438832,687
-889.0876699604426,642
-886.3714595937089,670
-883.6559950744183,671
-880.9412762332282,649
-878.2273029007168,630
-875.5140749073835,632
-872.8015920836489,628
-870.0898542598545,638
-867.3788612662631,651
-864.6686129330585,632
-861.9591090903457,655
-859.2503495681506,633
-856.5423341964203,663
-853.8350628050229,637
-851.1285352237478,643
-848.4227512823054,647
-845.7177108103272,612
-843.0134136373656,650
-840.3098595928943,657
-837.6070485063082,618
-834.9049802069229,677
-832.2036545239757,658
-829.5030712866244,684
-826.8032303239481,664
-824.1041314649472,632
-821.4057745385428,608
-818.7081593735775,676
-816.0112857988148,650
-813.3151536429393,650
-810.6197627345566,663
-807.9251129021936,639
-805.2312039742981,650
-802.5380357792392,658
-799.8456081453069,618
-797.1539209007124,650
-794.462973873588,676
-791.772766891987,688
-789.083299783884,688
-786.3945723771743,684
-783.7065844996748,682
-781.0193359791231,643
-778.3328266431781,714
-775.6470563194197,654
-772.9620248353489,648
-770.2777320183878,636
-767.5941776958798,643
-764.9113616950891,634
-762.2292838432011,674
-759.5479439673222,651
-756.8673418944801,673
-754.1874774516235,659
-751.5083504656222,668
-748.8299607632671,671
-746.15230817127,654
-743.475392516264,687
-740.7992136248035,673
-738.1237713233636,650
-735.4490654383407,651
-732.7750957960521,662
-730.1018622227365,691
-727.4293645445534,692
-724.7576025875837,729
-722.0865761778291,701
-719.4162851412126,697
-716.7467293035781,726
-714.0779084906909,713
-711.409822528237,719
-708.7424712418238,735
-706.0758544569796,735
-703.4099719991541,748
-700.7448236937178,757
-698.0804093659622,696
-695.4167288411002,715
-692.7537819442656,665
-690.0915685005134,709
-687.4300883348199,735
-684.7693412720819,755
-682.1093271371178,725
-679.4500457546669,762
-676.7914969493897,720
-674.1336805458676,763
-671.4765963686034,773
-668.8202442420206,758
-666.1646239904642,797
-663.5097354382001,750
-660.8555784094151,750
-658.2021527282176,763
-655.5494582186366,794
-652.8974947046223,829
-650.2462620100463,781
-647.5957599587009,798
-644.9459883742998,831
-642.2969470804776,791
-639.6486359007902,825
-637.0010546587141,819
-634.3542031776476,823
-631.7080812809096,807
-629.0626887917401,767
-626.4180255333008,767
-623.7740913286734,792
-621.1308860008619,791
-618.4884093727904,788
-615.8466612673046,783
-613.2056415071715,783
-610.5653499150785,790
-607.9257863136347,824
-605.28695052537,815
-602.6488423727357,772
-600.0114616781036,766
-597.3748082637674,803
-594.7388819519412,830
-592.1036825647604,824
-589.4692099242818,811
-586.8354638524829,807
-584.2024441712624,831
-581.5701507024403,803
-578.9385832677575,832
-576.3077416888759,810
-573.6776257873787,770
-571.0482353847704,805
-568.4195703024757,799
-565.7916303618415,837
-563.164415384135,838
-560.5379251905453,755
-557.9121596021815,774
-555.2871184400748,787
-552.6628015251767,852
-550.0392086783606,823
-547.4163397204204,871
-544.794194472071,866
-542.1727727539491,878
-539.5520743866118,844
-536.9320991905377,838
-534.3128469861261,962
-531.6943175936979,902
-529.0765108334947,881
-526.4594265256793,951
-523.8430644903358,1074
-521.2274245474689,1301
-518.612506517005,1375
-515.9983102187913,1355
-513.3848354725959,1430
-510.77208209810846,1475
-508.16004991493924,1511
-505.5487387426199,1645
-502.9381484006032,1686
-500.3282787082628,1702
-497.71912948489364,1616
-495.1107005497117,1505
-492.5029917218539,1367
-489.8960028203786,1217
-487.28973366426493,1165
-484.68418407241325,1085
-482.07935386364494,1046
-479.47524285670266,978
-476.87185087025,1012
-474.2691777228715,1021
-471.66722323307334,1029
-469.0659872192821,1014
-466.4654694998459,1010
-463.86566989303384,1008
-461.26658821703614,960
-458.66822428996414,1004
-456.07057792985,1011
-453.4736489546475,996
-450.877437182231,965
-448.28194243039627,957
-445.68716451686,952
-443.09310325926003,998
-440.49975847515555,953
-437.9071299820263,947
-435.31521759727354,1000
-432.72402113821954,989
-430.13354042210767,995
-427.5437752661022,1013
-424.95472548728867,1009
-422.36639090267386,1059
-419.7787713291855,996
-417.1918665836721,1044
-414.60567648290385,1068
-412.0202008435715,1044
-409.4354394822874,1075
-406.8513922155845,1013
-404.26805885991723,1041
-401.685439231661,1046
-399.103533147112,1049
-396.522340422488,1059
-393.9418608739278,1025
-391.3620943174908,1010
-388.7830405691583,983
-386.2046994448317,945
-383.6270707603344,942
-381.05015433141045,862
-378.473949973725,821
-375.8984575028645,791
-373.32367673433623,725
-370.74960748356875,739
-368.1762495659117,659
-365.60360279663576,595
-363.03166699093265,583
-360.4604419639154,544
-357.8899275306178,545
-355.32012350599507,531
-352.7510297049233,540
-350.1826459421999,563
-347.61497203254316,531
-345.04800779059235,487
-342.4817530309082,479
-339.91620756797226,544
-337.35137121618743,540
-334.7872437898774,516
-332.22382510328725,453
-329.66111497058273,479
-327.09911320585127,473
-324.53781962310075,509
-321.9772340362607,503
-319.4173562591816,499
-316.8581861056348,528
-314.2997233893127,540
-311.7419679238294,492
-309.1849195227194,502
-306.62857799943856,550
-304.0729431673641,520
-301.51801483979375,538
-298.963792829947,533
-296.41027695096386,526
-293.85746701590574,605
-291.3053628377552,593
-288.7539642294155,568
-286.2032710037115,637
-283.65328297338897,588
-281.1039999511146,603
-278.5554217494762,574
-276.007548180983,576
-273.4603790580651,576
-270.9139141930734,581
-268.3681533982807,599
-265.8230964858798,616
-263.27874326798565,658
-260.7350935566336,679
-258.1921471637804,679
-255.6499039013039,734
-253.10836358100266,785
-250.56752601459698,778
-248.02739101372765,764
-245.48795838995704,790
-242.94922795476816,703
-240.41119951956557,762
-237.8738728956746,748
-235.33724789434166,745
-232.80132432673452,685
-230.2661020039418,672
-227.73158073697357,717
-225.19776033676033,800
-222.66464061415422,876
-220.1322213799284,802
-217.60050244477725,813
-215.06948361931552,825
-212.53916471408013,978
-210.00954553952818,916
-207.48062590603843,798
-204.9524056239104,723
-202.4248845033651,804
-199.8980623545441,871
-197.37193898751036,861
-194.84651421224817,950
-192.32178783866232,828
-189.79775967657952,983
-187.27442953574644,1013
-184.7517972258321,1040
-182.2298625564256,871
-179.7086253370378,801
-177.18808537710026,970
-174.66824248596583,1060
-172.14909647290835,997
-169.6306471471229,895
-167.11289431772548,871
-164.59583779375328,1043
-162.07947738416453,1099
-159.5638128978386,1215
-157.04884414357605,1263
-154.53457093009854,1333
-152.02099306604828,995
-149.50811035998936,941
-146.99592262040665,1220
-144.48442965570587,1484
-141.97363127421409,1453
-139.46352728417958,1693
-136.95411749377126,1445
-134.44540171107985,1188
-131.93737974411636,1149
-129.43005140081357,1406
-126.92341648902493,1649
-124.41747481652521,2111
-121.91222619101006,2129
-119.40767042009657,2143
-116.90380731132257,2037
-114.40063667214702,2504
-111.8981583099503,3320
-109.3963720320337,5016
-106.89527764561933,7351
-104.39487495785067,9389
-101.89516377579241,13017
-99.39614390642998,18334
-96.89781515667039,21384
-94.40017733334128,20986
-91.90323024319173,18932
-89.40697369289148,14058
-86.91140748903172,7850
-84.41653143812482,7897
-81.92234534660395,12025
-79.42884902082358,17304
-76.93604226705907,20158
-74.4439248915071,20548
-71.95249670028534,18391
-69.46175749943245,15033
-66.97170709490854,11208
-64.48234529259423,10221
-61.99367189829195,9757
-59.50568671772464,8967
-57.01838955653636,8369
-54.53178022029283,10107
-52.045858514480074,10088
-49.560624244506016,10925
-47.07607721569923,13295
-44.59221723330904,16546
-42.10904410250669,16807
-39.62655762838392,17694
-37.14475761595372,19551
-34.66364387015028,21759
-32.18321619582866,19622
-29.70347439776515,21878
-27.224418280657005,27449
-24.74604764912317,32673
-22.26836230770266,43814
-19.7913620608565,65035
-17.315046712966478,65035
-14.83941606833514,65035
-12.36446993118659,65035
-9.89020810566592,65035
-7.416630395839093,65035
-4.94373660569363,65035
-2.471526539137585,65035
-6.821210263296962E-13,65035
2.47084320796705,65035
4.941003281093458,65035
7.410480415786196,65035
9.879274808531363,65035
12.347386655893956,65035
14.814816154518212,65035
17.28156350112681,65035
19.74762889252179,65035
22.21301252558385,25569
24.67771459727237,6153
27.141735304626195,5346
29.605074844762612,6483
32.06773341487792,5811
34.52971121224755,4698
36.99100843422559,3693
39.45162527824516,2972
41.91156194181792,3223
44.370818622535126,3711
46.82939551806646,4083
49.287292826160524,5424
51.74451074464503,5150
54.201049471426245,3694
56.65690920448981,2251
59.112090141899785,1639
61.56659248179983,2171
64.02041642241159,2642
66.4735621620365,2470
68.92602989905402,2967
71.37781983192338,3145
73.82893215918205,2594
76.27936707944684,1983
78.72912479141326,2196
81.17820549385567,1945
83.62660938562783,2020
86.07433666566146,1836
88.5213875329681,1604
90.96776218663751,1638
93.41346082583925,1804
95.85848364982041,2107
98.30283085790859,1954
100.7465026495089,1598
103.18949922410604,1860
105.63182078126385,1616
108.07346752062438,1511
110.51443964190923,1245
112.95473734491827,1107
115.39436082953114,1286
117.83331029570547,1311
120.27158594347827,1369
122.7091879729652,1382
125.1461165843615,1209
127.58237197794062,1021
130.01795435405518,1231
132.4528639131364,1244
134.88710085569494,1250
137.32066538231982,1450
139.75355769367923,1543
142.1857779905207,1270
144.61732647366978,1019
147.04820334403132,1063
149.47840880258934,1165
151.90794305040674,1130
154.33680628862487,1196
156.76499871846443,1315
159.19252054122433,1493
161.61937195828352,1630
164.04555317109896,1894
166.47106438120693,2153
168.89590579022217,2242
171.320077599839,2334
173.7435800118302,2446
176.16641322804742,2568
178.58857745042144,2701
181.01007288096173,2608
183.43089972175687,2718
185.85105817497413,2670
188.27054844285988,2740
190.6893707277394,2771
193.10752523201643,2770
195.5250121581745,2974
197.9418317087751,2970
200.3579840864594,2905
202.7734694939469,2902
205.18828813403627,3063
207.6024402096051,2982
210.01592592360964,3057
212.42874547908548,2924
214.84089907914665,2926
217.2523869269868,2966
219.66320922587727,2966
222.0733661791695,2901
224.48285799029293,2945
226.8916848627572,2918
229.29984700014882,3074
231.7073446061355,3101
234.11417788446204,3111
236.520347038953,3281
238.92585227351185,3335
241.33069379212054,3411
243.73487179884035,3582
246.1383864978112,3480
248.541238093252,3559
250.9434267894609,3662
253.34495279081432,3591
255.74581630176783,3607
258.1460175268563,3630
260.54555667069314,3595
262.9444339379703,3542
265.3426495334594,3593
267.7402036620107,3484
270.1370965285529,3255
272.53332833809407,3168
274.9288992957214,2987
277.32380960660055,2922
279.718059475976,2838
282.1116491091717,2930
284.5045787115897,2726
286.89684848871195,2732
289.2884586460981,2762
291.67940938938807,2777
294.0697009242996,2760
296.4593334566299,2748
298.84830719225477,2773
301.23662233712923,2657
303.6242790972866,2636
306.01127767884,2666
308.39761828798066,2632
310.78330113097934,2550
313.16832641418534,2474
315.5526943440269,2444
317.9364051270112,2501
320.3194589697242,2462
322.70185607883093,2441
325.0835966610754,2337
327.4646809232805,2333
329.8451090723478,2391
332.2248813152577,2398
334.6039978590701,2381
336.9824589109231,2393
339.36026467803447,2252
341.7374153677,2217
344.113911187295,2260
346.48975234427337,2220
348.8649390461686,2239
351.2394715005918,2182
353.61334991523415,2193
355.9865744978655,2241
358.35914545633375,2254
360.73106299856715,2207
363.10232733257146,2182
365.47293866643247,2154
367.84289720831396,2113
370.2122031664593,2161
372.5808567491905,2146
374.9488581649083,2061
377.31620762209275,1990
379.6829053293021,2081
382.0489514951745,2123
384.4143463284262,2079
386.7790900378528,2119
389.14318283232853,2101
391.50662492080653,2082
393.86941651231916,2136
396.23155781597745,2024
398.5930490409713,2101
400.9538903965696,2183
403.3140820921202,2043
405.6736243370498,2046
408.03251734086336,2029
410.3907613131465,2026
412.74835646356166,2060
415.10530300185144,2089
417.4616011378372,2041
419.81725108141893,2074
422.1722530425758,1989
424.5266072313656,2045
426.880313857925,2063
429.2333731324701,2023
431.58578526529516,2079
433.9375504667738,2058
436.2886689473588,2089
438.63914091758113,1985
440.9889665880513,1965
443.33814616945835,1917
445.68667987257015,2009
448.03456790823395,1874
450.3818104873759,1950
452.72840782100013,1969
455.07436012019105,1950
457.41966759611057,1979
459.7643304600007,1960
462.10834892318155,1882
464.4517231970525,1919
466.79445349309174,1988
469.1365400228566,1939
471.4779829979826,1914
473.81878263018564,1969
476.15893913125876,2043
478.4984527130747,2057
480.8373235875855,1978
483.17555196682144,2039
485.5131380628919,2219
487.8500820879857,2149
490.1863842543697,2228
492.52204477439034,2491
494.8570638604725,2574
497.1914417251204,2848
499.52517858091653,3213
501.85827464052306,3506
504.19073011668036,3663
506.5225452222086,3633
508.85372017000566,3621
511.18425517304956,3699
513.514150444396,4039
515.8434061971808,5098
518.1720226446176,6007
520.4999999999999,6045
522.8273384766991,5795
525.1540382881666,5458
527.480099647932,4742
529.8055227696037,3936
532.1303078668694,2936
534.454455153496,2375
536.777964843328,2216
539.1008371502907,2123
541.4230722883866,2086
543.744670471698,2023
546.0656319143858,1999
548.3859568306899,1996
550.7056454349294,1968
553.0246979415016,1939
555.3431145648834,1892
557.6608955196306,1958
559.978041020377,1898
562.2945512818363,1919
564.6104265188006,1895
566.9256669461412,1903
569.2402727788082,1974
571.5542442318302,1963
573.8675815203156,1919
576.1802848594508,1959
578.4923544645015,1989
580.8037905508126,1990
583.114593333807,2006
585.4247630289875,1960
587.7342998519354,1996
590.0432040183106,1951
592.3514757438526,1918
594.6591152443794,1969
596.9661227357875,2004
599.2724984340531,1982
601.578242555231,1931
603.8833553154542,1821
606.1878369309362,1890
608.4916876179676,1865
610.7949075929192,1962
613.0974970722403,1995
615.3994562724587,1929
617.7007854101818,1991
620.0014847020951,1956
622.3015543649641,1976
624.6009946156324,1986
626.8998056710224,1929
629.1979877481361,2022
631.4955410640538,1969
633.7924658359349,1997
636.0887622810175,1930
638.3844306166192,2075
640.6794710601358,1989
642.9738838290426,1995
645.2676691408932,1985
647.5608272133207,2045
649.853358264037,2042
652.1452625108324,2051
654.4365401715764,2140
656.7271914642178,2118
659.0172166067838,2082
661.3066158173809,2047
663.5953893141935,2022
665.8835373154867,2066
668.1710600396028,1988
670.4579577049639,2021
672.7442305300709,2026
675.0298787335033,2057
677.3149025339197,2057
679.599302150058,2053
681.8830778007342,2018
684.1662297048437,2051
686.4487580813608,2048
688.7306631493387,2011
691.0119451279091,2052
693.2926042362834,2081
695.5726406937516,2033
697.8520547196814,2072
700.1308465335215,2005
702.4090163547982,2020
704.6865644031171,2026
706.9634908981619,2007
709.2397960596965,1994
711.5154801075631,1954
713.7905432616823,1982
716.0649857420548,2082
718.3388077687592,2020
720.612009561953,1999
722.8845913418733,2023
725.1565533288352,2003
727.427895743234,1998
729.6986188055427,1992
731.9687227363137,1963
734.238207756178,2033
736.5070740858458,1994
738.7753219461066,2070
741.0429515578281,1995
743.3099631419569,1924
745.5763569195191,2047
747.8421331116193,1975
750.1072919394409,1988
752.3718336242467,2017
754.6357583873777,1951
756.8990664502545,2003
759.1617580343765,1980
761.423833361321,1990
763.6852926527457,2034
765.9461361303862,1988
768.206364016058,2007
770.4659765316536,2044
772.7249738991469,2010
774.9833563405886,1985
777.2411240781092,2029
779.4982773339183,2044
781.7548163303044,2070
784.010741289634,1971
786.2660524343538,2074
788.5207499869881,2042
790.7748341701416,2103
793.0283052064964,2045
795.2811633188143,2017
797.5334087299362,2070
799.7850416627813,2021
802.0360623403484,2038
804.2864709857143,2030
806.5362678220353,2057
808.7854530725468,2057
811.0340269605625,1988
813.2819897094754,2028
815.5293415427581,1971
817.77608268396,2088
820.0222133567116,2082
822.2677337847211,2063
824.5126441917765,2039
826.7569448017433,2067
829.0006358385675,2049
831.2437175262731,2084
833.4861900889629,2076
835.7280537508192,2060
837.9693087361026,2044
840.2099552691533,2031
842.4499935743896,2027
844.689423876309,2082
846.9282463994886,2035
849.1664613685833,2098
851.4040690083276,2003
853.6410695435349,2096
855.877463199097,2108
858.1132501999847,2122
860.3484307712487,2109
862.5830051380175,2053
864.8169735254988,2071
867.0503361589791,2135
869.2830932638243,2094
871.5152450654786,2095
873.7467917894654,2068
875.9777336613873,2138
878.2080709069252,2121
880.4378037518389,2111
882.666932421968,2053
884.8954571432301,2129
887.1233781416219,2078
889.3506956432192,2151
891.5774098741766,2163
893.803521060728,2117
896.0290294291852,2127
898.2539352059397,2185
900.4782386174619,2157
902.7019398903011,2152
904.925039251085,2103
907.147536926521,2167
909.3694331433943,2094
911.59072812857,2130
913.8114221089921,2097
916.0315153116827,2030
918.2510079637437,2073
920.4699002923547,2113
922.6881925247761,2099
924.905884888345,2118
927.1229776104793,2128
929.3394709186747,2111
931.555365040506,2069
933.7706602036275,2125
935.9853566357709,2133
938.1994545647489,2133
940.4129542184515,2174
942.6258558248488,2199
944.8381596119883,2212
947.0498658079974,2078
949.2609746410825,2156
951.4714863395287,2241
953.6814011316998,2168
955.8907192460387,2114
958.0994409110671,2236
960.3075663553858,2130
962.5150958076741,2115
964.7220294966913,2103
966.928367651274,2106
969.1341105003388,2128
971.3392582728806,2111
973.5438111979742,2135
975.747769504772,2071
977.9511334225061,2036
980.153903180487,2025
982.3560790081052,2092
984.5576611348289,2007
986.7586497902058,2002
988.9590452038618,1950
991.158847605503,1992
993.3580572249133,1951
995.5566742919558,1950
997.7546990365728,1837
999.952131688785,1818
1002.1489724786926,1808
1004.3452216364743,1823
1006.5408793923874,1769
1008.7359459767691,1797
1010.9304216200343,1775
1013.1243065526781,1842
1015.3176010052733,1755
1017.510305208472,1793
1019.7024193930064,1761
1021.8939437896848,1687
1024.0848786293977,1792
1026.2752241431122,1818
1028.4649805618747,1731
1030.6541481168115,1793
1032.842727039127,1725
1035.0307175601051,1710
1037.2181199111074,1704
1039.4049343235752,1661
1041.591161029029,1748
1043.7768002590683,1734
1045.9618522453698,1754
1048.1463172196918,1714
1050.3301954138697,1732
1052.513487059818,1684
1054.69619238953,1650
1056.8783116350783,1700
1059.0598450286152,1718
1061.2407928023704,1722
1063.4211551886528,1704
1065.6009324198508,1651
1067.780124728432,1651
1069.9587323469414,1698
1072.1367555080046,1695
1074.314194444325,1625
1076.4910493886855,1684
1078.667320573947,1656
1080.843008233051,1687
1083.0181125990161,1657
1085.1926339049414,1630
1087.3665723840027,1689
1089.5399282694575,1673
1091.7127017946405,1640
1093.8848931929647,1676
1096.0565026979243,1613
1098.2275305430899,1601
1100.3979769621128,1595
1102.567842188722,1636
1104.737126456726,1599
1106.9058300000124,1616
1109.0739530525475,1588
1111.2414958483764,1529
1113.4084586216231,1529
1115.5748416064907,1616
1117.7406450372605,1610
1119.9058691482942,1653
1122.0705141740304,1612
1124.2345803489884,1599
1126.3980679077658,1593
1128.5609770850388,1597
1130.7233081155623,1618
1132.8850612341707,1570
1135.0462366757774,1545
1137.2068346753745,1588
1139.3668554680326,1602
1141.526299288901,1585
1143.68516637321,1594
1145.8434569562655,1551
1148.001171273455,1569
1150.158309560244,1543
1152.3148720521767,1591
1154.470858984876,1617
1156.626270594044,1581
1158.7811071154629,1491
1160.9353687849912,1532
1163.089055838569,1604
1165.242168512213,1555
1167.3947070420209,1556
1169.5466716641677,1559
1171.6980626149075,1555
1173.8488801305748,1562
1175.9991244475814,1539
1178.1487958024186,1503
1180.2978944316555,1515
1182.4464205719428,1582
1184.5943744600072,1507
1186.7417563326567,1549
1188.8885664267755,1607
1191.0348049793297,1565
1193.1804722273619,1497
1195.325568407995,1562
1197.4700937584303,1564
1199.614048515948,1499
1201.7574329179074,1573
1203.900247201746,1532
1206.042491604982,1559
1208.1841663652099,1533
1210.3252717201053,1619
1212.465807907422,1610
1214.6057751649923,1601
1216.7451737307279,1632
1218.8840038426192,1594
1221.0222657387353,1659
1223.1599596572241,1626
1225.2970858363137,1553
1227.4336445143094,1632
1229.5696359295966,1649
1231.705060320639,1633
1233.8399179259786,1673
1235.9742089842384,1680
1238.107933734118,1586
1240.2410924143974,1688
1242.373685263935,1669
1244.5057125216676,1582
1246.6371744266116,1659
1248.7680712178621,1632
1250.898403134593,1632
1253.028170416058,1723
1255.1573733015875,1671
1257.2860120305932,1641
1259.4140868425648,1609
1261.54159797707,1685
1263.6685456737569,1727
1265.7949301723515,1656
1267.9207517126597,1661
1270.046010534565,1686
1272.1707068780306,1681
1274.2948409830983,1664
1276.4184130898889,1658
1278.541423438603,1720
1280.6638722695184,1725
1282.785759822993,1726
1284.9070863394636,1740
1287.0278520594447,1761
1289.1480572235314,1724
1291.2677020723963,1749
1293.3867868467923,1809
1295.5053117875495,1788
1297.623277135579,1721
1299.740683131868,1795
1301.8575300174857,1799
1303.973818033578,1863
1306.0895474213703,1857
1308.2047184221678,1841
1310.3193312773528,1872
1312.4333862283888,1826
1314.5468835168163,1824
1316.659823384255,1817
1318.7722060724045,1809
1320.8840318230418,1865
1322.9953008780249,1875
1325.1060134792888,1779
1327.2161698688478,1835
1329.3257702887959,1896
1331.4348149813054,1918
1333.5433041886276,1825
1335.6512381530933,1826
1337.7586171171101,1937
1339.8654413231675,1847
1341.9717110138317,1843
1344.0774264317488,1865
1346.1825878196432,1906
1348.2871954203192,1885
1350.3912494766587,1853
1352.4947502316231,1829
1354.5976979282532,1824
1356.7000928096686,1814
1358.8019351190665,1748
1360.9032250997243,1864
1363.0039629949988,1849
1365.1041490483235,1834
1367.2037835032133,1798
1369.3028666032606,1841
1371.401398592137,1849
1373.4993797135926,1839
1375.5968102114575,1904
1377.6936903296396,1801
1379.7900203121262,1912
1381.8858004029835,1793
1383.9810308463561,1889
1386.075711886469,1814
1388.1698437676241,1938
1390.2634267342032,1887
1392.356461030667,1893
1394.4489469015557,1851
1396.5408845914872,1959
1398.6322743451592,1916
1400.7231164073469,1903
1402.813411022907,1934
1404.903158436773,1910
1406.9923588939578,1912
1409.0810126395531,1908
1411.1691199187303,1950
1413.2566809767386,1992
1415.343696058907,1977
1417.4301654106425,2026
1419.5160892774315,2036
1421.6014679048399,2049
1423.6863015385125,2074
1425.7705904241707,2004
1427.8543348076178,2107
1429.9375349347342,2097
1432.0201910514802,2142
1434.102303403894,2107
1436.1838722380944,2137
1438.2648978002767,2151
1440.3453803367174,2207
1442.4253200937692,2397
1444.5047173178677,2320
1446.5835722555234,2393
1448.6618851533285,2361
1450.739656257952,2460
1452.8168858161434,2413
1454.8935740747306,2572
1456.96972128062,2492
1459.045327680797,2601
1461.120393522327,2563
1463.1949190523528,2719
1465.2689045180973,2764
1467.3423501668608,2794
1469.415256246024,2788
1471.4876230030463,2734
1473.559450685465,2952
1475.6307395408976,2994
1477.7014898170391,3016
1479.771701761665,3018
1481.8413756226287,3054
1483.9105116478618,3036
1485.9791100853772,3247
1488.0471711832643,3253
1490.1146951896926,3203
1492.1816823529098,3313
1494.2481329212433,3434
1496.3140471430984,3300
1498.3794252669609,3379
1500.4442675413939,3421
1502.5085742150404,3401
1504.572345536622,3476
1506.6355817549388,3522
1508.6982831188702,3600
1510.7604498773744,3641
1512.8220822794883,3580
1514.8831805743293,3683
1516.9437450110909,3744
1519.003775839048,3650
1521.0632733075522,3725
1523.1222376660367,3675
1525.1806691640113,3844
1527.2385680510652,3863
1529.2959345768668,3815
1531.3527689911643,3853
1533.4090715437833,3864
1535.4648424846291,3946
1537.5200820636855,4129
1539.5747905310159,4131
1541.6289681367616,4193
1543.6826151311434,4253
1545.7357317644614,4324
1547.7883182870937,4331
1549.8403749494987,4511
1551.8919020022113,4428
1553.9428996958477,4613
1555.9933682811015,4666
1558.0433080087469,4824
1560.0927191296346,4937
1562.1416018946961,5053
1564.1899565549415,4943
1566.2377833614592,4943
1568.2850825654164,4901
1570.3318544180606,4751
1572.3780991707158,4548
1574.423817074788,4416
1576.4690083817595,4366
1578.5136733431923,4129
1580.5578122107272,3867
1582.601425236085,3691
1584.6445126710646,3584
1586.6870747675434,3348
1588.7291117774776,3262
1590.7706239529034,2990
1592.8116115459347,2919
1594.8520748087658,2886
1596.8920139936686,2678
1598.9314293529933,2650
1600.9703211391711,2481
1603.008689604711,2511
1605.0465350022005,2386
1607.0838575843068,2400
1609.1206576037753,2287
1611.1569353134305,2207
1613.1926909661765,2129
1615.2279248149953,2041
1617.2626371129481,2032
1619.2968281131757,2092
1621.3304980688963,2017
1623.3636472334088,1984
1625.39627586009,1842
1627.428384202396,1958
1629.459972513861,1880
1631.4910410480993,1864
1633.5215900588028,1849
1635.551619799744,1835
1637.5811305247717,1873
1639.6101224878166,1806
1641.6385959428862,1853
1643.6665511440683,1750
1645.693988345528,1755
1647.7209078015112,1761
1649.7473097663405,1832
1651.7731944944203,1708
1653.7985622402307,1729
1655.823413258333,1762
1657.847747803366,1772
1659.8715661300494,1764
1661.8948684931793,1758
1663.9176551476316,1741
1665.9399263483624,1700
1667.9616823504057,1748
1669.982923408873,1724
1672.0036497789574,1753
1674.0238617159293,1662
1676.043559475138,1631
1678.0627433120121,1696
1680.081413482059,1735
1682.0995702408654,1721
1684.117213844096,1725
1686.134344547495,1749
1688.1509626068864,1724
1690.1670682781705,1685
1692.182661817329,1697
1694.1977434804217,1701
1696.2123135235875,1652
1698.226372203043,1721
1700.2399197750851,1708
1702.2529564960905,1712
1704.2654826225112,1657
1706.277498410882,1740
1708.2890041178139,1701
1710.2999999999988,1708
1712.3104863142066,1635
1714.3204633172854,1629
1716.329931266163,1634
1718.3388904178469,1662
1720.3473410294214,1627
1722.3552833580516,1640
1724.3627176609807,1692
1726.3696441955308,1650
1728.3760632191033,1672
1730.3819749891782,1567
1732.3873797633146,1549
1734.3922777991502,1578
1736.3966693544012,1568
1738.4005546868639,1609
1740.4039340544127,1589
1742.406807715001,1587
1744.4091759266616,1539
1746.4110389475054,1560
1748.4123970357223,1617
1750.413250449582,1559
1752.4135994474318,1533
1754.4134442876993,1583
1756.4127852288902,1538
1758.4116225295893,1455
1760.4099564484595,1543
1762.407787244244,1481
1764.405115175764,1551
1766.4019405019203,1533
1768.3982634816916,1522
1770.3940843741357,1521
1772.3894034383907,1506
1774.3842209336717,1479
1776.378537119274,1417
1778.372352254571,1449
1780.3656665990156,1459
1782.3584804121397,1475
1784.3507939535534,1481
1786.3426074829463,1455
1788.3339212600863,1495
1790.3247355448211,1482
1792.3150505970766,1468
1794.3048666768573,1511
1796.2941840442477,1508
1798.2830029594106,1549
1800.2713236825884,1472
1802.2591464741004,1451
1804.2464715943465,1466
1806.2332993038058,1490
1808.2196298630352,1471
1810.2054635326708,1466
1812.190800573428,1386
1814.175641246101,1457
1816.1599858115628,1465
1818.1438345307652,1506
1820.127187664738,1465
1822.1100454745924,1473
1824.092408221516,1390
1826.0742761667766,1471
1828.055649571721,1434
1830.0365286977735,1449
1832.0169138064398,1492
1833.9968051593014,1464
1835.9762030180214,1425
1837.9551076443408,1448
1839.9335193000788,1419
1841.9114382471344,1547
1843.888864747485,1460
1845.8657990631878,1435
1847.842241456378,1422
1849.8181921892697,1427
1851.7936515241558,1395
1853.7686197234098,1425
1855.7430970494815,1386
1857.7170837649014,1412
1859.6905801322787,1424
1861.6635864143004,1407
1863.6361028737338,1413
1865.608129773424,1468
1867.5796673762961,1450
1869.5507159453537,1421
1871.521275743678,1463
1873.4913470344313,1439
1875.4609300808534,1455
1877.4300251462632,1419
1879.3986324940588,1461
1881.366752387717,1520
1883.3343850907936,1530
1885.3015308669228,1509
1887.268189979819,1454
1889.2343626932739,1490
1891.2000492711595,1446
1893.1652499774254,1559
1895.1299650761011,1476
1897.0941948312952,1485
1899.0579395071945,1446
1901.0211993680641,1478
1902.98397467825,1509
1904.9462657021745,1499
1906.9080727043415,1459
1908.869395949332,1503
1910.8302357018065,1484
1912.790592226504,1496
1914.7504657882428,1531
1916.7098566519212,1526
1918.6687650825133,1430
1920.6271913450764,1475
1922.5851357047422,1405
1924.5425984267245,1431
1926.499579776314,1408
1928.4560800188833,1414
1930.4120994198802,1506
1932.367638244833,1416
1934.32269675935,1508
1936.2772752291175,1474
1938.231373919899,1453
1940.1849930975404,1459
1942.1381330279637,1477
1944.0907939771696,1440
1946.0429762112412,1409
1947.9946799963363,1451
1949.9459055986945,1450
1951.896653284633,1457
1953.8469233205478,1461
1955.7967159729142,1466
1957.7460315082863,1435
1959.6948701932974,1462
1961.6432322946594,1415
1963.5911180791632,1441
1965.5385278136787,1445
1967.4854617651545,1496
1969.4319202006182,1429
1971.377903387176,1459
1973.3234115920136,1464
1975.268445082395,1451
1977.2130041256642,1394
1979.1570889892423,1433
1981.1006999406304,1364
1983.04383724741,1402
1984.986501177238,1381
1986.928691997853,1354
1988.8704099770712,1418
1990.811655382789,1448
1992.7524284829801,1416
1994.692729545698,1443
1996.6325588390755,1430
1998.5719166313224,1376
2000.5108031907307,1363
2002.4492187856677,1419
2004.387163684583,1426
2006.3246381560011,1367
2008.2616424685298,1373
2010.1981768908527,1410
2012.1342416917332,1431
2014.069837140014,1377
2016.0049635046162,1371
2017.9396210545406,1367
2019.8738100588666,1364
2021.8075307867502,1340
2023.740783507431,1368
2025.6735684902228,1400
2027.6058860045214,1352
2029.5377363198004,1359
2031.4691197056118,1403
2033.4000364315875,1398
2035.3304867674374,1379
2037.260470982952,1337
2039.189989347998,1332
2041.1190421325232,1353
2043.047629606554,1360
2044.9757520401945,1375
2046.9034097036288,1388
2048.8306028671195,1331
2050.7573318010086,1380
2052.683596775716,1395
2054.609398061742,1341
2056.5347359296647,1348
2058.4596106501403,1368
2060.384022493906,1295
2062.3079717317764,1383
2064.231458634646,1367
2066.1544834734873,1390
2068.077046519352,1367
2069.99914804337,1398
2071.9207883167524,1364
2073.8419676107865,1327
2075.7626861968406,1310
2077.6829443463607,1330
2079.6027423308715,1303
2081.522080421977,1383
2083.440958891362,1404
2085.359378010786,1278
2087.2773380520907,1331
2089.194839287196,1377
2091.111881988101,1324
2093.0284664268825,1344
2094.9445928756973,1367
2096.86026160678,1365
2098.775472892446,1345
2100.690227005088,1345
2102.604524217178,1341
2104.5183648012676,1408
2106.431749029985,1358
2108.34467717604,1338
2110.2571495122206,1355
2112.169166311393,1393
2114.080727846503,1361
2115.9918343905747,1382
2117.902486216711,1343
2119.8126835980956,1362
2121.722426807987,1316
2123.6317161197285,1359
2125.5405518067364,1406
2127.448934142509,1396
2129.356863400624,1383
2131.264339854737,1387
2133.1713637785815,1410
2135.077935445972,1423
2136.9840551308002,1398
2138.889723107037,1460
2140.7949396487334,1416
2142.699705030018,1300
2144.6040195250994,1408
2146.507883408264,1385
2148.4112969538774,1400
2150.3142604363848,1425
2152.2167741303097,1478
2154.1188383102535,1397
2156.0204532508997,1348
2157.9216192270064,1493
2159.822336513414,1444
2161.7226053850413,1460
2163.622426116884,1352
2165.5217989840185,1416
2167.4207242616,1360
2169.319202224862,1445
2171.2172331491165,1429
2173.1148173097563,1414
2175.0119549822507,1422
2176.90864644215,1428
2178.8048919650823,1458
2180.7006918267534,1487
2182.596046302952,1456
2184.4909556695407,1403
2186.3854202024645,1477
2188.279440177746,1411
2190.173015871487,1448
2192.066147559868,1433
2193.958835519149,1469
2195.851080025667,1399
2197.7428813558417,1347
2199.6342397861667,1411
2201.5251555932186,1406
2203.415629053651,1475
2205.3056604441986,1394
2207.19525004167,1440
2209.084398122958,1437
2210.9731049650327,1438
2212.861370844941,1489
2214.749196039812,1465
2216.636580826851,1552
2218.523525483344,1504
2220.410030286655,1464
2222.296095514226,1460
2224.1817214435805,1433
2226.066908352319,1444
2227.951656518121,1472
2229.835966218746,1416
2231.71983773203,1492
2233.6032713358913,1416
2235.486267308324,1427
2237.3688259274036,1390
2239.2509474712824,1391
2241.132632218193,1459
2243.013880446447,1381
2244.8946924344323,1400
2246.7750684606203,1469
2248.6550088035574,1413
2250.534513741871,1444
2252.413583554265,1412
2254.292218519526,1385
2256.170418916517,1391
2258.0481850241786,1457
2259.925517121534,1501
2261.8024154876825,1393
2263.678880401803,1428
2265.5549121431536,1415
2267.430510991071,1488
2269.305677224971,1384
2271.180411124348,1452
2273.0547129687766,1414
2274.9285830379076,1422
2276.8020216114737,1466
2278.6750289692845,1409
2280.5476053912294,1437
2282.4197511572766,1411
2284.2914665474727,1424
2286.162751841943,1480
2288.0336073208937,1390
2289.904033264608,1477
2291.774029953448,1389
2293.6435976678554,1471
2295.5127366883517,1410
2297.381447295534,1391
2299.2497297700825,1315
2301.1175843927526,1304
2302.9850114443825,1363
2304.852011205885,1330
2306.7185839582553,1300
2308.5847299825664,1356
2310.4504495599676,1299
2312.3157429716925,1246
2314.1806104990483,1263
2316.0450524234247,1258
2317.9090690262888,1300
2319.772660589186,1324
2321.635827393742,1324
2323.498569721661,1266
2325.3608878547248,1265
2327.2227820747967,1300
2329.0842526638157,1284
2330.945299903803,1304
2332.805924076857,1270
2334.6661254651535,1247
2336.525904350951,1248
2338.3852610165827,1223
2340.244195744464,1205
2342.102708817088,1225
2343.9608005170253,1267
2345.8184711269287,1256
2347.675720929526,1263
2349.532550207628,1261
2351.38895924412,1262
2353.24494832197,1313
2355.100517724223,1314
2356.955667734004,1265
2358.810398634514,1266
2360.664710709037,1292
2362.5186042409337,1249
2364.3720795136437,1315
2366.225136810686,1286
2368.0777764156583,1287
2369.929998612237,1286
2371.7818036841777,1274
2373.633191915315,1284
2375.484163589562,1319
2377.3347189909114,1308
2379.184858403434,1304
2381.03458211128,1315
2382.8838903986775,1387
2384.732783549936,1352
2386.5812618494406,1277
2388.4293255816588,1307
2390.2769750311327,1274
2392.1242104824883,1332
2393.971032220427,1282
2395.8174405297295,1287
2397.6634356952563,1349
2399.509018001947,1333
2401.3541877348193,1337
2403.1989451789705,1423
2405.043290619576,1337
2406.8872243418905,1318
2408.730746631247,1343
2410.5738577730594,1329
2412.4165580528183,1250
2414.258847756095,1315
2416.100727168537,1300
2417.9421965758734,1337
2419.783256263912,1359
2421.623906518538,1408
2423.4641476257157,1334
2425.303979871491,1288
2427.143403541984,1358
2428.9824189233977,1360
2430.821026302012,1332
2432.6592259641866,1374
2434.497018196361,1355
2436.33440328505,1356
2438.171381516851,1338
2440.00795317844,1365
2441.844118556569,1386
2443.6798779380724,1361
2445.5152316098606,1305
2447.3501798589255,1254
2449.1847229723357,1356
2451.0188612372403,1327
2452.8525949408663,1332
2454.6859243705203,1351
2456.518849813587,1320
2458.3513715575314,1333
2460.183489889895,1349
2462.015205098301,1353
2463.8465174704493,1322
2465.67742729412,1323
2467.5079348571717,1339
2469.338040447542,1347
2471.1677443532476,1408
2472.9970468623833,1335
2474.825948263123,1355
2476.6544488437207,1382
2478.482548892508,1355
2480.310248697896,1322
2482.137548548374,1325
2483.9644487325118,1382
2485.790949538956,1410
2487.617051256433,1361
2489.44275417375,1428
2491.26805857979,1402
2493.0929647635157,1370
2494.917473013971,1393
2496.741583620276,1389
2498.5652968716304,1383
2500.3886130573137,1438
2502.2115324666834,1364
2504.0340553891765,1422
2505.856182114308,1420
2507.6779129316733,1391
2509.499248130945,1429
2511.3201880018764,1478
2513.140732834298,1466
2514.9608829181198,1436
2516.780638543331,1455
2518.6,1465
2520.418967578273,1411
2522.237541568376,1420
2524.0557222606144,1478
2525.8735099453706,1461
2527.6909049131086,1490
2529.507907454368,1515
2531.32451785977,1522
2533.140736420014,1488
2534.9565634258774,1459
2536.771999168218,1552
2538.5870439379714,1519
2540.4016980261526,1505
2542.2159617238544,1606
2544.02983532225,1549
2545.8433191125914,1577
2547.656413386209,1584
2549.4691184345115,1580
2551.2814345489874,1640
2553.093362021204,1564
2554.904901142808,1624
2556.716052205523,1698
2558.526815501153,1660
2560.3371913215824,1721
2562.147179958771,1727
2563.956781704761,1721
2565.7659968516705,1669
2567.5748256916986,1778
2569.3832685171224,1701
2571.1913256202984,1719
2572.9989972936614,1797
2574.806283829725,1759
2576.613185521084,1742
2578.4197026604074,1827
2580.2258355404483,1776
2582.031584454035,1787
2583.836949694077,1817
2585.6419315535613,1799
2587.4465303255533,1852
2589.2507463032002,1817
2591.0545797797245,1890
2592.8580310484303,1850
2594.6611004026995,1844
2596.463788135992,1818
2598.266094541849,1892
2600.0680199138874,1800
2601.869564545807,1930
2603.670728731383,1915
2605.4715127644704,1841
2607.2719169390048,1865
2609.071941548998,1907
2610.8715868885433,1892
2612.670853251811,1837
2614.469740933052,1884
2616.268250226594,1872
2618.0663814268455,1873
2619.864134828292,1860
2621.6615107255006,1898
2623.458509413115,1805
2625.2551311858597,1797
2627.0513763385347,1803
2628.8472451660223,1784
2630.6427379632833,1801
2632.4378550253564,1823
2634.232596647359,1677
2636.026963124488,1689
2637.8209547520187,1683
2639.6145718253065,1690
2641.407814639785,1698
2643.200683490966,1673
2644.9931786744414,1627
2646.7853004858807,1668
2648.577049221034,1605
2650.3684251757277,1611
2652.1594286458712,1595
2653.9500599274484,1636
2655.740319316525,1654
2657.5302071092437,1542
2659.3197236018286,1578
2661.10886909058,1543
2662.8976438718782,1522
2664.686048242183,1596
2666.4740824980327,1526
2668.2617469360443,1470
2670.0490418529134,1494
2671.8359675454153,1511
2673.622524310403,1478
2675.408712444811,1396
2677.1945322456495,1404
2678.979984010009,1432
2680.76506803506,1453
2682.5497846180497,1450
2684.334134056306,1423
2686.1181166472343,1369
2687.9017326883213,1425
2689.6849824771293,1409
2691.4678663113013,1398
2693.2503844885596,1411
2695.032537306705,1362
2696.8143250636167,1297
2698.5957480572542,1338
2700.3768065856534,1351
2702.1575009469316,1357
2703.937831439283,1302
2705.717798360982,1318
2707.4974020103837,1337
2709.276642685917,1288
2711.055520686095,1330
2712.834036309506,1354
2714.612189854819,1263
2716.389981620782,1294
2718.1674119062204,1338
2719.944481010041,1318
2721.721189231226,1327
2723.4975368688415,1252
2725.273524222027,1340
2727.0491515900053,1325
2728.824419272075,1267
2730.5993275676146,1336
2732.3738767760838,1263
2734.148067197016,1302
2735.921899130031,1298
2737.6953728748194,1238
2739.468488731156,1246
2741.2412469988926,1260
2743.0136479779617,1256
2744.785691968372,1210
2746.5573792702116,1278
2748.3287101836504,1271
2750.099685008934,1271
2751.870304046388,1229
2753.640567596418,1234
2755.4104759595057,1216
2757.1800294362156,1290
2758.949228327187,1259
2760.7180729331412,1212
2762.486563554877,1263
2764.254700493272,1272
2766.022484049284,1212
2767.789914523947,1221
2769.5569922183786,1229
2771.3237174337705,1279
2773.090090471394,1269
2774.8561116326036,1278
2776.6217812188274,1239
2778.3870995315756,1249
2780.1520668724356,1225
2781.9166835430747,1268
2783.6809498452394,1233
2785.444866080754,1262
2787.2084325515225,1234
2788.971649559527,1292
2790.73451740683,1217
2792.4970363955713,1186
2794.2592068279705,1224
2796.0210290063264,1254
2797.7825032330147,1301
2799.543629810493,1283
2801.304409041296,1243
2803.0648412280366,1195
2804.8249266734088,1259
2806.5846656801846,1200
2808.344058551212,1269
2810.1031055894246,1270
2811.8618070978273,1218
2813.6201633795085,1241
2815.378174737636,1252
2817.1358414754536,1247
2818.893163896285,1270
2820.6501423035334,1179
2822.4067770006814,1247
2824.1630682912883,1233
2825.9190164789957,1268
2827.6746218675207,1221
2829.429884760661,1274
2831.184805462294,1199
2832.9393842763743,1234
2834.693621506936,1273
2836.4475174580916,1195
2838.201072434034,1241
2839.954286739034,1244
2841.707160677441,1191
2843.459694553685,1232
2845.2118886722724,1267
2846.96374333779,1222
2848.7152588549034,1220
2850.4664355283567,1314
2852.217273662973,1250
2853.9677735636546,1269
2855.7179355353833,1226
2857.4677598832186,1252
2859.217246912299,1236
2860.9663969278427,1231
2862.715210235146,1233
2864.4636871395846,1223
2866.211827946614,1200
2867.9596329617652,1228
2869.7071024906536,1258
2871.4542368389684,1224
2873.20103631248,1219
2874.947501217038,1196
2876.6936318585695,1255
2878.4394285430812,1217
2880.1848915766604,1236
2881.9300212654707,1220
2883.6748179157553,1212
2885.4192818338374,1221
2887.1634133261173,1249
2888.907212699077,1226
2890.6506802592744,1218
2892.393816313348,1220
2894.1366211680142,1294
2895.8790951300693,1239
2897.621238506388,1254
2899.363051603925,1187
2901.1045347297118,1247
2902.8456881908596,1201
2904.58651229456,1159
2906.327007348081,1193
2908.067173658772,1266
2909.8070115340597,1204
2911.5465212814497,1222
2913.285703208527,1190
2915.0245576229563,1256
2916.7630848324807,1226
2918.5012851449196,1218
2920.2391588681758,1311
2921.976706310227,1208
2923.7139277791334,1189
2925.4508235830313,1177
2927.187394030137,1184
2928.923639428745,1193
2930.6595600872306,1204
2932.395156314046,1209
2934.1304284177218,1202
2935.8653767068713,1188
2937.6000014901815,1136
2939.3343030764227,1177
2941.068281774442,1238
2942.8019378931644,1211
2944.5352717415976,1235
2946.2682836288236,1187
2948.0009738640065,1196
2949.7333427563885,1235
2951.465390615289,1196
2953.1971177501086,1264
2954.9285244703265,1236
2956.6596110855,1204
2958.3903779052657,1191
2960.1208252393385,1230
2961.8509533975125,1219
2963.5807626896617,1204
2965.3102534257378,1184
2967.0394259157715,1156
2968.768280469873,1261
2970.496817398232,1249
2972.2250370111146,1194
2973.952939618869,1253
2975.6805255319196,1167
2977.4077950607707,1254
2979.134748516006,1271
2980.861386208289,1181
2982.587708448359,1217
2984.313715547037,1201
2986.039407815222,1204
2987.764785563891,1229
2989.489849104102,1208
2991.2145987469908,1197
2992.9390348037705,1185
2994.6631575857346,1196
2996.3869674042576,1212
2998.1104645707887,1225
2999.83364939686,1203
3001.5565221940783,1257
3003.2790832741334,1190
3005.0013329487924,1198
3006.7232715298996,1199
3008.4448993293804,1228
3010.166216659239,1202
3011.887223831558,1201
3013.607921158498,1176
3015.3283089522993,1188
3017.0483875252826,1215
3018.7681571898443,1228
3020.4876182584626,1191
3022.2067710436927,1215
3023.9256158581707,1205
3025.644153014609,1190
3027.362382825801,1207
3029.0803056046193,1211
3030.797921664012,1184
3032.5152313170106,1170
3034.2322348767225,1218
3035.9489326563353,1165
3037.665324969115,1161
3039.3814121284063,1171
3041.097194447633,1261
3042.812672240299,1200
3044.5278458199855,1227
3046.2427155003525,1173
3047.9572815951406,1216
3049.671544418167,1264
3051.38550428333,1174
3053.0991615046073,1156
3054.812516396051,1185
3056.5255692717974,1276
3058.2383204460575,1157
3059.9507702331257,1208
3061.662918947372,1233
3063.3747669032446,1180
3065.0863144152736,1234
3066.7975617980674,1223
3068.508509366309,1234
3070.219157434767,1206
3071.9295063182844,1206
3073.639556331785,1172
3075.3493077902704,1241
3077.058761008821,1211
3078.7679163025964,1175
3080.476773986837,1260
3082.1853343768594,1229
3083.89359778806,1241
3085.6015645359153,1242
3087.3092349359786,1233
3089.016609303884,1275
3090.7236879553434,1293
3092.4304712061476,1230
3094.136959372166,1200
3095.843152769349,1209
3097.5490517137237,1252
3099.2546565213966,1246
3100.959967508554,1175
3102.66498499146,1174
3104.3697092864577,1225
3106.0741407099695,1220
3107.778279578498,1216
3109.482126208622,1181
3111.1856809170004,1177
3112.8889440203716,1193
3114.5919158355528,1176
3116.294596679439,1280
3117.996986869006,1197
3119.6990867213062,1221
3121.4008965534726,1249
3123.102416682717,1227
3124.803647426329,1236
3126.5045891016784,1268
3128.205242026213,1213
3129.90560651746,1234
3131.605682893025,1243
3133.3054714705922,1243
3135.0049725679282,1197
3136.7041865028714,1200
3138.4031135933465,1232
3140.101754157353,1242
3141.800108512971,1200
3143.498176978357,1226
3145.1959598717494,1167
3146.8934575114636,1205
3148.5906702158954,1236
3150.2875983035183,1191
3151.9842420928853,1211
3153.680601902627,1184
3155.376678051456,1173
3157.07247085816,1171
3158.767980641609,1195
3160.463207720748,1232
3162.158152414606,1181
3163.8528150422862,1214
3165.5471959229726,1198
3167.2412953759303,1185
3168.9351137204976,1185
3170.628651276098,1152
3172.3219083622307,1164
3174.014885298474,1245
3175.707582404485,1183
3177.4000000000005,1219
3179.092138404835,1248
3180.7839979388846,1170
3182.47557892212,1165
3184.166881674594,1188
3185.8579065164386,1161
3187.5486537678626,1273
3189.2391237491547,1221
3190.9293167806827,1205
3192.6192331828934,1197
3194.3088732763117,1169
3195.998237381542,1163
3197.687325819268,1224
3199.376138910251,1159
3201.064676975334,1183
3202.7529403354347,1150
3204.4409293115523,1174
3206.1286442247647,1206
3207.816085396229,1189
3209.5032531471825,1160
3211.190147798936,1166
3212.8767696728846,1186
3214.5631190905015,1110
3216.2491963733373,1177
3217.9350018430214,1148
3219.6205358212637,1155
3221.305798629851,1174
3222.990790590651,1187
3224.6755120256103,1191
3226.359963256751,1197
3228.0441446061795,1164
3229.7280563960758,1091
3231.411698948703,1174
3233.0950725863995,1153
3234.778177631587,1139
3236.461014406761,1167
3238.1435832345005,1192
3239.8258844374595,1173
3241.507918338374,1156
3243.1896852600576,1134
3244.8711855254023,1141
3246.552419457381,1171
3248.233387379042,1184
3249.914089613516,1170
3251.59452648401,1208
3253.274698313813,1184
3254.95460542629,1139
3256.6342481448855,1158
3258.313626793125,1136
3259.9927416946084,1111
3261.6715931730196,1122
3263.3501815521176,1144
3265.0285071557437,1178
3266.706570307815,1153
3268.3843713323286,1121
3270.0619105533615,1142
3271.739188295068,1150
3273.4162048816834,1166
3275.0929606375184,1163
3276.769455886966,1188
3278.445690954498,1192
3280.1216661646613,1165
3281.797381842087,1192
3283.4728383114807,1219
3285.1480358976296,1195
3286.8229749253996,1154
3288.4976557197333,1176
3290.172078605655,1202
3291.846243908266,1210
3293.5201519527463,1162
3295.193803064357,1143
3296.8671975684374,1130
3298.5403357904024,1112
3300.21321805575,1104
3301.8858446900567,1110
3303.558216018975,1196
3305.23033236824,1167
3306.9021940636603,1128
3308.57380143113,1103
3310.2451547966184,1129
3311.916254486174,1163
3313.5871008259246,1206
3315.2576941420766,1176
3316.9280347609147,1170
3318.5981230088046,1126
3320.2679592121895,1152
3321.9375436975924,1113
3323.606876791612,1099
3325.27595882093,1123
3326.944790112305,1191
3328.6133709925753,1119
3330.2817017886573,1108
3331.949782827547,1156
3333.617614436319,1170
3335.2851969421245,1161
3336.952530672199,1125
3338.619615953853,1144
3340.286453114475,1174
3341.9530424815357,1192
3343.619384382583,1157
3345.2854791452437,1215
3346.951327097224,1150
3348.6169285663073,1155
3350.2822838803577,1159
3351.947393367319,1175
3353.61225735521,1173
3355.2768761721345,1203
3356.9412501462693,1172
3358.605379605873,1181
3360.2692648792827,1140
3361.9329062949146,1121
3363.596304181263,1143
