CollectionTime,9/20/2024 12:13:05 PM
ExposureUsed,3
CalibratedSpectrum
-962.7078968117929,634
-959.9714848408522,675
-957.2358232597828,683
-954.5009119013725,656
-951.7667505983302,704
-949.0333391832855,747
-946.3006774887896,705
-943.5687653473143,715
-940.837602591253,736
-938.1071890529199,699
-935.3775245645503,685
-932.6486089583007,693
-929.9204420662485,708
-927.1930237203925,690
-924.4663537526524,720
-921.7404319948689,722
-919.0152582788041,691
-916.2908324361409,732
-913.5671542984834,705
-910.8442236973568,696
-908.1220404642074,696
-905.4006044304027,683
-902.679915427231,699
-899.959973285902,659
-897.2407778375464,678
-894.5223289132158,678
-891.8046263438832,685
-889.0876699604426,687
-886.3714595937089,686
-883.6559950744183,653
-880.9412762332282,631
-878.2273029007168,630
-875.5140749073835,656
-872.8015920836489,659
-870.0898542598545,669
-867.3788612662631,639
-864.6686129330585,639
-861.9591090903457,680
-859.2503495681506,663
-856.5423341964203,637
-853.8350628050229,644
-851.1285352237478,612
-848.4227512823054,663
-845.7177108103272,643
-843.0134136373656,643
-840.3098595928943,627
-837.6070485063082,674
-834.9049802069229,676
-832.2036545239757,676
-829.5030712866244,680
-826.8032303239481,630
-824.1041314649472,655
-821.4057745385428,641
-818.7081593735775,675
-816.0112857988148,638
-813.3151536429393,686
-810.6197627345566,640
-807.9251129021936,665
-805.2312039742981,633
-802.5380357792392,684
-799.8456081453069,663
-797.1539209007124,654
-794.462973873588,687
-791.772766891987,723
-789.083299783884,692
-786.3945723771743,693
-783.7065844996748,663
-781.0193359791231,668
-778.3328266431781,681
-775.6470563194197,668
-772.9620248353489,631
-770.2777320183878,685
-767.5941776958798,668
-764.9113616950891,689
-762.2292838432011,661
-759.5479439673222,665
-756.8673418944801,675
-754.1874774516235,696
-751.5083504656222,665
-748.8299607632671,669
-746.15230817127,713
-743.475392516264,676
-740.7992136248035,720
-738.1237713233636,667
-735.4490654383407,672
-732.7750957960521,671
-730.1018622227365,709
-727.4293645445534,742
-724.7576025875837,743
-722.0865761778291,738
-719.4162851412126,723
-716.7467293035781,733
-714.0779084906909,710
-711.409822528237,727
-708.7424712418238,713
-706.0758544569796,720
-703.4099719991541,711
-700.7448236937178,698
-698.0804093659622,713
-695.4167288411002,771
-692.7537819442656,706
-690.0915685005134,777
-687.4300883348199,744
-684.7693412720819,732
-682.1093271371178,755
-679.4500457546669,744
-676.7914969493897,742
-674.1336805458676,776
-671.4765963686034,758
-668.8202442420206,743
-666.1646239904642,806
-663.5097354382001,812
-660.8555784094151,794
-658.2021527282176,748
-655.5494582186366,806
-652.8974947046223,806
-650.2462620100463,799
-647.5957599587009,790
-644.9459883742998,801
-642.2969470804776,836
-639.6486359007902,836
-637.0010546587141,820
-634.3542031776476,809
-631.7080812809096,816
-629.0626887917401,792
-626.4180255333008,785
-623.7740913286734,824
-621.1308860008619,820
-618.4884093727904,817
-615.8466612673046,796
-613.2056415071715,789
-610.5653499150785,823
-607.9257863136347,861
-605.28695052537,820
-602.6488423727357,818
-600.0114616781036,812
-597.3748082637674,831
-594.7388819519412,795
-592.1036825647604,830
-589.4692099242818,797
-586.8354638524829,839
-584.2024441712624,878
-581.5701507024403,863
-578.9385832677575,866
-576.3077416888759,851
-573.6776257873787,828
-571.0482353847704,828
-568.4195703024757,829
-565.7916303618415,794
-563.164415384135,794
-560.5379251905453,823
-557.9121596021815,835
-555.2871184400748,821
-552.6628015251767,827
-550.0392086783606,901
-547.4163397204204,904
-544.794194472071,917
-542.1727727539491,855
-539.5520743866118,848
-536.9320991905377,861
-534.3128469861261,896
-531.6943175936979,912
-529.0765108334947,898
-526.4594265256793,1045
-523.8430644903358,1159
-521.2274245474689,1350
-518.612506517005,1413
-515.9983102187913,1444
-513.3848354725959,1507
-510.77208209810846,1510
-508.16004991493924,1536
-505.5487387426199,1644
-502.9381484006032,1757
-500.3282787082628,1806
-497.71912948489364,1690
-495.1107005497117,1626
-492.5029917218539,1520
-489.8960028203786,1331
-487.28973366426493,1288
-484.68418407241325,1132
-482.07935386364494,1078
-479.47524285670266,1055
-476.87185087025,994
-474.2691777228715,1062
-471.66722323307334,1048
-469.0659872192821,1051
-466.4654694998459,1064
-463.86566989303384,1017
-461.26658821703614,1012
-458.66822428996414,998
-456.07057792985,1032
-453.4736489546475,1045
-450.877437182231,1010
-448.28194243039627,986
-445.68716451686,963
-443.09310325926003,958
-440.49975847515555,956
-437.9071299820263,995
-435.31521759727354,1011
-432.72402113821954,1041
-430.13354042210767,1059
-427.5437752661022,965
-424.95472548728867,1043
-422.36639090267386,1038
-419.7787713291855,1083
-417.1918665836721,1048
-414.60567648290385,1059
-412.0202008435715,1084
-409.4354394822874,1035
-406.8513922155845,1045
-404.26805885991723,1076
-401.685439231661,1115
-399.103533147112,1131
-396.522340422488,1100
-393.9418608739278,1108
-391.3620943174908,1061
-388.7830405691583,990
-386.2046994448317,999
-383.6270707603344,1023
-381.05015433141045,977
-378.473949973725,910
-375.8984575028645,835
-373.32367673433623,759
-370.74960748356875,698
-368.1762495659117,670
-365.60360279663576,670
-363.03166699093265,675
-360.4604419639154,587
-357.8899275306178,553
-355.32012350599507,526
-352.7510297049233,531
-350.1826459421999,568
-347.61497203254316,537
-345.04800779059235,505
-342.4817530309082,492
-339.91620756797226,570
-337.35137121618743,566
-334.7872437898774,566
-332.22382510328725,480
-329.66111497058273,517
-327.09911320585127,523
-324.53781962310075,545
-321.9772340362607,533
-319.4173562591816,507
-316.8581861056348,544
-314.2997233893127,503
-311.7419679238294,484
-309.1849195227194,524
-306.62857799943856,590
-304.0729431673641,560
-301.51801483979375,594
-298.963792829947,553
-296.41027695096386,579
-293.85746701590574,567
-291.3053628377552,572
-288.7539642294155,626
-286.2032710037115,612
-283.65328297338897,637
-281.1039999511146,640
-278.5554217494762,619
-276.007548180983,684
-273.4603790580651,605
-270.9139141930734,602
-268.3681533982807,663
-265.8230964858798,662
-263.27874326798565,710
-260.7350935566336,707
-258.1921471637804,646
-255.6499039013039,712
-253.10836358100266,815
-250.56752601459698,825
-248.02739101372765,803
-245.48795838995704,809
-242.94922795476816,827
-240.41119951956557,823
-237.8738728956746,771
-235.33724789434166,710
-232.80132432673452,722
-230.2661020039418,707
-227.73158073697357,806
-225.19776033676033,824
-222.66464061415422,821
-220.1322213799284,844
-217.60050244477725,775
-215.06948361931552,881
-212.53916471408013,990
-210.00954553952818,958
-207.48062590603843,839
-204.9524056239104,809
-202.4248845033651,824
-199.8980623545441,851
-197.37193898751036,884
-194.84651421224817,968
-192.32178783866232,839
-189.79775967657952,1011
-187.27442953574644,1027
-184.7517972258321,1069
-182.2298625564256,887
-179.7086253370378,807
-177.18808537710026,895
-174.66824248596583,992
-172.14909647290835,954
-169.6306471471229,916
-167.11289431772548,948
-164.59583779375328,1020
-162.07947738416453,1220
-159.5638128978386,1255
-157.04884414357605,1299
-154.53457093009854,1223
-152.02099306604828,1004
-149.50811035998936,983
-146.99592262040665,1216
-144.48442965570587,1544
-141.97363127421409,1587
-139.46352728417958,1652
-136.95411749377126,1392
-134.44540171107985,1177
-131.93737974411636,1198
-129.43005140081357,1340
-126.92341648902493,1680
-124.41747481652521,2090
-121.91222619101006,2302
-119.40767042009657,2340
-116.90380731132257,2295
-114.40063667214702,2938
-111.8981583099503,3626
-109.3963720320337,5653
-106.89527764561933,8047
-104.39487495785067,10154
-101.89516377579241,13263
-99.39614390642998,18418
-96.89781515667039,22386
-94.40017733334128,22484
-91.90323024319173,19798
-89.40697369289148,15079
-86.91140748903172,8484
-84.41653143812482,8376
-81.92234534660395,12471
-79.42884902082358,17503
-76.93604226705907,19919
-74.4439248915071,20376
-71.95249670028534,18610
-69.46175749943245,14102
-66.97170709490854,10479
-64.48234529259423,9490
-61.99367189829195,10039
-59.50568671772464,10151
-57.01838955653636,9448
-54.53178022029283,11718
-52.045858514480074,12895
-49.560624244506016,13987
-47.07607721569923,16393
-44.59221723330904,19955
-42.10904410250669,19541
-39.62655762838392,20205
-37.14475761595372,22835
-34.66364387015028,25686
-32.18321619582866,22715
-29.70347439776515,24302
-27.224418280657005,27897
-24.74604764912317,30059
-22.26836230770266,41136
-19.7913620608565,65035
-17.315046712966478,65035
-14.83941606833514,65035
-12.36446993118659,65035
-9.89020810566592,65035
-7.416630395839093,65035
-4.94373660569363,65035
-2.471526539137585,65035
-6.821210263296962E-13,65035
2.47084320796705,65035
4.941003281093458,65035
7.410480415786196,65035
9.879274808531363,65035
12.347386655893956,65035
14.814816154518212,65035
17.28156350112681,65035
19.74762889252179,65035
22.21301252558385,29274
24.67771459727237,6575
27.141735304626195,5779
29.605074844762612,5952
32.06773341487792,5561
34.52971121224755,5140
36.99100843422559,3894
39.45162527824516,3295
41.91156194181792,4200
44.370818622535126,4257
46.82939551806646,4237
49.287292826160524,5337
51.74451074464503,4698
54.201049471426245,3373
56.65690920448981,2761
59.112090141899785,2357
61.56659248179983,2410
64.02041642241159,2571
66.4735621620365,2466
68.92602989905402,2964
71.37781983192338,3059
73.82893215918205,2622
76.27936707944684,2077
78.72912479141326,2103
81.17820549385567,2010
83.62660938562783,2022
86.07433666566146,1806
88.5213875329681,1674
90.96776218663751,1677
93.41346082583925,1903
95.85848364982041,2284
98.30283085790859,2002
100.7465026495089,1695
103.18949922410604,1840
105.63182078126385,1619
108.07346752062438,1520
110.51443964190923,1293
112.95473734491827,1211
115.39436082953114,1464
117.83331029570547,1490
120.27158594347827,1634
122.7091879729652,1631
125.1461165843615,1367
127.58237197794062,1295
130.01795435405518,1316
132.4528639131364,1226
134.88710085569494,1274
137.32066538231982,1533
139.75355769367923,1486
142.1857779905207,1293
144.61732647366978,1096
147.04820334403132,1152
149.47840880258934,1223
151.90794305040674,1305
154.33680628862487,1352
156.76499871846443,1340
159.19252054122433,1568
161.61937195828352,1753
164.04555317109896,1976
166.47106438120693,2117
168.89590579022217,2338
171.320077599839,2471
173.7435800118302,2489
176.16641322804742,2570
178.58857745042144,2792
181.01007288096173,2797
183.43089972175687,2858
185.85105817497413,2742
188.27054844285988,2803
190.6893707277394,2790
193.10752523201643,2795
195.5250121581745,2944
197.9418317087751,3016
200.3579840864594,2942
202.7734694939469,3028
205.18828813403627,3232
207.6024402096051,3140
210.01592592360964,3101
212.42874547908548,3100
214.84089907914665,3044
217.2523869269868,2968
219.66320922587727,2929
222.0733661791695,3040
224.48285799029293,3054
226.8916848627572,3207
229.29984700014882,3235
231.7073446061355,3173
234.11417788446204,3226
236.520347038953,3313
238.92585227351185,3415
241.33069379212054,3570
243.73487179884035,3525
246.1383864978112,3718
248.541238093252,3576
250.9434267894609,3553
253.34495279081432,3644
255.74581630176783,3596
258.1460175268563,3644
260.54555667069314,3831
262.9444339379703,3543
265.3426495334594,3562
267.7402036620107,3609
270.1370965285529,3407
272.53332833809407,3262
274.9288992957214,3004
277.32380960660055,3048
279.718059475976,2970
282.1116491091717,2996
284.5045787115897,2935
286.89684848871195,2786
289.2884586460981,2833
291.67940938938807,2902
294.0697009242996,2926
296.4593334566299,2821
298.84830719225477,2792
301.23662233712923,2768
303.6242790972866,2816
306.01127767884,2750
308.39761828798066,2747
310.78330113097934,2643
313.16832641418534,2579
315.5526943440269,2605
317.9364051270112,2657
320.3194589697242,2623
322.70185607883093,2530
325.0835966610754,2463
327.4646809232805,2425
329.8451090723478,2393
332.2248813152577,2511
334.6039978590701,2475
336.9824589109231,2451
339.36026467803447,2398
341.7374153677,2275
344.113911187295,2347
346.48975234427337,2282
348.8649390461686,2361
351.2394715005918,2303
353.61334991523415,2316
355.9865744978655,2291
358.35914545633375,2319
360.73106299856715,2242
363.10232733257146,2278
365.47293866643247,2161
367.84289720831396,2219
370.2122031664593,2186
372.5808567491905,2196
374.9488581649083,2225
377.31620762209275,2285
379.6829053293021,2245
382.0489514951745,2184
384.4143463284262,2184
386.7790900378528,2056
389.14318283232853,2200
391.50662492080653,2181
393.86941651231916,2176
396.23155781597745,2263
398.5930490409713,2198
400.9538903965696,2210
403.3140820921202,2133
405.6736243370498,2136
408.03251734086336,2107
410.3907613131465,2077
412.74835646356166,2074
415.10530300185144,2137
417.4616011378372,2091
419.81725108141893,2070
422.1722530425758,2081
424.5266072313656,2124
426.880313857925,2129
429.2333731324701,2057
431.58578526529516,2127
433.9375504667738,2065
436.2886689473588,2131
438.63914091758113,2154
440.9889665880513,2110
443.33814616945835,2031
445.68667987257015,2016
448.03456790823395,2114
450.3818104873759,2007
452.72840782100013,2151
455.07436012019105,2031
457.41966759611057,2065
459.7643304600007,1991
462.10834892318155,1994
464.4517231970525,2027
466.79445349309174,2011
469.1365400228566,2093
471.4779829979826,2004
473.81878263018564,2056
476.15893913125876,2039
478.4984527130747,2081
480.8373235875855,2141
483.17555196682144,2217
485.5131380628919,2265
487.8500820879857,2344
490.1863842543697,2448
492.52204477439034,2690
494.8570638604725,2777
497.1914417251204,3101
499.52517858091653,3467
501.85827464052306,3671
504.19073011668036,3746
506.5225452222086,3870
508.85372017000566,3740
511.18425517304956,3836
513.514150444396,4271
515.8434061971808,5206
518.1720226446176,6158
520.4999999999999,6312
522.8273384766991,5931
525.1540382881666,5532
527.480099647932,5101
529.8055227696037,3997
532.1303078668694,3006
534.454455153496,2497
536.777964843328,2313
539.1008371502907,2218
541.4230722883866,2152
543.744670471698,2117
546.0656319143858,2067
548.3859568306899,2159
550.7056454349294,2013
553.0246979415016,2096
555.3431145648834,2023
557.6608955196306,1986
559.978041020377,2059
562.2945512818363,2060
564.6104265188006,2076
566.9256669461412,2086
569.2402727788082,2078
571.5542442318302,2051
573.8675815203156,2041
576.1802848594508,2028
578.4923544645015,2090
580.8037905508126,2098
583.114593333807,1976
585.4247630289875,1988
587.7342998519354,2067
590.0432040183106,2054
592.3514757438526,2091
594.6591152443794,2082
596.9661227357875,2017
599.2724984340531,2040
601.578242555231,1974
603.8833553154542,1999
606.1878369309362,2004
608.4916876179676,1947
610.7949075929192,1978
613.0974970722403,1998
615.3994562724587,2001
617.7007854101818,2027
620.0014847020951,2076
622.3015543649641,2067
624.6009946156324,2092
626.8998056710224,2028
629.1979877481361,2092
631.4955410640538,2100
633.7924658359349,2053
636.0887622810175,2063
638.3844306166192,2062
640.6794710601358,2108
642.9738838290426,2105
645.2676691408932,2103
647.5608272133207,2150
649.853358264037,2183
652.1452625108324,2142
654.4365401715764,2183
656.7271914642178,2144
659.0172166067838,2200
661.3066158173809,2111
663.5953893141935,2120
665.8835373154867,2163
668.1710600396028,2134
670.4579577049639,2158
672.7442305300709,2118
675.0298787335033,2177
677.3149025339197,2231
679.599302150058,2101
681.8830778007342,2062
684.1662297048437,2041
686.4487580813608,2038
688.7306631493387,2066
691.0119451279091,2139
693.2926042362834,2144
695.5726406937516,2100
697.8520547196814,2133
700.1308465335215,2163
702.4090163547982,2026
704.6865644031171,2077
706.9634908981619,2044
709.2397960596965,2063
711.5154801075631,2137
713.7905432616823,2114
716.0649857420548,2133
718.3388077687592,2075
720.612009561953,2033
722.8845913418733,2075
725.1565533288352,2088
727.427895743234,2047
729.6986188055427,2042
731.9687227363137,2067
734.238207756178,2033
736.5070740858458,1975
738.7753219461066,2014
741.0429515578281,2069
743.3099631419569,2009
745.5763569195191,2080
747.8421331116193,2030
750.1072919394409,1997
752.3718336242467,2133
754.6357583873777,2135
756.8990664502545,2059
759.1617580343765,1983
761.423833361321,2078
763.6852926527457,2094
765.9461361303862,2029
768.206364016058,2031
770.4659765316536,2142
772.7249738991469,2118
774.9833563405886,2177
777.2411240781092,2119
779.4982773339183,2050
781.7548163303044,2127
784.010741289634,2106
786.2660524343538,2186
788.5207499869881,2124
790.7748341701416,2086
793.0283052064964,2143
795.2811633188143,2100
797.5334087299362,2141
799.7850416627813,2089
802.0360623403484,2020
804.2864709857143,2158
806.5362678220353,2082
808.7854530725468,2167
811.0340269605625,2136
813.2819897094754,2153
815.5293415427581,2133
817.77608268396,2109
820.0222133567116,2045
822.2677337847211,2149
824.5126441917765,2092
826.7569448017433,2112
829.0006358385675,2139
831.2437175262731,2113
833.4861900889629,2163
835.7280537508192,2120
837.9693087361026,2172
840.2099552691533,2149
842.4499935743896,2178
844.689423876309,2142
846.9282463994886,2147
849.1664613685833,2185
851.4040690083276,2046
853.6410695435349,2113
855.877463199097,2100
858.1132501999847,2119
860.3484307712487,2165
862.5830051380175,2191
864.8169735254988,2156
867.0503361589791,2127
869.2830932638243,2138
871.5152450654786,2169
873.7467917894654,2238
875.9777336613873,2179
878.2080709069252,2195
880.4378037518389,2110
882.666932421968,2107
884.8954571432301,2211
887.1233781416219,2301
889.3506956432192,2209
891.5774098741766,2186
893.803521060728,2252
896.0290294291852,2222
898.2539352059397,2187
900.4782386174619,2135
902.7019398903011,2219
904.925039251085,2185
907.147536926521,2222
909.3694331433943,2239
911.59072812857,2238
913.8114221089921,2162
916.0315153116827,2134
918.2510079637437,2218
920.4699002923547,2276
922.6881925247761,2211
924.905884888345,2224
927.1229776104793,2211
929.3394709186747,2217
931.555365040506,2135
933.7706602036275,2212
935.9853566357709,2135
938.1994545647489,2205
940.4129542184515,2193
942.6258558248488,2218
944.8381596119883,2241
947.0498658079974,2230
949.2609746410825,2168
951.4714863395287,2137
953.6814011316998,2187
955.8907192460387,2227
958.0994409110671,2203
960.3075663553858,2164
962.5150958076741,2286
964.7220294966913,2193
966.928367651274,2200
969.1341105003388,2175
971.3392582728806,2030
973.5438111979742,2049
975.747769504772,2074
977.9511334225061,2082
980.153903180487,2074
982.3560790081052,2065
984.5576611348289,2057
986.7586497902058,2069
988.9590452038618,2029
991.158847605503,1990
993.3580572249133,1970
995.5566742919558,1946
997.7546990365728,1847
999.952131688785,1904
1002.1489724786926,1901
1004.3452216364743,1833
1006.5408793923874,1924
1008.7359459767691,1806
1010.9304216200343,1855
1013.1243065526781,1842
1015.3176010052733,1732
1017.510305208472,1814
1019.7024193930064,1794
1021.8939437896848,1765
1024.0848786293977,1763
1026.2752241431122,1724
1028.4649805618747,1767
1030.6541481168115,1790
1032.842727039127,1860
1035.0307175601051,1815
1037.2181199111074,1775
1039.4049343235752,1734
1041.591161029029,1808
1043.7768002590683,1801
1045.9618522453698,1747
1048.1463172196918,1719
1050.3301954138697,1814
1052.513487059818,1772
1054.69619238953,1726
1056.8783116350783,1733
1059.0598450286152,1732
1061.2407928023704,1734
1063.4211551886528,1698
1065.6009324198508,1790
1067.780124728432,1693
1069.9587323469414,1728
1072.1367555080046,1686
1074.314194444325,1721
1076.4910493886855,1723
1078.667320573947,1672
1080.843008233051,1704
1083.0181125990161,1645
1085.1926339049414,1632
1087.3665723840027,1708
1089.5399282694575,1718
1091.7127017946405,1651
1093.8848931929647,1642
1096.0565026979243,1734
1098.2275305430899,1638
1100.3979769621128,1667
1102.567842188722,1670
1104.737126456726,1648
1106.9058300000124,1656
1109.0739530525475,1609
1111.2414958483764,1558
1113.4084586216231,1612
1115.5748416064907,1598
1117.7406450372605,1570
1119.9058691482942,1636
1122.0705141740304,1620
1124.2345803489884,1653
1126.3980679077658,1634
1128.5609770850388,1702
1130.7233081155623,1621
1132.8850612341707,1577
1135.0462366757774,1624
1137.2068346753745,1642
1139.3668554680326,1606
1141.526299288901,1618
1143.68516637321,1589
1145.8434569562655,1624
1148.001171273455,1658
1150.158309560244,1587
1152.3148720521767,1596
1154.470858984876,1620
1156.626270594044,1595
1158.7811071154629,1617
1160.9353687849912,1625
1163.089055838569,1639
1165.242168512213,1591
1167.3947070420209,1593
1169.5466716641677,1567
1171.6980626149075,1587
1173.8488801305748,1585
1175.9991244475814,1533
1178.1487958024186,1572
1180.2978944316555,1592
1182.4464205719428,1640
1184.5943744600072,1613
1186.7417563326567,1587
1188.8885664267755,1567
1191.0348049793297,1585
1193.1804722273619,1596
1195.325568407995,1571
1197.4700937584303,1601
1199.614048515948,1552
1201.7574329179074,1634
1203.900247201746,1589
1206.042491604982,1565
1208.1841663652099,1586
1210.3252717201053,1557
1212.465807907422,1641
1214.6057751649923,1712
1216.7451737307279,1724
1218.8840038426192,1629
1221.0222657387353,1638
1223.1599596572241,1665
1225.2970858363137,1552
1227.4336445143094,1649
1229.5696359295966,1677
1231.705060320639,1605
1233.8399179259786,1677
1235.9742089842384,1665
1238.107933734118,1665
1240.2410924143974,1711
1242.373685263935,1669
1244.5057125216676,1678
1246.6371744266116,1711
1248.7680712178621,1647
1250.898403134593,1645
1253.028170416058,1652
1255.1573733015875,1691
1257.2860120305932,1705
1259.4140868425648,1671
1261.54159797707,1674
1263.6685456737569,1663
1265.7949301723515,1623
1267.9207517126597,1665
1270.046010534565,1725
1272.1707068780306,1738
1274.2948409830983,1705
1276.4184130898889,1685
1278.541423438603,1684
1280.6638722695184,1695
1282.785759822993,1800
1284.9070863394636,1795
1287.0278520594447,1705
1289.1480572235314,1788
1291.2677020723963,1734
1293.3867868467923,1773
1295.5053117875495,1783
1297.623277135579,1791
1299.740683131868,1784
1301.8575300174857,1763
1303.973818033578,1884
1306.0895474213703,1840
1308.2047184221678,1835
1310.3193312773528,1840
1312.4333862283888,1840
1314.5468835168163,1804
1316.659823384255,1828
1318.7722060724045,1878
1320.8840318230418,1812
1322.9953008780249,1875
1325.1060134792888,1860
1327.2161698688478,1832
1329.3257702887959,1817
1331.4348149813054,1875
1333.5433041886276,1868
1335.6512381530933,1831
1337.7586171171101,1880
1339.8654413231675,1841
1341.9717110138317,1866
1344.0774264317488,1825
1346.1825878196432,1857
1348.2871954203192,1801
1350.3912494766587,1891
1352.4947502316231,1898
1354.5976979282532,1890
1356.7000928096686,1800
1358.8019351190665,1833
1360.9032250997243,1792
1363.0039629949988,1805
1365.1041490483235,1821
1367.2037835032133,1811
1369.3028666032606,1875
1371.401398592137,1850
1373.4993797135926,1856
1375.5968102114575,1809
1377.6936903296396,1835
1379.7900203121262,1880
1381.8858004029835,1847
1383.9810308463561,1852
1386.075711886469,1865
1388.1698437676241,1926
1390.2634267342032,1886
1392.356461030667,1934
1394.4489469015557,1915
1396.5408845914872,1916
1398.6322743451592,1845
1400.7231164073469,1917
1402.813411022907,1909
1404.903158436773,1917
1406.9923588939578,1947
1409.0810126395531,1958
1411.1691199187303,2027
1413.2566809767386,2009
1415.343696058907,1991
1417.4301654106425,2001
1419.5160892774315,2049
1421.6014679048399,2078
1423.6863015385125,2069
1425.7705904241707,2081
1427.8543348076178,2109
1429.9375349347342,2155
1432.0201910514802,2120
1434.102303403894,2093
1436.1838722380944,2251
1438.2648978002767,2164
1440.3453803367174,2231
1442.4253200937692,2255
1444.5047173178677,2269
1446.5835722555234,2342
1448.6618851533285,2330
1450.739656257952,2395
1452.8168858161434,2444
1454.8935740747306,2421
1456.96972128062,2523
1459.045327680797,2486
1461.120393522327,2601
1463.1949190523528,2661
1465.2689045180973,2652
1467.3423501668608,2686
1469.415256246024,2750
1471.4876230030463,2825
1473.559450685465,2827
1475.6307395408976,2862
1477.7014898170391,2818
1479.771701761665,2972
1481.8413756226287,3040
1483.9105116478618,3033
1485.9791100853772,3078
1488.0471711832643,3049
1490.1146951896926,3165
1492.1816823529098,3244
1494.2481329212433,3211
1496.3140471430984,3327
1498.3794252669609,3388
1500.4442675413939,3355
1502.5085742150404,3421
1504.572345536622,3455
1506.6355817549388,3492
1508.6982831188702,3425
1510.7604498773744,3551
1512.8220822794883,3541
1514.8831805743293,3605
1516.9437450110909,3629
1519.003775839048,3651
1521.0632733075522,3534
1523.1222376660367,3720
1525.1806691640113,3683
1527.2385680510652,3776
1529.2959345768668,3651
1531.3527689911643,3847
1533.4090715437833,3790
1535.4648424846291,3845
1537.5200820636855,4000
1539.5747905310159,4001
1541.6289681367616,3927
1543.6826151311434,4162
1545.7357317644614,4062
1547.7883182870937,4173
1549.8403749494987,4197
1551.8919020022113,4315
1553.9428996958477,4413
1555.9933682811015,4457
1558.0433080087469,4525
1560.0927191296346,4637
1562.1416018946961,4690
1564.1899565549415,4586
1566.2377833614592,4549
1568.2850825654164,4562
1570.3318544180606,4350
1572.3780991707158,4298
1574.423817074788,4222
1576.4690083817595,3923
1578.5136733431923,3744
1580.5578122107272,3652
1582.601425236085,3502
1584.6445126710646,3302
1586.6870747675434,3104
1588.7291117774776,3045
1590.7706239529034,2920
1592.8116115459347,2791
1594.8520748087658,2684
1596.8920139936686,2644
1598.9314293529933,2523
1600.9703211391711,2460
1603.008689604711,2379
1605.0465350022005,2346
1607.0838575843068,2226
1609.1206576037753,2233
1611.1569353134305,2106
1613.1926909661765,2076
1615.2279248149953,2150
1617.2626371129481,2111
1619.2968281131757,1989
1621.3304980688963,1950
1623.3636472334088,1897
1625.39627586009,1901
1627.428384202396,1944
1629.459972513861,1886
1631.4910410480993,1828
1633.5215900588028,1860
1635.551619799744,1850
1637.5811305247717,1836
1639.6101224878166,1818
1641.6385959428862,1769
1643.6665511440683,1725
1645.693988345528,1740
1647.7209078015112,1719
1649.7473097663405,1754
1651.7731944944203,1786
1653.7985622402307,1765
1655.823413258333,1756
1657.847747803366,1759
1659.8715661300494,1699
1661.8948684931793,1720
1663.9176551476316,1671
1665.9399263483624,1740
1667.9616823504057,1737
1669.982923408873,1760
1672.0036497789574,1763
1674.0238617159293,1763
1676.043559475138,1684
1678.0627433120121,1666
1680.081413482059,1782
1682.0995702408654,1683
1684.117213844096,1697
1686.134344547495,1739
1688.1509626068864,1702
1690.1670682781705,1715
1692.182661817329,1710
1694.1977434804217,1695
1696.2123135235875,1657
1698.226372203043,1663
1700.2399197750851,1771
1702.2529564960905,1716
1704.2654826225112,1695
1706.277498410882,1696
1708.2890041178139,1661
1710.2999999999988,1640
1712.3104863142066,1642
1714.3204633172854,1675
1716.329931266163,1657
1718.3388904178469,1648
1720.3473410294214,1586
1722.3552833580516,1629
1724.3627176609807,1577
1726.3696441955308,1643
1728.3760632191033,1564
1730.3819749891782,1655
1732.3873797633146,1628
1734.3922777991502,1567
1736.3966693544012,1569
1738.4005546868639,1630
1740.4039340544127,1541
1742.406807715001,1540
1744.4091759266616,1477
1746.4110389475054,1583
1748.4123970357223,1602
1750.413250449582,1559
1752.4135994474318,1591
1754.4134442876993,1567
1756.4127852288902,1518
1758.4116225295893,1506
1760.4099564484595,1566
1762.407787244244,1540
1764.405115175764,1566
1766.4019405019203,1568
1768.3982634816916,1533
1770.3940843741357,1548
1772.3894034383907,1553
1774.3842209336717,1472
1776.378537119274,1535
1778.372352254571,1481
1780.3656665990156,1513
1782.3584804121397,1496
1784.3507939535534,1496
1786.3426074829463,1502
1788.3339212600863,1472
1790.3247355448211,1517
1792.3150505970766,1500
1794.3048666768573,1569
1796.2941840442477,1565
1798.2830029594106,1545
1800.2713236825884,1487
1802.2591464741004,1520
1804.2464715943465,1472
1806.2332993038058,1436
1808.2196298630352,1502
1810.2054635326708,1529
1812.190800573428,1505
1814.175641246101,1561
1816.1599858115628,1537
1818.1438345307652,1496
1820.127187664738,1441
1822.1100454745924,1505
1824.092408221516,1441
1826.0742761667766,1498
1828.055649571721,1452
1830.0365286977735,1483
1832.0169138064398,1426
1833.9968051593014,1526
1835.9762030180214,1489
1837.9551076443408,1481
1839.9335193000788,1495
1841.9114382471344,1459
1843.888864747485,1462
1845.8657990631878,1375
1847.842241456378,1436
1849.8181921892697,1444
1851.7936515241558,1455
1853.7686197234098,1484
1855.7430970494815,1437
1857.7170837649014,1505
1859.6905801322787,1460
1861.6635864143004,1451
1863.6361028737338,1439
1865.608129773424,1470
1867.5796673762961,1453
1869.5507159453537,1466
1871.521275743678,1537
1873.4913470344313,1577
1875.4609300808534,1528
1877.4300251462632,1493
1879.3986324940588,1514
1881.366752387717,1525
1883.3343850907936,1552
1885.3015308669228,1459
1887.268189979819,1526
1889.2343626932739,1478
1891.2000492711595,1508
1893.1652499774254,1462
1895.1299650761011,1526
1897.0941948312952,1522
1899.0579395071945,1515
1901.0211993680641,1514
1902.98397467825,1489
1904.9462657021745,1510
1906.9080727043415,1527
1908.869395949332,1564
1910.8302357018065,1534
1912.790592226504,1563
1914.7504657882428,1574
1916.7098566519212,1480
1918.6687650825133,1492
1920.6271913450764,1521
1922.5851357047422,1457
1924.5425984267245,1498
1926.499579776314,1446
1928.4560800188833,1554
1930.4120994198802,1523
1932.367638244833,1431
1934.32269675935,1487
1936.2772752291175,1491
1938.231373919899,1564
1940.1849930975404,1537
1942.1381330279637,1523
1944.0907939771696,1482
1946.0429762112412,1535
1947.9946799963363,1558
1949.9459055986945,1474
1951.896653284633,1514
1953.8469233205478,1492
1955.7967159729142,1483
1957.7460315082863,1518
1959.6948701932974,1453
1961.6432322946594,1474
1963.5911180791632,1467
1965.5385278136787,1438
1967.4854617651545,1527
1969.4319202006182,1465
1971.377903387176,1521
1973.3234115920136,1416
1975.268445082395,1452
1977.2130041256642,1495
1979.1570889892423,1480
1981.1006999406304,1469
1983.04383724741,1420
1984.986501177238,1441
1986.928691997853,1464
1988.8704099770712,1437
1990.811655382789,1418
1992.7524284829801,1415
1994.692729545698,1436
1996.6325588390755,1412
1998.5719166313224,1528
2000.5108031907307,1450
2002.4492187856677,1487
2004.387163684583,1384
2006.3246381560011,1435
2008.2616424685298,1372
2010.1981768908527,1368
2012.1342416917332,1436
2014.069837140014,1398
2016.0049635046162,1434
2017.9396210545406,1448
2019.8738100588666,1420
2021.8075307867502,1382
2023.740783507431,1443
2025.6735684902228,1458
2027.6058860045214,1422
2029.5377363198004,1420
2031.4691197056118,1461
2033.4000364315875,1426
2035.3304867674374,1454
2037.260470982952,1394
2039.189989347998,1382
2041.1190421325232,1392
2043.047629606554,1399
2044.9757520401945,1420
2046.9034097036288,1476
2048.8306028671195,1398
2050.7573318010086,1378
2052.683596775716,1451
2054.609398061742,1379
2056.5347359296647,1349
2058.4596106501403,1425
2060.384022493906,1434
2062.3079717317764,1423
2064.231458634646,1398
2066.1544834734873,1310
2068.077046519352,1383
2069.99914804337,1419
2071.9207883167524,1418
2073.8419676107865,1389
2075.7626861968406,1391
2077.6829443463607,1452
2079.6027423308715,1402
2081.522080421977,1383
2083.440958891362,1407
2085.359378010786,1361
2087.2773380520907,1365
2089.194839287196,1348
2091.111881988101,1334
2093.0284664268825,1404
2094.9445928756973,1416
2096.86026160678,1376
2098.775472892446,1377
2100.690227005088,1433
2102.604524217178,1407
2104.5183648012676,1386
2106.431749029985,1352
2108.34467717604,1398
2110.2571495122206,1394
2112.169166311393,1393
2114.080727846503,1363
2115.9918343905747,1431
2117.902486216711,1381
2119.8126835980956,1407
2121.722426807987,1442
2123.6317161197285,1439
2125.5405518067364,1444
2127.448934142509,1478
2129.356863400624,1430
2131.264339854737,1477
2133.1713637785815,1471
2135.077935445972,1448
2136.9840551308002,1477
2138.889723107037,1480
2140.7949396487334,1443
2142.699705030018,1419
2144.6040195250994,1459
2146.507883408264,1497
2148.4112969538774,1495
2150.3142604363848,1468
2152.2167741303097,1450
2154.1188383102535,1438
2156.0204532508997,1441
2157.9216192270064,1524
2159.822336513414,1499
2161.7226053850413,1448
2163.622426116884,1495
2165.5217989840185,1479
2167.4207242616,1481
2169.319202224862,1490
2171.2172331491165,1445
2173.1148173097563,1496
2175.0119549822507,1470
2176.90864644215,1458
2178.8048919650823,1494
2180.7006918267534,1489
2182.596046302952,1494
2184.4909556695407,1493
2186.3854202024645,1503
2188.279440177746,1446
2190.173015871487,1516
2192.066147559868,1456
2193.958835519149,1476
2195.851080025667,1478
2197.7428813558417,1463
2199.6342397861667,1548
2201.5251555932186,1469
2203.415629053651,1466
2205.3056604441986,1539
2207.19525004167,1503
2209.084398122958,1556
2210.9731049650327,1469
2212.861370844941,1529
2214.749196039812,1527
2216.636580826851,1538
2218.523525483344,1549
2220.410030286655,1523
2222.296095514226,1509
2224.1817214435805,1494
2226.066908352319,1521
2227.951656518121,1535
2229.835966218746,1424
2231.71983773203,1517
2233.6032713358913,1473
2235.486267308324,1487
2237.3688259274036,1479
2239.2509474712824,1510
2241.132632218193,1482
2243.013880446447,1551
2244.8946924344323,1503
2246.7750684606203,1468
2248.6550088035574,1546
2250.534513741871,1550
2252.413583554265,1542
2254.292218519526,1521
2256.170418916517,1447
2258.0481850241786,1479
2259.925517121534,1440
2261.8024154876825,1525
2263.678880401803,1514
2265.5549121431536,1492
2267.430510991071,1513
2269.305677224971,1540
2271.180411124348,1473
2273.0547129687766,1465
2274.9285830379076,1504
2276.8020216114737,1463
2278.6750289692845,1504
2280.5476053912294,1502
2282.4197511572766,1561
2284.2914665474727,1518
2286.162751841943,1558
2288.0336073208937,1580
2289.904033264608,1559
2291.774029953448,1502
2293.6435976678554,1543
2295.5127366883517,1536
2297.381447295534,1448
2299.2497297700825,1425
2301.1175843927526,1379
2302.9850114443825,1347
2304.852011205885,1314
2306.7185839582553,1334
2308.5847299825664,1339
2310.4504495599676,1313
2312.3157429716925,1324
2314.1806104990483,1322
2316.0450524234247,1293
2317.9090690262888,1369
2319.772660589186,1300
2321.635827393742,1340
2323.498569721661,1308
2325.3608878547248,1306
2327.2227820747967,1258
2329.0842526638157,1305
2330.945299903803,1310
2332.805924076857,1306
2334.6661254651535,1298
2336.525904350951,1306
2338.3852610165827,1352
2340.244195744464,1357
2342.102708817088,1310
2343.9608005170253,1291
2345.8184711269287,1308
2347.675720929526,1350
2349.532550207628,1246
2351.38895924412,1342
2353.24494832197,1288
2355.100517724223,1305
2356.955667734004,1340
2358.810398634514,1340
2360.664710709037,1382
2362.5186042409337,1311
2364.3720795136437,1349
2366.225136810686,1338
2368.0777764156583,1294
2369.929998612237,1327
2371.7818036841777,1292
2373.633191915315,1379
2375.484163589562,1336
2377.3347189909114,1358
2379.184858403434,1347
2381.03458211128,1378
2382.8838903986775,1359
2384.732783549936,1349
2386.5812618494406,1393
2388.4293255816588,1357
2390.2769750311327,1317
2392.1242104824883,1411
2393.971032220427,1335
2395.8174405297295,1379
2397.6634356952563,1348
2399.509018001947,1368
2401.3541877348193,1349
2403.1989451789705,1334
2405.043290619576,1344
2406.8872243418905,1316
2408.730746631247,1338
2410.5738577730594,1369
2412.4165580528183,1392
2414.258847756095,1341
2416.100727168537,1325
2417.9421965758734,1304
2419.783256263912,1306
2421.623906518538,1356
2423.4641476257157,1350
2425.303979871491,1393
2427.143403541984,1318
2428.9824189233977,1343
2430.821026302012,1358
2432.6592259641866,1335
2434.497018196361,1391
2436.33440328505,1361
2438.171381516851,1445
2440.00795317844,1402
2441.844118556569,1387
2443.6798779380724,1409
2445.5152316098606,1387
2447.3501798589255,1378
2449.1847229723357,1393
2451.0188612372403,1367
2452.8525949408663,1395
2454.6859243705203,1300
2456.518849813587,1357
2458.3513715575314,1382
2460.183489889895,1390
2462.015205098301,1393
2463.8465174704493,1375
2465.67742729412,1375
2467.5079348571717,1386
2469.338040447542,1404
2471.1677443532476,1467
2472.9970468623833,1383
2474.825948263123,1377
2476.6544488437207,1393
2478.482548892508,1389
2480.310248697896,1364
2482.137548548374,1381
2483.9644487325118,1381
2485.790949538956,1375
2487.617051256433,1415
2489.44275417375,1372
2491.26805857979,1387
2493.0929647635157,1423
2494.917473013971,1440
2496.741583620276,1446
2498.5652968716304,1369
2500.3886130573137,1448
2502.2115324666834,1494
2504.0340553891765,1430
2505.856182114308,1465
2507.6779129316733,1431
2509.499248130945,1407
2511.3201880018764,1403
2513.140732834298,1465
2514.9608829181198,1447
2516.780638543331,1439
2518.6,1457
2520.418967578273,1433
2522.237541568376,1511
2524.0557222606144,1460
2525.8735099453706,1524
2527.6909049131086,1494
2529.507907454368,1483
2531.32451785977,1475
2533.140736420014,1577
2534.9565634258774,1537
2536.771999168218,1534
2538.5870439379714,1562
2540.4016980261526,1591
2542.2159617238544,1577
2544.02983532225,1615
2545.8433191125914,1629
2547.656413386209,1656
2549.4691184345115,1566
2551.2814345489874,1645
2553.093362021204,1710
2554.904901142808,1664
2556.716052205523,1645
2558.526815501153,1618
2560.3371913215824,1686
2562.147179958771,1749
2563.956781704761,1692
2565.7659968516705,1795
2567.5748256916986,1783
2569.3832685171224,1737
2571.1913256202984,1708
2572.9989972936614,1806
2574.806283829725,1810
2576.613185521084,1808
2578.4197026604074,1806
2580.2258355404483,1809
2582.031584454035,1835
2583.836949694077,1760
2585.6419315535613,1870
2587.4465303255533,1806
2589.2507463032002,1717
2591.0545797797245,1794
2592.8580310484303,1886
2594.6611004026995,1796
2596.463788135992,1825
2598.266094541849,1805
2600.0680199138874,1907
2601.869564545807,1847
2603.670728731383,1857
2605.4715127644704,1774
2607.2719169390048,1867
2609.071941548998,1866
2610.8715868885433,1871
2612.670853251811,1814
2614.469740933052,1846
2616.268250226594,1786
2618.0663814268455,1898
2619.864134828292,1781
2621.6615107255006,1768
2623.458509413115,1812
2625.2551311858597,1731
2627.0513763385347,1792
2628.8472451660223,1732
2630.6427379632833,1748
2632.4378550253564,1714
2634.232596647359,1759
2636.026963124488,1714
2637.8209547520187,1707
2639.6145718253065,1677
2641.407814639785,1680
2643.200683490966,1660
2644.9931786744414,1669
2646.7853004858807,1657
2648.577049221034,1675
2650.3684251757277,1652
2652.1594286458712,1610
2653.9500599274484,1589
2655.740319316525,1603
2657.5302071092437,1521
2659.3197236018286,1567
2661.10886909058,1549
2662.8976438718782,1519
2664.686048242183,1538
2666.4740824980327,1495
2668.2617469360443,1529
2670.0490418529134,1503
2671.8359675454153,1468
2673.622524310403,1450
2675.408712444811,1455
2677.1945322456495,1444
2678.979984010009,1453
2680.76506803506,1449
2682.5497846180497,1449
2684.334134056306,1424
2686.1181166472343,1436
2687.9017326883213,1454
2689.6849824771293,1412
2691.4678663113013,1419
2693.2503844885596,1394
2695.032537306705,1407
2696.8143250636167,1363
2698.5957480572542,1388
2700.3768065856534,1375
2702.1575009469316,1349
2703.937831439283,1402
2705.717798360982,1395
2707.4974020103837,1328
2709.276642685917,1359
2711.055520686095,1298
2712.834036309506,1398
2714.612189854819,1385
2716.389981620782,1312
2718.1674119062204,1373
2719.944481010041,1359
2721.721189231226,1339
2723.4975368688415,1371
2725.273524222027,1350
2727.0491515900053,1337
2728.824419272075,1367
2730.5993275676146,1334
2732.3738767760838,1327
2734.148067197016,1314
2735.921899130031,1279
2737.6953728748194,1366
2739.468488731156,1330
2741.2412469988926,1292
2743.0136479779617,1319
2744.785691968372,1350
2746.5573792702116,1313
2748.3287101836504,1320
2750.099685008934,1297
2751.870304046388,1274
2753.640567596418,1317
2755.4104759595057,1285
2757.1800294362156,1317
2758.949228327187,1344
2760.7180729331412,1260
2762.486563554877,1305
2764.254700493272,1269
2766.022484049284,1297
2767.789914523947,1319
2769.5569922183786,1267
2771.3237174337705,1311
2773.090090471394,1330
2774.8561116326036,1303
2776.6217812188274,1278
2778.3870995315756,1245
2780.1520668724356,1276
2781.9166835430747,1258
2783.6809498452394,1274
2785.444866080754,1276
2787.2084325515225,1300
2788.971649559527,1257
2790.73451740683,1339
2792.4970363955713,1325
2794.2592068279705,1313
2796.0210290063264,1281
2797.7825032330147,1307
2799.543629810493,1236
2801.304409041296,1252
2803.0648412280366,1250
2804.8249266734088,1323
2806.5846656801846,1272
2808.344058551212,1271
2810.1031055894246,1281
2811.8618070978273,1300
2813.6201633795085,1290
2815.378174737636,1285
2817.1358414754536,1304
2818.893163896285,1316
2820.6501423035334,1302
2822.4067770006814,1262
2824.1630682912883,1294
2825.9190164789957,1291
2827.6746218675207,1287
2829.429884760661,1291
2831.184805462294,1234
2832.9393842763743,1299
2834.693621506936,1319
2836.4475174580916,1302
2838.201072434034,1298
2839.954286739034,1309
2841.707160677441,1242
2843.459694553685,1280
2845.2118886722724,1295
2846.96374333779,1266
2848.7152588549034,1286
2850.4664355283567,1268
2852.217273662973,1253
2853.9677735636546,1300
2855.7179355353833,1316
2857.4677598832186,1335
2859.217246912299,1296
2860.9663969278427,1236
2862.715210235146,1287
2864.4636871395846,1248
2866.211827946614,1246
2867.9596329617652,1288
2869.7071024906536,1227
2871.4542368389684,1281
2873.20103631248,1267
2874.947501217038,1252
2876.6936318585695,1315
2878.4394285430812,1258
2880.1848915766604,1277
2881.9300212654707,1259
2883.6748179157553,1223
2885.4192818338374,1250
2887.1634133261173,1282
2888.907212699077,1249
2890.6506802592744,1218
2892.393816313348,1289
2894.1366211680142,1199
2895.8790951300693,1266
2897.621238506388,1273
2899.363051603925,1239
2901.1045347297118,1229
2902.8456881908596,1244
2904.58651229456,1242
2906.327007348081,1265
2908.067173658772,1257
2909.8070115340597,1292
2911.5465212814497,1244
2913.285703208527,1300
2915.0245576229563,1235
2916.7630848324807,1215
2918.5012851449196,1238
2920.2391588681758,1218
2921.976706310227,1249
2923.7139277791334,1269
2925.4508235830313,1221
2927.187394030137,1254
2928.923639428745,1230
2930.6595600872306,1281
2932.395156314046,1243
2934.1304284177218,1236
2935.8653767068713,1221
2937.6000014901815,1315
2939.3343030764227,1249
2941.068281774442,1219
2942.8019378931644,1242
2944.5352717415976,1254
2946.2682836288236,1268
2948.0009738640065,1213
2949.7333427563885,1258
2951.465390615289,1278
2953.1971177501086,1214
2954.9285244703265,1201
2956.6596110855,1296
2958.3903779052657,1282
2960.1208252393385,1310
2961.8509533975125,1277
2963.5807626896617,1264
2965.3102534257378,1293
2967.0394259157715,1256
2968.768280469873,1255
2970.496817398232,1268
2972.2250370111146,1209
2973.952939618869,1244
2975.6805255319196,1287
2977.4077950607707,1233
2979.134748516006,1301
2980.861386208289,1293
2982.587708448359,1250
2984.313715547037,1240
2986.039407815222,1269
2987.764785563891,1289
2989.489849104102,1249
2991.2145987469908,1248
2992.9390348037705,1292
2994.6631575857346,1253
2996.3869674042576,1276
2998.1104645707887,1290
2999.83364939686,1260
3001.5565221940783,1213
3003.2790832741334,1243
3005.0013329487924,1232
3006.7232715298996,1207
3008.4448993293804,1163
3010.166216659239,1290
3011.887223831558,1263
3013.607921158498,1265
3015.3283089522993,1248
3017.0483875252826,1255
3018.7681571898443,1264
3020.4876182584626,1248
3022.2067710436927,1229
3023.9256158581707,1193
3025.644153014609,1275
3027.362382825801,1239
3029.0803056046193,1262
3030.797921664012,1282
3032.5152313170106,1244
3034.2322348767225,1280
3035.9489326563353,1231
3037.665324969115,1270
3039.3814121284063,1235
3041.097194447633,1262
3042.812672240299,1225
3044.5278458199855,1204
3046.2427155003525,1207
3047.9572815951406,1268
3049.671544418167,1247
3051.38550428333,1231
3053.0991615046073,1252
3054.812516396051,1233
3056.5255692717974,1230
3058.2383204460575,1234
3059.9507702331257,1217
3061.662918947372,1249
3063.3747669032446,1268
3065.0863144152736,1291
3066.7975617980674,1283
3068.508509366309,1204
3070.219157434767,1210
3071.9295063182844,1218
3073.639556331785,1253
3075.3493077902704,1208
3077.058761008821,1267
3078.7679163025964,1253
3080.476773986837,1288
3082.1853343768594,1267
3083.89359778806,1282
3085.6015645359153,1264
3087.3092349359786,1246
3089.016609303884,1235
3090.7236879553434,1278
3092.4304712061476,1297
3094.136959372166,1230
3095.843152769349,1254
3097.5490517137237,1315
3099.2546565213966,1227
3100.959967508554,1246
3102.66498499146,1194
3104.3697092864577,1268
3106.0741407099695,1271
3107.778279578498,1283
3109.482126208622,1329
3111.1856809170004,1264
3112.8889440203716,1259
3114.5919158355528,1282
3116.294596679439,1240
3117.996986869006,1256
3119.6990867213062,1283
3121.4008965534726,1293
3123.102416682717,1300
3124.803647426329,1301
3126.5045891016784,1262
3128.205242026213,1316
3129.90560651746,1298
3131.605682893025,1250
3133.3054714705922,1261
3135.0049725679282,1299
3136.7041865028714,1243
3138.4031135933465,1268
3140.101754157353,1260
3141.800108512971,1221
3143.498176978357,1210
3145.1959598717494,1299
3146.8934575114636,1266
3148.5906702158954,1240
3150.2875983035183,1253
3151.9842420928853,1268
3153.680601902627,1269
3155.376678051456,1240
3157.07247085816,1197
3158.767980641609,1257
3160.463207720748,1178
3162.158152414606,1230
3163.8528150422862,1238
3165.5471959229726,1225
3167.2412953759303,1244
3168.9351137204976,1222
3170.628651276098,1272
3172.3219083622307,1192
3174.014885298474,1281
3175.707582404485,1271
3177.4000000000005,1276
3179.092138404835,1201
3180.7839979388846,1252
3182.47557892212,1242
3184.166881674594,1278
3185.8579065164386,1260
3187.5486537678626,1238
3189.2391237491547,1246
3190.9293167806827,1240
3192.6192331828934,1219
3194.3088732763117,1266
3195.998237381542,1206
3197.687325819268,1200
3199.376138910251,1227
3201.064676975334,1242
3202.7529403354347,1187
3204.4409293115523,1195
3206.1286442247647,1186
3207.816085396229,1199
3209.5032531471825,1205
3211.190147798936,1211
3212.8767696728846,1184
3214.5631190905015,1207
3216.2491963733373,1239
3217.9350018430214,1200
3219.6205358212637,1234
3221.305798629851,1199
3222.990790590651,1158
3224.6755120256103,1223
3226.359963256751,1169
3228.0441446061795,1157
3229.7280563960758,1208
3231.411698948703,1214
3233.0950725863995,1185
3234.778177631587,1199
3236.461014406761,1219
3238.1435832345005,1212
3239.8258844374595,1209
3241.507918338374,1190
3243.1896852600576,1232
3244.8711855254023,1222
3246.552419457381,1220
3248.233387379042,1248
3249.914089613516,1185
3251.59452648401,1216
3253.274698313813,1162
3254.95460542629,1220
3256.6342481448855,1283
3258.313626793125,1192
3259.9927416946084,1161
3261.6715931730196,1143
3263.3501815521176,1166
3265.0285071557437,1179
3266.706570307815,1196
3268.3843713323286,1216
3270.0619105533615,1183
3271.739188295068,1208
3273.4162048816834,1261
3275.0929606375184,1178
3276.769455886966,1157
3278.445690954498,1203
3280.1216661646613,1262
3281.797381842087,1262
3283.4728383114807,1203
3285.1480358976296,1223
3286.8229749253996,1213
3288.4976557197333,1203
3290.172078605655,1201
3291.846243908266,1196
3293.5201519527463,1211
3295.193803064357,1183
3296.8671975684374,1146
3298.5403357904024,1236
3300.21321805575,1212
3301.8858446900567,1207
3303.558216018975,1189
3305.23033236824,1153
3306.9021940636603,1188
3308.57380143113,1211
3310.2451547966184,1204
3311.916254486174,1187
3313.5871008259246,1227
3315.2576941420766,1218
3316.9280347609147,1225
3318.5981230088046,1196
3320.2679592121895,1233
3321.9375436975924,1216
3323.606876791612,1142
3325.27595882093,1199
3326.944790112305,1189
3328.6133709925753,1274
3330.2817017886573,1194
3331.949782827547,1216
3333.617614436319,1259
3335.2851969421245,1209
3336.952530672199,1247
3338.619615953853,1210
3340.286453114475,1222
3341.9530424815357,1256
3343.619384382583,1229
3345.2854791452437,1184
3346.951327097224,1194
3348.6169285663073,1177
3350.2822838803577,1197
3351.947393367319,1207
3353.61225735521,1218
3355.2768761721345,1192
3356.9412501462693,1181
3358.605379605873,1219
3360.2692648792827,1199
3361.9329062949146,1168
3363.596304181263,1199
