CollectionTime,9/25/2024 11:56:41 AM
ExposureUsed,3
CalibratedSpectrum
-962.7078968117929,503
-959.9714848408522,518
-957.2358232597828,597
-954.5009119013725,598
-951.7667505983302,606
-949.0333391832855,604
-946.3006774887896,547
-943.5687653473143,583
-940.837602591253,602
-938.1071890529199,568
-935.3775245645503,587
-932.6486089583007,593
-929.9204420662485,573
-927.1930237203925,608
-924.4663537526524,600
-921.7404319948689,612
-919.0152582788041,581
-916.2908324361409,610
-913.5671542984834,620
-910.8442236973568,606
-908.1220404642074,620
-905.4006044304027,607
-902.679915427231,617
-899.959973285902,564
-897.2407778375464,557
-894.5223289132158,580
-891.8046263438832,594
-889.0876699604426,528
-886.3714595937089,547
-883.6559950744183,574
-880.9412762332282,547
-878.2273029007168,569
-875.5140749073835,531
-872.8015920836489,566
-870.0898542598545,540
-867.3788612662631,554
-864.6686129330585,594
-861.9591090903457,607
-859.2503495681506,550
-856.5423341964203,516
-853.8350628050229,523
-851.1285352237478,565
-848.4227512823054,560
-845.7177108103272,589
-843.0134136373656,565
-840.3098595928943,580
-837.6070485063082,591
-834.9049802069229,606
-832.2036545239757,636
-829.5030712866244,574
-826.8032303239481,558
-824.1041314649472,539
-821.4057745385428,547
-818.7081593735775,615
-816.0112857988148,595
-813.3151536429393,581
-810.6197627345566,577
-807.9251129021936,544
-805.2312039742981,577
-802.5380357792392,582
-799.8456081453069,599
-797.1539209007124,608
-794.462973873588,583
-791.772766891987,597
-789.083299783884,567
-786.3945723771743,599
-783.7065844996748,579
-781.0193359791231,593
-778.3328266431781,577
-775.6470563194197,588
-772.9620248353489,556
-770.2777320183878,547
-767.5941776958798,608
-764.9113616950891,595
-762.2292838432011,577
-759.5479439673222,549
-756.8673418944801,560
-754.1874774516235,583
-751.5083504656222,636
-748.8299607632671,596
-746.15230817127,587
-743.475392516264,597
-740.7992136248035,594
-738.1237713233636,590
-735.4490654383407,634
-732.7750957960521,636
-730.1018622227365,628
-727.4293645445534,583
-724.7576025875837,618
-722.0865761778291,583
-719.4162851412126,596
-716.7467293035781,617
-714.0779084906909,625
-711.409822528237,614
-708.7424712418238,620
-706.0758544569796,584
-703.4099719991541,609
-700.7448236937178,617
-698.0804093659622,577
-695.4167288411002,657
-692.7537819442656,642
-690.0915685005134,587
-687.4300883348199,608
-684.7693412720819,699
-682.1093271371178,614
-679.4500457546669,632
-676.7914969493897,632
-674.1336805458676,647
-671.4765963686034,643
-668.8202442420206,620
-666.1646239904642,616
-663.5097354382001,593
-660.8555784094151,606
-658.2021527282176,635
-655.5494582186366,607
-652.8974947046223,620
-650.2462620100463,657
-647.5957599587009,630
-644.9459883742998,669
-642.2969470804776,680
-639.6486359007902,670
-637.0010546587141,682
-634.3542031776476,647
-631.7080812809096,671
-629.0626887917401,652
-626.4180255333008,688
-623.7740913286734,742
-621.1308860008619,762
-618.4884093727904,670
-615.8466612673046,656
-613.2056415071715,639
-610.5653499150785,664
-607.9257863136347,679
-605.28695052537,754
-602.6488423727357,705
-600.0114616781036,691
-597.3748082637674,760
-594.7388819519412,715
-592.1036825647604,733
-589.4692099242818,749
-586.8354638524829,785
-584.2024441712624,809
-581.5701507024403,777
-578.9385832677575,793
-576.3077416888759,814
-573.6776257873787,746
-571.0482353847704,726
-568.4195703024757,745
-565.7916303618415,695
-563.164415384135,732
-560.5379251905453,714
-557.9121596021815,735
-555.2871184400748,735
-552.6628015251767,743
-550.0392086783606,725
-547.4163397204204,745
-544.794194472071,757
-542.1727727539491,744
-539.5520743866118,768
-536.9320991905377,786
-534.3128469861261,916
-531.6943175936979,938
-529.0765108334947,925
-526.4594265256793,939
-523.8430644903358,1138
-521.2274245474689,1305
-518.612506517005,1333
-515.9983102187913,1359
-513.3848354725959,1386
-510.77208209810846,1610
-508.16004991493924,1859
-505.5487387426199,2080
-502.9381484006032,2183
-500.3282787082628,2142
-497.71912948489364,2070
-495.1107005497117,1897
-492.5029917218539,1543
-489.8960028203786,1413
-487.28973366426493,1198
-484.68418407241325,1039
-482.07935386364494,990
-479.47524285670266,977
-476.87185087025,983
-474.2691777228715,945
-471.66722323307334,982
-469.0659872192821,941
-466.4654694998459,927
-463.86566989303384,974
-461.26658821703614,971
-458.66822428996414,948
-456.07057792985,923
-453.4736489546475,926
-450.877437182231,932
-448.28194243039627,904
-445.68716451686,891
-443.09310325926003,887
-440.49975847515555,912
-437.9071299820263,833
-435.31521759727354,892
-432.72402113821954,953
-430.13354042210767,1000
-427.5437752661022,975
-424.95472548728867,926
-422.36639090267386,924
-419.7787713291855,974
-417.1918665836721,1009
-414.60567648290385,1076
-412.0202008435715,1052
-409.4354394822874,958
-406.8513922155845,963
-404.26805885991723,1001
-401.685439231661,1014
-399.103533147112,966
-396.522340422488,1002
-393.9418608739278,1007
-391.3620943174908,965
-388.7830405691583,1006
-386.2046994448317,1053
-383.6270707603344,926
-381.05015433141045,871
-378.473949973725,907
-375.8984575028645,806
-373.32367673433623,769
-370.74960748356875,746
-368.1762495659117,758
-365.60360279663576,707
-363.03166699093265,662
-360.4604419639154,645
-357.8899275306178,574
-355.32012350599507,577
-352.7510297049233,562
-350.1826459421999,546
-347.61497203254316,540
-345.04800779059235,578
-342.4817530309082,554
-339.91620756797226,583
-337.35137121618743,629
-334.7872437898774,666
-332.22382510328725,695
-329.66111497058273,781
-327.09911320585127,853
-324.53781962310075,695
-321.9772340362607,601
-319.4173562591816,572
-316.8581861056348,583
-314.2997233893127,666
-311.7419679238294,658
-309.1849195227194,656
-306.62857799943856,653
-304.0729431673641,675
-301.51801483979375,654
-298.963792829947,649
-296.41027695096386,656
-293.85746701590574,738
-291.3053628377552,863
-288.7539642294155,868
-286.2032710037115,846
-283.65328297338897,866
-281.1039999511146,820
-278.5554217494762,933
-276.007548180983,924
-273.4603790580651,920
-270.9139141930734,866
-268.3681533982807,940
-265.8230964858798,833
-263.27874326798565,866
-260.7350935566336,840
-258.1921471637804,843
-255.6499039013039,869
-253.10836358100266,871
-250.56752601459698,803
-248.02739101372765,840
-245.48795838995704,947
-242.94922795476816,973
-240.41119951956557,915
-237.8738728956746,925
-235.33724789434166,918
-232.80132432673452,874
-230.2661020039418,797
-227.73158073697357,926
-225.19776033676033,939
-222.66464061415422,1038
-220.1322213799284,1010
-217.60050244477725,926
-215.06948361931552,908
-212.53916471408013,1012
-210.00954553952818,1127
-207.48062590603843,1189
-204.9524056239104,988
-202.4248845033651,1006
-199.8980623545441,1073
-197.37193898751036,1109
-194.84651421224817,1168
-192.32178783866232,1128
-189.79775967657952,1198
-187.27442953574644,1303
-184.7517972258321,1418
-182.2298625564256,1192
-179.7086253370378,1079
-177.18808537710026,1328
-174.66824248596583,1562
-172.14909647290835,1496
-169.6306471471229,1475
-167.11289431772548,1172
-164.59583779375328,1249
-162.07947738416453,1468
-159.5638128978386,1643
-157.04884414357605,1960
-154.53457093009854,1918
-152.02099306604828,1452
-149.50811035998936,1352
-146.99592262040665,1329
-144.48442965570587,1730
-141.97363127421409,1978
-139.46352728417958,2085
-136.95411749377126,2027
-134.44540171107985,1845
-131.93737974411636,1893
-129.43005140081357,1554
-126.92341648902493,1932
-124.41747481652521,2429
-121.91222619101006,2993
-119.40767042009657,4273
-116.90380731132257,4806
-114.40063667214702,4916
-111.8981583099503,4517
-109.3963720320337,4386
-106.89527764561933,4082
-104.39487495785067,4925
-101.89516377579241,5615
-99.39614390642998,7536
-96.89781515667039,9932
-94.40017733334128,13562
-91.90323024319173,13166
-89.40697369289148,10052
-86.91140748903172,6877
-84.41653143812482,6041
-81.92234534660395,8194
-79.42884902082358,13233
-76.93604226705907,16458
-74.4439248915071,19015
-71.95249670028534,20511
-69.46175749943245,23200
-66.97170709490854,30579
-64.48234529259423,39519
-61.99367189829195,43588
-59.50568671772464,45730
-57.01838955653636,46751
-54.53178022029283,51241
-52.045858514480074,50000
-49.560624244506016,43232
-47.07607721569923,33959
-44.59221723330904,28328
-42.10904410250669,25370
-39.62655762838392,28364
-37.14475761595372,34831
-34.66364387015028,39179
-32.18321619582866,45343
-29.70347439776515,47370
-27.224418280657005,45594
-24.74604764912317,46562
-22.26836230770266,65039
-19.7913620608565,65039
-17.315046712966478,65039
-14.83941606833514,65039
-12.36446993118659,65039
-9.89020810566592,65039
-7.416630395839093,65039
-4.94373660569363,65039
-2.471526539137585,65039
-6.821210263296962E-13,65039
2.47084320796705,65039
4.941003281093458,65039
7.410480415786196,65039
9.879274808531363,65039
12.347386655893956,65039
14.814816154518212,65039
17.28156350112681,65039
19.74762889252179,65039
22.21301252558385,65039
24.67771459727237,24208
27.141735304626195,6867
29.605074844762612,6470
32.06773341487792,5855
34.52971121224755,5374
36.99100843422559,5338
39.45162527824516,7280
41.91156194181792,7349
44.370818622535126,5721
46.82939551806646,4470
49.287292826160524,3824
51.74451074464503,4193
54.201049471426245,4527
56.65690920448981,4133
59.112090141899785,4108
61.56659248179983,4361
64.02041642241159,3219
66.4735621620365,2452
68.92602989905402,3084
71.37781983192338,3322
73.82893215918205,2889
76.27936707944684,2849
78.72912479141326,3048
81.17820549385567,2846
83.62660938562783,2406
86.07433666566146,2206
88.5213875329681,2775
90.96776218663751,3124
93.41346082583925,2860
95.85848364982041,2655
98.30283085790859,2293
100.7465026495089,2346
103.18949922410604,2205
105.63182078126385,2406
108.07346752062438,2257
110.51443964190923,2112
112.95473734491827,1943
115.39436082953114,1634
117.83331029570547,1987
120.27158594347827,2393
122.7091879729652,2273
125.1461165843615,2130
127.58237197794062,2144
130.01795435405518,1924
132.4528639131364,1447
134.88710085569494,1459
137.32066538231982,1843
139.75355769367923,1549
142.1857779905207,1452
144.61732647366978,1634
147.04820334403132,1650
149.47840880258934,1726
151.90794305040674,1467
154.33680628862487,1418
156.76499871846443,1530
159.19252054122433,1761
161.61937195828352,1796
164.04555317109896,1957
166.47106438120693,2125
168.89590579022217,2545
171.320077599839,2403
173.7435800118302,2401
176.16641322804742,2392
178.58857745042144,2556
181.01007288096173,2665
183.43089972175687,2704
185.85105817497413,2787
188.27054844285988,2491
190.6893707277394,2624
193.10752523201643,2620
195.5250121581745,2524
197.9418317087751,2599
200.3579840864594,2558
202.7734694939469,2615
205.18828813403627,2816
207.6024402096051,2897
210.01592592360964,2702
212.42874547908548,2773
214.84089907914665,2744
217.2523869269868,2575
219.66320922587727,2862
222.0733661791695,2859
224.48285799029293,2777
226.8916848627572,2631
229.29984700014882,2663
231.7073446061355,2780
234.11417788446204,2715
236.520347038953,2675
238.92585227351185,2702
241.33069379212054,2685
243.73487179884035,2671
246.1383864978112,2638
248.541238093252,2689
250.9434267894609,2751
253.34495279081432,3038
255.74581630176783,2926
258.1460175268563,2748
260.54555667069314,2700
262.9444339379703,2777
265.3426495334594,2844
267.7402036620107,2763
270.1370965285529,2915
272.53332833809407,2897
274.9288992957214,2808
277.32380960660055,2899
279.718059475976,2729
282.1116491091717,2749
284.5045787115897,2836
286.89684848871195,2746
289.2884586460981,2610
291.67940938938807,2633
294.0697009242996,2717
296.4593334566299,2684
298.84830719225477,2853
301.23662233712923,2735
303.6242790972866,2603
306.01127767884,2619
308.39761828798066,2614
310.78330113097934,2584
313.16832641418534,2474
315.5526943440269,2475
317.9364051270112,2488
320.3194589697242,2504
322.70185607883093,2428
325.0835966610754,2426
327.4646809232805,2383
329.8451090723478,2446
332.2248813152577,2452
334.6039978590701,2390
336.9824589109231,2425
339.36026467803447,2267
341.7374153677,2302
344.113911187295,2206
346.48975234427337,2188
348.8649390461686,2217
351.2394715005918,2180
353.61334991523415,2207
355.9865744978655,2196
358.35914545633375,2227
360.73106299856715,2220
363.10232733257146,2300
365.47293866643247,2289
367.84289720831396,2197
370.2122031664593,2239
372.5808567491905,2226
374.9488581649083,2201
377.31620762209275,2102
379.6829053293021,2159
382.0489514951745,2151
384.4143463284262,2121
386.7790900378528,2139
389.14318283232853,2042
391.50662492080653,2035
393.86941651231916,2061
396.23155781597745,2087
398.5930490409713,2097
400.9538903965696,2110
403.3140820921202,2112
405.6736243370498,2165
408.03251734086336,2094
410.3907613131465,2167
412.74835646356166,2150
415.10530300185144,2070
417.4616011378372,2073
419.81725108141893,2094
422.1722530425758,2071
424.5266072313656,2060
426.880313857925,2091
429.2333731324701,2098
431.58578526529516,1981
433.9375504667738,1999
436.2886689473588,1990
438.63914091758113,1947
440.9889665880513,1881
443.33814616945835,1927
445.68667987257015,1910
448.03456790823395,1949
450.3818104873759,2027
452.72840782100013,1961
455.07436012019105,1873
457.41966759611057,1954
459.7643304600007,1940
462.10834892318155,1942
464.4517231970525,2002
466.79445349309174,1996
469.1365400228566,1905
471.4779829979826,1955
473.81878263018564,1969
476.15893913125876,2015
478.4984527130747,2049
480.8373235875855,2088
483.17555196682144,2144
485.5131380628919,2204
487.8500820879857,2285
490.1863842543697,2492
492.52204477439034,2500
494.8570638604725,2945
497.1914417251204,3310
499.52517858091653,3839
501.85827464052306,4379
504.19073011668036,4725
506.5225452222086,4929
508.85372017000566,4877
511.18425517304956,4755
513.514150444396,4852
515.8434061971808,5792
518.1720226446176,6588
520.4999999999999,6745
522.8273384766991,6267
525.1540382881666,5838
527.480099647932,5089
529.8055227696037,4092
532.1303078668694,2923
534.454455153496,2529
536.777964843328,2279
539.1008371502907,2176
541.4230722883866,2081
543.744670471698,2052
546.0656319143858,1975
548.3859568306899,2041
550.7056454349294,1988
553.0246979415016,2034
555.3431145648834,1978
557.6608955196306,1982
559.978041020377,1960
562.2945512818363,2061
564.6104265188006,1933
566.9256669461412,1957
569.2402727788082,1898
571.5542442318302,1891
573.8675815203156,1978
576.1802848594508,1985
578.4923544645015,1950
580.8037905508126,1881
583.114593333807,1931
585.4247630289875,1940
587.7342998519354,1998
590.0432040183106,2037
592.3514757438526,2048
594.6591152443794,2015
596.9661227357875,1996
599.2724984340531,1995
601.578242555231,2017
603.8833553154542,2026
606.1878369309362,1976
608.4916876179676,1908
610.7949075929192,1945
613.0974970722403,1957
615.3994562724587,1948
617.7007854101818,1972
620.0014847020951,1929
622.3015543649641,1921
624.6009946156324,1935
626.8998056710224,1987
629.1979877481361,1908
631.4955410640538,1993
633.7924658359349,1928
636.0887622810175,1997
638.3844306166192,2005
640.6794710601358,1910
642.9738838290426,2061
645.2676691408932,2021
647.5608272133207,2006
649.853358264037,1958
652.1452625108324,2027
654.4365401715764,2008
656.7271914642178,2026
659.0172166067838,2009
661.3066158173809,2076
663.5953893141935,1933
665.8835373154867,2023
668.1710600396028,1983
670.4579577049639,2150
672.7442305300709,2067
675.0298787335033,2056
677.3149025339197,2118
679.599302150058,2015
681.8830778007342,1924
684.1662297048437,2056
686.4487580813608,2032
688.7306631493387,2010
691.0119451279091,2050
693.2926042362834,1968
695.5726406937516,1999
697.8520547196814,1919
700.1308465335215,1970
702.4090163547982,2015
704.6865644031171,1937
706.9634908981619,1950
709.2397960596965,2036
711.5154801075631,1976
713.7905432616823,1994
716.0649857420548,2030
718.3388077687592,1999
720.612009561953,2030
722.8845913418733,1984
725.1565533288352,1964
727.427895743234,1961
729.6986188055427,2048
731.9687227363137,2013
734.238207756178,1992
736.5070740858458,1965
738.7753219461066,1966
741.0429515578281,1970
743.3099631419569,1942
745.5763569195191,1979
747.8421331116193,1955
750.1072919394409,1998
752.3718336242467,1963
754.6357583873777,2022
756.8990664502545,1983
759.1617580343765,1952
761.423833361321,2063
763.6852926527457,2001
765.9461361303862,2120
768.206364016058,2089
770.4659765316536,2060
772.7249738991469,2015
774.9833563405886,1981
777.2411240781092,2010
779.4982773339183,2066
781.7548163303044,2049
784.010741289634,2026
786.2660524343538,2076
788.5207499869881,2068
790.7748341701416,2105
793.0283052064964,1960
795.2811633188143,2115
797.5334087299362,2008
799.7850416627813,2087
802.0360623403484,2051
804.2864709857143,2014
806.5362678220353,2015
808.7854530725468,2037
811.0340269605625,2023
813.2819897094754,2059
815.5293415427581,2104
817.77608268396,2034
820.0222133567116,2093
822.2677337847211,2038
824.5126441917765,2125
826.7569448017433,2081
829.0006358385675,2034
831.2437175262731,2091
833.4861900889629,1959
835.7280537508192,2018
837.9693087361026,2071
840.2099552691533,2036
842.4499935743896,2012
844.689423876309,2019
846.9282463994886,2042
849.1664613685833,2019
851.4040690083276,2047
853.6410695435349,1991
855.877463199097,1992
858.1132501999847,2023
860.3484307712487,2126
862.5830051380175,2027
864.8169735254988,2064
867.0503361589791,2062
869.2830932638243,2095
871.5152450654786,2165
873.7467917894654,2105
875.9777336613873,2044
878.2080709069252,2079
880.4378037518389,2088
882.666932421968,2067
884.8954571432301,2149
887.1233781416219,2086
889.3506956432192,2087
891.5774098741766,2131
893.803521060728,2116
896.0290294291852,2110
898.2539352059397,2096
900.4782386174619,2140
902.7019398903011,2169
904.925039251085,2221
907.147536926521,2130
909.3694331433943,2157
911.59072812857,2037
913.8114221089921,2191
916.0315153116827,2133
918.2510079637437,2169
920.4699002923547,2073
922.6881925247761,2075
924.905884888345,2087
927.1229776104793,2077
929.3394709186747,2046
931.555365040506,2102
933.7706602036275,2036
935.9853566357709,2074
938.1994545647489,2114
940.4129542184515,2104
942.6258558248488,2081
944.8381596119883,2073
947.0498658079974,2099
949.2609746410825,2069
951.4714863395287,2125
953.6814011316998,2085
955.8907192460387,2074
958.0994409110671,2050
960.3075663553858,2118
962.5150958076741,2116
964.7220294966913,1978
966.928367651274,2017
969.1341105003388,2030
971.3392582728806,2017
973.5438111979742,2000
975.747769504772,2000
977.9511334225061,1973
980.153903180487,1970
982.3560790081052,1943
984.5576611348289,1948
986.7586497902058,1930
988.9590452038618,1899
991.158847605503,1868
993.3580572249133,1911
995.5566742919558,1910
997.7546990365728,1796
999.952131688785,1860
1002.1489724786926,1827
1004.3452216364743,1793
1006.5408793923874,1733
1008.7359459767691,1693
1010.9304216200343,1774
1013.1243065526781,1689
1015.3176010052733,1673
1017.510305208472,1671
1019.7024193930064,1690
1021.8939437896848,1667
1024.0848786293977,1650
1026.2752241431122,1605
1028.4649805618747,1611
1030.6541481168115,1590
1032.842727039127,1628
1035.0307175601051,1594
1037.2181199111074,1547
1039.4049343235752,1592
1041.591161029029,1595
1043.7768002590683,1544
1045.9618522453698,1577
1048.1463172196918,1553
1050.3301954138697,1533
1052.513487059818,1583
1054.69619238953,1572
1056.8783116350783,1567
1059.0598450286152,1662
1061.2407928023704,1554
1063.4211551886528,1619
1065.6009324198508,1527
1067.780124728432,1534
1069.9587323469414,1512
1072.1367555080046,1559
1074.314194444325,1492
1076.4910493886855,1571
1078.667320573947,1480
1080.843008233051,1566
1083.0181125990161,1502
1085.1926339049414,1495
1087.3665723840027,1529
1089.5399282694575,1496
1091.7127017946405,1476
1093.8848931929647,1454
1096.0565026979243,1544
1098.2275305430899,1478
1100.3979769621128,1486
1102.567842188722,1544
1104.737126456726,1481
1106.9058300000124,1480
1109.0739530525475,1491
1111.2414958483764,1465
1113.4084586216231,1486
1115.5748416064907,1517
1117.7406450372605,1478
1119.9058691482942,1492
1122.0705141740304,1438
1124.2345803489884,1481
1126.3980679077658,1472
1128.5609770850388,1499
1130.7233081155623,1451
1132.8850612341707,1521
1135.0462366757774,1485
1137.2068346753745,1483
1139.3668554680326,1463
1141.526299288901,1455
1143.68516637321,1475
1145.8434569562655,1435
1148.001171273455,1417
1150.158309560244,1415
1152.3148720521767,1478
1154.470858984876,1378
1156.626270594044,1454
1158.7811071154629,1431
1160.9353687849912,1462
1163.089055838569,1452
1165.242168512213,1467
1167.3947070420209,1473
1169.5466716641677,1436
1171.6980626149075,1456
1173.8488801305748,1453
1175.9991244475814,1500
1178.1487958024186,1535
1180.2978944316555,1486
1182.4464205719428,1490
1184.5943744600072,1501
1186.7417563326567,1446
1188.8885664267755,1444
1191.0348049793297,1417
1193.1804722273619,1439
1195.325568407995,1459
1197.4700937584303,1411
1199.614048515948,1390
1201.7574329179074,1440
1203.900247201746,1474
1206.042491604982,1489
1208.1841663652099,1420
1210.3252717201053,1460
1212.465807907422,1448
1214.6057751649923,1445
1216.7451737307279,1505
1218.8840038426192,1491
1221.0222657387353,1457
1223.1599596572241,1494
1225.2970858363137,1485
1227.4336445143094,1468
1229.5696359295966,1463
1231.705060320639,1431
1233.8399179259786,1486
1235.9742089842384,1542
1238.107933734118,1479
1240.2410924143974,1506
1242.373685263935,1492
1244.5057125216676,1504
1246.6371744266116,1496
1248.7680712178621,1499
1250.898403134593,1480
1253.028170416058,1445
1255.1573733015875,1434
1257.2860120305932,1481
1259.4140868425648,1517
1261.54159797707,1534
1263.6685456737569,1544
1265.7949301723515,1485
1267.9207517126597,1535
1270.046010534565,1516
1272.1707068780306,1516
1274.2948409830983,1557
1276.4184130898889,1542
1278.541423438603,1490
1280.6638722695184,1537
1282.785759822993,1538
1284.9070863394636,1485
1287.0278520594447,1553
1289.1480572235314,1562
1291.2677020723963,1566
1293.3867868467923,1551
1295.5053117875495,1627
1297.623277135579,1619
1299.740683131868,1558
1301.8575300174857,1547
1303.973818033578,1578
1306.0895474213703,1597
1308.2047184221678,1576
1310.3193312773528,1621
1312.4333862283888,1645
1314.5468835168163,1662
1316.659823384255,1619
1318.7722060724045,1559
1320.8840318230418,1575
1322.9953008780249,1621
1325.1060134792888,1637
1327.2161698688478,1538
1329.3257702887959,1639
1331.4348149813054,1586
1333.5433041886276,1641
1335.6512381530933,1564
1337.7586171171101,1606
1339.8654413231675,1623
1341.9717110138317,1613
1344.0774264317488,1573
1346.1825878196432,1582
1348.2871954203192,1642
1350.3912494766587,1635
1352.4947502316231,1601
1354.5976979282532,1523
1356.7000928096686,1492
1358.8019351190665,1555
1360.9032250997243,1592
1363.0039629949988,1573
1365.1041490483235,1619
1367.2037835032133,1622
1369.3028666032606,1559
1371.401398592137,1594
1373.4993797135926,1597
1375.5968102114575,1594
1377.6936903296396,1637
1379.7900203121262,1616
1381.8858004029835,1568
1383.9810308463561,1604
1386.075711886469,1572
1388.1698437676241,1601
1390.2634267342032,1657
1392.356461030667,1619
1394.4489469015557,1616
1396.5408845914872,1562
1398.6322743451592,1653
1400.7231164073469,1618
1402.813411022907,1631
1404.903158436773,1629
1406.9923588939578,1535
1409.0810126395531,1589
1411.1691199187303,1595
1413.2566809767386,1670
1415.343696058907,1624
1417.4301654106425,1632
1419.5160892774315,1608
1421.6014679048399,1659
1423.6863015385125,1677
1425.7705904241707,1672
1427.8543348076178,1671
1429.9375349347342,1628
1432.0201910514802,1571
1434.102303403894,1551
1436.1838722380944,1624
1438.2648978002767,1589
1440.3453803367174,1661
1442.4253200937692,1650
1444.5047173178677,1597
1446.5835722555234,1675
1448.6618851533285,1670
1450.739656257952,1621
1452.8168858161434,1687
1454.8935740747306,1761
1456.96972128062,1751
1459.045327680797,1705
1461.120393522327,1694
1463.1949190523528,1711
1465.2689045180973,1689
1467.3423501668608,1722
1469.415256246024,1817
1471.4876230030463,1799
1473.559450685465,1774
1475.6307395408976,1791
1477.7014898170391,1878
1479.771701761665,1832
1481.8413756226287,1814
1483.9105116478618,1871
1485.9791100853772,1923
1488.0471711832643,1872
1490.1146951896926,1921
1492.1816823529098,1787
1494.2481329212433,1836
1496.3140471430984,1913
1498.3794252669609,1864
1500.4442675413939,1958
1502.5085742150404,1943
1504.572345536622,1972
1506.6355817549388,1923
1508.6982831188702,1942
1510.7604498773744,1848
1512.8220822794883,2009
1514.8831805743293,1980
1516.9437450110909,2054
1519.003775839048,1971
1521.0632733075522,1995
1523.1222376660367,2028
1525.1806691640113,1944
1527.2385680510652,1959
1529.2959345768668,2020
1531.3527689911643,1978
1533.4090715437833,1976
1535.4648424846291,2016
1537.5200820636855,1990
1539.5747905310159,2017
1541.6289681367616,2108
1543.6826151311434,2096
1545.7357317644614,2102
1547.7883182870937,2075
1549.8403749494987,2134
1551.8919020022113,2073
1553.9428996958477,2124
1555.9933682811015,2232
1558.0433080087469,2231
1560.0927191296346,2190
1562.1416018946961,2287
1564.1899565549415,2268
1566.2377833614592,2315
1568.2850825654164,2331
1570.3318544180606,2312
1572.3780991707158,2389
1574.423817074788,2309
1576.4690083817595,2348
1578.5136733431923,2384
1580.5578122107272,2239
1582.601425236085,2184
1584.6445126710646,2183
1586.6870747675434,2098
1588.7291117774776,1985
1590.7706239529034,2001
1592.8116115459347,1989
1594.8520748087658,1964
1596.8920139936686,1869
1598.9314293529933,1823
1600.9703211391711,1798
1603.008689604711,1731
1605.0465350022005,1833
1607.0838575843068,1752
1609.1206576037753,1787
1611.1569353134305,1677
1613.1926909661765,1766
1615.2279248149953,1720
1617.2626371129481,1698
1619.2968281131757,1644
1621.3304980688963,1682
1623.3636472334088,1675
1625.39627586009,1671
1627.428384202396,1612
1629.459972513861,1575
1631.4910410480993,1592
1633.5215900588028,1578
1635.551619799744,1568
1637.5811305247717,1661
1639.6101224878166,1564
1641.6385959428862,1612
1643.6665511440683,1530
1645.693988345528,1589
1647.7209078015112,1501
1649.7473097663405,1586
1651.7731944944203,1561
1653.7985622402307,1556
1655.823413258333,1575
1657.847747803366,1582
1659.8715661300494,1595
1661.8948684931793,1561
1663.9176551476316,1500
1665.9399263483624,1526
1667.9616823504057,1500
1669.982923408873,1543
1672.0036497789574,1559
1674.0238617159293,1573
1676.043559475138,1502
1678.0627433120121,1506
1680.081413482059,1516
1682.0995702408654,1540
1684.117213844096,1521
1686.134344547495,1544
1688.1509626068864,1536
1690.1670682781705,1487
1692.182661817329,1483
1694.1977434804217,1573
1696.2123135235875,1508
1698.226372203043,1574
1700.2399197750851,1609
1702.2529564960905,1527
1704.2654826225112,1601
1706.277498410882,1534
1708.2890041178139,1531
1710.2999999999988,1568
1712.3104863142066,1582
1714.3204633172854,1523
1716.329931266163,1447
1718.3388904178469,1513
1720.3473410294214,1571
1722.3552833580516,1475
1724.3627176609807,1510
1726.3696441955308,1542
1728.3760632191033,1557
1730.3819749891782,1540
1732.3873797633146,1490
1734.3922777991502,1562
1736.3966693544012,1567
1738.4005546868639,1504
1740.4039340544127,1504
1742.406807715001,1495
1744.4091759266616,1493
1746.4110389475054,1525
1748.4123970357223,1529
1750.413250449582,1567
1752.4135994474318,1468
1754.4134442876993,1488
1756.4127852288902,1492
1758.4116225295893,1527
1760.4099564484595,1436
1762.407787244244,1429
1764.405115175764,1502
1766.4019405019203,1504
1768.3982634816916,1481
1770.3940843741357,1452
1772.3894034383907,1547
1774.3842209336717,1460
1776.378537119274,1405
1778.372352254571,1476
1780.3656665990156,1443
1782.3584804121397,1476
1784.3507939535534,1507
1786.3426074829463,1431
1788.3339212600863,1506
1790.3247355448211,1501
1792.3150505970766,1423
1794.3048666768573,1506
1796.2941840442477,1472
1798.2830029594106,1498
1800.2713236825884,1511
1802.2591464741004,1406
1804.2464715943465,1462
1806.2332993038058,1472
1808.2196298630352,1440
1810.2054635326708,1451
1812.190800573428,1486
1814.175641246101,1516
1816.1599858115628,1456
1818.1438345307652,1499
1820.127187664738,1484
1822.1100454745924,1416
1824.092408221516,1514
1826.0742761667766,1445
1828.055649571721,1473
1830.0365286977735,1379
1832.0169138064398,1406
1833.9968051593014,1523
1835.9762030180214,1476
1837.9551076443408,1386
1839.9335193000788,1523
1841.9114382471344,1494
1843.888864747485,1455
1845.8657990631878,1445
1847.842241456378,1501
1849.8181921892697,1484
1851.7936515241558,1469
1853.7686197234098,1434
1855.7430970494815,1350
1857.7170837649014,1428
1859.6905801322787,1490
1861.6635864143004,1468
1863.6361028737338,1446
1865.608129773424,1519
1867.5796673762961,1506
1869.5507159453537,1510
1871.521275743678,1436
1873.4913470344313,1444
1875.4609300808534,1517
1877.4300251462632,1525
1879.3986324940588,1478
1881.366752387717,1467
1883.3343850907936,1480
1885.3015308669228,1564
1887.268189979819,1472
1889.2343626932739,1498
1891.2000492711595,1477
1893.1652499774254,1503
1895.1299650761011,1484
1897.0941948312952,1500
1899.0579395071945,1477
1901.0211993680641,1542
1902.98397467825,1479
1904.9462657021745,1483
1906.9080727043415,1533
1908.869395949332,1499
1910.8302357018065,1451
1912.790592226504,1507
1914.7504657882428,1477
1916.7098566519212,1461
1918.6687650825133,1499
1920.6271913450764,1513
1922.5851357047422,1442
1924.5425984267245,1454
1926.499579776314,1522
1928.4560800188833,1474
1930.4120994198802,1509
1932.367638244833,1505
1934.32269675935,1486
1936.2772752291175,1520
1938.231373919899,1517
1940.1849930975404,1534
1942.1381330279637,1488
1944.0907939771696,1543
1946.0429762112412,1459
1947.9946799963363,1506
1949.9459055986945,1450
1951.896653284633,1540
1953.8469233205478,1433
1955.7967159729142,1406
1957.7460315082863,1462
1959.6948701932974,1502
1961.6432322946594,1481
1963.5911180791632,1426
1965.5385278136787,1488
1967.4854617651545,1451
1969.4319202006182,1470
1971.377903387176,1453
1973.3234115920136,1462
1975.268445082395,1465
1977.2130041256642,1510
1979.1570889892423,1484
1981.1006999406304,1467
1983.04383724741,1488
1984.986501177238,1478
1986.928691997853,1497
1988.8704099770712,1448
1990.811655382789,1481
1992.7524284829801,1440
1994.692729545698,1489
1996.6325588390755,1440
1998.5719166313224,1472
2000.5108031907307,1459
2002.4492187856677,1480
2004.387163684583,1511
2006.3246381560011,1377
2008.2616424685298,1472
2010.1981768908527,1508
2012.1342416917332,1479
2014.069837140014,1473
2016.0049635046162,1483
2017.9396210545406,1451
2019.8738100588666,1479
2021.8075307867502,1444
2023.740783507431,1500
2025.6735684902228,1485
2027.6058860045214,1438
2029.5377363198004,1440
2031.4691197056118,1420
2033.4000364315875,1461
2035.3304867674374,1450
2037.260470982952,1489
2039.189989347998,1460
2041.1190421325232,1475
2043.047629606554,1512
2044.9757520401945,1470
2046.9034097036288,1438
2048.8306028671195,1462
2050.7573318010086,1409
2052.683596775716,1460
2054.609398061742,1416
2056.5347359296647,1381
2058.4596106501403,1441
2060.384022493906,1483
2062.3079717317764,1377
2064.231458634646,1415
2066.1544834734873,1435
2068.077046519352,1435
2069.99914804337,1412
2071.9207883167524,1470
2073.8419676107865,1436
2075.7626861968406,1416
2077.6829443463607,1399
2079.6027423308715,1418
2081.522080421977,1408
2083.440958891362,1451
2085.359378010786,1386
2087.2773380520907,1402
2089.194839287196,1419
2091.111881988101,1446
2093.0284664268825,1464
2094.9445928756973,1492
2096.86026160678,1460
2098.775472892446,1454
2100.690227005088,1418
2102.604524217178,1450
2104.5183648012676,1388
2106.431749029985,1426
2108.34467717604,1505
2110.2571495122206,1436
2112.169166311393,1509
2114.080727846503,1497
2115.9918343905747,1508
2117.902486216711,1457
2119.8126835980956,1448
2121.722426807987,1484
2123.6317161197285,1451
2125.5405518067364,1461
2127.448934142509,1476
2129.356863400624,1504
2131.264339854737,1487
2133.1713637785815,1475
2135.077935445972,1490
2136.9840551308002,1463
2138.889723107037,1562
2140.7949396487334,1516
2142.699705030018,1488
2144.6040195250994,1501
2146.507883408264,1506
2148.4112969538774,1467
2150.3142604363848,1456
2152.2167741303097,1494
2154.1188383102535,1466
2156.0204532508997,1468
2157.9216192270064,1449
2159.822336513414,1456
2161.7226053850413,1487
2163.622426116884,1498
2165.5217989840185,1525
2167.4207242616,1459
2169.319202224862,1474
2171.2172331491165,1555
2173.1148173097563,1563
2175.0119549822507,1590
2176.90864644215,1518
2178.8048919650823,1483
2180.7006918267534,1554
2182.596046302952,1531
2184.4909556695407,1565
2186.3854202024645,1531
2188.279440177746,1589
2190.173015871487,1549
2192.066147559868,1494
2193.958835519149,1578
2195.851080025667,1545
2197.7428813558417,1512
2199.6342397861667,1446
2201.5251555932186,1534
2203.415629053651,1514
2205.3056604441986,1524
2207.19525004167,1553
2209.084398122958,1530
2210.9731049650327,1548
2212.861370844941,1541
2214.749196039812,1547
2216.636580826851,1637
2218.523525483344,1613
2220.410030286655,1576
2222.296095514226,1607
2224.1817214435805,1557
2226.066908352319,1579
2227.951656518121,1593
2229.835966218746,1513
2231.71983773203,1556
2233.6032713358913,1549
2235.486267308324,1629
2237.3688259274036,1597
2239.2509474712824,1556
2241.132632218193,1575
2243.013880446447,1590
2244.8946924344323,1547
2246.7750684606203,1556
2248.6550088035574,1558
2250.534513741871,1584
2252.413583554265,1550
2254.292218519526,1551
2256.170418916517,1540
2258.0481850241786,1567
2259.925517121534,1563
2261.8024154876825,1581
2263.678880401803,1661
2265.5549121431536,1606
2267.430510991071,1554
2269.305677224971,1503
2271.180411124348,1535
2273.0547129687766,1572
2274.9285830379076,1606
2276.8020216114737,1494
2278.6750289692845,1576
2280.5476053912294,1572
2282.4197511572766,1589
2284.2914665474727,1579
2286.162751841943,1618
2288.0336073208937,1663
2289.904033264608,1648
2291.774029953448,1653
2293.6435976678554,1630
2295.5127366883517,1545
2297.381447295534,1552
2299.2497297700825,1448
2301.1175843927526,1425
2302.9850114443825,1425
2304.852011205885,1351
2306.7185839582553,1417
2308.5847299825664,1373
2310.4504495599676,1328
2312.3157429716925,1334
2314.1806104990483,1324
2316.0450524234247,1301
2317.9090690262888,1254
2319.772660589186,1329
2321.635827393742,1303
2323.498569721661,1286
2325.3608878547248,1313
2327.2227820747967,1261
2329.0842526638157,1342
2330.945299903803,1295
2332.805924076857,1319
2334.6661254651535,1274
2336.525904350951,1272
2338.3852610165827,1277
2340.244195744464,1293
2342.102708817088,1314
2343.9608005170253,1262
2345.8184711269287,1303
2347.675720929526,1299
2349.532550207628,1296
2351.38895924412,1255
2353.24494832197,1278
2355.100517724223,1297
2356.955667734004,1324
2358.810398634514,1331
2360.664710709037,1307
2362.5186042409337,1318
2364.3720795136437,1328
2366.225136810686,1324
2368.0777764156583,1260
2369.929998612237,1294
2371.7818036841777,1298
2373.633191915315,1313
2375.484163589562,1321
2377.3347189909114,1293
2379.184858403434,1349
2381.03458211128,1317
2382.8838903986775,1281
2384.732783549936,1290
2386.5812618494406,1319
2388.4293255816588,1339
2390.2769750311327,1383
2392.1242104824883,1291
2393.971032220427,1259
2395.8174405297295,1320
2397.6634356952563,1316
2399.509018001947,1317
2401.3541877348193,1297
2403.1989451789705,1350
2405.043290619576,1274
2406.8872243418905,1327
2408.730746631247,1336
2410.5738577730594,1300
2412.4165580528183,1351
2414.258847756095,1315
2416.100727168537,1338
2417.9421965758734,1333
2419.783256263912,1316
2421.623906518538,1332
2423.4641476257157,1364
2425.303979871491,1340
2427.143403541984,1326
2428.9824189233977,1283
2430.821026302012,1309
2432.6592259641866,1380
2434.497018196361,1365
2436.33440328505,1305
2438.171381516851,1326
2440.00795317844,1340
2441.844118556569,1363
2443.6798779380724,1333
2445.5152316098606,1322
2447.3501798589255,1303
2449.1847229723357,1299
2451.0188612372403,1365
2452.8525949408663,1336
2454.6859243705203,1313
2456.518849813587,1309
2458.3513715575314,1298
2460.183489889895,1357
2462.015205098301,1329
2463.8465174704493,1320
2465.67742729412,1375
2467.5079348571717,1390
2469.338040447542,1344
2471.1677443532476,1353
2472.9970468623833,1336
2474.825948263123,1285
2476.6544488437207,1363
2478.482548892508,1332
2480.310248697896,1354
2482.137548548374,1305
2483.9644487325118,1367
2485.790949538956,1348
2487.617051256433,1327
2489.44275417375,1272
2491.26805857979,1339
2493.0929647635157,1299
2494.917473013971,1328
2496.741583620276,1295
2498.5652968716304,1357
2500.3886130573137,1347
2502.2115324666834,1342
2504.0340553891765,1352
2505.856182114308,1352
2507.6779129316733,1348
2509.499248130945,1341
2511.3201880018764,1388
2513.140732834298,1355
2514.9608829181198,1343
2516.780638543331,1371
2518.6,1404
2520.418967578273,1366
2522.237541568376,1351
2524.0557222606144,1295
2525.8735099453706,1381
2527.6909049131086,1405
2529.507907454368,1361
2531.32451785977,1387
2533.140736420014,1389
2534.9565634258774,1290
2536.771999168218,1387
2538.5870439379714,1378
2540.4016980261526,1371
2542.2159617238544,1405
2544.02983532225,1421
2545.8433191125914,1480
2547.656413386209,1380
2549.4691184345115,1418
2551.2814345489874,1453
2553.093362021204,1430
2554.904901142808,1457
2556.716052205523,1483
2558.526815501153,1382
2560.3371913215824,1437
2562.147179958771,1436
2563.956781704761,1508
2565.7659968516705,1473
2567.5748256916986,1519
2569.3832685171224,1434
2571.1913256202984,1544
2572.9989972936614,1532
2574.806283829725,1480
2576.613185521084,1484
2578.4197026604074,1516
2580.2258355404483,1554
2582.031584454035,1558
2583.836949694077,1519
2585.6419315535613,1594
2587.4465303255533,1548
2589.2507463032002,1590
2591.0545797797245,1557
2592.8580310484303,1534
2594.6611004026995,1531
2596.463788135992,1509
2598.266094541849,1559
2600.0680199138874,1527
2601.869564545807,1527
2603.670728731383,1542
2605.4715127644704,1538
2607.2719169390048,1487
2609.071941548998,1513
2610.8715868885433,1540
2612.670853251811,1561
2614.469740933052,1522
2616.268250226594,1579
2618.0663814268455,1491
2619.864134828292,1518
2621.6615107255006,1451
2623.458509413115,1506
2625.2551311858597,1514
2627.0513763385347,1483
2628.8472451660223,1463
2630.6427379632833,1477
2632.4378550253564,1467
2634.232596647359,1479
2636.026963124488,1428
2637.8209547520187,1485
2639.6145718253065,1494
2641.407814639785,1422
2643.200683490966,1453
2644.9931786744414,1436
2646.7853004858807,1478
2648.577049221034,1483
2650.3684251757277,1471
2652.1594286458712,1426
2653.9500599274484,1436
2655.740319316525,1406
2657.5302071092437,1400
2659.3197236018286,1410
2661.10886909058,1392
2662.8976438718782,1392
2664.686048242183,1371
2666.4740824980327,1414
2668.2617469360443,1412
2670.0490418529134,1379
2671.8359675454153,1425
2673.622524310403,1379
2675.408712444811,1340
2677.1945322456495,1375
2678.979984010009,1348
2680.76506803506,1345
2682.5497846180497,1378
2684.334134056306,1347
2686.1181166472343,1358
2687.9017326883213,1387
2689.6849824771293,1360
2691.4678663113013,1350
2693.2503844885596,1357
2695.032537306705,1357
2696.8143250636167,1328
2698.5957480572542,1351
2700.3768065856534,1372
2702.1575009469316,1345
2703.937831439283,1377
2705.717798360982,1330
2707.4974020103837,1309
2709.276642685917,1297
2711.055520686095,1336
2712.834036309506,1359
2714.612189854819,1337
2716.389981620782,1294
2718.1674119062204,1346
2719.944481010041,1377
2721.721189231226,1281
2723.4975368688415,1273
2725.273524222027,1297
2727.0491515900053,1293
2728.824419272075,1304
2730.5993275676146,1267
2732.3738767760838,1304
2734.148067197016,1316
2735.921899130031,1344
2737.6953728748194,1325
2739.468488731156,1269
2741.2412469988926,1339
2743.0136479779617,1279
2744.785691968372,1317
2746.5573792702116,1296
2748.3287101836504,1266
2750.099685008934,1282
2751.870304046388,1329
2753.640567596418,1330
2755.4104759595057,1298
2757.1800294362156,1298
2758.949228327187,1306
2760.7180729331412,1329
2762.486563554877,1268
2764.254700493272,1245
2766.022484049284,1315
2767.789914523947,1307
2769.5569922183786,1279
2771.3237174337705,1264
2773.090090471394,1310
2774.8561116326036,1290
2776.6217812188274,1299
2778.3870995315756,1319
2780.1520668724356,1292
2781.9166835430747,1346
2783.6809498452394,1309
2785.444866080754,1340
2787.2084325515225,1285
2788.971649559527,1283
2790.73451740683,1297
2792.4970363955713,1277
2794.2592068279705,1310
2796.0210290063264,1238
2797.7825032330147,1304
2799.543629810493,1336
2801.304409041296,1282
2803.0648412280366,1289
2804.8249266734088,1279
2806.5846656801846,1335
2808.344058551212,1296
2810.1031055894246,1278
2811.8618070978273,1273
2813.6201633795085,1371
2815.378174737636,1345
2817.1358414754536,1389
2818.893163896285,1314
2820.6501423035334,1343
2822.4067770006814,1344
2824.1630682912883,1317
2825.9190164789957,1268
2827.6746218675207,1323
2829.429884760661,1272
2831.184805462294,1249
2832.9393842763743,1296
2834.693621506936,1220
2836.4475174580916,1294
2838.201072434034,1383
2839.954286739034,1320
2841.707160677441,1351
2843.459694553685,1250
2845.2118886722724,1339
2846.96374333779,1339
2848.7152588549034,1310
2850.4664355283567,1283
2852.217273662973,1314
2853.9677735636546,1338
2855.7179355353833,1364
2857.4677598832186,1333
2859.217246912299,1294
2860.9663969278427,1309
2862.715210235146,1282
2864.4636871395846,1311
2866.211827946614,1303
2867.9596329617652,1279
2869.7071024906536,1286
2871.4542368389684,1279
2873.20103631248,1317
2874.947501217038,1307
2876.6936318585695,1225
2878.4394285430812,1257
2880.1848915766604,1301
2881.9300212654707,1325
2883.6748179157553,1285
2885.4192818338374,1334
2887.1634133261173,1250
2888.907212699077,1338
2890.6506802592744,1304
2892.393816313348,1269
2894.1366211680142,1343
2895.8790951300693,1306
2897.621238506388,1326
2899.363051603925,1351
2901.1045347297118,1293
2902.8456881908596,1313
2904.58651229456,1366
2906.327007348081,1360
2908.067173658772,1384
2909.8070115340597,1288
2911.5465212814497,1382
2913.285703208527,1348
2915.0245576229563,1335
2916.7630848324807,1304
2918.5012851449196,1279
2920.2391588681758,1327
2921.976706310227,1271
2923.7139277791334,1246
2925.4508235830313,1313
2927.187394030137,1275
2928.923639428745,1307
2930.6595600872306,1293
2932.395156314046,1342
2934.1304284177218,1364
2935.8653767068713,1290
2937.6000014901815,1315
2939.3343030764227,1307
2941.068281774442,1368
2942.8019378931644,1338
2944.5352717415976,1293
2946.2682836288236,1312
2948.0009738640065,1305
2949.7333427563885,1323
2951.465390615289,1342
2953.1971177501086,1356
2954.9285244703265,1342
2956.6596110855,1326
2958.3903779052657,1328
2960.1208252393385,1324
2961.8509533975125,1309
2963.5807626896617,1323
2965.3102534257378,1341
2967.0394259157715,1283
2968.768280469873,1312
2970.496817398232,1303
2972.2250370111146,1344
2973.952939618869,1322
2975.6805255319196,1300
2977.4077950607707,1272
2979.134748516006,1357
2980.861386208289,1332
2982.587708448359,1349
2984.313715547037,1323
2986.039407815222,1278
2987.764785563891,1263
2989.489849104102,1265
2991.2145987469908,1234
2992.9390348037705,1283
2994.6631575857346,1273
2996.3869674042576,1310
2998.1104645707887,1284
2999.83364939686,1314
3001.5565221940783,1298
3003.2790832741334,1217
3005.0013329487924,1264
3006.7232715298996,1249
3008.4448993293804,1275
3010.166216659239,1285
3011.887223831558,1285
3013.607921158498,1322
3015.3283089522993,1294
3017.0483875252826,1296
3018.7681571898443,1307
3020.4876182584626,1283
3022.2067710436927,1323
3023.9256158581707,1287
3025.644153014609,1304
3027.362382825801,1235
3029.0803056046193,1311
3030.797921664012,1342
3032.5152313170106,1287
3034.2322348767225,1264
3035.9489326563353,1274
3037.665324969115,1265
3039.3814121284063,1298
3041.097194447633,1297
3042.812672240299,1303
3044.5278458199855,1324
3046.2427155003525,1320
3047.9572815951406,1279
3049.671544418167,1355
3051.38550428333,1236
3053.0991615046073,1285
3054.812516396051,1287
3056.5255692717974,1294
3058.2383204460575,1279
3059.9507702331257,1368
3061.662918947372,1285
3063.3747669032446,1289
3065.0863144152736,1336
3066.7975617980674,1265
3068.508509366309,1264
3070.219157434767,1313
3071.9295063182844,1335
3073.639556331785,1303
3075.3493077902704,1308
3077.058761008821,1288
3078.7679163025964,1303
3080.476773986837,1307
3082.1853343768594,1296
3083.89359778806,1334
3085.6015645359153,1296
3087.3092349359786,1293
3089.016609303884,1264
3090.7236879553434,1278
3092.4304712061476,1244
3094.136959372166,1292
3095.843152769349,1284
3097.5490517137237,1255
3099.2546565213966,1258
3100.959967508554,1303
3102.66498499146,1294
3104.3697092864577,1287
3106.0741407099695,1321
3107.778279578498,1290
3109.482126208622,1297
3111.1856809170004,1228
3112.8889440203716,1272
3114.5919158355528,1295
3116.294596679439,1327
3117.996986869006,1326
3119.6990867213062,1265
3121.4008965534726,1251
3123.102416682717,1366
3124.803647426329,1235
3126.5045891016784,1223
3128.205242026213,1268
3129.90560651746,1290
3131.605682893025,1303
3133.3054714705922,1326
3135.0049725679282,1271
3136.7041865028714,1304
3138.4031135933465,1256
3140.101754157353,1273
3141.800108512971,1271
3143.498176978357,1290
3145.1959598717494,1286
3146.8934575114636,1325
3148.5906702158954,1271
3150.2875983035183,1262
3151.9842420928853,1282
3153.680601902627,1255
3155.376678051456,1263
3157.07247085816,1283
3158.767980641609,1289
3160.463207720748,1287
3162.158152414606,1307
3163.8528150422862,1295
3165.5471959229726,1290
3167.2412953759303,1242
3168.9351137204976,1266
3170.628651276098,1284
3172.3219083622307,1283
3174.014885298474,1262
3175.707582404485,1270
3177.4000000000005,1271
3179.092138404835,1271
3180.7839979388846,1347
3182.47557892212,1282
3184.166881674594,1316
3185.8579065164386,1232
3187.5486537678626,1311
3189.2391237491547,1283
3190.9293167806827,1277
3192.6192331828934,1253
3194.3088732763117,1267
3195.998237381542,1269
3197.687325819268,1268
3199.376138910251,1257
3201.064676975334,1268
3202.7529403354347,1263
3204.4409293115523,1259
3206.1286442247647,1252
3207.816085396229,1358
3209.5032531471825,1252
3211.190147798936,1258
3212.8767696728846,1304
3214.5631190905015,1246
3216.2491963733373,1261
3217.9350018430214,1270
3219.6205358212637,1199
3221.305798629851,1262
3222.990790590651,1213
3224.6755120256103,1247
3226.359963256751,1262
3228.0441446061795,1238
3229.7280563960758,1229
3231.411698948703,1302
3233.0950725863995,1276
3234.778177631587,1260
3236.461014406761,1269
3238.1435832345005,1256
3239.8258844374595,1332
3241.507918338374,1267
3243.1896852600576,1276
3244.8711855254023,1301
3246.552419457381,1282
3248.233387379042,1298
3249.914089613516,1291
3251.59452648401,1270
3253.274698313813,1245
3254.95460542629,1233
3256.6342481448855,1217
3258.313626793125,1241
3259.9927416946084,1247
3261.6715931730196,1286
3263.3501815521176,1226
3265.0285071557437,1292
3266.706570307815,1309
3268.3843713323286,1227
3270.0619105533615,1307
3271.739188295068,1251
3273.4162048816834,1264
3275.0929606375184,1233
3276.769455886966,1306
3278.445690954498,1336
3280.1216661646613,1220
3281.797381842087,1289
3283.4728383114807,1237
3285.1480358976296,1199
3286.8229749253996,1257
3288.4976557197333,1269
3290.172078605655,1232
3291.846243908266,1303
3293.5201519527463,1296
3295.193803064357,1237
3296.8671975684374,1225
3298.5403357904024,1267
3300.21321805575,1263
3301.8858446900567,1253
3303.558216018975,1271
3305.23033236824,1276
3306.9021940636603,1295
3308.57380143113,1322
3310.2451547966184,1316
3311.916254486174,1315
3313.5871008259246,1335
3315.2576941420766,1331
3316.9280347609147,1251
3318.5981230088046,1215
3320.2679592121895,1205
3321.9375436975924,1235
3323.606876791612,1291
3325.27595882093,1264
3326.944790112305,1252
3328.6133709925753,1236
3330.2817017886573,1240
3331.949782827547,1227
3333.617614436319,1243
3335.2851969421245,1280
3336.952530672199,1312
3338.619615953853,1276
3340.286453114475,1280
3341.9530424815357,1248
3343.619384382583,1225
3345.2854791452437,1225
3346.951327097224,1226
3348.6169285663073,1256
3350.2822838803577,1253
3351.947393367319,1249
3353.61225735521,1230
3355.2768761721345,1219
3356.9412501462693,1215
3358.605379605873,1212
3360.2692648792827,1277
3361.9329062949146,1261
3363.596304181263,1192
