CollectionTime,9/25/2024 11:56:34 AM
ExposureUsed,3
CalibratedSpectrum
-962.7078968117929,506
-959.9714848408522,533
-957.2358232597828,537
-954.5009119013725,575
-951.7667505983302,587
-949.0333391832855,577
-946.3006774887896,541
-943.5687653473143,579
-940.837602591253,576
-938.1071890529199,554
-935.3775245645503,586
-932.6486089583007,602
-929.9204420662485,558
-927.1930237203925,600
-924.4663537526524,584
-921.7404319948689,588
-919.0152582788041,570
-916.2908324361409,583
-913.5671542984834,610
-910.8442236973568,600
-908.1220404642074,564
-905.4006044304027,580
-902.679915427231,603
-899.959973285902,582
-897.2407778375464,567
-894.5223289132158,565
-891.8046263438832,568
-889.0876699604426,542
-886.3714595937089,537
-883.6559950744183,564
-880.9412762332282,572
-878.2273029007168,531
-875.5140749073835,546
-872.8015920836489,540
-870.0898542598545,521
-867.3788612662631,525
-864.6686129330585,545
-861.9591090903457,555
-859.2503495681506,531
-856.5423341964203,519
-853.8350628050229,544
-851.1285352237478,544
-848.4227512823054,526
-845.7177108103272,565
-843.0134136373656,556
-840.3098595928943,550
-837.6070485063082,590
-834.9049802069229,641
-832.2036545239757,635
-829.5030712866244,564
-826.8032303239481,544
-824.1041314649472,550
-821.4057745385428,522
-818.7081593735775,559
-816.0112857988148,591
-813.3151536429393,597
-810.6197627345566,568
-807.9251129021936,584
-805.2312039742981,536
-802.5380357792392,559
-799.8456081453069,595
-797.1539209007124,579
-794.462973873588,592
-791.772766891987,572
-789.083299783884,594
-786.3945723771743,582
-783.7065844996748,598
-781.0193359791231,586
-778.3328266431781,555
-775.6470563194197,557
-772.9620248353489,536
-770.2777320183878,573
-767.5941776958798,571
-764.9113616950891,569
-762.2292838432011,547
-759.5479439673222,536
-756.8673418944801,559
-754.1874774516235,591
-751.5083504656222,609
-748.8299607632671,577
-746.15230817127,573
-743.475392516264,616
-740.7992136248035,584
-738.1237713233636,558
-735.4490654383407,592
-732.7750957960521,641
-730.1018622227365,605
-727.4293645445534,580
-724.7576025875837,568
-722.0865761778291,560
-719.4162851412126,598
-716.7467293035781,619
-714.0779084906909,629
-711.409822528237,605
-708.7424712418238,580
-706.0758544569796,600
-703.4099719991541,605
-700.7448236937178,595
-698.0804093659622,598
-695.4167288411002,615
-692.7537819442656,656
-690.0915685005134,590
-687.4300883348199,617
-684.7693412720819,636
-682.1093271371178,612
-679.4500457546669,610
-676.7914969493897,593
-674.1336805458676,618
-671.4765963686034,606
-668.8202442420206,571
-666.1646239904642,631
-663.5097354382001,649
-660.8555784094151,620
-658.2021527282176,630
-655.5494582186366,600
-652.8974947046223,649
-650.2462620100463,678
-647.5957599587009,690
-644.9459883742998,637
-642.2969470804776,661
-639.6486359007902,668
-637.0010546587141,657
-634.3542031776476,673
-631.7080812809096,659
-629.0626887917401,624
-626.4180255333008,666
-623.7740913286734,726
-621.1308860008619,752
-618.4884093727904,728
-615.8466612673046,645
-613.2056415071715,668
-610.5653499150785,651
-607.9257863136347,683
-605.28695052537,710
-602.6488423727357,682
-600.0114616781036,681
-597.3748082637674,703
-594.7388819519412,688
-592.1036825647604,764
-589.4692099242818,751
-586.8354638524829,782
-584.2024441712624,776
-581.5701507024403,797
-578.9385832677575,774
-576.3077416888759,759
-573.6776257873787,715
-571.0482353847704,713
-568.4195703024757,721
-565.7916303618415,747
-563.164415384135,751
-560.5379251905453,755
-557.9121596021815,673
-555.2871184400748,733
-552.6628015251767,689
-550.0392086783606,730
-547.4163397204204,768
-544.794194472071,761
-542.1727727539491,728
-539.5520743866118,712
-536.9320991905377,774
-534.3128469861261,879
-531.6943175936979,920
-529.0765108334947,886
-526.4594265256793,950
-523.8430644903358,1086
-521.2274245474689,1332
-518.612506517005,1372
-515.9983102187913,1402
-513.3848354725959,1513
-510.77208209810846,1657
-508.16004991493924,1993
-505.5487387426199,2196
-502.9381484006032,2246
-500.3282787082628,2290
-497.71912948489364,2111
-495.1107005497117,1889
-492.5029917218539,1615
-489.8960028203786,1310
-487.28973366426493,1125
-484.68418407241325,1054
-482.07935386364494,986
-479.47524285670266,970
-476.87185087025,898
-474.2691777228715,981
-471.66722323307334,1012
-469.0659872192821,964
-466.4654694998459,947
-463.86566989303384,929
-461.26658821703614,945
-458.66822428996414,901
-456.07057792985,917
-453.4736489546475,953
-450.877437182231,918
-448.28194243039627,883
-445.68716451686,872
-443.09310325926003,901
-440.49975847515555,841
-437.9071299820263,850
-435.31521759727354,903
-432.72402113821954,982
-430.13354042210767,952
-427.5437752661022,951
-424.95472548728867,935
-422.36639090267386,897
-419.7787713291855,999
-417.1918665836721,985
-414.60567648290385,1018
-412.0202008435715,991
-409.4354394822874,933
-406.8513922155845,953
-404.26805885991723,1006
-401.685439231661,1038
-399.103533147112,1049
-396.522340422488,988
-393.9418608739278,981
-391.3620943174908,960
-388.7830405691583,986
-386.2046994448317,1036
-383.6270707603344,972
-381.05015433141045,928
-378.473949973725,881
-375.8984575028645,780
-373.32367673433623,788
-370.74960748356875,743
-368.1762495659117,746
-365.60360279663576,701
-363.03166699093265,667
-360.4604419639154,674
-357.8899275306178,594
-355.32012350599507,608
-352.7510297049233,573
-350.1826459421999,550
-347.61497203254316,544
-345.04800779059235,630
-342.4817530309082,571
-339.91620756797226,593
-337.35137121618743,614
-334.7872437898774,684
-332.22382510328725,715
-329.66111497058273,819
-327.09911320585127,806
-324.53781962310075,656
-321.9772340362607,618
-319.4173562591816,586
-316.8581861056348,588
-314.2997233893127,634
-311.7419679238294,671
-309.1849195227194,681
-306.62857799943856,642
-304.0729431673641,590
-301.51801483979375,624
-298.963792829947,645
-296.41027695096386,649
-293.85746701590574,691
-291.3053628377552,805
-288.7539642294155,805
-286.2032710037115,841
-283.65328297338897,852
-281.1039999511146,815
-278.5554217494762,924
-276.007548180983,875
-273.4603790580651,810
-270.9139141930734,880
-268.3681533982807,864
-265.8230964858798,785
-263.27874326798565,759
-260.7350935566336,789
-258.1921471637804,804
-255.6499039013039,841
-253.10836358100266,781
-250.56752601459698,795
-248.02739101372765,846
-245.48795838995704,943
-242.94922795476816,956
-240.41119951956557,875
-237.8738728956746,873
-235.33724789434166,828
-232.80132432673452,834
-230.2661020039418,790
-227.73158073697357,841
-225.19776033676033,896
-222.66464061415422,1024
-220.1322213799284,1037
-217.60050244477725,911
-215.06948361931552,880
-212.53916471408013,968
-210.00954553952818,1121
-207.48062590603843,1119
-204.9524056239104,925
-202.4248845033651,1004
-199.8980623545441,1032
-197.37193898751036,1060
-194.84651421224817,1068
-192.32178783866232,1020
-189.79775967657952,1044
-187.27442953574644,1155
-184.7517972258321,1253
-182.2298625564256,1160
-179.7086253370378,1038
-177.18808537710026,1365
-174.66824248596583,1609
-172.14909647290835,1468
-169.6306471471229,1311
-167.11289431772548,1165
-164.59583779375328,1323
-162.07947738416453,1412
-159.5638128978386,1591
-157.04884414357605,1823
-154.53457093009854,1841
-152.02099306604828,1363
-149.50811035998936,1355
-146.99592262040665,1310
-144.48442965570587,1545
-141.97363127421409,1911
-139.46352728417958,1901
-136.95411749377126,1868
-134.44540171107985,1759
-131.93737974411636,1804
-129.43005140081357,1550
-126.92341648902493,1825
-124.41747481652521,2389
-121.91222619101006,2923
-119.40767042009657,4211
-116.90380731132257,4778
-114.40063667214702,4759
-111.8981583099503,4262
-109.3963720320337,3996
-106.89527764561933,3833
-104.39487495785067,4711
-101.89516377579241,5192
-99.39614390642998,6965
-96.89781515667039,9554
-94.40017733334128,12671
-91.90323024319173,12475
-89.40697369289148,9398
-86.91140748903172,6558
-84.41653143812482,5897
-81.92234534660395,8204
-79.42884902082358,12706
-76.93604226705907,15635
-74.4439248915071,17453
-71.95249670028534,19494
-69.46175749943245,22670
-66.97170709490854,29707
-64.48234529259423,38515
-61.99367189829195,41149
-59.50568671772464,43972
-57.01838955653636,45483
-54.53178022029283,49738
-52.045858514480074,48491
-49.560624244506016,39812
-47.07607721569923,28397
-44.59221723330904,22866
-42.10904410250669,21664
-39.62655762838392,25635
-37.14475761595372,31128
-34.66364387015028,36617
-32.18321619582866,40645
-29.70347439776515,41893
-27.224418280657005,40946
-24.74604764912317,43324
-22.26836230770266,59323
-19.7913620608565,65040
-17.315046712966478,65040
-14.83941606833514,65040
-12.36446993118659,65040
-9.89020810566592,65040
-7.416630395839093,65040
-4.94373660569363,65040
-2.471526539137585,65040
-6.821210263296962E-13,65040
2.47084320796705,65040
4.941003281093458,65040
7.410480415786196,65040
9.879274808531363,65040
12.347386655893956,65040
14.814816154518212,65040
17.28156350112681,65040
19.74762889252179,65040
22.21301252558385,65040
24.67771459727237,23825
27.141735304626195,6767
29.605074844762612,6353
32.06773341487792,5801
34.52971121224755,5074
36.99100843422559,4908
39.45162527824516,6430
41.91156194181792,6073
44.370818622535126,5238
46.82939551806646,4301
49.287292826160524,3807
51.74451074464503,4196
54.201049471426245,4477
56.65690920448981,4359
59.112090141899785,4638
61.56659248179983,4663
64.02041642241159,3050
66.4735621620365,2237
68.92602989905402,3110
71.37781983192338,3413
73.82893215918205,2770
76.27936707944684,2535
78.72912479141326,2897
81.17820549385567,2717
83.62660938562783,2421
86.07433666566146,2217
88.5213875329681,2707
90.96776218663751,3028
93.41346082583925,2798
95.85848364982041,2771
98.30283085790859,2177
100.7465026495089,2164
103.18949922410604,2249
105.63182078126385,2253
108.07346752062438,2214
110.51443964190923,1984
112.95473734491827,1958
115.39436082953114,1567
117.83331029570547,1960
120.27158594347827,2502
122.7091879729652,2441
125.1461165843615,2247
127.58237197794062,2079
130.01795435405518,1729
132.4528639131364,1479
134.88710085569494,1529
137.32066538231982,1873
139.75355769367923,1611
142.1857779905207,1544
144.61732647366978,1670
147.04820334403132,1513
149.47840880258934,1538
151.90794305040674,1531
154.33680628862487,1475
156.76499871846443,1620
159.19252054122433,1683
161.61937195828352,1823
164.04555317109896,1856
166.47106438120693,2120
168.89590579022217,2517
171.320077599839,2349
173.7435800118302,2527
176.16641322804742,2525
178.58857745042144,2628
181.01007288096173,2491
183.43089972175687,2748
185.85105817497413,2702
188.27054844285988,2429
190.6893707277394,2521
193.10752523201643,2569
195.5250121581745,2597
197.9418317087751,2695
200.3579840864594,2435
202.7734694939469,2513
205.18828813403627,2782
207.6024402096051,2798
210.01592592360964,2665
212.42874547908548,2799
214.84089907914665,2775
217.2523869269868,2587
219.66320922587727,2784
222.0733661791695,2746
224.48285799029293,2702
226.8916848627572,2686
229.29984700014882,2766
231.7073446061355,2822
234.11417788446204,2740
236.520347038953,2713
238.92585227351185,2640
241.33069379212054,2586
243.73487179884035,2648
246.1383864978112,2616
248.541238093252,2670
250.9434267894609,2672
253.34495279081432,2838
255.74581630176783,2668
258.1460175268563,2739
260.54555667069314,2635
262.9444339379703,2704
265.3426495334594,2654
267.7402036620107,2733
270.1370965285529,2772
272.53332833809407,2758
274.9288992957214,2627
277.32380960660055,2769
279.718059475976,2759
282.1116491091717,2660
284.5045787115897,2619
286.89684848871195,2712
289.2884586460981,2693
291.67940938938807,2666
294.0697009242996,2716
296.4593334566299,2725
298.84830719225477,2883
301.23662233712923,2779
303.6242790972866,2586
306.01127767884,2512
308.39761828798066,2556
310.78330113097934,2612
313.16832641418534,2484
315.5526943440269,2458
317.9364051270112,2445
320.3194589697242,2533
322.70185607883093,2367
325.0835966610754,2449
327.4646809232805,2474
329.8451090723478,2381
332.2248813152577,2337
334.6039978590701,2364
336.9824589109231,2321
339.36026467803447,2330
341.7374153677,2202
344.113911187295,2175
346.48975234427337,2162
348.8649390461686,2213
351.2394715005918,2159
353.61334991523415,2262
355.9865744978655,2173
358.35914545633375,2172
360.73106299856715,2247
363.10232733257146,2216
365.47293866643247,2218
367.84289720831396,2254
370.2122031664593,2118
372.5808567491905,2114
374.9488581649083,2105
377.31620762209275,2131
379.6829053293021,2137
382.0489514951745,2084
384.4143463284262,2062
386.7790900378528,2039
389.14318283232853,2067
391.50662492080653,2139
393.86941651231916,2113
396.23155781597745,2174
398.5930490409713,2109
400.9538903965696,2113
403.3140820921202,2198
405.6736243370498,2175
408.03251734086336,2051
410.3907613131465,2092
412.74835646356166,1966
415.10530300185144,2076
417.4616011378372,2025
419.81725108141893,2054
422.1722530425758,1960
424.5266072313656,1953
426.880313857925,1972
429.2333731324701,2042
431.58578526529516,1911
433.9375504667738,1984
436.2886689473588,1994
438.63914091758113,1975
440.9889665880513,1959
443.33814616945835,1975
445.68667987257015,1936
448.03456790823395,1870
450.3818104873759,1941
452.72840782100013,1941
455.07436012019105,1886
457.41966759611057,1866
459.7643304600007,1944
462.10834892318155,1932
464.4517231970525,1948
466.79445349309174,1947
469.1365400228566,1912
471.4779829979826,1989
473.81878263018564,1925
476.15893913125876,2011
478.4984527130747,2073
480.8373235875855,2071
483.17555196682144,2135
485.5131380628919,2202
487.8500820879857,2344
490.1863842543697,2401
492.52204477439034,2564
494.8570638604725,2908
497.1914417251204,3368
499.52517858091653,3802
501.85827464052306,4474
504.19073011668036,4903
506.5225452222086,4965
508.85372017000566,4905
511.18425517304956,4874
513.514150444396,4983
515.8434061971808,5834
518.1720226446176,6581
520.4999999999999,6662
522.8273384766991,6224
525.1540382881666,5678
527.480099647932,4930
529.8055227696037,4127
532.1303078668694,3048
534.454455153496,2517
536.777964843328,2187
539.1008371502907,2214
541.4230722883866,2092
543.744670471698,1980
546.0656319143858,1971
548.3859568306899,1958
550.7056454349294,1996
553.0246979415016,1987
555.3431145648834,1973
557.6608955196306,2004
559.978041020377,1998
562.2945512818363,2068
564.6104265188006,2006
566.9256669461412,1927
569.2402727788082,1925
571.5542442318302,1917
573.8675815203156,2057
576.1802848594508,2101
578.4923544645015,1990
580.8037905508126,1994
583.114593333807,1973
585.4247630289875,2038
587.7342998519354,2081
590.0432040183106,1970
592.3514757438526,2021
594.6591152443794,1978
596.9661227357875,2001
599.2724984340531,1989
601.578242555231,2046
603.8833553154542,2032
606.1878369309362,1875
608.4916876179676,1947
610.7949075929192,1964
613.0974970722403,1965
615.3994562724587,1952
617.7007854101818,1924
620.0014847020951,1894
622.3015543649641,1926
624.6009946156324,1976
626.8998056710224,1983
629.1979877481361,1883
631.4955410640538,1886
633.7924658359349,1961
636.0887622810175,1909
638.3844306166192,1945
640.6794710601358,1955
642.9738838290426,2008
645.2676691408932,1991
647.5608272133207,1982
649.853358264037,2023
652.1452625108324,2037
654.4365401715764,2078
656.7271914642178,2010
659.0172166067838,1963
661.3066158173809,1999
663.5953893141935,1924
665.8835373154867,2060
668.1710600396028,2015
670.4579577049639,2076
672.7442305300709,2033
675.0298787335033,2073
677.3149025339197,1965
679.599302150058,1993
681.8830778007342,2015
684.1662297048437,1993
686.4487580813608,1995
688.7306631493387,1992
691.0119451279091,1991
693.2926042362834,2052
695.5726406937516,2028
697.8520547196814,2038
700.1308465335215,2014
702.4090163547982,1975
704.6865644031171,2050
706.9634908981619,1929
709.2397960596965,1954
711.5154801075631,1877
713.7905432616823,1920
716.0649857420548,1988
718.3388077687592,1988
720.612009561953,1998
722.8845913418733,1930
725.1565533288352,1934
727.427895743234,1959
729.6986188055427,1967
731.9687227363137,2026
734.238207756178,2004
736.5070740858458,1942
738.7753219461066,1985
741.0429515578281,2052
743.3099631419569,1934
745.5763569195191,2038
747.8421331116193,2073
750.1072919394409,2037
752.3718336242467,1980
754.6357583873777,2015
756.8990664502545,2015
759.1617580343765,2005
761.423833361321,2005
763.6852926527457,2037
765.9461361303862,2103
768.206364016058,2095
770.4659765316536,2077
772.7249738991469,2084
774.9833563405886,2092
777.2411240781092,2097
779.4982773339183,2085
781.7548163303044,2042
784.010741289634,1978
786.2660524343538,2047
788.5207499869881,2065
790.7748341701416,2099
793.0283052064964,2105
795.2811633188143,2040
797.5334087299362,1968
799.7850416627813,2110
802.0360623403484,1997
804.2864709857143,2050
806.5362678220353,2043
808.7854530725468,2128
811.0340269605625,2005
813.2819897094754,2041
815.5293415427581,2063
817.77608268396,2085
820.0222133567116,1999
822.2677337847211,2008
824.5126441917765,2113
826.7569448017433,2090
829.0006358385675,2076
831.2437175262731,2055
833.4861900889629,2003
835.7280537508192,1994
837.9693087361026,2113
840.2099552691533,2080
842.4499935743896,2010
844.689423876309,1984
846.9282463994886,2005
849.1664613685833,2048
851.4040690083276,2030
853.6410695435349,2002
855.877463199097,2025
858.1132501999847,2078
860.3484307712487,1996
862.5830051380175,1992
864.8169735254988,2066
867.0503361589791,2091
869.2830932638243,2031
871.5152450654786,2072
873.7467917894654,2106
875.9777336613873,2072
878.2080709069252,1946
880.4378037518389,2142
882.666932421968,2136
884.8954571432301,2063
887.1233781416219,2105
889.3506956432192,2054
891.5774098741766,2135
893.803521060728,2172
896.0290294291852,2110
898.2539352059397,2077
900.4782386174619,2052
902.7019398903011,2072
904.925039251085,2143
907.147536926521,2064
909.3694331433943,2048
911.59072812857,2135
913.8114221089921,2148
916.0315153116827,2114
918.2510079637437,2096
920.4699002923547,2016
922.6881925247761,2098
924.905884888345,2044
927.1229776104793,2069
929.3394709186747,2157
931.555365040506,2022
933.7706602036275,2043
935.9853566357709,2027
938.1994545647489,2073
940.4129542184515,2139
942.6258558248488,2056
944.8381596119883,2052
947.0498658079974,2109
949.2609746410825,2140
951.4714863395287,2129
953.6814011316998,2017
955.8907192460387,2015
958.0994409110671,2027
960.3075663553858,2056
962.5150958076741,2088
964.7220294966913,2052
966.928367651274,1995
969.1341105003388,2073
971.3392582728806,1985
973.5438111979742,2020
975.747769504772,2071
977.9511334225061,2001
980.153903180487,2015
982.3560790081052,2023
984.5576611348289,1988
986.7586497902058,1915
988.9590452038618,1872
991.158847605503,1966
993.3580572249133,1859
995.5566742919558,1819
997.7546990365728,1793
999.952131688785,1848
1002.1489724786926,1800
1004.3452216364743,1760
1006.5408793923874,1688
1008.7359459767691,1675
1010.9304216200343,1722
1013.1243065526781,1681
1015.3176010052733,1745
1017.510305208472,1672
1019.7024193930064,1637
1021.8939437896848,1651
1024.0848786293977,1687
1026.2752241431122,1608
1028.4649805618747,1665
1030.6541481168115,1600
1032.842727039127,1535
1035.0307175601051,1628
1037.2181199111074,1545
1039.4049343235752,1601
1041.591161029029,1519
1043.7768002590683,1519
1045.9618522453698,1608
1048.1463172196918,1508
1050.3301954138697,1540
1052.513487059818,1533
1054.69619238953,1578
1056.8783116350783,1587
1059.0598450286152,1513
1061.2407928023704,1545
1063.4211551886528,1601
1065.6009324198508,1522
1067.780124728432,1538
1069.9587323469414,1513
1072.1367555080046,1535
1074.314194444325,1541
1076.4910493886855,1544
1078.667320573947,1504
1080.843008233051,1525
1083.0181125990161,1553
1085.1926339049414,1440
1087.3665723840027,1455
1089.5399282694575,1506
1091.7127017946405,1494
1093.8848931929647,1473
1096.0565026979243,1539
1098.2275305430899,1425
1100.3979769621128,1396
1102.567842188722,1457
1104.737126456726,1482
1106.9058300000124,1468
1109.0739530525475,1453
1111.2414958483764,1458
1113.4084586216231,1396
1115.5748416064907,1429
1117.7406450372605,1441
1119.9058691482942,1417
1122.0705141740304,1388
1124.2345803489884,1501
1126.3980679077658,1454
1128.5609770850388,1515
1130.7233081155623,1430
1132.8850612341707,1473
1135.0462366757774,1435
1137.2068346753745,1470
1139.3668554680326,1456
1141.526299288901,1433
1143.68516637321,1396
1145.8434569562655,1460
1148.001171273455,1425
1150.158309560244,1402
1152.3148720521767,1444
1154.470858984876,1386
1156.626270594044,1405
1158.7811071154629,1452
1160.9353687849912,1395
1163.089055838569,1437
1165.242168512213,1444
1167.3947070420209,1431
1169.5466716641677,1423
1171.6980626149075,1428
1173.8488801305748,1456
1175.9991244475814,1405
1178.1487958024186,1446
1180.2978944316555,1409
1182.4464205719428,1397
1184.5943744600072,1403
1186.7417563326567,1408
1188.8885664267755,1404
1191.0348049793297,1437
1193.1804722273619,1444
1195.325568407995,1488
1197.4700937584303,1435
1199.614048515948,1448
1201.7574329179074,1460
1203.900247201746,1457
1206.042491604982,1432
1208.1841663652099,1449
1210.3252717201053,1427
1212.465807907422,1386
1214.6057751649923,1360
1216.7451737307279,1423
1218.8840038426192,1452
1221.0222657387353,1412
1223.1599596572241,1429
1225.2970858363137,1441
1227.4336445143094,1431
1229.5696359295966,1394
1231.705060320639,1422
1233.8399179259786,1445
1235.9742089842384,1464
1238.107933734118,1407
1240.2410924143974,1478
1242.373685263935,1386
1244.5057125216676,1473
1246.6371744266116,1430
1248.7680712178621,1422
1250.898403134593,1495
1253.028170416058,1491
1255.1573733015875,1496
1257.2860120305932,1446
1259.4140868425648,1444
1261.54159797707,1450
1263.6685456737569,1481
1265.7949301723515,1500
1267.9207517126597,1558
1270.046010534565,1506
1272.1707068780306,1544
1274.2948409830983,1539
1276.4184130898889,1455
1278.541423438603,1452
1280.6638722695184,1485
1282.785759822993,1469
1284.9070863394636,1469
1287.0278520594447,1515
1289.1480572235314,1456
1291.2677020723963,1490
1293.3867868467923,1514
1295.5053117875495,1571
1297.623277135579,1515
1299.740683131868,1515
1301.8575300174857,1483
1303.973818033578,1573
1306.0895474213703,1522
1308.2047184221678,1577
1310.3193312773528,1518
1312.4333862283888,1553
1314.5468835168163,1577
1316.659823384255,1545
1318.7722060724045,1511
1320.8840318230418,1569
1322.9953008780249,1609
1325.1060134792888,1601
1327.2161698688478,1629
1329.3257702887959,1578
1331.4348149813054,1584
1333.5433041886276,1571
1335.6512381530933,1575
1337.7586171171101,1551
1339.8654413231675,1529
1341.9717110138317,1514
1344.0774264317488,1551
1346.1825878196432,1621
1348.2871954203192,1584
1350.3912494766587,1513
1352.4947502316231,1517
1354.5976979282532,1522
1356.7000928096686,1519
1358.8019351190665,1466
1360.9032250997243,1499
1363.0039629949988,1536
1365.1041490483235,1538
1367.2037835032133,1501
1369.3028666032606,1507
1371.401398592137,1534
1373.4993797135926,1568
1375.5968102114575,1514
1377.6936903296396,1468
1379.7900203121262,1580
1381.8858004029835,1515
1383.9810308463561,1531
1386.075711886469,1567
1388.1698437676241,1567
1390.2634267342032,1573
1392.356461030667,1554
1394.4489469015557,1560
1396.5408845914872,1568
1398.6322743451592,1640
1400.7231164073469,1565
1402.813411022907,1505
1404.903158436773,1610
1406.9923588939578,1531
1409.0810126395531,1566
1411.1691199187303,1612
1413.2566809767386,1561
1415.343696058907,1652
1417.4301654106425,1627
1419.5160892774315,1652
1421.6014679048399,1569
1423.6863015385125,1566
1425.7705904241707,1676
1427.8543348076178,1587
1429.9375349347342,1613
1432.0201910514802,1546
1434.102303403894,1581
1436.1838722380944,1635
1438.2648978002767,1619
1440.3453803367174,1648
1442.4253200937692,1684
1444.5047173178677,1594
1446.5835722555234,1648
1448.6618851533285,1654
1450.739656257952,1621
1452.8168858161434,1611
1454.8935740747306,1653
1456.96972128062,1634
1459.045327680797,1640
1461.120393522327,1595
1463.1949190523528,1717
1465.2689045180973,1678
1467.3423501668608,1670
1469.415256246024,1669
1471.4876230030463,1708
1473.559450685465,1670
1475.6307395408976,1708
1477.7014898170391,1667
1479.771701761665,1690
1481.8413756226287,1784
1483.9105116478618,1743
1485.9791100853772,1697
1488.0471711832643,1723
1490.1146951896926,1796
1492.1816823529098,1760
1494.2481329212433,1804
1496.3140471430984,1817
1498.3794252669609,1849
1500.4442675413939,1788
1502.5085742150404,1828
1504.572345536622,1796
1506.6355817549388,1889
1508.6982831188702,1852
1510.7604498773744,1879
1512.8220822794883,1833
1514.8831805743293,1877
1516.9437450110909,1884
1519.003775839048,1880
1521.0632733075522,1945
1523.1222376660367,1869
1525.1806691640113,1940
1527.2385680510652,1871
1529.2959345768668,1891
1531.3527689911643,1914
1533.4090715437833,1910
1535.4648424846291,1933
1537.5200820636855,1894
1539.5747905310159,1980
1541.6289681367616,1945
1543.6826151311434,1967
1545.7357317644614,2036
1547.7883182870937,1988
1549.8403749494987,1998
1551.8919020022113,2008
1553.9428996958477,2002
1555.9933682811015,2084
1558.0433080087469,2167
1560.0927191296346,2095
1562.1416018946961,2122
1564.1899565549415,2089
1566.2377833614592,2204
1568.2850825654164,2278
1570.3318544180606,2286
1572.3780991707158,2136
1574.423817074788,2270
1576.4690083817595,2321
1578.5136733431923,2152
1580.5578122107272,2146
1582.601425236085,2081
1584.6445126710646,2032
1586.6870747675434,2001
1588.7291117774776,1952
1590.7706239529034,1950
1592.8116115459347,1903
1594.8520748087658,1782
1596.8920139936686,1795
1598.9314293529933,1773
1600.9703211391711,1807
1603.008689604711,1797
1605.0465350022005,1810
1607.0838575843068,1715
1609.1206576037753,1673
1611.1569353134305,1617
1613.1926909661765,1599
1615.2279248149953,1653
1617.2626371129481,1671
1619.2968281131757,1634
1621.3304980688963,1693
1623.3636472334088,1564
1625.39627586009,1584
1627.428384202396,1603
1629.459972513861,1554
1631.4910410480993,1550
1633.5215900588028,1550
1635.551619799744,1541
1637.5811305247717,1539
1639.6101224878166,1502
1641.6385959428862,1484
1643.6665511440683,1522
1645.693988345528,1496
1647.7209078015112,1522
1649.7473097663405,1570
1651.7731944944203,1604
1653.7985622402307,1599
1655.823413258333,1520
1657.847747803366,1503
1659.8715661300494,1557
1661.8948684931793,1532
1663.9176551476316,1525
1665.9399263483624,1529
1667.9616823504057,1554
1669.982923408873,1510
1672.0036497789574,1544
1674.0238617159293,1518
1676.043559475138,1442
1678.0627433120121,1438
1680.081413482059,1476
1682.0995702408654,1462
1684.117213844096,1491
1686.134344547495,1469
1688.1509626068864,1453
1690.1670682781705,1499
1692.182661817329,1538
1694.1977434804217,1481
1696.2123135235875,1473
1698.226372203043,1523
1700.2399197750851,1576
1702.2529564960905,1528
1704.2654826225112,1484
1706.277498410882,1540
1708.2890041178139,1592
1710.2999999999988,1519
1712.3104863142066,1489
1714.3204633172854,1448
1716.329931266163,1485
1718.3388904178469,1546
1720.3473410294214,1457
1722.3552833580516,1514
1724.3627176609807,1468
1726.3696441955308,1539
1728.3760632191033,1547
1730.3819749891782,1550
1732.3873797633146,1494
1734.3922777991502,1472
1736.3966693544012,1395
1738.4005546868639,1398
1740.4039340544127,1446
1742.406807715001,1506
1744.4091759266616,1542
1746.4110389475054,1522
1748.4123970357223,1504
1750.413250449582,1491
1752.4135994474318,1503
1754.4134442876993,1527
1756.4127852288902,1488
1758.4116225295893,1419
1760.4099564484595,1475
1762.407787244244,1465
1764.405115175764,1454
1766.4019405019203,1450
1768.3982634816916,1476
1770.3940843741357,1472
1772.3894034383907,1473
1774.3842209336717,1510
1776.378537119274,1411
1778.372352254571,1500
1780.3656665990156,1414
1782.3584804121397,1455
1784.3507939535534,1429
1786.3426074829463,1528
1788.3339212600863,1493
1790.3247355448211,1470
1792.3150505970766,1507
1794.3048666768573,1476
1796.2941840442477,1457
1798.2830029594106,1429
1800.2713236825884,1444
1802.2591464741004,1480
1804.2464715943465,1434
1806.2332993038058,1434
1808.2196298630352,1422
1810.2054635326708,1435
1812.190800573428,1418
1814.175641246101,1475
1816.1599858115628,1473
1818.1438345307652,1393
1820.127187664738,1482
1822.1100454745924,1437
1824.092408221516,1434
1826.0742761667766,1468
1828.055649571721,1464
1830.0365286977735,1447
1832.0169138064398,1485
1833.9968051593014,1419
1835.9762030180214,1499
1837.9551076443408,1503
1839.9335193000788,1467
1841.9114382471344,1475
1843.888864747485,1422
1845.8657990631878,1438
1847.842241456378,1475
1849.8181921892697,1421
1851.7936515241558,1476
1853.7686197234098,1436
1855.7430970494815,1379
1857.7170837649014,1447
1859.6905801322787,1435
1861.6635864143004,1424
1863.6361028737338,1445
1865.608129773424,1468
1867.5796673762961,1468
1869.5507159453537,1481
1871.521275743678,1430
1873.4913470344313,1428
1875.4609300808534,1494
1877.4300251462632,1492
1879.3986324940588,1537
1881.366752387717,1467
1883.3343850907936,1427
1885.3015308669228,1578
1887.268189979819,1499
1889.2343626932739,1536
1891.2000492711595,1576
1893.1652499774254,1466
1895.1299650761011,1559
1897.0941948312952,1468
1899.0579395071945,1479
1901.0211993680641,1546
1902.98397467825,1496
1904.9462657021745,1516
1906.9080727043415,1500
1908.869395949332,1533
1910.8302357018065,1484
1912.790592226504,1479
1914.7504657882428,1520
1916.7098566519212,1508
1918.6687650825133,1517
1920.6271913450764,1520
1922.5851357047422,1465
1924.5425984267245,1472
1926.499579776314,1447
1928.4560800188833,1505
1930.4120994198802,1484
1932.367638244833,1488
1934.32269675935,1495
1936.2772752291175,1447
1938.231373919899,1488
1940.1849930975404,1463
1942.1381330279637,1526
1944.0907939771696,1461
1946.0429762112412,1494
1947.9946799963363,1501
1949.9459055986945,1453
1951.896653284633,1508
1953.8469233205478,1475
1955.7967159729142,1487
1957.7460315082863,1457
1959.6948701932974,1516
1961.6432322946594,1436
1963.5911180791632,1455
1965.5385278136787,1448
1967.4854617651545,1478
1969.4319202006182,1482
1971.377903387176,1458
1973.3234115920136,1462
1975.268445082395,1476
1977.2130041256642,1441
1979.1570889892423,1491
1981.1006999406304,1511
1983.04383724741,1471
1984.986501177238,1507
1986.928691997853,1452
1988.8704099770712,1515
1990.811655382789,1462
1992.7524284829801,1566
1994.692729545698,1493
1996.6325588390755,1495
1998.5719166313224,1445
2000.5108031907307,1477
2002.4492187856677,1448
2004.387163684583,1493
2006.3246381560011,1477
2008.2616424685298,1495
2010.1981768908527,1444
2012.1342416917332,1537
2014.069837140014,1404
2016.0049635046162,1402
2017.9396210545406,1461
2019.8738100588666,1467
2021.8075307867502,1452
2023.740783507431,1457
2025.6735684902228,1446
2027.6058860045214,1443
2029.5377363198004,1398
2031.4691197056118,1436
2033.4000364315875,1470
2035.3304867674374,1393
2037.260470982952,1461
2039.189989347998,1444
2041.1190421325232,1446
2043.047629606554,1448
2044.9757520401945,1375
2046.9034097036288,1454
2048.8306028671195,1410
2050.7573318010086,1437
2052.683596775716,1445
2054.609398061742,1406
2056.5347359296647,1431
2058.4596106501403,1468
2060.384022493906,1478
2062.3079717317764,1488
2064.231458634646,1413
2066.1544834734873,1501
2068.077046519352,1480
2069.99914804337,1401
2071.9207883167524,1436
2073.8419676107865,1420
2075.7626861968406,1353
2077.6829443463607,1429
2079.6027423308715,1446
2081.522080421977,1486
2083.440958891362,1415
2085.359378010786,1436
2087.2773380520907,1422
2089.194839287196,1467
2091.111881988101,1465
2093.0284664268825,1455
2094.9445928756973,1509
2096.86026160678,1455
2098.775472892446,1447
2100.690227005088,1484
2102.604524217178,1427
2104.5183648012676,1439
2106.431749029985,1499
2108.34467717604,1508
2110.2571495122206,1472
2112.169166311393,1479
2114.080727846503,1466
2115.9918343905747,1424
2117.902486216711,1477
2119.8126835980956,1505
2121.722426807987,1483
2123.6317161197285,1516
2125.5405518067364,1532
2127.448934142509,1458
2129.356863400624,1502
2131.264339854737,1483
2133.1713637785815,1506
2135.077935445972,1531
2136.9840551308002,1488
2138.889723107037,1538
2140.7949396487334,1450
2142.699705030018,1533
2144.6040195250994,1444
2146.507883408264,1517
2148.4112969538774,1493
2150.3142604363848,1494
2152.2167741303097,1549
2154.1188383102535,1546
2156.0204532508997,1507
2157.9216192270064,1521
2159.822336513414,1517
2161.7226053850413,1490
2163.622426116884,1485
2165.5217989840185,1495
2167.4207242616,1523
2169.319202224862,1519
2171.2172331491165,1490
2173.1148173097563,1526
2175.0119549822507,1551
2176.90864644215,1506
2178.8048919650823,1523
2180.7006918267534,1492
2182.596046302952,1542
2184.4909556695407,1538
2186.3854202024645,1522
2188.279440177746,1543
2190.173015871487,1494
2192.066147559868,1509
2193.958835519149,1522
2195.851080025667,1560
2197.7428813558417,1562
2199.6342397861667,1534
2201.5251555932186,1482
2203.415629053651,1528
2205.3056604441986,1519
2207.19525004167,1491
2209.084398122958,1544
2210.9731049650327,1555
2212.861370844941,1611
2214.749196039812,1483
2216.636580826851,1537
2218.523525483344,1644
2220.410030286655,1599
2222.296095514226,1536
2224.1817214435805,1565
2226.066908352319,1555
2227.951656518121,1606
2229.835966218746,1539
2231.71983773203,1548
2233.6032713358913,1548
2235.486267308324,1600
2237.3688259274036,1525
2239.2509474712824,1592
2241.132632218193,1564
2243.013880446447,1583
2244.8946924344323,1561
2246.7750684606203,1565
2248.6550088035574,1580
2250.534513741871,1578
2252.413583554265,1569
2254.292218519526,1581
2256.170418916517,1654
2258.0481850241786,1597
2259.925517121534,1570
2261.8024154876825,1549
2263.678880401803,1589
2265.5549121431536,1556
2267.430510991071,1565
2269.305677224971,1599
2271.180411124348,1616
2273.0547129687766,1525
2274.9285830379076,1596
2276.8020216114737,1520
2278.6750289692845,1542
2280.5476053912294,1573
2282.4197511572766,1578
2284.2914665474727,1680
2286.162751841943,1620
2288.0336073208937,1651
2289.904033264608,1661
2291.774029953448,1657
2293.6435976678554,1623
2295.5127366883517,1538
2297.381447295534,1567
2299.2497297700825,1457
2301.1175843927526,1464
2302.9850114443825,1392
2304.852011205885,1362
2306.7185839582553,1393
2308.5847299825664,1363
2310.4504495599676,1368
2312.3157429716925,1306
2314.1806104990483,1307
2316.0450524234247,1356
2317.9090690262888,1299
2319.772660589186,1312
2321.635827393742,1336
2323.498569721661,1334
2325.3608878547248,1259
2327.2227820747967,1295
2329.0842526638157,1295
2330.945299903803,1283
2332.805924076857,1292
2334.6661254651535,1234
2336.525904350951,1270
2338.3852610165827,1344
2340.244195744464,1277
2342.102708817088,1312
2343.9608005170253,1346
2345.8184711269287,1250
2347.675720929526,1364
2349.532550207628,1341
2351.38895924412,1277
2353.24494832197,1354
2355.100517724223,1289
2356.955667734004,1303
2358.810398634514,1329
2360.664710709037,1332
2362.5186042409337,1343
2364.3720795136437,1320
2366.225136810686,1345
2368.0777764156583,1268
2369.929998612237,1307
2371.7818036841777,1285
2373.633191915315,1322
2375.484163589562,1343
2377.3347189909114,1302
2379.184858403434,1311
2381.03458211128,1321
2382.8838903986775,1272
2384.732783549936,1250
2386.5812618494406,1298
2388.4293255816588,1324
2390.2769750311327,1337
2392.1242104824883,1276
2393.971032220427,1294
2395.8174405297295,1323
2397.6634356952563,1299
2399.509018001947,1356
2401.3541877348193,1290
2403.1989451789705,1356
2405.043290619576,1301
2406.8872243418905,1331
2408.730746631247,1248
2410.5738577730594,1321
2412.4165580528183,1331
2414.258847756095,1304
2416.100727168537,1253
2417.9421965758734,1337
2419.783256263912,1245
2421.623906518538,1343
2423.4641476257157,1317
2425.303979871491,1393
2427.143403541984,1311
2428.9824189233977,1312
2430.821026302012,1383
2432.6592259641866,1312
2434.497018196361,1352
2436.33440328505,1338
2438.171381516851,1263
2440.00795317844,1333
2441.844118556569,1309
2443.6798779380724,1345
2445.5152316098606,1370
2447.3501798589255,1315
2449.1847229723357,1322
2451.0188612372403,1335
2452.8525949408663,1312
2454.6859243705203,1346
2456.518849813587,1339
2458.3513715575314,1328
2460.183489889895,1318
2462.015205098301,1282
2463.8465174704493,1372
2465.67742729412,1296
2467.5079348571717,1342
2469.338040447542,1314
2471.1677443532476,1337
2472.9970468623833,1341
2474.825948263123,1342
2476.6544488437207,1334
2478.482548892508,1331
2480.310248697896,1330
2482.137548548374,1369
2483.9644487325118,1342
2485.790949538956,1322
2487.617051256433,1277
2489.44275417375,1274
2491.26805857979,1331
2493.0929647635157,1371
2494.917473013971,1349
2496.741583620276,1303
2498.5652968716304,1346
2500.3886130573137,1342
2502.2115324666834,1347
2504.0340553891765,1290
2505.856182114308,1345
2507.6779129316733,1327
2509.499248130945,1391
2511.3201880018764,1351
2513.140732834298,1365
2514.9608829181198,1248
2516.780638543331,1347
2518.6,1347
2520.418967578273,1343
2522.237541568376,1364
2524.0557222606144,1352
2525.8735099453706,1333
2527.6909049131086,1332
2529.507907454368,1407
2531.32451785977,1361
2533.140736420014,1398
2534.9565634258774,1389
2536.771999168218,1390
2538.5870439379714,1388
2540.4016980261526,1421
2542.2159617238544,1421
2544.02983532225,1375
2545.8433191125914,1384
2547.656413386209,1415
2549.4691184345115,1384
2551.2814345489874,1423
2553.093362021204,1450
2554.904901142808,1404
2556.716052205523,1406
2558.526815501153,1434
2560.3371913215824,1510
2562.147179958771,1423
2563.956781704761,1438
2565.7659968516705,1471
2567.5748256916986,1504
2569.3832685171224,1476
2571.1913256202984,1530
2572.9989972936614,1491
2574.806283829725,1417
2576.613185521084,1462
2578.4197026604074,1502
2580.2258355404483,1535
2582.031584454035,1534
2583.836949694077,1574
2585.6419315535613,1459
2587.4465303255533,1466
2589.2507463032002,1513
2591.0545797797245,1464
2592.8580310484303,1547
2594.6611004026995,1508
2596.463788135992,1547
2598.266094541849,1520
2600.0680199138874,1491
2601.869564545807,1511
2603.670728731383,1506
2605.4715127644704,1518
2607.2719169390048,1524
2609.071941548998,1441
2610.8715868885433,1479
2612.670853251811,1515
2614.469740933052,1522
2616.268250226594,1519
2618.0663814268455,1514
2619.864134828292,1488
2621.6615107255006,1517
2623.458509413115,1492
2625.2551311858597,1400
2627.0513763385347,1493
2628.8472451660223,1474
2630.6427379632833,1522
2632.4378550253564,1491
2634.232596647359,1435
2636.026963124488,1429
2637.8209547520187,1472
2639.6145718253065,1443
2641.407814639785,1456
2643.200683490966,1452
2644.9931786744414,1434
2646.7853004858807,1443
2648.577049221034,1437
2650.3684251757277,1396
2652.1594286458712,1438
2653.9500599274484,1384
2655.740319316525,1365
2657.5302071092437,1391
2659.3197236018286,1424
2661.10886909058,1383
2662.8976438718782,1335
2664.686048242183,1469
2666.4740824980327,1382
2668.2617469360443,1414
2670.0490418529134,1341
2671.8359675454153,1363
2673.622524310403,1418
2675.408712444811,1360
2677.1945322456495,1386
2678.979984010009,1386
2680.76506803506,1422
2682.5497846180497,1320
2684.334134056306,1347
2686.1181166472343,1335
2687.9017326883213,1312
2689.6849824771293,1379
2691.4678663113013,1311
2693.2503844885596,1338
2695.032537306705,1351
2696.8143250636167,1308
2698.5957480572542,1388
2700.3768065856534,1394
2702.1575009469316,1290
2703.937831439283,1292
2705.717798360982,1283
2707.4974020103837,1271
2709.276642685917,1321
2711.055520686095,1339
2712.834036309506,1336
2714.612189854819,1309
2716.389981620782,1309
2718.1674119062204,1315
2719.944481010041,1300
2721.721189231226,1314
2723.4975368688415,1343
2725.273524222027,1311
2727.0491515900053,1302
2728.824419272075,1284
2730.5993275676146,1294
2732.3738767760838,1319
2734.148067197016,1284
2735.921899130031,1325
2737.6953728748194,1361
2739.468488731156,1267
2741.2412469988926,1305
2743.0136479779617,1278
2744.785691968372,1251
2746.5573792702116,1356
2748.3287101836504,1358
2750.099685008934,1298
2751.870304046388,1326
2753.640567596418,1244
2755.4104759595057,1336
2757.1800294362156,1265
2758.949228327187,1281
2760.7180729331412,1313
2762.486563554877,1326
2764.254700493272,1334
2766.022484049284,1311
2767.789914523947,1272
2769.5569922183786,1300
2771.3237174337705,1322
2773.090090471394,1330
2774.8561116326036,1253
2776.6217812188274,1302
2778.3870995315756,1307
2780.1520668724356,1309
2781.9166835430747,1294
2783.6809498452394,1300
2785.444866080754,1264
2787.2084325515225,1241
2788.971649559527,1260
2790.73451740683,1275
2792.4970363955713,1340
2794.2592068279705,1279
2796.0210290063264,1326
2797.7825032330147,1340
2799.543629810493,1326
2801.304409041296,1310
2803.0648412280366,1309
2804.8249266734088,1302
2806.5846656801846,1311
2808.344058551212,1254
2810.1031055894246,1325
2811.8618070978273,1314
2813.6201633795085,1347
2815.378174737636,1296
2817.1358414754536,1306
2818.893163896285,1336
2820.6501423035334,1276
2822.4067770006814,1391
2824.1630682912883,1329
2825.9190164789957,1311
2827.6746218675207,1306
2829.429884760661,1290
2831.184805462294,1313
2832.9393842763743,1341
2834.693621506936,1315
2836.4475174580916,1314
2838.201072434034,1304
2839.954286739034,1278
2841.707160677441,1287
2843.459694553685,1331
2845.2118886722724,1298
2846.96374333779,1289
2848.7152588549034,1333
2850.4664355283567,1317
2852.217273662973,1285
2853.9677735636546,1335
2855.7179355353833,1317
2857.4677598832186,1311
2859.217246912299,1317
2860.9663969278427,1350
2862.715210235146,1305
2864.4636871395846,1325
2866.211827946614,1271
2867.9596329617652,1328
2869.7071024906536,1311
2871.4542368389684,1305
2873.20103631248,1292
2874.947501217038,1297
2876.6936318585695,1270
2878.4394285430812,1290
2880.1848915766604,1311
2881.9300212654707,1315
2883.6748179157553,1338
2885.4192818338374,1300
2887.1634133261173,1336
2888.907212699077,1283
2890.6506802592744,1312
2892.393816313348,1343
2894.1366211680142,1338
2895.8790951300693,1370
2897.621238506388,1323
2899.363051603925,1310
2901.1045347297118,1305
2902.8456881908596,1277
2904.58651229456,1348
2906.327007348081,1330
2908.067173658772,1362
2909.8070115340597,1361
2911.5465212814497,1301
2913.285703208527,1317
2915.0245576229563,1322
2916.7630848324807,1366
2918.5012851449196,1241
2920.2391588681758,1278
2921.976706310227,1202
2923.7139277791334,1288
2925.4508235830313,1321
2927.187394030137,1311
2928.923639428745,1291
2930.6595600872306,1316
2932.395156314046,1335
2934.1304284177218,1300
2935.8653767068713,1321
2937.6000014901815,1278
2939.3343030764227,1299
2941.068281774442,1321
2942.8019378931644,1279
2944.5352717415976,1309
2946.2682836288236,1358
2948.0009738640065,1372
2949.7333427563885,1330
2951.465390615289,1290
2953.1971177501086,1324
2954.9285244703265,1332
2956.6596110855,1378
2958.3903779052657,1294
2960.1208252393385,1327
2961.8509533975125,1373
2963.5807626896617,1333
2965.3102534257378,1270
2967.0394259157715,1326
2968.768280469873,1316
2970.496817398232,1325
2972.2250370111146,1249
2973.952939618869,1285
2975.6805255319196,1342
2977.4077950607707,1337
2979.134748516006,1340
2980.861386208289,1279
2982.587708448359,1331
2984.313715547037,1276
2986.039407815222,1287
2987.764785563891,1295
2989.489849104102,1293
2991.2145987469908,1289
2992.9390348037705,1333
2994.6631575857346,1253
2996.3869674042576,1295
2998.1104645707887,1324
2999.83364939686,1256
3001.5565221940783,1340
3003.2790832741334,1316
3005.0013329487924,1321
3006.7232715298996,1209
3008.4448993293804,1315
3010.166216659239,1322
3011.887223831558,1333
3013.607921158498,1347
3015.3283089522993,1279
3017.0483875252826,1341
3018.7681571898443,1323
3020.4876182584626,1275
3022.2067710436927,1343
3023.9256158581707,1308
3025.644153014609,1306
3027.362382825801,1320
3029.0803056046193,1264
3030.797921664012,1321
3032.5152313170106,1286
3034.2322348767225,1287
3035.9489326563353,1330
3037.665324969115,1260
3039.3814121284063,1314
3041.097194447633,1306
3042.812672240299,1304
3044.5278458199855,1354
3046.2427155003525,1300
3047.9572815951406,1280
3049.671544418167,1302
3051.38550428333,1274
3053.0991615046073,1266
3054.812516396051,1260
3056.5255692717974,1265
3058.2383204460575,1343
3059.9507702331257,1340
3061.662918947372,1272
3063.3747669032446,1287
3065.0863144152736,1243
3066.7975617980674,1281
3068.508509366309,1324
3070.219157434767,1334
3071.9295063182844,1367
3073.639556331785,1259
3075.3493077902704,1280
3077.058761008821,1296
3078.7679163025964,1255
3080.476773986837,1320
3082.1853343768594,1257
3083.89359778806,1329
3085.6015645359153,1252
3087.3092349359786,1259
3089.016609303884,1246
3090.7236879553434,1263
3092.4304712061476,1248
3094.136959372166,1305
3095.843152769349,1251
3097.5490517137237,1286
3099.2546565213966,1275
3100.959967508554,1305
3102.66498499146,1261
3104.3697092864577,1291
3106.0741407099695,1291
3107.778279578498,1313
3109.482126208622,1303
3111.1856809170004,1301
3112.8889440203716,1257
3114.5919158355528,1310
3116.294596679439,1326
3117.996986869006,1319
3119.6990867213062,1308
3121.4008965534726,1349
3123.102416682717,1354
3124.803647426329,1323
3126.5045891016784,1261
3128.205242026213,1296
3129.90560651746,1254
3131.605682893025,1274
3133.3054714705922,1269
3135.0049725679282,1273
3136.7041865028714,1288
3138.4031135933465,1260
3140.101754157353,1292
3141.800108512971,1291
3143.498176978357,1356
3145.1959598717494,1278
3146.8934575114636,1273
3148.5906702158954,1272
3150.2875983035183,1215
3151.9842420928853,1252
3153.680601902627,1250
3155.376678051456,1254
3157.07247085816,1268
3158.767980641609,1303
3160.463207720748,1270
3162.158152414606,1284
3163.8528150422862,1347
3165.5471959229726,1299
3167.2412953759303,1255
3168.9351137204976,1250
3170.628651276098,1300
3172.3219083622307,1340
3174.014885298474,1291
3175.707582404485,1266
3177.4000000000005,1261
3179.092138404835,1250
3180.7839979388846,1327
3182.47557892212,1291
3184.166881674594,1230
3185.8579065164386,1341
3187.5486537678626,1301
3189.2391237491547,1268
3190.9293167806827,1282
3192.6192331828934,1297
3194.3088732763117,1291
3195.998237381542,1238
3197.687325819268,1270
3199.376138910251,1286
3201.064676975334,1256
3202.7529403354347,1189
3204.4409293115523,1249
3206.1286442247647,1239
3207.816085396229,1247
3209.5032531471825,1218
3211.190147798936,1235
3212.8767696728846,1260
3214.5631190905015,1290
3216.2491963733373,1252
3217.9350018430214,1197
3219.6205358212637,1244
3221.305798629851,1233
3222.990790590651,1216
3224.6755120256103,1226
3226.359963256751,1196
3228.0441446061795,1293
3229.7280563960758,1276
3231.411698948703,1236
3233.0950725863995,1228
3234.778177631587,1242
3236.461014406761,1282
3238.1435832345005,1255
3239.8258844374595,1271
3241.507918338374,1292
3243.1896852600576,1269
3244.8711855254023,1283
3246.552419457381,1306
3248.233387379042,1215
3249.914089613516,1306
3251.59452648401,1230
3253.274698313813,1246
3254.95460542629,1302
3256.6342481448855,1233
3258.313626793125,1239
3259.9927416946084,1237
3261.6715931730196,1272
3263.3501815521176,1231
3265.0285071557437,1239
3266.706570307815,1248
3268.3843713323286,1234
3270.0619105533615,1274
3271.739188295068,1254
3273.4162048816834,1272
3275.0929606375184,1285
3276.769455886966,1336
3278.445690954498,1320
3280.1216661646613,1297
3281.797381842087,1299
3283.4728383114807,1237
3285.1480358976296,1251
3286.8229749253996,1267
3288.4976557197333,1299
3290.172078605655,1259
3291.846243908266,1324
3293.5201519527463,1291
3295.193803064357,1284
3296.8671975684374,1277
3298.5403357904024,1261
3300.21321805575,1268
3301.8858446900567,1254
3303.558216018975,1242
3305.23033236824,1259
3306.9021940636603,1302
3308.57380143113,1270
3310.2451547966184,1342
3311.916254486174,1293
3313.5871008259246,1279
3315.2576941420766,1343
3316.9280347609147,1291
3318.5981230088046,1270
3320.2679592121895,1285
3321.9375436975924,1249
3323.606876791612,1237
3325.27595882093,1243
3326.944790112305,1261
3328.6133709925753,1207
3330.2817017886573,1256
3331.949782827547,1268
3333.617614436319,1245
3335.2851969421245,1276
3336.952530672199,1335
3338.619615953853,1337
3340.286453114475,1247
3341.9530424815357,1271
3343.619384382583,1271
3345.2854791452437,1273
3346.951327097224,1271
3348.6169285663073,1237
3350.2822838803577,1278
3351.947393367319,1282
3353.61225735521,1294
3355.2768761721345,1267
3356.9412501462693,1263
3358.605379605873,1287
3360.2692648792827,1290
3361.9329062949146,1249
3363.596304181263,1211
