CollectionTime,9/25/2024 11:58:43 AM
ExposureUsed,3
CalibratedSpectrum
-962.7078968117929,605
-959.9714848408522,587
-957.2358232597828,599
-954.5009119013725,672
-951.7667505983302,655
-949.0333391832855,683
-946.3006774887896,625
-943.5687653473143,650
-940.837602591253,658
-938.1071890529199,645
-935.3775245645503,605
-932.6486089583007,649
-929.9204420662485,625
-927.1930237203925,619
-924.4663537526524,637
-921.7404319948689,661
-919.0152582788041,635
-916.2908324361409,627
-913.5671542984834,647
-910.8442236973568,637
-908.1220404642074,657
-905.4006044304027,643
-902.679915427231,628
-899.959973285902,639
-897.2407778375464,611
-894.5223289132158,630
-891.8046263438832,611
-889.0876699604426,600
-886.3714595937089,596
-883.6559950744183,614
-880.9412762332282,618
-878.2273029007168,625
-875.5140749073835,611
-872.8015920836489,619
-870.0898542598545,590
-867.3788612662631,607
-864.6686129330585,611
-861.9591090903457,675
-859.2503495681506,631
-856.5423341964203,620
-853.8350628050229,622
-851.1285352237478,585
-848.4227512823054,611
-845.7177108103272,623
-843.0134136373656,622
-840.3098595928943,632
-837.6070485063082,634
-834.9049802069229,620
-832.2036545239757,665
-829.5030712866244,607
-826.8032303239481,638
-824.1041314649472,593
-821.4057745385428,606
-818.7081593735775,634
-816.0112857988148,620
-813.3151536429393,628
-810.6197627345566,600
-807.9251129021936,611
-805.2312039742981,629
-802.5380357792392,622
-799.8456081453069,608
-797.1539209007124,637
-794.462973873588,610
-791.772766891987,628
-789.083299783884,635
-786.3945723771743,595
-783.7065844996748,627
-781.0193359791231,612
-778.3328266431781,637
-775.6470563194197,630
-772.9620248353489,622
-770.2777320183878,635
-767.5941776958798,638
-764.9113616950891,632
-762.2292838432011,629
-759.5479439673222,621
-756.8673418944801,620
-754.1874774516235,663
-751.5083504656222,653
-748.8299607632671,656
-746.15230817127,616
-743.475392516264,659
-740.7992136248035,681
-738.1237713233636,633
-735.4490654383407,627
-732.7750957960521,673
-730.1018622227365,645
-727.4293645445534,666
-724.7576025875837,657
-722.0865761778291,672
-719.4162851412126,648
-716.7467293035781,670
-714.0779084906909,696
-711.409822528237,670
-708.7424712418238,673
-706.0758544569796,696
-703.4099719991541,679
-700.7448236937178,714
-698.0804093659622,694
-695.4167288411002,698
-692.7537819442656,706
-690.0915685005134,679
-687.4300883348199,704
-684.7693412720819,682
-682.1093271371178,694
-679.4500457546669,708
-676.7914969493897,710
-674.1336805458676,690
-671.4765963686034,730
-668.8202442420206,706
-666.1646239904642,704
-663.5097354382001,696
-660.8555784094151,699
-658.2021527282176,738
-655.5494582186366,700
-652.8974947046223,736
-650.2462620100463,756
-647.5957599587009,745
-644.9459883742998,757
-642.2969470804776,725
-639.6486359007902,752
-637.0010546587141,742
-634.3542031776476,755
-631.7080812809096,729
-629.0626887917401,733
-626.4180255333008,779
-623.7740913286734,724
-621.1308860008619,796
-618.4884093727904,762
-615.8466612673046,751
-613.2056415071715,765
-610.5653499150785,699
-607.9257863136347,743
-605.28695052537,737
-602.6488423727357,774
-600.0114616781036,771
-597.3748082637674,755
-594.7388819519412,777
-592.1036825647604,754
-589.4692099242818,743
-586.8354638524829,773
-584.2024441712624,811
-581.5701507024403,783
-578.9385832677575,802
-576.3077416888759,804
-573.6776257873787,774
-571.0482353847704,776
-568.4195703024757,735
-565.7916303618415,774
-563.164415384135,800
-560.5379251905453,800
-557.9121596021815,751
-555.2871184400748,778
-552.6628015251767,760
-550.0392086783606,766
-547.4163397204204,814
-544.794194472071,817
-542.1727727539491,838
-539.5520743866118,822
-536.9320991905377,780
-534.3128469861261,863
-531.6943175936979,894
-529.0765108334947,864
-526.4594265256793,884
-523.8430644903358,1070
-521.2274245474689,1188
-518.612506517005,1234
-515.9983102187913,1279
-513.3848354725959,1299
-510.77208209810846,1426
-508.16004991493924,1551
-505.5487387426199,1751
-502.9381484006032,1726
-500.3282787082628,1762
-497.71912948489364,1783
-495.1107005497117,1552
-492.5029917218539,1386
-489.8960028203786,1307
-487.28973366426493,1096
-484.68418407241325,1056
-482.07935386364494,971
-479.47524285670266,960
-476.87185087025,968
-474.2691777228715,966
-471.66722323307334,984
-469.0659872192821,1031
-466.4654694998459,949
-463.86566989303384,989
-461.26658821703614,953
-458.66822428996414,953
-456.07057792985,946
-453.4736489546475,1017
-450.877437182231,989
-448.28194243039627,951
-445.68716451686,922
-443.09310325926003,940
-440.49975847515555,910
-437.9071299820263,964
-435.31521759727354,977
-432.72402113821954,901
-430.13354042210767,947
-427.5437752661022,983
-424.95472548728867,933
-422.36639090267386,995
-419.7787713291855,1017
-417.1918665836721,985
-414.60567648290385,964
-412.0202008435715,1008
-409.4354394822874,982
-406.8513922155845,1007
-404.26805885991723,1008
-401.685439231661,976
-399.103533147112,1013
-396.522340422488,1014
-393.9418608739278,989
-391.3620943174908,970
-388.7830405691583,945
-386.2046994448317,996
-383.6270707603344,913
-381.05015433141045,901
-378.473949973725,837
-375.8984575028645,735
-373.32367673433623,695
-370.74960748356875,688
-368.1762495659117,660
-365.60360279663576,591
-363.03166699093265,600
-360.4604419639154,571
-357.8899275306178,540
-355.32012350599507,531
-352.7510297049233,527
-350.1826459421999,538
-347.61497203254316,481
-345.04800779059235,469
-342.4817530309082,472
-339.91620756797226,471
-337.35137121618743,531
-334.7872437898774,535
-332.22382510328725,541
-329.66111497058273,588
-327.09911320585127,667
-324.53781962310075,564
-321.9772340362607,510
-319.4173562591816,498
-316.8581861056348,533
-314.2997233893127,516
-311.7419679238294,515
-309.1849195227194,545
-306.62857799943856,528
-304.0729431673641,508
-301.51801483979375,527
-298.963792829947,539
-296.41027695096386,547
-293.85746701590574,595
-291.3053628377552,659
-288.7539642294155,605
-286.2032710037115,652
-283.65328297338897,643
-281.1039999511146,668
-278.5554217494762,751
-276.007548180983,685
-273.4603790580651,671
-270.9139141930734,737
-268.3681533982807,789
-265.8230964858798,749
-263.27874326798565,703
-260.7350935566336,688
-258.1921471637804,712
-255.6499039013039,763
-253.10836358100266,779
-250.56752601459698,744
-248.02739101372765,762
-245.48795838995704,768
-242.94922795476816,810
-240.41119951956557,790
-237.8738728956746,858
-235.33724789434166,787
-232.80132432673452,761
-230.2661020039418,685
-227.73158073697357,782
-225.19776033676033,822
-222.66464061415422,925
-220.1322213799284,827
-217.60050244477725,803
-215.06948361931552,794
-212.53916471408013,892
-210.00954553952818,905
-207.48062590603843,868
-204.9524056239104,757
-202.4248845033651,848
-199.8980623545441,923
-197.37193898751036,968
-194.84651421224817,888
-192.32178783866232,811
-189.79775967657952,935
-187.27442953574644,1105
-184.7517972258321,1102
-182.2298625564256,895
-179.7086253370378,798
-177.18808537710026,961
-174.66824248596583,1126
-172.14909647290835,1212
-169.6306471471229,1148
-167.11289431772548,999
-164.59583779375328,1023
-162.07947738416453,1129
-159.5638128978386,1339
-157.04884414357605,1378
-154.53457093009854,1464
-152.02099306604828,1215
-149.50811035998936,1181
-146.99592262040665,1127
-144.48442965570587,1303
-141.97363127421409,1513
-139.46352728417958,1541
-136.95411749377126,1518
-134.44540171107985,1521
-131.93737974411636,1582
-129.43005140081357,1352
-126.92341648902493,1766
-124.41747481652521,2090
-121.91222619101006,2404
-119.40767042009657,3171
-116.90380731132257,3317
-114.40063667214702,3411
-111.8981583099503,2950
-109.3963720320337,2865
-106.89527764561933,3016
-104.39487495785067,3845
-101.89516377579241,5061
-99.39614390642998,6786
-96.89781515667039,8358
-94.40017733334128,9843
-91.90323024319173,8492
-89.40697369289148,5668
-86.91140748903172,4320
-84.41653143812482,4050
-81.92234534660395,4321
-79.42884902082358,5710
-76.93604226705907,6740
-74.4439248915071,6972
-71.95249670028534,7316
-69.46175749943245,7694
-66.97170709490854,10112
-64.48234529259423,14753
-61.99367189829195,17812
-59.50568671772464,21004
-57.01838955653636,23196
-54.53178022029283,27450
-52.045858514480074,27057
-49.560624244506016,24991
-47.07607721569923,23283
-44.59221723330904,20924
-42.10904410250669,18018
-39.62655762838392,18964
-37.14475761595372,23523
-34.66364387015028,26570
-32.18321619582866,32749
-29.70347439776515,34861
-27.224418280657005,32362
-24.74604764912317,35449
-22.26836230770266,53210
-19.7913620608565,65039
-17.315046712966478,65039
-14.83941606833514,65039
-12.36446993118659,65039
-9.89020810566592,65039
-7.416630395839093,65039
-4.94373660569363,65039
-2.471526539137585,65039
-6.821210263296962E-13,65039
2.47084320796705,65039
4.941003281093458,65039
7.410480415786196,65039
9.879274808531363,65039
12.347386655893956,65039
14.814816154518212,65039
17.28156350112681,65039
19.74762889252179,65039
22.21301252558385,65039
24.67771459727237,22094
27.141735304626195,5274
29.605074844762612,3926
32.06773341487792,3475
34.52971121224755,3544
36.99100843422559,3306
39.45162527824516,4708
41.91156194181792,4806
44.370818622535126,3156
46.82939551806646,2553
49.287292826160524,2865
51.74451074464503,3180
54.201049471426245,2685
56.65690920448981,2871
59.112090141899785,3100
61.56659248179983,3681
64.02041642241159,2736
66.4735621620365,1897
68.92602989905402,2102
71.37781983192338,2541
73.82893215918205,2392
76.27936707944684,2417
78.72912479141326,1887
81.17820549385567,1852
83.62660938562783,1671
86.07433666566146,1427
88.5213875329681,1712
90.96776218663751,2171
93.41346082583925,2324
95.85848364982041,1862
98.30283085790859,1579
100.7465026495089,1578
103.18949922410604,1490
105.63182078126385,1645
108.07346752062438,1876
110.51443964190923,1742
112.95473734491827,1508
115.39436082953114,1137
117.83331029570547,1344
120.27158594347827,1704
122.7091879729652,1832
125.1461165843615,1761
127.58237197794062,1665
130.01795435405518,1556
132.4528639131364,1231
134.88710085569494,1209
137.32066538231982,1523
139.75355769367923,1291
142.1857779905207,1143
144.61732647366978,1342
147.04820334403132,1367
149.47840880258934,1258
151.90794305040674,1176
154.33680628862487,1215
156.76499871846443,1374
159.19252054122433,1525
161.61937195828352,1707
164.04555317109896,1706
166.47106438120693,1883
168.89590579022217,2229
171.320077599839,2368
173.7435800118302,2368
176.16641322804742,2443
178.58857745042144,2592
181.01007288096173,2566
183.43089972175687,2569
185.85105817497413,2650
188.27054844285988,2549
190.6893707277394,2575
193.10752523201643,2564
195.5250121581745,2649
197.9418317087751,2690
200.3579840864594,2742
202.7734694939469,2708
205.18828813403627,2751
207.6024402096051,2854
210.01592592360964,2752
212.42874547908548,2952
214.84089907914665,2860
217.2523869269868,2645
219.66320922587727,2767
222.0733661791695,2698
224.48285799029293,2825
226.8916848627572,2790
229.29984700014882,2913
231.7073446061355,2907
234.11417788446204,2914
236.520347038953,3046
238.92585227351185,3059
241.33069379212054,3184
243.73487179884035,3192
246.1383864978112,3161
248.541238093252,3136
250.9434267894609,3244
253.34495279081432,3432
255.74581630176783,3548
258.1460175268563,3378
260.54555667069314,3467
262.9444339379703,3306
265.3426495334594,3424
267.7402036620107,3194
270.1370965285529,3069
272.53332833809407,3088
274.9288992957214,2941
277.32380960660055,2889
279.718059475976,2778
282.1116491091717,2685
284.5045787115897,2616
286.89684848871195,2647
289.2884586460981,2679
291.67940938938807,2694
294.0697009242996,2682
296.4593334566299,2692
298.84830719225477,2764
301.23662233712923,2611
303.6242790972866,2526
306.01127767884,2431
308.39761828798066,2477
310.78330113097934,2402
313.16832641418534,2442
315.5526943440269,2342
317.9364051270112,2456
320.3194589697242,2365
322.70185607883093,2372
325.0835966610754,2304
327.4646809232805,2280
329.8451090723478,2290
332.2248813152577,2210
334.6039978590701,2316
336.9824589109231,2199
339.36026467803447,2253
341.7374153677,2199
344.113911187295,2172
346.48975234427337,2176
348.8649390461686,2176
351.2394715005918,2123
353.61334991523415,2131
355.9865744978655,2136
358.35914545633375,2154
360.73106299856715,2149
363.10232733257146,2077
365.47293866643247,2104
367.84289720831396,2079
370.2122031664593,2075
372.5808567491905,2043
374.9488581649083,2067
377.31620762209275,2025
379.6829053293021,2062
382.0489514951745,1913
384.4143463284262,2053
386.7790900378528,1971
389.14318283232853,1985
391.50662492080653,1984
393.86941651231916,2014
396.23155781597745,2112
398.5930490409713,2090
400.9538903965696,2071
403.3140820921202,2003
405.6736243370498,2021
408.03251734086336,1999
410.3907613131465,1945
412.74835646356166,1943
415.10530300185144,2021
417.4616011378372,1977
419.81725108141893,1923
422.1722530425758,1992
424.5266072313656,1958
426.880313857925,1961
429.2333731324701,2013
431.58578526529516,1955
433.9375504667738,1898
436.2886689473588,1910
438.63914091758113,1945
440.9889665880513,1870
443.33814616945835,1883
445.68667987257015,1829
448.03456790823395,1807
450.3818104873759,1847
452.72840782100013,1900
455.07436012019105,1851
457.41966759611057,1854
459.7643304600007,1760
462.10834892318155,1873
464.4517231970525,1838
466.79445349309174,1871
469.1365400228566,1842
471.4779829979826,1846
473.81878263018564,1919
476.15893913125876,1940
478.4984527130747,1913
480.8373235875855,1959
483.17555196682144,2047
485.5131380628919,2030
487.8500820879857,2117
490.1863842543697,2295
492.52204477439034,2314
494.8570638604725,2502
497.1914417251204,2833
499.52517858091653,3251
501.85827464052306,3542
504.19073011668036,3722
506.5225452222086,3785
508.85372017000566,3871
511.18425517304956,3794
513.514150444396,3870
515.8434061971808,4660
518.1720226446176,5551
520.4999999999999,5778
522.8273384766991,5389
525.1540382881666,5135
527.480099647932,4497
529.8055227696037,3642
532.1303078668694,2742
534.454455153496,2310
536.777964843328,2130
539.1008371502907,2022
541.4230722883866,1939
543.744670471698,1944
546.0656319143858,1852
548.3859568306899,1948
550.7056454349294,1853
553.0246979415016,1915
555.3431145648834,1817
557.6608955196306,1895
559.978041020377,1849
562.2945512818363,1864
564.6104265188006,1818
566.9256669461412,1880
569.2402727788082,1868
571.5542442318302,1838
573.8675815203156,1946
576.1802848594508,1981
578.4923544645015,1963
580.8037905508126,1915
583.114593333807,1928
585.4247630289875,1954
587.7342998519354,1946
590.0432040183106,1891
592.3514757438526,1871
594.6591152443794,1907
596.9661227357875,1872
599.2724984340531,1864
601.578242555231,1887
603.8833553154542,1889
606.1878369309362,1910
608.4916876179676,1889
610.7949075929192,1868
613.0974970722403,1856
615.3994562724587,1818
617.7007854101818,1851
620.0014847020951,1905
622.3015543649641,1949
624.6009946156324,1843
626.8998056710224,1892
629.1979877481361,1872
631.4955410640538,1926
633.7924658359349,1903
636.0887622810175,1943
638.3844306166192,1929
640.6794710601358,1915
642.9738838290426,1905
645.2676691408932,1952
647.5608272133207,1900
649.853358264037,1962
652.1452625108324,1923
654.4365401715764,1987
656.7271914642178,1977
659.0172166067838,2043
661.3066158173809,2020
663.5953893141935,2025
665.8835373154867,1993
668.1710600396028,1993
670.4579577049639,2029
672.7442305300709,2049
675.0298787335033,1975
677.3149025339197,1990
679.599302150058,1850
681.8830778007342,1958
684.1662297048437,1881
686.4487580813608,1956
688.7306631493387,1953
691.0119451279091,1943
693.2926042362834,1935
695.5726406937516,1985
697.8520547196814,1916
700.1308465335215,1896
702.4090163547982,1874
704.6865644031171,1971
706.9634908981619,1953
709.2397960596965,1907
711.5154801075631,1968
713.7905432616823,1959
716.0649857420548,1959
718.3388077687592,1891
720.612009561953,1894
722.8845913418733,1939
725.1565533288352,1888
727.427895743234,1921
729.6986188055427,1922
731.9687227363137,1895
734.238207756178,1945
736.5070740858458,1863
738.7753219461066,1919
741.0429515578281,1877
743.3099631419569,1972
745.5763569195191,1944
747.8421331116193,1898
750.1072919394409,1913
752.3718336242467,1834
754.6357583873777,1907
756.8990664502545,1919
759.1617580343765,1896
761.423833361321,1969
763.6852926527457,1969
765.9461361303862,1982
768.206364016058,1954
770.4659765316536,1907
772.7249738991469,1942
774.9833563405886,1917
777.2411240781092,1904
779.4982773339183,1948
781.7548163303044,1957
784.010741289634,1974
786.2660524343538,2044
788.5207499869881,1922
790.7748341701416,1925
793.0283052064964,1951
795.2811633188143,1977
797.5334087299362,1953
799.7850416627813,1968
802.0360623403484,1984
804.2864709857143,2033
806.5362678220353,1976
808.7854530725468,1976
811.0340269605625,1949
813.2819897094754,1939
815.5293415427581,2001
817.77608268396,2013
820.0222133567116,1976
822.2677337847211,2036
824.5126441917765,2044
826.7569448017433,1995
829.0006358385675,1993
831.2437175262731,1976
833.4861900889629,1930
835.7280537508192,1949
837.9693087361026,1984
840.2099552691533,1934
842.4499935743896,1943
844.689423876309,1941
846.9282463994886,1935
849.1664613685833,1939
851.4040690083276,2006
853.6410695435349,1961
855.877463199097,1982
858.1132501999847,1944
860.3484307712487,2079
862.5830051380175,2086
864.8169735254988,1954
867.0503361589791,1958
869.2830932638243,1949
871.5152450654786,1965
873.7467917894654,1969
875.9777336613873,1995
878.2080709069252,1998
880.4378037518389,2044
882.666932421968,1985
884.8954571432301,1990
887.1233781416219,2048
889.3506956432192,2126
891.5774098741766,2028
893.803521060728,2007
896.0290294291852,2073
898.2539352059397,2035
900.4782386174619,2031
902.7019398903011,2095
904.925039251085,2036
907.147536926521,2111
909.3694331433943,2109
911.59072812857,2023
913.8114221089921,2001
916.0315153116827,2110
918.2510079637437,2070
920.4699002923547,2068
922.6881925247761,2052
924.905884888345,2035
927.1229776104793,1983
929.3394709186747,2040
931.555365040506,1965
933.7706602036275,1996
935.9853566357709,2101
938.1994545647489,2105
940.4129542184515,1983
942.6258558248488,2032
944.8381596119883,2099
947.0498658079974,1951
949.2609746410825,2042
951.4714863395287,1977
953.6814011316998,2047
955.8907192460387,2058
958.0994409110671,2047
960.3075663553858,2001
962.5150958076741,2002
964.7220294966913,1988
966.928367651274,1973
969.1341105003388,2039
971.3392582728806,1989
973.5438111979742,2006
975.747769504772,2008
977.9511334225061,1976
980.153903180487,2006
982.3560790081052,2019
984.5576611348289,1940
986.7586497902058,1879
988.9590452038618,1881
991.158847605503,1872
993.3580572249133,1865
995.5566742919558,1879
997.7546990365728,1787
999.952131688785,1805
1002.1489724786926,1761
1004.3452216364743,1678
1006.5408793923874,1724
1008.7359459767691,1726
1010.9304216200343,1723
1013.1243065526781,1684
1015.3176010052733,1667
1017.510305208472,1651
1019.7024193930064,1647
1021.8939437896848,1664
1024.0848786293977,1584
1026.2752241431122,1671
1028.4649805618747,1717
1030.6541481168115,1677
1032.842727039127,1682
1035.0307175601051,1673
1037.2181199111074,1624
1039.4049343235752,1685
1041.591161029029,1594
1043.7768002590683,1664
1045.9618522453698,1659
1048.1463172196918,1602
1050.3301954138697,1643
1052.513487059818,1627
1054.69619238953,1645
1056.8783116350783,1678
1059.0598450286152,1590
1061.2407928023704,1584
1063.4211551886528,1640
1065.6009324198508,1641
1067.780124728432,1643
1069.9587323469414,1612
1072.1367555080046,1610
1074.314194444325,1581
1076.4910493886855,1579
1078.667320573947,1570
1080.843008233051,1548
1083.0181125990161,1568
1085.1926339049414,1528
1087.3665723840027,1557
1089.5399282694575,1526
1091.7127017946405,1576
1093.8848931929647,1566
1096.0565026979243,1533
1098.2275305430899,1524
1100.3979769621128,1462
1102.567842188722,1541
1104.737126456726,1575
1106.9058300000124,1558
1109.0739530525475,1527
1111.2414958483764,1571
1113.4084586216231,1511
1115.5748416064907,1499
1117.7406450372605,1496
1119.9058691482942,1516
1122.0705141740304,1514
1124.2345803489884,1492
1126.3980679077658,1520
1128.5609770850388,1483
1130.7233081155623,1525
1132.8850612341707,1501
1135.0462366757774,1547
1137.2068346753745,1533
1139.3668554680326,1483
1141.526299288901,1503
1143.68516637321,1509
1145.8434569562655,1487
1148.001171273455,1510
1150.158309560244,1572
1152.3148720521767,1497
1154.470858984876,1566
1156.626270594044,1524
1158.7811071154629,1535
1160.9353687849912,1510
1163.089055838569,1527
1165.242168512213,1463
1167.3947070420209,1486
1169.5466716641677,1515
1171.6980626149075,1424
1173.8488801305748,1510
1175.9991244475814,1504
1178.1487958024186,1552
1180.2978944316555,1505
1182.4464205719428,1484
1184.5943744600072,1488
1186.7417563326567,1479
1188.8885664267755,1495
1191.0348049793297,1497
1193.1804722273619,1454
1195.325568407995,1473
1197.4700937584303,1495
1199.614048515948,1457
1201.7574329179074,1475
1203.900247201746,1479
1206.042491604982,1443
1208.1841663652099,1540
1210.3252717201053,1526
1212.465807907422,1460
1214.6057751649923,1486
1216.7451737307279,1492
1218.8840038426192,1513
1221.0222657387353,1505
1223.1599596572241,1632
1225.2970858363137,1540
1227.4336445143094,1530
1229.5696359295966,1541
1231.705060320639,1542
1233.8399179259786,1561
1235.9742089842384,1588
1238.107933734118,1567
1240.2410924143974,1605
1242.373685263935,1537
1244.5057125216676,1565
1246.6371744266116,1622
1248.7680712178621,1572
1250.898403134593,1574
1253.028170416058,1591
1255.1573733015875,1610
1257.2860120305932,1611
1259.4140868425648,1540
1261.54159797707,1630
1263.6685456737569,1616
1265.7949301723515,1623
1267.9207517126597,1616
1270.046010534565,1570
1272.1707068780306,1645
1274.2948409830983,1535
1276.4184130898889,1631
1278.541423438603,1629
1280.6638722695184,1714
1282.785759822993,1655
1284.9070863394636,1681
1287.0278520594447,1664
1289.1480572235314,1751
1291.2677020723963,1736
1293.3867868467923,1645
1295.5053117875495,1674
1297.623277135579,1691
1299.740683131868,1689
1301.8575300174857,1701
1303.973818033578,1733
1306.0895474213703,1749
1308.2047184221678,1736
1310.3193312773528,1744
1312.4333862283888,1776
1314.5468835168163,1840
1316.659823384255,1783
1318.7722060724045,1831
1320.8840318230418,1764
1322.9953008780249,1769
1325.1060134792888,1782
1327.2161698688478,1736
1329.3257702887959,1845
1331.4348149813054,1703
1333.5433041886276,1709
1335.6512381530933,1827
1337.7586171171101,1832
1339.8654413231675,1727
1341.9717110138317,1876
1344.0774264317488,1815
1346.1825878196432,1737
1348.2871954203192,1758
1350.3912494766587,1756
1352.4947502316231,1699
1354.5976979282532,1807
1356.7000928096686,1754
1358.8019351190665,1713
1360.9032250997243,1774
1363.0039629949988,1735
1365.1041490483235,1767
1367.2037835032133,1737
1369.3028666032606,1758
1371.401398592137,1773
1373.4993797135926,1796
1375.5968102114575,1767
1377.6936903296396,1733
1379.7900203121262,1715
1381.8858004029835,1726
1383.9810308463561,1802
1386.075711886469,1744
1388.1698437676241,1813
1390.2634267342032,1725
1392.356461030667,1797
1394.4489469015557,1828
1396.5408845914872,1818
1398.6322743451592,1797
1400.7231164073469,1844
1402.813411022907,1844
1404.903158436773,1807
1406.9923588939578,1851
1409.0810126395531,1856
1411.1691199187303,1881
1413.2566809767386,1886
1415.343696058907,1848
1417.4301654106425,1900
1419.5160892774315,1880
1421.6014679048399,1908
1423.6863015385125,1922
1425.7705904241707,1911
1427.8543348076178,1956
1429.9375349347342,1960
1432.0201910514802,1882
1434.102303403894,2032
1436.1838722380944,2013
1438.2648978002767,2038
1440.3453803367174,2076
1442.4253200937692,2121
1444.5047173178677,2008
1446.5835722555234,2142
1448.6618851533285,2237
1450.739656257952,2220
1452.8168858161434,2132
1454.8935740747306,2217
1456.96972128062,2353
1459.045327680797,2336
1461.120393522327,2374
1463.1949190523528,2426
1465.2689045180973,2471
1467.3423501668608,2517
1469.415256246024,2548
1471.4876230030463,2503
1473.559450685465,2607
1475.6307395408976,2597
1477.7014898170391,2660
1479.771701761665,2624
1481.8413756226287,2802
1483.9105116478618,2792
1485.9791100853772,2907
1488.0471711832643,2809
1490.1146951896926,2848
1492.1816823529098,2940
1494.2481329212433,2925
1496.3140471430984,2959
1498.3794252669609,3046
1500.4442675413939,3033
1502.5085742150404,3003
1504.572345536622,3092
1506.6355817549388,3032
1508.6982831188702,3044
1510.7604498773744,3152
1512.8220822794883,3171
1514.8831805743293,3280
1516.9437450110909,3089
1519.003775839048,3269
1521.0632733075522,3282
1523.1222376660367,3308
1525.1806691640113,3229
1527.2385680510652,3390
1529.2959345768668,3363
1531.3527689911643,3267
1533.4090715437833,3442
1535.4648424846291,3396
1537.5200820636855,3481
1539.5747905310159,3404
1541.6289681367616,3571
1543.6826151311434,3576
1545.7357317644614,3629
1547.7883182870937,3639
1549.8403749494987,3692
1551.8919020022113,3830
1553.9428996958477,3850
1555.9933682811015,3922
1558.0433080087469,4026
1560.0927191296346,4162
1562.1416018946961,4142
1564.1899565549415,4063
1566.2377833614592,4099
1568.2850825654164,4063
1570.3318544180606,4051
1572.3780991707158,3936
1574.423817074788,3808
1576.4690083817595,3684
1578.5136733431923,3585
1580.5578122107272,3417
1582.601425236085,3319
1584.6445126710646,3146
1586.6870747675434,3078
1588.7291117774776,2871
1590.7706239529034,2754
1592.8116115459347,2657
1594.8520748087658,2549
1596.8920139936686,2570
1598.9314293529933,2487
1600.9703211391711,2319
1603.008689604711,2268
1605.0465350022005,2257
1607.0838575843068,2165
1609.1206576037753,2124
1611.1569353134305,2048
1613.1926909661765,1985
1615.2279248149953,1996
1617.2626371129481,1997
1619.2968281131757,1896
1621.3304980688963,1935
1623.3636472334088,1916
1625.39627586009,1809
1627.428384202396,1835
1629.459972513861,1780
1631.4910410480993,1776
1633.5215900588028,1705
1635.551619799744,1714
1637.5811305247717,1696
1639.6101224878166,1718
1641.6385959428862,1681
1643.6665511440683,1736
1645.693988345528,1703
1647.7209078015112,1643
1649.7473097663405,1695
1651.7731944944203,1648
1653.7985622402307,1721
1655.823413258333,1666
1657.847747803366,1654
1659.8715661300494,1675
1661.8948684931793,1643
1663.9176551476316,1624
1665.9399263483624,1665
1667.9616823504057,1652
1669.982923408873,1599
1672.0036497789574,1599
1674.0238617159293,1614
1676.043559475138,1574
1678.0627433120121,1670
1680.081413482059,1608
1682.0995702408654,1576
1684.117213844096,1585
1686.134344547495,1594
1688.1509626068864,1587
1690.1670682781705,1576
1692.182661817329,1612
1694.1977434804217,1602
1696.2123135235875,1608
1698.226372203043,1634
1700.2399197750851,1576
1702.2529564960905,1635
1704.2654826225112,1593
1706.277498410882,1580
1708.2890041178139,1595
1710.2999999999988,1602
1712.3104863142066,1588
1714.3204633172854,1521
1716.329931266163,1561
1718.3388904178469,1512
1720.3473410294214,1540
1722.3552833580516,1616
1724.3627176609807,1515
1726.3696441955308,1522
1728.3760632191033,1507
1730.3819749891782,1576
1732.3873797633146,1504
1734.3922777991502,1509
1736.3966693544012,1520
1738.4005546868639,1481
1740.4039340544127,1532
1742.406807715001,1548
1744.4091759266616,1552
1746.4110389475054,1558
1748.4123970357223,1511
1750.413250449582,1535
1752.4135994474318,1441
1754.4134442876993,1516
1756.4127852288902,1445
1758.4116225295893,1450
1760.4099564484595,1478
1762.407787244244,1440
1764.405115175764,1514
1766.4019405019203,1482
1768.3982634816916,1440
1770.3940843741357,1482
1772.3894034383907,1412
1774.3842209336717,1444
1776.378537119274,1355
1778.372352254571,1450
1780.3656665990156,1450
1782.3584804121397,1382
1784.3507939535534,1473
1786.3426074829463,1429
1788.3339212600863,1387
1790.3247355448211,1352
1792.3150505970766,1384
1794.3048666768573,1443
1796.2941840442477,1415
1798.2830029594106,1377
1800.2713236825884,1375
1802.2591464741004,1420
1804.2464715943465,1410
1806.2332993038058,1343
1808.2196298630352,1418
1810.2054635326708,1408
1812.190800573428,1392
1814.175641246101,1369
1816.1599858115628,1387
1818.1438345307652,1331
1820.127187664738,1435
1822.1100454745924,1388
1824.092408221516,1403
1826.0742761667766,1399
1828.055649571721,1421
1830.0365286977735,1436
1832.0169138064398,1343
1833.9968051593014,1362
1835.9762030180214,1382
1837.9551076443408,1398
1839.9335193000788,1388
1841.9114382471344,1398
1843.888864747485,1408
1845.8657990631878,1383
1847.842241456378,1341
1849.8181921892697,1368
1851.7936515241558,1363
1853.7686197234098,1393
1855.7430970494815,1360
1857.7170837649014,1377
1859.6905801322787,1445
1861.6635864143004,1416
1863.6361028737338,1384
1865.608129773424,1394
1867.5796673762961,1393
1869.5507159453537,1364
1871.521275743678,1373
1873.4913470344313,1425
1875.4609300808534,1406
1877.4300251462632,1431
1879.3986324940588,1411
1881.366752387717,1440
1883.3343850907936,1442
1885.3015308669228,1413
1887.268189979819,1412
1889.2343626932739,1397
1891.2000492711595,1420
1893.1652499774254,1452
1895.1299650761011,1425
1897.0941948312952,1481
1899.0579395071945,1418
1901.0211993680641,1439
1902.98397467825,1474
1904.9462657021745,1410
1906.9080727043415,1481
1908.869395949332,1443
1910.8302357018065,1415
1912.790592226504,1420
1914.7504657882428,1445
1916.7098566519212,1375
1918.6687650825133,1447
1920.6271913450764,1390
1922.5851357047422,1404
1924.5425984267245,1409
1926.499579776314,1378
1928.4560800188833,1423
1930.4120994198802,1411
1932.367638244833,1428
1934.32269675935,1422
1936.2772752291175,1335
1938.231373919899,1378
1940.1849930975404,1378
1942.1381330279637,1414
1944.0907939771696,1391
1946.0429762112412,1346
1947.9946799963363,1411
1949.9459055986945,1381
1951.896653284633,1402
1953.8469233205478,1356
1955.7967159729142,1353
1957.7460315082863,1397
1959.6948701932974,1364
1961.6432322946594,1313
1963.5911180791632,1393
1965.5385278136787,1370
1967.4854617651545,1371
1969.4319202006182,1295
1971.377903387176,1417
1973.3234115920136,1391
1975.268445082395,1417
1977.2130041256642,1369
1979.1570889892423,1359
1981.1006999406304,1382
1983.04383724741,1340
1984.986501177238,1343
1986.928691997853,1319
1988.8704099770712,1353
1990.811655382789,1338
1992.7524284829801,1364
1994.692729545698,1385
1996.6325588390755,1350
1998.5719166313224,1365
2000.5108031907307,1320
2002.4492187856677,1338
2004.387163684583,1350
2006.3246381560011,1292
2008.2616424685298,1338
2010.1981768908527,1314
2012.1342416917332,1338
2014.069837140014,1361
2016.0049635046162,1339
2017.9396210545406,1340
2019.8738100588666,1385
2021.8075307867502,1298
2023.740783507431,1351
2025.6735684902228,1313
2027.6058860045214,1317
2029.5377363198004,1337
2031.4691197056118,1355
2033.4000364315875,1302
2035.3304867674374,1341
2037.260470982952,1320
2039.189989347998,1284
2041.1190421325232,1331
2043.047629606554,1270
2044.9757520401945,1349
2046.9034097036288,1298
2048.8306028671195,1308
2050.7573318010086,1282
2052.683596775716,1213
2054.609398061742,1319
2056.5347359296647,1249
2058.4596106501403,1323
2060.384022493906,1313
2062.3079717317764,1292
2064.231458634646,1278
2066.1544834734873,1351
2068.077046519352,1308
2069.99914804337,1276
2071.9207883167524,1352
2073.8419676107865,1365
2075.7626861968406,1279
2077.6829443463607,1289
2079.6027423308715,1300
2081.522080421977,1321
2083.440958891362,1297
2085.359378010786,1360
2087.2773380520907,1289
2089.194839287196,1340
2091.111881988101,1373
2093.0284664268825,1348
2094.9445928756973,1309
2096.86026160678,1297
2098.775472892446,1304
2100.690227005088,1322
2102.604524217178,1260
2104.5183648012676,1299
2106.431749029985,1310
2108.34467717604,1323
2110.2571495122206,1337
2112.169166311393,1296
2114.080727846503,1332
2115.9918343905747,1388
2117.902486216711,1340
2119.8126835980956,1335
2121.722426807987,1250
2123.6317161197285,1308
2125.5405518067364,1303
2127.448934142509,1347
2129.356863400624,1350
2131.264339854737,1306
2133.1713637785815,1362
2135.077935445972,1346
2136.9840551308002,1359
2138.889723107037,1325
2140.7949396487334,1392
2142.699705030018,1310
2144.6040195250994,1346
2146.507883408264,1393
2148.4112969538774,1346
2150.3142604363848,1298
2152.2167741303097,1364
2154.1188383102535,1293
2156.0204532508997,1358
2157.9216192270064,1285
2159.822336513414,1326
2161.7226053850413,1377
2163.622426116884,1347
2165.5217989840185,1371
2167.4207242616,1327
2169.319202224862,1304
2171.2172331491165,1332
2173.1148173097563,1319
2175.0119549822507,1390
2176.90864644215,1409
2178.8048919650823,1347
2180.7006918267534,1323
2182.596046302952,1335
2184.4909556695407,1447
2186.3854202024645,1348
2188.279440177746,1374
2190.173015871487,1361
2192.066147559868,1359
2193.958835519149,1401
2195.851080025667,1422
2197.7428813558417,1363
2199.6342397861667,1377
2201.5251555932186,1323
2203.415629053651,1303
2205.3056604441986,1319
2207.19525004167,1340
2209.084398122958,1361
2210.9731049650327,1410
2212.861370844941,1378
2214.749196039812,1385
2216.636580826851,1460
2218.523525483344,1388
2220.410030286655,1314
2222.296095514226,1402
2224.1817214435805,1371
2226.066908352319,1406
2227.951656518121,1359
2229.835966218746,1357
2231.71983773203,1367
2233.6032713358913,1443
2235.486267308324,1401
2237.3688259274036,1309
2239.2509474712824,1419
2241.132632218193,1333
2243.013880446447,1370
2244.8946924344323,1403
2246.7750684606203,1372
2248.6550088035574,1394
2250.534513741871,1430
2252.413583554265,1430
2254.292218519526,1406
2256.170418916517,1323
2258.0481850241786,1374
2259.925517121534,1366
2261.8024154876825,1367
2263.678880401803,1381
2265.5549121431536,1413
2267.430510991071,1374
2269.305677224971,1388
2271.180411124348,1402
2273.0547129687766,1406
2274.9285830379076,1358
2276.8020216114737,1379
2278.6750289692845,1325
2280.5476053912294,1351
2282.4197511572766,1395
2284.2914665474727,1394
2286.162751841943,1405
2288.0336073208937,1370
2289.904033264608,1436
2291.774029953448,1451
2293.6435976678554,1433
2295.5127366883517,1363
2297.381447295534,1378
2299.2497297700825,1384
2301.1175843927526,1319
2302.9850114443825,1295
2304.852011205885,1278
2306.7185839582553,1303
2308.5847299825664,1240
2310.4504495599676,1250
2312.3157429716925,1237
2314.1806104990483,1208
2316.0450524234247,1224
2317.9090690262888,1280
2319.772660589186,1241
2321.635827393742,1255
2323.498569721661,1270
2325.3608878547248,1244
2327.2227820747967,1211
2329.0842526638157,1213
2330.945299903803,1247
2332.805924076857,1194
2334.6661254651535,1283
2336.525904350951,1251
2338.3852610165827,1264
2340.244195744464,1269
2342.102708817088,1242
2343.9608005170253,1197
2345.8184711269287,1247
2347.675720929526,1253
2349.532550207628,1260
2351.38895924412,1269
2353.24494832197,1300
2355.100517724223,1231
2356.955667734004,1231
2358.810398634514,1255
2360.664710709037,1225
2362.5186042409337,1268
2364.3720795136437,1247
2366.225136810686,1280
2368.0777764156583,1308
2369.929998612237,1287
2371.7818036841777,1294
2373.633191915315,1316
2375.484163589562,1269
2377.3347189909114,1334
2379.184858403434,1298
2381.03458211128,1312
2382.8838903986775,1279
2384.732783549936,1293
2386.5812618494406,1302
2388.4293255816588,1339
2390.2769750311327,1330
2392.1242104824883,1307
2393.971032220427,1289
2395.8174405297295,1334
2397.6634356952563,1300
2399.509018001947,1242
2401.3541877348193,1291
2403.1989451789705,1325
2405.043290619576,1271
2406.8872243418905,1291
2408.730746631247,1324
2410.5738577730594,1246
2412.4165580528183,1267
2414.258847756095,1302
2416.100727168537,1322
2417.9421965758734,1265
2419.783256263912,1287
2421.623906518538,1318
2423.4641476257157,1329
2425.303979871491,1327
2427.143403541984,1290
2428.9824189233977,1315
2430.821026302012,1290
2432.6592259641866,1326
2434.497018196361,1285
2436.33440328505,1383
2438.171381516851,1315
2440.00795317844,1327
2441.844118556569,1304
2443.6798779380724,1292
2445.5152316098606,1321
2447.3501798589255,1286
2449.1847229723357,1316
2451.0188612372403,1342
2452.8525949408663,1301
2454.6859243705203,1322
2456.518849813587,1304
2458.3513715575314,1271
2460.183489889895,1278
2462.015205098301,1364
2463.8465174704493,1329
2465.67742729412,1356
2467.5079348571717,1319
2469.338040447542,1289
2471.1677443532476,1415
2472.9970468623833,1349
2474.825948263123,1357
2476.6544488437207,1352
2478.482548892508,1325
2480.310248697896,1389
2482.137548548374,1370
2483.9644487325118,1370
2485.790949538956,1396
2487.617051256433,1384
2489.44275417375,1360
2491.26805857979,1358
2493.0929647635157,1304
2494.917473013971,1362
2496.741583620276,1326
2498.5652968716304,1303
2500.3886130573137,1383
2502.2115324666834,1371
2504.0340553891765,1403
2505.856182114308,1426
2507.6779129316733,1385
2509.499248130945,1372
2511.3201880018764,1408
2513.140732834298,1371
2514.9608829181198,1375
2516.780638543331,1408
2518.6,1398
2520.418967578273,1411
2522.237541568376,1396
2524.0557222606144,1414
2525.8735099453706,1395
2527.6909049131086,1436
2529.507907454368,1453
2531.32451785977,1452
2533.140736420014,1446
2534.9565634258774,1438
2536.771999168218,1450
2538.5870439379714,1442
2540.4016980261526,1453
2542.2159617238544,1458
2544.02983532225,1468
2545.8433191125914,1491
2547.656413386209,1472
2549.4691184345115,1519
2551.2814345489874,1510
2553.093362021204,1540
2554.904901142808,1600
2556.716052205523,1593
2558.526815501153,1543
2560.3371913215824,1612
2562.147179958771,1611
2563.956781704761,1589
2565.7659968516705,1617
2567.5748256916986,1634
2569.3832685171224,1610
2571.1913256202984,1663
2572.9989972936614,1692
2574.806283829725,1680
2576.613185521084,1694
2578.4197026604074,1636
2580.2258355404483,1611
2582.031584454035,1682
2583.836949694077,1708
2585.6419315535613,1745
2587.4465303255533,1683
2589.2507463032002,1749
2591.0545797797245,1690
2592.8580310484303,1673
2594.6611004026995,1761
2596.463788135992,1786
2598.266094541849,1736
2600.0680199138874,1727
2601.869564545807,1704
2603.670728731383,1690
2605.4715127644704,1715
2607.2719169390048,1741
2609.071941548998,1747
2610.8715868885433,1705
2612.670853251811,1741
2614.469740933052,1732
2616.268250226594,1742
2618.0663814268455,1697
2619.864134828292,1716
2621.6615107255006,1675
2623.458509413115,1692
2625.2551311858597,1747
2627.0513763385347,1714
2628.8472451660223,1651
2630.6427379632833,1664
2632.4378550253564,1609
2634.232596647359,1667
2636.026963124488,1617
2637.8209547520187,1597
2639.6145718253065,1595
2641.407814639785,1655
2643.200683490966,1552
2644.9931786744414,1534
2646.7853004858807,1525
2648.577049221034,1550
2650.3684251757277,1554
2652.1594286458712,1511
2653.9500599274484,1481
2655.740319316525,1560
2657.5302071092437,1544
2659.3197236018286,1478
2661.10886909058,1455
2662.8976438718782,1496
2664.686048242183,1427
2666.4740824980327,1463
2668.2617469360443,1431
2670.0490418529134,1424
2671.8359675454153,1415
2673.622524310403,1397
2675.408712444811,1403
2677.1945322456495,1439
2678.979984010009,1427
2680.76506803506,1370
2682.5497846180497,1383
2684.334134056306,1359
2686.1181166472343,1386
2687.9017326883213,1332
2689.6849824771293,1362
2691.4678663113013,1390
2693.2503844885596,1377
2695.032537306705,1334
2696.8143250636167,1328
2698.5957480572542,1294
2700.3768065856534,1253
2702.1575009469316,1353
2703.937831439283,1277
2705.717798360982,1248
2707.4974020103837,1320
2709.276642685917,1279
2711.055520686095,1361
2712.834036309506,1271
2714.612189854819,1289
2716.389981620782,1272
2718.1674119062204,1262
2719.944481010041,1305
2721.721189231226,1300
2723.4975368688415,1289
2725.273524222027,1298
2727.0491515900053,1269
2728.824419272075,1319
2730.5993275676146,1287
2732.3738767760838,1277
2734.148067197016,1232
2735.921899130031,1294
2737.6953728748194,1258
2739.468488731156,1223
2741.2412469988926,1252
2743.0136479779617,1183
2744.785691968372,1249
2746.5573792702116,1269
2748.3287101836504,1195
2750.099685008934,1243
2751.870304046388,1213
2753.640567596418,1210
2755.4104759595057,1187
2757.1800294362156,1224
2758.949228327187,1198
2760.7180729331412,1236
2762.486563554877,1211
2764.254700493272,1247
2766.022484049284,1288
2767.789914523947,1228
2769.5569922183786,1237
2771.3237174337705,1261
2773.090090471394,1240
2774.8561116326036,1218
2776.6217812188274,1244
2778.3870995315756,1277
2780.1520668724356,1290
2781.9166835430747,1239
2783.6809498452394,1193
2785.444866080754,1283
2787.2084325515225,1193
2788.971649559527,1169
2790.73451740683,1250
2792.4970363955713,1270
2794.2592068279705,1208
2796.0210290063264,1219
2797.7825032330147,1198
2799.543629810493,1263
2801.304409041296,1249
2803.0648412280366,1193
2804.8249266734088,1218
2806.5846656801846,1263
2808.344058551212,1238
2810.1031055894246,1226
2811.8618070978273,1258
2813.6201633795085,1222
2815.378174737636,1212
2817.1358414754536,1247
2818.893163896285,1196
2820.6501423035334,1156
2822.4067770006814,1195
2824.1630682912883,1243
2825.9190164789957,1167
2827.6746218675207,1228
2829.429884760661,1201
2831.184805462294,1225
2832.9393842763743,1206
2834.693621506936,1210
2836.4475174580916,1248
2838.201072434034,1229
2839.954286739034,1253
2841.707160677441,1192
2843.459694553685,1208
2845.2118886722724,1232
2846.96374333779,1200
2848.7152588549034,1233
2850.4664355283567,1204
2852.217273662973,1202
2853.9677735636546,1188
2855.7179355353833,1227
2857.4677598832186,1238
2859.217246912299,1232
2860.9663969278427,1224
2862.715210235146,1220
2864.4636871395846,1208
2866.211827946614,1278
2867.9596329617652,1168
2869.7071024906536,1214
2871.4542368389684,1240
2873.20103631248,1216
2874.947501217038,1238
2876.6936318585695,1197
2878.4394285430812,1185
2880.1848915766604,1245
2881.9300212654707,1244
2883.6748179157553,1182
2885.4192818338374,1205
2887.1634133261173,1196
2888.907212699077,1173
2890.6506802592744,1198
2892.393816313348,1160
2894.1366211680142,1243
2895.8790951300693,1185
2897.621238506388,1188
2899.363051603925,1163
2901.1045347297118,1203
2902.8456881908596,1220
2904.58651229456,1193
2906.327007348081,1256
2908.067173658772,1238
2909.8070115340597,1252
2911.5465212814497,1174
2913.285703208527,1215
2915.0245576229563,1191
2916.7630848324807,1253
2918.5012851449196,1173
2920.2391588681758,1285
2921.976706310227,1217
2923.7139277791334,1159
2925.4508235830313,1207
2927.187394030137,1182
2928.923639428745,1219
2930.6595600872306,1211
2932.395156314046,1176
2934.1304284177218,1261
2935.8653767068713,1203
2937.6000014901815,1233
2939.3343030764227,1251
2941.068281774442,1165
2942.8019378931644,1183
2944.5352717415976,1220
2946.2682836288236,1216
2948.0009738640065,1250
2949.7333427563885,1205
2951.465390615289,1226
2953.1971177501086,1247
2954.9285244703265,1222
2956.6596110855,1250
2958.3903779052657,1165
2960.1208252393385,1213
2961.8509533975125,1181
2963.5807626896617,1176
2965.3102534257378,1182
2967.0394259157715,1210
2968.768280469873,1207
2970.496817398232,1192
2972.2250370111146,1164
2973.952939618869,1191
2975.6805255319196,1234
2977.4077950607707,1229
2979.134748516006,1208
2980.861386208289,1225
2982.587708448359,1224
2984.313715547037,1195
2986.039407815222,1166
2987.764785563891,1182
2989.489849104102,1201
2991.2145987469908,1190
2992.9390348037705,1199
2994.6631575857346,1227
2996.3869674042576,1204
2998.1104645707887,1192
2999.83364939686,1186
3001.5565221940783,1179
3003.2790832741334,1166
3005.0013329487924,1168
3006.7232715298996,1162
3008.4448993293804,1193
3010.166216659239,1199
3011.887223831558,1157
3013.607921158498,1235
3015.3283089522993,1182
3017.0483875252826,1210
3018.7681571898443,1163
3020.4876182584626,1117
3022.2067710436927,1162
3023.9256158581707,1191
3025.644153014609,1218
3027.362382825801,1166
3029.0803056046193,1207
3030.797921664012,1179
3032.5152313170106,1196
3034.2322348767225,1152
3035.9489326563353,1188
3037.665324969115,1202
3039.3814121284063,1173
3041.097194447633,1220
3042.812672240299,1192
3044.5278458199855,1225
3046.2427155003525,1156
3047.9572815951406,1162
3049.671544418167,1170
3051.38550428333,1199
3053.0991615046073,1217
3054.812516396051,1212
3056.5255692717974,1185
3058.2383204460575,1191
3059.9507702331257,1199
3061.662918947372,1214
3063.3747669032446,1202
3065.0863144152736,1202
3066.7975617980674,1206
3068.508509366309,1187
3070.219157434767,1186
3071.9295063182844,1127
3073.639556331785,1246
3075.3493077902704,1194
3077.058761008821,1147
3078.7679163025964,1166
3080.476773986837,1204
3082.1853343768594,1206
3083.89359778806,1177
3085.6015645359153,1219
3087.3092349359786,1203
3089.016609303884,1188
3090.7236879553434,1212
3092.4304712061476,1205
3094.136959372166,1190
3095.843152769349,1210
3097.5490517137237,1161
3099.2546565213966,1179
3100.959967508554,1191
3102.66498499146,1168
3104.3697092864577,1231
3106.0741407099695,1219
3107.778279578498,1149
3109.482126208622,1202
3111.1856809170004,1231
3112.8889440203716,1207
3114.5919158355528,1183
3116.294596679439,1170
3117.996986869006,1226
3119.6990867213062,1262
3121.4008965534726,1181
3123.102416682717,1235
3124.803647426329,1262
3126.5045891016784,1181
3128.205242026213,1218
3129.90560651746,1154
3131.605682893025,1196
3133.3054714705922,1238
3135.0049725679282,1205
3136.7041865028714,1222
3138.4031135933465,1220
3140.101754157353,1205
3141.800108512971,1157
3143.498176978357,1160
3145.1959598717494,1231
3146.8934575114636,1187
3148.5906702158954,1151
3150.2875983035183,1166
3151.9842420928853,1130
3153.680601902627,1207
3155.376678051456,1136
3157.07247085816,1194
3158.767980641609,1216
3160.463207720748,1182
3162.158152414606,1177
3163.8528150422862,1197
3165.5471959229726,1195
3167.2412953759303,1206
3168.9351137204976,1203
3170.628651276098,1234
3172.3219083622307,1234
3174.014885298474,1154
3175.707582404485,1135
3177.4000000000005,1185
3179.092138404835,1176
3180.7839979388846,1183
3182.47557892212,1186
3184.166881674594,1192
3185.8579065164386,1211
3187.5486537678626,1182
3189.2391237491547,1190
3190.9293167806827,1163
3192.6192331828934,1133
3194.3088732763117,1210
3195.998237381542,1202
3197.687325819268,1134
3199.376138910251,1198
3201.064676975334,1182
3202.7529403354347,1179
3204.4409293115523,1181
3206.1286442247647,1078
3207.816085396229,1210
3209.5032531471825,1169
3211.190147798936,1141
3212.8767696728846,1126
3214.5631190905015,1144
3216.2491963733373,1121
3217.9350018430214,1107
3219.6205358212637,1117
3221.305798629851,1148
3222.990790590651,1178
3224.6755120256103,1109
3226.359963256751,1134
3228.0441446061795,1195
3229.7280563960758,1149
3231.411698948703,1170
3233.0950725863995,1138
3234.778177631587,1185
3236.461014406761,1128
3238.1435832345005,1177
3239.8258844374595,1197
3241.507918338374,1143
3243.1896852600576,1137
3244.8711855254023,1173
3246.552419457381,1163
3248.233387379042,1136
3249.914089613516,1163
3251.59452648401,1187
3253.274698313813,1177
3254.95460542629,1210
3256.6342481448855,1150
3258.313626793125,1161
3259.9927416946084,1148
3261.6715931730196,1138
3263.3501815521176,1151
3265.0285071557437,1160
3266.706570307815,1148
3268.3843713323286,1123
3270.0619105533615,1114
3271.739188295068,1160
3273.4162048816834,1107
3275.0929606375184,1122
3276.769455886966,1170
3278.445690954498,1213
3280.1216661646613,1165
3281.797381842087,1134
3283.4728383114807,1203
3285.1480358976296,1186
3286.8229749253996,1158
3288.4976557197333,1104
3290.172078605655,1194
3291.846243908266,1159
3293.5201519527463,1179
3295.193803064357,1163
3296.8671975684374,1153
3298.5403357904024,1090
3300.21321805575,1178
3301.8858446900567,1184
3303.558216018975,1176
3305.23033236824,1176
3306.9021940636603,1122
3308.57380143113,1177
3310.2451547966184,1174
3311.916254486174,1203
3313.5871008259246,1153
3315.2576941420766,1132
3316.9280347609147,1165
3318.5981230088046,1208
3320.2679592121895,1136
3321.9375436975924,1202
3323.606876791612,1109
3325.27595882093,1125
3326.944790112305,1133
3328.6133709925753,1144
3330.2817017886573,1165
3331.949782827547,1156
3333.617614436319,1151
3335.2851969421245,1211
3336.952530672199,1214
3338.619615953853,1200
3340.286453114475,1123
3341.9530424815357,1116
3343.619384382583,1132
3345.2854791452437,1145
3346.951327097224,1184
3348.6169285663073,1136
3350.2822838803577,1157
3351.947393367319,1129
3353.61225735521,1149
3355.2768761721345,1156
3356.9412501462693,1175
3358.605379605873,1153
3360.2692648792827,1125
3361.9329062949146,1196
3363.596304181263,1148
