CollectionTime,9/25/2024 12:00:32 PM
ExposureUsed,3
CalibratedSpectrum
-962.7078968117929,572
-959.9714848408522,618
-957.2358232597828,587
-954.5009119013725,654
-951.7667505983302,626
-949.0333391832855,616
-946.3006774887896,651
-943.5687653473143,659
-940.837602591253,641
-938.1071890529199,646
-935.3775245645503,623
-932.6486089583007,642
-929.9204420662485,641
-927.1930237203925,613
-924.4663537526524,634
-921.7404319948689,640
-919.0152582788041,630
-916.2908324361409,642
-913.5671542984834,658
-910.8442236973568,631
-908.1220404642074,614
-905.4006044304027,660
-902.679915427231,638
-899.959973285902,631
-897.2407778375464,604
-894.5223289132158,604
-891.8046263438832,629
-889.0876699604426,617
-886.3714595937089,611
-883.6559950744183,609
-880.9412762332282,622
-878.2273029007168,619
-875.5140749073835,580
-872.8015920836489,588
-870.0898542598545,600
-867.3788612662631,579
-864.6686129330585,603
-861.9591090903457,641
-859.2503495681506,613
-856.5423341964203,583
-853.8350628050229,576
-851.1285352237478,610
-848.4227512823054,581
-845.7177108103272,583
-843.0134136373656,606
-840.3098595928943,583
-837.6070485063082,623
-834.9049802069229,638
-832.2036545239757,596
-829.5030712866244,594
-826.8032303239481,598
-824.1041314649472,621
-821.4057745385428,597
-818.7081593735775,604
-816.0112857988148,622
-813.3151536429393,596
-810.6197627345566,619
-807.9251129021936,605
-805.2312039742981,595
-802.5380357792392,607
-799.8456081453069,653
-797.1539209007124,632
-794.462973873588,629
-791.772766891987,593
-789.083299783884,647
-786.3945723771743,652
-783.7065844996748,642
-781.0193359791231,622
-778.3328266431781,631
-775.6470563194197,627
-772.9620248353489,615
-770.2777320183878,613
-767.5941776958798,615
-764.9113616950891,617
-762.2292838432011,608
-759.5479439673222,630
-756.8673418944801,602
-754.1874774516235,662
-751.5083504656222,698
-748.8299607632671,634
-746.15230817127,608
-743.475392516264,643
-740.7992136248035,593
-738.1237713233636,634
-735.4490654383407,685
-732.7750957960521,670
-730.1018622227365,640
-727.4293645445534,667
-724.7576025875837,622
-722.0865761778291,668
-719.4162851412126,661
-716.7467293035781,679
-714.0779084906909,632
-711.409822528237,653
-708.7424712418238,665
-706.0758544569796,669
-703.4099719991541,662
-700.7448236937178,729
-698.0804093659622,675
-695.4167288411002,669
-692.7537819442656,665
-690.0915685005134,633
-687.4300883348199,699
-684.7693412720819,677
-682.1093271371178,665
-679.4500457546669,674
-676.7914969493897,688
-674.1336805458676,703
-671.4765963686034,716
-668.8202442420206,722
-666.1646239904642,703
-663.5097354382001,689
-660.8555784094151,674
-658.2021527282176,706
-655.5494582186366,718
-652.8974947046223,712
-650.2462620100463,758
-647.5957599587009,711
-644.9459883742998,721
-642.2969470804776,758
-639.6486359007902,745
-637.0010546587141,763
-634.3542031776476,734
-631.7080812809096,705
-629.0626887917401,700
-626.4180255333008,719
-623.7740913286734,732
-621.1308860008619,745
-618.4884093727904,747
-615.8466612673046,744
-613.2056415071715,697
-610.5653499150785,750
-607.9257863136347,707
-605.28695052537,748
-602.6488423727357,731
-600.0114616781036,712
-597.3748082637674,759
-594.7388819519412,754
-592.1036825647604,764
-589.4692099242818,745
-586.8354638524829,771
-584.2024441712624,812
-581.5701507024403,778
-578.9385832677575,799
-576.3077416888759,789
-573.6776257873787,774
-571.0482353847704,740
-568.4195703024757,741
-565.7916303618415,717
-563.164415384135,745
-560.5379251905453,766
-557.9121596021815,770
-555.2871184400748,741
-552.6628015251767,751
-550.0392086783606,751
-547.4163397204204,794
-544.794194472071,794
-542.1727727539491,817
-539.5520743866118,811
-536.9320991905377,791
-534.3128469861261,811
-531.6943175936979,875
-529.0765108334947,863
-526.4594265256793,902
-523.8430644903358,1071
-521.2274245474689,1197
-518.612506517005,1226
-515.9983102187913,1207
-513.3848354725959,1223
-510.77208209810846,1324
-508.16004991493924,1424
-505.5487387426199,1639
-502.9381484006032,1641
-500.3282787082628,1611
-497.71912948489364,1601
-495.1107005497117,1480
-492.5029917218539,1310
-489.8960028203786,1274
-487.28973366426493,1101
-484.68418407241325,991
-482.07935386364494,971
-479.47524285670266,972
-476.87185087025,979
-474.2691777228715,928
-471.66722323307334,939
-469.0659872192821,981
-466.4654694998459,915
-463.86566989303384,994
-461.26658821703614,984
-458.66822428996414,920
-456.07057792985,913
-453.4736489546475,961
-450.877437182231,939
-448.28194243039627,900
-445.68716451686,899
-443.09310325926003,915
-440.49975847515555,947
-437.9071299820263,891
-435.31521759727354,963
-432.72402113821954,952
-430.13354042210767,961
-427.5437752661022,965
-424.95472548728867,913
-422.36639090267386,955
-419.7787713291855,983
-417.1918665836721,969
-414.60567648290385,1018
-412.0202008435715,1017
-409.4354394822874,953
-406.8513922155845,1024
-404.26805885991723,999
-401.685439231661,1000
-399.103533147112,988
-396.522340422488,979
-393.9418608739278,941
-391.3620943174908,950
-388.7830405691583,996
-386.2046994448317,904
-383.6270707603344,949
-381.05015433141045,818
-378.473949973725,794
-375.8984575028645,761
-373.32367673433623,688
-370.74960748356875,646
-368.1762495659117,646
-365.60360279663576,617
-363.03166699093265,572
-360.4604419639154,525
-357.8899275306178,499
-355.32012350599507,522
-352.7510297049233,508
-350.1826459421999,512
-347.61497203254316,468
-345.04800779059235,479
-342.4817530309082,462
-339.91620756797226,464
-337.35137121618743,504
-334.7872437898774,497
-332.22382510328725,472
-329.66111497058273,558
-327.09911320585127,597
-324.53781962310075,524
-321.9772340362607,470
-319.4173562591816,457
-316.8581861056348,494
-314.2997233893127,496
-311.7419679238294,488
-309.1849195227194,528
-306.62857799943856,524
-304.0729431673641,497
-301.51801483979375,498
-298.963792829947,498
-296.41027695096386,531
-293.85746701590574,565
-291.3053628377552,603
-288.7539642294155,574
-286.2032710037115,586
-283.65328297338897,609
-281.1039999511146,624
-278.5554217494762,637
-276.007548180983,607
-273.4603790580651,685
-270.9139141930734,695
-268.3681533982807,722
-265.8230964858798,711
-263.27874326798565,650
-260.7350935566336,580
-258.1921471637804,662
-255.6499039013039,730
-253.10836358100266,754
-250.56752601459698,681
-248.02739101372765,676
-245.48795838995704,727
-242.94922795476816,763
-240.41119951956557,716
-237.8738728956746,812
-235.33724789434166,834
-232.80132432673452,733
-230.2661020039418,664
-227.73158073697357,684
-225.19776033676033,731
-222.66464061415422,848
-220.1322213799284,779
-217.60050244477725,764
-215.06948361931552,794
-212.53916471408013,856
-210.00954553952818,878
-207.48062590603843,778
-204.9524056239104,708
-202.4248845033651,794
-199.8980623545441,851
-197.37193898751036,880
-194.84651421224817,830
-192.32178783866232,803
-189.79775967657952,858
-187.27442953574644,1041
-184.7517972258321,1013
-182.2298625564256,885
-179.7086253370378,752
-177.18808537710026,883
-174.66824248596583,1067
-172.14909647290835,1119
-169.6306471471229,1109
-167.11289431772548,919
-164.59583779375328,934
-162.07947738416453,1011
-159.5638128978386,1233
-157.04884414357605,1271
-154.53457093009854,1324
-152.02099306604828,1158
-149.50811035998936,1070
-146.99592262040665,1097
-144.48442965570587,1236
-141.97363127421409,1427
-139.46352728417958,1367
-136.95411749377126,1433
-134.44540171107985,1393
-131.93737974411636,1388
-129.43005140081357,1343
-126.92341648902493,1653
-124.41747481652521,2102
-121.91222619101006,2414
-119.40767042009657,2951
-116.90380731132257,3221
-114.40063667214702,3163
-111.8981583099503,2731
-109.3963720320337,2515
-106.89527764561933,3022
-104.39487495785067,3866
-101.89516377579241,4981
-99.39614390642998,6493
-96.89781515667039,7719
-94.40017733334128,8624
-91.90323024319173,7305
-89.40697369289148,4948
-86.91140748903172,3943
-84.41653143812482,3520
-81.92234534660395,3959
-79.42884902082358,5534
-76.93604226705907,5862
-74.4439248915071,5891
-71.95249670028534,5788
-69.46175749943245,5712
-66.97170709490854,6706
-64.48234529259423,9140
-61.99367189829195,12302
-59.50568671772464,15992
-57.01838955653636,19026
-54.53178022029283,23213
-52.045858514480074,24058
-49.560624244506016,22036
-47.07607721569923,21460
-44.59221723330904,19351
-42.10904410250669,16665
-39.62655762838392,17633
-37.14475761595372,21125
-34.66364387015028,23701
-32.18321619582866,28543
-29.70347439776515,29628
-27.224418280657005,27833
-24.74604764912317,30492
-22.26836230770266,45616
-19.7913620608565,65039
-17.315046712966478,65039
-14.83941606833514,65039
-12.36446993118659,65039
-9.89020810566592,65039
-7.416630395839093,65039
-4.94373660569363,65039
-2.471526539137585,65039
-6.821210263296962E-13,65039
2.47084320796705,65039
4.941003281093458,65039
7.410480415786196,65039
9.879274808531363,65039
12.347386655893956,65039
14.814816154518212,65039
17.28156350112681,65039
19.74762889252179,65039
22.21301252558385,65039
24.67771459727237,20553
27.141735304626195,4710
29.605074844762612,3565
32.06773341487792,3251
34.52971121224755,3183
36.99100843422559,2956
39.45162527824516,3745
41.91156194181792,3717
44.370818622535126,2880
46.82939551806646,2493
49.287292826160524,2644
51.74451074464503,2708
54.201049471426245,2364
56.65690920448981,2791
59.112090141899785,2844
61.56659248179983,3116
64.02041642241159,2496
66.4735621620365,1750
68.92602989905402,1881
71.37781983192338,2215
73.82893215918205,2051
76.27936707944684,2024
78.72912479141326,1571
81.17820549385567,1691
83.62660938562783,1552
86.07433666566146,1192
88.5213875329681,1431
90.96776218663751,1881
93.41346082583925,1883
95.85848364982041,1694
98.30283085790859,1416
100.7465026495089,1280
103.18949922410604,1322
105.63182078126385,1461
108.07346752062438,1785
110.51443964190923,1775
112.95473734491827,1478
115.39436082953114,1147
117.83331029570547,1290
120.27158594347827,1496
122.7091879729652,1575
125.1461165843615,1630
127.58237197794062,1504
130.01795435405518,1270
132.4528639131364,1055
134.88710085569494,1062
137.32066538231982,1360
139.75355769367923,1242
142.1857779905207,1029
144.61732647366978,1167
147.04820334403132,1182
149.47840880258934,1124
151.90794305040674,1103
154.33680628862487,1146
156.76499871846443,1343
159.19252054122433,1466
161.61937195828352,1687
164.04555317109896,1690
166.47106438120693,1858
168.89590579022217,2225
171.320077599839,2212
173.7435800118302,2243
176.16641322804742,2302
178.58857745042144,2400
181.01007288096173,2433
183.43089972175687,2539
185.85105817497413,2696
188.27054844285988,2455
190.6893707277394,2623
193.10752523201643,2635
195.5250121581745,2617
197.9418317087751,2647
200.3579840864594,2615
202.7734694939469,2689
205.18828813403627,2762
207.6024402096051,2853
210.01592592360964,2711
212.42874547908548,2777
214.84089907914665,2784
217.2523869269868,2713
219.66320922587727,2757
222.0733661791695,2798
224.48285799029293,2786
226.8916848627572,2751
229.29984700014882,2796
231.7073446061355,2894
234.11417788446204,2905
236.520347038953,2954
238.92585227351185,3024
241.33069379212054,3058
243.73487179884035,3088
246.1383864978112,3049
248.541238093252,3075
250.9434267894609,3259
253.34495279081432,3360
255.74581630176783,3227
258.1460175268563,3328
260.54555667069314,3334
262.9444339379703,3338
265.3426495334594,3160
267.7402036620107,3098
270.1370965285529,2976
272.53332833809407,2889
274.9288992957214,2925
277.32380960660055,2743
279.718059475976,2643
282.1116491091717,2655
284.5045787115897,2591
286.89684848871195,2613
289.2884586460981,2586
291.67940938938807,2602
294.0697009242996,2608
296.4593334566299,2588
298.84830719225477,2567
301.23662233712923,2568
303.6242790972866,2503
306.01127767884,2484
308.39761828798066,2465
310.78330113097934,2409
313.16832641418534,2442
315.5526943440269,2335
317.9364051270112,2345
320.3194589697242,2323
322.70185607883093,2221
325.0835966610754,2224
327.4646809232805,2264
329.8451090723478,2218
332.2248813152577,2173
334.6039978590701,2180
336.9824589109231,2218
339.36026467803447,2234
341.7374153677,2130
344.113911187295,2132
346.48975234427337,2080
348.8649390461686,2112
351.2394715005918,2115
353.61334991523415,2063
355.9865744978655,2094
358.35914545633375,2105
360.73106299856715,2108
363.10232733257146,1974
365.47293866643247,2083
367.84289720831396,2091
370.2122031664593,2007
372.5808567491905,2014
374.9488581649083,1987
377.31620762209275,1984
379.6829053293021,1981
382.0489514951745,1981
384.4143463284262,1980
386.7790900378528,2015
389.14318283232853,1953
391.50662492080653,1961
393.86941651231916,1964
396.23155781597745,2005
398.5930490409713,1988
400.9538903965696,1947
403.3140820921202,1914
405.6736243370498,2015
408.03251734086336,1887
410.3907613131465,1939
412.74835646356166,1882
415.10530300185144,1815
417.4616011378372,1873
419.81725108141893,1968
422.1722530425758,1889
424.5266072313656,1963
426.880313857925,1960
429.2333731324701,1874
431.58578526529516,1845
433.9375504667738,1881
436.2886689473588,1824
438.63914091758113,1970
440.9889665880513,1886
443.33814616945835,1859
445.68667987257015,1876
448.03456790823395,1827
450.3818104873759,1824
452.72840782100013,1812
455.07436012019105,1858
457.41966759611057,1878
459.7643304600007,1842
462.10834892318155,1787
464.4517231970525,1821
466.79445349309174,1832
469.1365400228566,1872
471.4779829979826,1880
473.81878263018564,1858
476.15893913125876,1871
478.4984527130747,1933
480.8373235875855,1951
483.17555196682144,1945
485.5131380628919,2046
487.8500820879857,2148
490.1863842543697,2205
492.52204477439034,2285
494.8570638604725,2489
497.1914417251204,2815
499.52517858091653,2980
501.85827464052306,3201
504.19073011668036,3504
506.5225452222086,3508
508.85372017000566,3498
511.18425517304956,3457
513.514150444396,3597
515.8434061971808,4429
518.1720226446176,5408
520.4999999999999,5461
522.8273384766991,5133
525.1540382881666,4918
527.480099647932,4318
529.8055227696037,3480
532.1303078668694,2679
534.454455153496,2266
536.777964843328,2045
539.1008371502907,1994
541.4230722883866,1883
543.744670471698,1864
546.0656319143858,1835
548.3859568306899,1862
550.7056454349294,1790
553.0246979415016,1831
555.3431145648834,1917
557.6608955196306,1833
559.978041020377,1836
562.2945512818363,1878
564.6104265188006,1856
566.9256669461412,1856
569.2402727788082,1874
571.5542442318302,1827
573.8675815203156,1838
576.1802848594508,1911
578.4923544645015,1918
580.8037905508126,1963
583.114593333807,1825
585.4247630289875,1859
587.7342998519354,1876
590.0432040183106,1864
592.3514757438526,1908
594.6591152443794,1859
596.9661227357875,1917
599.2724984340531,1926
601.578242555231,1877
603.8833553154542,1858
606.1878369309362,1879
608.4916876179676,1842
610.7949075929192,1860
613.0974970722403,1853
615.3994562724587,1887
617.7007854101818,1874
620.0014847020951,1877
622.3015543649641,1875
624.6009946156324,1811
626.8998056710224,1922
629.1979877481361,1825
631.4955410640538,1864
633.7924658359349,1875
636.0887622810175,1882
638.3844306166192,1811
640.6794710601358,1822
642.9738838290426,1894
645.2676691408932,1913
647.5608272133207,1982
649.853358264037,1924
652.1452625108324,1941
654.4365401715764,1933
656.7271914642178,1937
659.0172166067838,1972
661.3066158173809,1922
663.5953893141935,1974
665.8835373154867,1997
668.1710600396028,1938
670.4579577049639,2007
672.7442305300709,2046
675.0298787335033,1993
677.3149025339197,1860
679.599302150058,1943
681.8830778007342,1951
684.1662297048437,1935
686.4487580813608,1907
688.7306631493387,1940
691.0119451279091,1927
693.2926042362834,2047
695.5726406937516,1872
697.8520547196814,1950
700.1308465335215,1901
702.4090163547982,1911
704.6865644031171,1879
706.9634908981619,1890
709.2397960596965,1907
711.5154801075631,1953
713.7905432616823,1950
716.0649857420548,1866
718.3388077687592,1758
720.612009561953,1891
722.8845913418733,1910
725.1565533288352,1890
727.427895743234,1901
729.6986188055427,1895
731.9687227363137,1798
734.238207756178,1897
736.5070740858458,1889
738.7753219461066,1867
741.0429515578281,1889
743.3099631419569,1831
745.5763569195191,1936
747.8421331116193,1921
750.1072919394409,1931
752.3718336242467,1884
754.6357583873777,1866
756.8990664502545,1905
759.1617580343765,1874
761.423833361321,1897
763.6852926527457,1878
765.9461361303862,1990
768.206364016058,1982
770.4659765316536,1954
772.7249738991469,1887
774.9833563405886,1911
777.2411240781092,1921
779.4982773339183,1916
781.7548163303044,1843
784.010741289634,1981
786.2660524343538,2003
788.5207499869881,1957
790.7748341701416,1889
793.0283052064964,1957
795.2811633188143,1934
797.5334087299362,1943
799.7850416627813,1973
802.0360623403484,1979
804.2864709857143,1916
806.5362678220353,1925
808.7854530725468,1968
811.0340269605625,1953
813.2819897094754,1882
815.5293415427581,1964
817.77608268396,1892
820.0222133567116,1958
822.2677337847211,1899
824.5126441917765,1986
826.7569448017433,1941
829.0006358385675,1923
831.2437175262731,1974
833.4861900889629,1937
835.7280537508192,1860
837.9693087361026,1937
840.2099552691533,1942
842.4499935743896,1909
844.689423876309,1908
846.9282463994886,1930
849.1664613685833,1896
851.4040690083276,1932
853.6410695435349,1984
855.877463199097,1957
858.1132501999847,1896
860.3484307712487,1984
862.5830051380175,1955
864.8169735254988,1945
867.0503361589791,1959
869.2830932638243,1995
871.5152450654786,1965
873.7467917894654,1974
875.9777336613873,1951
878.2080709069252,1926
880.4378037518389,1940
882.666932421968,1958
884.8954571432301,1959
887.1233781416219,2017
889.3506956432192,2058
891.5774098741766,2006
893.803521060728,2055
896.0290294291852,2024
898.2539352059397,2031
900.4782386174619,2027
902.7019398903011,2006
904.925039251085,2043
907.147536926521,2034
909.3694331433943,2025
911.59072812857,2001
913.8114221089921,2021
916.0315153116827,1957
918.2510079637437,2040
920.4699002923547,1963
922.6881925247761,1959
924.905884888345,1906
927.1229776104793,2007
929.3394709186747,2000
931.555365040506,1982
933.7706602036275,2068
935.9853566357709,2050
938.1994545647489,2047
940.4129542184515,2021
942.6258558248488,2048
944.8381596119883,2057
947.0498658079974,2052
949.2609746410825,2058
951.4714863395287,1973
953.6814011316998,1931
955.8907192460387,1967
958.0994409110671,2023
960.3075663553858,1955
962.5150958076741,1949
964.7220294966913,1990
966.928367651274,1936
969.1341105003388,1843
971.3392582728806,1920
973.5438111979742,1930
975.747769504772,1924
977.9511334225061,1943
980.153903180487,1951
982.3560790081052,1935
984.5576611348289,1944
986.7586497902058,1899
988.9590452038618,1799
991.158847605503,1816
993.3580572249133,1798
995.5566742919558,1753
997.7546990365728,1736
999.952131688785,1788
1002.1489724786926,1708
1004.3452216364743,1717
1006.5408793923874,1727
1008.7359459767691,1722
1010.9304216200343,1748
1013.1243065526781,1701
1015.3176010052733,1621
1017.510305208472,1632
1019.7024193930064,1666
1021.8939437896848,1686
1024.0848786293977,1616
1026.2752241431122,1631
1028.4649805618747,1663
1030.6541481168115,1648
1032.842727039127,1639
1035.0307175601051,1693
1037.2181199111074,1675
1039.4049343235752,1633
1041.591161029029,1567
1043.7768002590683,1623
1045.9618522453698,1595
1048.1463172196918,1596
1050.3301954138697,1638
1052.513487059818,1589
1054.69619238953,1590
1056.8783116350783,1629
1059.0598450286152,1610
1061.2407928023704,1571
1063.4211551886528,1670
1065.6009324198508,1610
1067.780124728432,1588
1069.9587323469414,1626
1072.1367555080046,1561
1074.314194444325,1607
1076.4910493886855,1587
1078.667320573947,1560
1080.843008233051,1560
1083.0181125990161,1557
1085.1926339049414,1495
1087.3665723840027,1507
1089.5399282694575,1558
1091.7127017946405,1556
1093.8848931929647,1546
1096.0565026979243,1552
1098.2275305430899,1561
1100.3979769621128,1463
1102.567842188722,1510
1104.737126456726,1535
1106.9058300000124,1517
1109.0739530525475,1461
1111.2414958483764,1488
1113.4084586216231,1553
1115.5748416064907,1530
1117.7406450372605,1417
1119.9058691482942,1483
1122.0705141740304,1530
1124.2345803489884,1480
1126.3980679077658,1524
1128.5609770850388,1454
1130.7233081155623,1466
1132.8850612341707,1527
1135.0462366757774,1467
1137.2068346753745,1545
1139.3668554680326,1517
1141.526299288901,1483
1143.68516637321,1440
1145.8434569562655,1486
1148.001171273455,1472
1150.158309560244,1476
1152.3148720521767,1446
1154.470858984876,1586
1156.626270594044,1489
1158.7811071154629,1487
1160.9353687849912,1470
1163.089055838569,1466
1165.242168512213,1480
1167.3947070420209,1516
1169.5466716641677,1477
1171.6980626149075,1465
1173.8488801305748,1456
1175.9991244475814,1480
1178.1487958024186,1454
1180.2978944316555,1452
1182.4464205719428,1450
1184.5943744600072,1515
1186.7417563326567,1501
1188.8885664267755,1454
1191.0348049793297,1448
1193.1804722273619,1492
1195.325568407995,1492
1197.4700937584303,1585
1199.614048515948,1432
1201.7574329179074,1471
1203.900247201746,1505
1206.042491604982,1485
1208.1841663652099,1499
1210.3252717201053,1485
1212.465807907422,1585
1214.6057751649923,1497
1216.7451737307279,1554
1218.8840038426192,1466
1221.0222657387353,1512
1223.1599596572241,1550
1225.2970858363137,1494
1227.4336445143094,1550
1229.5696359295966,1497
1231.705060320639,1563
1233.8399179259786,1546
1235.9742089842384,1546
1238.107933734118,1608
1240.2410924143974,1548
1242.373685263935,1597
1244.5057125216676,1560
1246.6371744266116,1551
1248.7680712178621,1559
1250.898403134593,1656
1253.028170416058,1602
1255.1573733015875,1594
1257.2860120305932,1545
1259.4140868425648,1621
1261.54159797707,1648
1263.6685456737569,1610
1265.7949301723515,1552
1267.9207517126597,1587
1270.046010534565,1599
1272.1707068780306,1584
1274.2948409830983,1577
1276.4184130898889,1634
1278.541423438603,1626
1280.6638722695184,1645
1282.785759822993,1663
1284.9070863394636,1650
1287.0278520594447,1734
1289.1480572235314,1649
1291.2677020723963,1697
1293.3867868467923,1654
1295.5053117875495,1629
1297.623277135579,1681
1299.740683131868,1669
1301.8575300174857,1705
1303.973818033578,1723
1306.0895474213703,1764
1308.2047184221678,1745
1310.3193312773528,1808
1312.4333862283888,1770
1314.5468835168163,1732
1316.659823384255,1732
1318.7722060724045,1768
1320.8840318230418,1849
1322.9953008780249,1823
1325.1060134792888,1774
1327.2161698688478,1794
1329.3257702887959,1802
1331.4348149813054,1834
1333.5433041886276,1751
1335.6512381530933,1802
1337.7586171171101,1790
1339.8654413231675,1834
1341.9717110138317,1819
1344.0774264317488,1847
1346.1825878196432,1780
1348.2871954203192,1826
1350.3912494766587,1749
1352.4947502316231,1735
1354.5976979282532,1739
1356.7000928096686,1720
1358.8019351190665,1792
1360.9032250997243,1759
1363.0039629949988,1720
1365.1041490483235,1669
1367.2037835032133,1733
1369.3028666032606,1737
1371.401398592137,1756
1373.4993797135926,1812
1375.5968102114575,1671
1377.6936903296396,1775
1379.7900203121262,1756
1381.8858004029835,1742
1383.9810308463561,1811
1386.075711886469,1731
1388.1698437676241,1737
1390.2634267342032,1781
1392.356461030667,1817
1394.4489469015557,1761
1396.5408845914872,1798
1398.6322743451592,1804
1400.7231164073469,1825
1402.813411022907,1772
1404.903158436773,1859
1406.9923588939578,1814
1409.0810126395531,1832
1411.1691199187303,1834
1413.2566809767386,1900
1415.343696058907,1911
1417.4301654106425,1962
1419.5160892774315,1896
1421.6014679048399,1948
1423.6863015385125,1949
1425.7705904241707,1885
1427.8543348076178,1959
1429.9375349347342,2016
1432.0201910514802,1990
1434.102303403894,1991
1436.1838722380944,2061
1438.2648978002767,2023
1440.3453803367174,2112
1442.4253200937692,2111
1444.5047173178677,2105
1446.5835722555234,2212
1448.6618851533285,2202
1450.739656257952,2271
1452.8168858161434,2210
1454.8935740747306,2226
1456.96972128062,2289
1459.045327680797,2351
1461.120393522327,2454
1463.1949190523528,2515
1465.2689045180973,2474
1467.3423501668608,2591
1469.415256246024,2579
1471.4876230030463,2611
1473.559450685465,2612
1475.6307395408976,2766
1477.7014898170391,2757
1479.771701761665,2790
1481.8413756226287,2908
1483.9105116478618,2922
1485.9791100853772,2900
1488.0471711832643,2932
1490.1146951896926,2980
1492.1816823529098,2962
1494.2481329212433,3026
1496.3140471430984,3120
1498.3794252669609,3047
1500.4442675413939,3092
1502.5085742150404,3174
1504.572345536622,3160
1506.6355817549388,3220
1508.6982831188702,3252
1510.7604498773744,3279
1512.8220822794883,3267
1514.8831805743293,3257
1516.9437450110909,3281
1519.003775839048,3318
1521.0632733075522,3365
1523.1222376660367,3350
1525.1806691640113,3362
1527.2385680510652,3436
1529.2959345768668,3488
1531.3527689911643,3573
1533.4090715437833,3512
1535.4648424846291,3440
1537.5200820636855,3663
1539.5747905310159,3728
1541.6289681367616,3704
1543.6826151311434,3689
1545.7357317644614,3736
1547.7883182870937,3871
1549.8403749494987,3831
1551.8919020022113,3976
1553.9428996958477,4068
1555.9933682811015,4206
1558.0433080087469,4263
1560.0927191296346,4245
1562.1416018946961,4355
1564.1899565549415,4374
1566.2377833614592,4349
1568.2850825654164,4229
1570.3318544180606,4199
1572.3780991707158,4111
1574.423817074788,3822
1576.4690083817595,3812
1578.5136733431923,3673
1580.5578122107272,3456
1582.601425236085,3339
1584.6445126710646,3172
1586.6870747675434,3161
1588.7291117774776,2979
1590.7706239529034,2762
1592.8116115459347,2739
1594.8520748087658,2628
1596.8920139936686,2551
1598.9314293529933,2528
1600.9703211391711,2361
1603.008689604711,2297
1605.0465350022005,2279
1607.0838575843068,2223
1609.1206576037753,2142
1611.1569353134305,2061
1613.1926909661765,2033
1615.2279248149953,1951
1617.2626371129481,1926
1619.2968281131757,1935
1621.3304980688963,1878
1623.3636472334088,1869
1625.39627586009,1806
1627.428384202396,1771
1629.459972513861,1765
1631.4910410480993,1792
1633.5215900588028,1783
1635.551619799744,1678
1637.5811305247717,1738
1639.6101224878166,1783
1641.6385959428862,1684
1643.6665511440683,1659
1645.693988345528,1574
1647.7209078015112,1724
1649.7473097663405,1682
1651.7731944944203,1677
1653.7985622402307,1633
1655.823413258333,1727
1657.847747803366,1630
1659.8715661300494,1644
1661.8948684931793,1709
1663.9176551476316,1621
1665.9399263483624,1599
1667.9616823504057,1574
1669.982923408873,1690
1672.0036497789574,1636
1674.0238617159293,1631
1676.043559475138,1616
1678.0627433120121,1577
1680.081413482059,1606
1682.0995702408654,1565
1684.117213844096,1572
1686.134344547495,1591
1688.1509626068864,1599
1690.1670682781705,1537
1692.182661817329,1594
1694.1977434804217,1593
1696.2123135235875,1597
1698.226372203043,1629
1700.2399197750851,1553
1702.2529564960905,1628
1704.2654826225112,1561
1706.277498410882,1591
1708.2890041178139,1582
1710.2999999999988,1556
1712.3104863142066,1571
1714.3204633172854,1525
1716.329931266163,1530
1718.3388904178469,1553
1720.3473410294214,1485
1722.3552833580516,1531
1724.3627176609807,1550
1726.3696441955308,1524
1728.3760632191033,1548
1730.3819749891782,1482
1732.3873797633146,1554
1734.3922777991502,1485
1736.3966693544012,1529
1738.4005546868639,1521
1740.4039340544127,1530
1742.406807715001,1443
1744.4091759266616,1464
1746.4110389475054,1472
1748.4123970357223,1500
1750.413250449582,1556
1752.4135994474318,1403
1754.4134442876993,1519
1756.4127852288902,1528
1758.4116225295893,1459
1760.4099564484595,1474
1762.407787244244,1374
1764.405115175764,1428
1766.4019405019203,1440
1768.3982634816916,1450
1770.3940843741357,1429
1772.3894034383907,1403
1774.3842209336717,1450
1776.378537119274,1367
1778.372352254571,1427
1780.3656665990156,1429
1782.3584804121397,1415
1784.3507939535534,1402
1786.3426074829463,1431
1788.3339212600863,1415
1790.3247355448211,1407
1792.3150505970766,1395
1794.3048666768573,1385
1796.2941840442477,1437
1798.2830029594106,1401
1800.2713236825884,1426
1802.2591464741004,1397
1804.2464715943465,1359
1806.2332993038058,1330
1808.2196298630352,1345
1810.2054635326708,1364
1812.190800573428,1351
1814.175641246101,1415
1816.1599858115628,1377
1818.1438345307652,1347
1820.127187664738,1382
1822.1100454745924,1346
1824.092408221516,1365
1826.0742761667766,1348
1828.055649571721,1364
1830.0365286977735,1305
1832.0169138064398,1414
1833.9968051593014,1400
1835.9762030180214,1381
1837.9551076443408,1417
1839.9335193000788,1353
1841.9114382471344,1310
1843.888864747485,1362
1845.8657990631878,1351
1847.842241456378,1366
1849.8181921892697,1358
1851.7936515241558,1403
1853.7686197234098,1378
1855.7430970494815,1334
1857.7170837649014,1379
1859.6905801322787,1390
1861.6635864143004,1380
1863.6361028737338,1311
1865.608129773424,1333
1867.5796673762961,1371
1869.5507159453537,1346
1871.521275743678,1352
1873.4913470344313,1371
1875.4609300808534,1334
1877.4300251462632,1368
1879.3986324940588,1400
1881.366752387717,1425
1883.3343850907936,1455
1885.3015308669228,1361
1887.268189979819,1388
1889.2343626932739,1364
1891.2000492711595,1360
1893.1652499774254,1361
1895.1299650761011,1360
1897.0941948312952,1422
1899.0579395071945,1393
1901.0211993680641,1424
1902.98397467825,1429
1904.9462657021745,1408
1906.9080727043415,1415
1908.869395949332,1371
1910.8302357018065,1412
1912.790592226504,1376
1914.7504657882428,1428
1916.7098566519212,1393
1918.6687650825133,1343
1920.6271913450764,1397
1922.5851357047422,1392
1924.5425984267245,1405
1926.499579776314,1350
1928.4560800188833,1379
1930.4120994198802,1373
1932.367638244833,1349
1934.32269675935,1360
1936.2772752291175,1352
1938.231373919899,1377
1940.1849930975404,1357
1942.1381330279637,1368
1944.0907939771696,1392
1946.0429762112412,1358
1947.9946799963363,1374
1949.9459055986945,1372
1951.896653284633,1388
1953.8469233205478,1329
1955.7967159729142,1383
1957.7460315082863,1337
1959.6948701932974,1320
1961.6432322946594,1323
1963.5911180791632,1346
1965.5385278136787,1320
1967.4854617651545,1382
1969.4319202006182,1352
1971.377903387176,1323
1973.3234115920136,1356
1975.268445082395,1340
1977.2130041256642,1329
1979.1570889892423,1320
1981.1006999406304,1376
1983.04383724741,1325
1984.986501177238,1290
1986.928691997853,1324
1988.8704099770712,1319
1990.811655382789,1375
1992.7524284829801,1304
1994.692729545698,1347
1996.6325588390755,1307
1998.5719166313224,1326
2000.5108031907307,1297
2002.4492187856677,1293
2004.387163684583,1255
2006.3246381560011,1323
2008.2616424685298,1282
2010.1981768908527,1335
2012.1342416917332,1253
2014.069837140014,1257
2016.0049635046162,1248
2017.9396210545406,1301
2019.8738100588666,1305
2021.8075307867502,1252
2023.740783507431,1314
2025.6735684902228,1277
2027.6058860045214,1291
2029.5377363198004,1298
2031.4691197056118,1286
2033.4000364315875,1282
2035.3304867674374,1290
2037.260470982952,1283
2039.189989347998,1317
2041.1190421325232,1331
2043.047629606554,1300
2044.9757520401945,1281
2046.9034097036288,1270
2048.8306028671195,1282
2050.7573318010086,1282
2052.683596775716,1325
2054.609398061742,1318
2056.5347359296647,1205
2058.4596106501403,1272
2060.384022493906,1266
2062.3079717317764,1247
2064.231458634646,1310
2066.1544834734873,1312
2068.077046519352,1263
2069.99914804337,1286
2071.9207883167524,1280
2073.8419676107865,1296
2075.7626861968406,1267
2077.6829443463607,1242
2079.6027423308715,1306
2081.522080421977,1276
2083.440958891362,1265
2085.359378010786,1236
2087.2773380520907,1258
2089.194839287196,1251
2091.111881988101,1322
2093.0284664268825,1256
2094.9445928756973,1264
2096.86026160678,1262
2098.775472892446,1370
2100.690227005088,1321
2102.604524217178,1328
2104.5183648012676,1290
2106.431749029985,1287
2108.34467717604,1333
2110.2571495122206,1306
2112.169166311393,1280
2114.080727846503,1283
2115.9918343905747,1282
2117.902486216711,1237
2119.8126835980956,1352
2121.722426807987,1246
2123.6317161197285,1282
2125.5405518067364,1381
2127.448934142509,1311
2129.356863400624,1269
2131.264339854737,1354
2133.1713637785815,1317
2135.077935445972,1290
2136.9840551308002,1276
2138.889723107037,1311
2140.7949396487334,1367
2142.699705030018,1304
2144.6040195250994,1314
2146.507883408264,1314
2148.4112969538774,1335
2150.3142604363848,1321
2152.2167741303097,1329
2154.1188383102535,1270
2156.0204532508997,1273
2157.9216192270064,1356
2159.822336513414,1359
2161.7226053850413,1307
2163.622426116884,1331
2165.5217989840185,1335
2167.4207242616,1303
2169.319202224862,1335
2171.2172331491165,1335
2173.1148173097563,1336
2175.0119549822507,1338
2176.90864644215,1298
2178.8048919650823,1363
2180.7006918267534,1338
2182.596046302952,1345
2184.4909556695407,1343
2186.3854202024645,1340
2188.279440177746,1285
2190.173015871487,1374
2192.066147559868,1360
2193.958835519149,1308
2195.851080025667,1314
2197.7428813558417,1364
2199.6342397861667,1282
2201.5251555932186,1337
2203.415629053651,1335
2205.3056604441986,1308
2207.19525004167,1334
2209.084398122958,1328
2210.9731049650327,1382
2212.861370844941,1365
2214.749196039812,1401
2216.636580826851,1320
2218.523525483344,1363
2220.410030286655,1370
2222.296095514226,1336
2224.1817214435805,1267
2226.066908352319,1357
2227.951656518121,1373
2229.835966218746,1334
2231.71983773203,1426
2233.6032713358913,1375
2235.486267308324,1305
2237.3688259274036,1337
2239.2509474712824,1388
2241.132632218193,1321
2243.013880446447,1366
2244.8946924344323,1289
2246.7750684606203,1387
2248.6550088035574,1362
2250.534513741871,1363
2252.413583554265,1307
2254.292218519526,1345
2256.170418916517,1355
2258.0481850241786,1315
2259.925517121534,1378
2261.8024154876825,1360
2263.678880401803,1335
2265.5549121431536,1354
2267.430510991071,1371
2269.305677224971,1367
2271.180411124348,1329
2273.0547129687766,1340
2274.9285830379076,1355
2276.8020216114737,1317
2278.6750289692845,1370
2280.5476053912294,1397
2282.4197511572766,1341
2284.2914665474727,1366
2286.162751841943,1360
2288.0336073208937,1367
2289.904033264608,1305
2291.774029953448,1442
2293.6435976678554,1346
2295.5127366883517,1386
2297.381447295534,1349
2299.2497297700825,1302
2301.1175843927526,1330
2302.9850114443825,1295
2304.852011205885,1262
2306.7185839582553,1315
2308.5847299825664,1266
2310.4504495599676,1245
2312.3157429716925,1242
2314.1806104990483,1243
2316.0450524234247,1192
2317.9090690262888,1233
2319.772660589186,1258
2321.635827393742,1229
2323.498569721661,1176
2325.3608878547248,1233
2327.2227820747967,1225
2329.0842526638157,1239
2330.945299903803,1287
2332.805924076857,1271
2334.6661254651535,1258
2336.525904350951,1258
2338.3852610165827,1227
2340.244195744464,1277
2342.102708817088,1217
2343.9608005170253,1310
2345.8184711269287,1208
2347.675720929526,1272
2349.532550207628,1185
2351.38895924412,1261
2353.24494832197,1284
2355.100517724223,1248
2356.955667734004,1253
2358.810398634514,1251
2360.664710709037,1299
2362.5186042409337,1307
2364.3720795136437,1251
2366.225136810686,1297
2368.0777764156583,1308
2369.929998612237,1267
2371.7818036841777,1304
2373.633191915315,1280
2375.484163589562,1326
2377.3347189909114,1320
2379.184858403434,1216
2381.03458211128,1255
2382.8838903986775,1309
2384.732783549936,1286
2386.5812618494406,1311
2388.4293255816588,1346
2390.2769750311327,1332
2392.1242104824883,1274
2393.971032220427,1295
2395.8174405297295,1275
2397.6634356952563,1301
2399.509018001947,1300
2401.3541877348193,1233
2403.1989451789705,1316
2405.043290619576,1291
2406.8872243418905,1303
2408.730746631247,1326
2410.5738577730594,1291
2412.4165580528183,1301
2414.258847756095,1324
2416.100727168537,1313
2417.9421965758734,1285
2419.783256263912,1323
2421.623906518538,1276
2423.4641476257157,1249
2425.303979871491,1285
2427.143403541984,1318
2428.9824189233977,1280
2430.821026302012,1293
2432.6592259641866,1290
2434.497018196361,1333
2436.33440328505,1297
2438.171381516851,1356
2440.00795317844,1318
2441.844118556569,1319
2443.6798779380724,1295
2445.5152316098606,1301
2447.3501798589255,1272
2449.1847229723357,1300
2451.0188612372403,1342
2452.8525949408663,1335
2454.6859243705203,1337
2456.518849813587,1280
2458.3513715575314,1287
2460.183489889895,1355
2462.015205098301,1249
2463.8465174704493,1279
2465.67742729412,1282
2467.5079348571717,1289
2469.338040447542,1300
2471.1677443532476,1323
2472.9970468623833,1329
2474.825948263123,1317
2476.6544488437207,1334
2478.482548892508,1310
2480.310248697896,1305
2482.137548548374,1357
2483.9644487325118,1327
2485.790949538956,1347
2487.617051256433,1316
2489.44275417375,1351
2491.26805857979,1298
2493.0929647635157,1346
2494.917473013971,1345
2496.741583620276,1325
2498.5652968716304,1409
2500.3886130573137,1374
2502.2115324666834,1385
2504.0340553891765,1400
2505.856182114308,1360
2507.6779129316733,1375
2509.499248130945,1375
2511.3201880018764,1419
2513.140732834298,1381
2514.9608829181198,1405
2516.780638543331,1345
2518.6,1376
2520.418967578273,1407
2522.237541568376,1433
2524.0557222606144,1369
2525.8735099453706,1410
2527.6909049131086,1431
2529.507907454368,1429
2531.32451785977,1452
2533.140736420014,1459
2534.9565634258774,1481
2536.771999168218,1472
2538.5870439379714,1476
2540.4016980261526,1512
2542.2159617238544,1475
2544.02983532225,1520
2545.8433191125914,1499
2547.656413386209,1563
2549.4691184345115,1569
2551.2814345489874,1536
2553.093362021204,1579
2554.904901142808,1608
2556.716052205523,1622
2558.526815501153,1607
2560.3371913215824,1684
2562.147179958771,1669
2563.956781704761,1684
2565.7659968516705,1653
2567.5748256916986,1643
2569.3832685171224,1674
2571.1913256202984,1765
2572.9989972936614,1711
2574.806283829725,1649
2576.613185521084,1719
2578.4197026604074,1665
2580.2258355404483,1802
2582.031584454035,1696
2583.836949694077,1691
2585.6419315535613,1733
2587.4465303255533,1732
2589.2507463032002,1745
2591.0545797797245,1744
2592.8580310484303,1831
2594.6611004026995,1774
2596.463788135992,1725
2598.266094541849,1716
2600.0680199138874,1693
2601.869564545807,1770
2603.670728731383,1731
2605.4715127644704,1699
2607.2719169390048,1735
2609.071941548998,1808
2610.8715868885433,1755
2612.670853251811,1752
2614.469740933052,1733
2616.268250226594,1681
2618.0663814268455,1720
2619.864134828292,1705
2621.6615107255006,1624
2623.458509413115,1725
2625.2551311858597,1727
2627.0513763385347,1683
2628.8472451660223,1663
2630.6427379632833,1664
2632.4378550253564,1702
2634.232596647359,1662
2636.026963124488,1629
2637.8209547520187,1678
2639.6145718253065,1603
2641.407814639785,1595
2643.200683490966,1528
2644.9931786744414,1592
2646.7853004858807,1636
2648.577049221034,1559
2650.3684251757277,1582
2652.1594286458712,1621
2653.9500599274484,1502
2655.740319316525,1536
2657.5302071092437,1506
2659.3197236018286,1535
2661.10886909058,1487
2662.8976438718782,1484
2664.686048242183,1430
2666.4740824980327,1450
2668.2617469360443,1426
2670.0490418529134,1433
2671.8359675454153,1351
2673.622524310403,1501
2675.408712444811,1464
2677.1945322456495,1428
2678.979984010009,1411
2680.76506803506,1399
2682.5497846180497,1357
2684.334134056306,1375
2686.1181166472343,1345
2687.9017326883213,1389
2689.6849824771293,1362
2691.4678663113013,1308
2693.2503844885596,1346
2695.032537306705,1390
2696.8143250636167,1360
2698.5957480572542,1317
2700.3768065856534,1291
2702.1575009469316,1279
2703.937831439283,1298
2705.717798360982,1287
2707.4974020103837,1296
2709.276642685917,1312
2711.055520686095,1324
2712.834036309506,1283
2714.612189854819,1297
2716.389981620782,1235
2718.1674119062204,1291
2719.944481010041,1261
2721.721189231226,1276
2723.4975368688415,1302
2725.273524222027,1291
2727.0491515900053,1280
2728.824419272075,1296
2730.5993275676146,1274
2732.3738767760838,1281
2734.148067197016,1243
2735.921899130031,1284
2737.6953728748194,1164
2739.468488731156,1191
2741.2412469988926,1209
2743.0136479779617,1218
2744.785691968372,1191
2746.5573792702116,1218
2748.3287101836504,1224
2750.099685008934,1188
2751.870304046388,1219
2753.640567596418,1243
2755.4104759595057,1225
2757.1800294362156,1175
2758.949228327187,1233
2760.7180729331412,1210
2762.486563554877,1194
2764.254700493272,1211
2766.022484049284,1180
2767.789914523947,1236
2769.5569922183786,1189
2771.3237174337705,1180
2773.090090471394,1187
2774.8561116326036,1214
2776.6217812188274,1201
2778.3870995315756,1188
2780.1520668724356,1195
2781.9166835430747,1207
2783.6809498452394,1207
2785.444866080754,1251
2787.2084325515225,1254
2788.971649559527,1222
2790.73451740683,1179
2792.4970363955713,1203
2794.2592068279705,1218
2796.0210290063264,1245
2797.7825032330147,1192
2799.543629810493,1216
2801.304409041296,1245
2803.0648412280366,1217
2804.8249266734088,1280
2806.5846656801846,1206
2808.344058551212,1213
2810.1031055894246,1200
2811.8618070978273,1217
2813.6201633795085,1246
2815.378174737636,1220
2817.1358414754536,1189
2818.893163896285,1206
2820.6501423035334,1241
2822.4067770006814,1165
2824.1630682912883,1210
2825.9190164789957,1178
2827.6746218675207,1217
2829.429884760661,1235
2831.184805462294,1193
2832.9393842763743,1223
2834.693621506936,1205
2836.4475174580916,1208
2838.201072434034,1180
2839.954286739034,1210
2841.707160677441,1204
2843.459694553685,1265
2845.2118886722724,1166
2846.96374333779,1250
2848.7152588549034,1266
2850.4664355283567,1218
2852.217273662973,1187
2853.9677735636546,1219
2855.7179355353833,1224
2857.4677598832186,1211
2859.217246912299,1187
2860.9663969278427,1185
2862.715210235146,1118
2864.4636871395846,1190
2866.211827946614,1212
2867.9596329617652,1211
2869.7071024906536,1207
2871.4542368389684,1219
2873.20103631248,1175
2874.947501217038,1239
2876.6936318585695,1228
2878.4394285430812,1212
2880.1848915766604,1211
2881.9300212654707,1192
2883.6748179157553,1250
2885.4192818338374,1235
2887.1634133261173,1166
2888.907212699077,1195
2890.6506802592744,1179
2892.393816313348,1194
2894.1366211680142,1179
2895.8790951300693,1189
2897.621238506388,1191
2899.363051603925,1140
2901.1045347297118,1171
2902.8456881908596,1197
2904.58651229456,1201
2906.327007348081,1148
2908.067173658772,1193
2909.8070115340597,1208
2911.5465212814497,1174
2913.285703208527,1202
2915.0245576229563,1175
2916.7630848324807,1190
2918.5012851449196,1220
2920.2391588681758,1219
2921.976706310227,1186
2923.7139277791334,1231
2925.4508235830313,1148
2927.187394030137,1196
2928.923639428745,1198
2930.6595600872306,1193
2932.395156314046,1233
2934.1304284177218,1213
2935.8653767068713,1190
2937.6000014901815,1204
2939.3343030764227,1184
2941.068281774442,1231
2942.8019378931644,1141
2944.5352717415976,1186
2946.2682836288236,1226
2948.0009738640065,1191
2949.7333427563885,1189
2951.465390615289,1235
2953.1971177501086,1158
2954.9285244703265,1186
2956.6596110855,1176
2958.3903779052657,1139
2960.1208252393385,1196
2961.8509533975125,1126
2963.5807626896617,1209
2965.3102534257378,1144
2967.0394259157715,1198
2968.768280469873,1269
2970.496817398232,1168
2972.2250370111146,1134
2973.952939618869,1196
2975.6805255319196,1200
2977.4077950607707,1157
2979.134748516006,1216
2980.861386208289,1190
2982.587708448359,1250
2984.313715547037,1143
2986.039407815222,1154
2987.764785563891,1209
2989.489849104102,1123
2991.2145987469908,1215
2992.9390348037705,1196
2994.6631575857346,1189
2996.3869674042576,1201
2998.1104645707887,1212
2999.83364939686,1136
3001.5565221940783,1160
3003.2790832741334,1211
3005.0013329487924,1165
3006.7232715298996,1174
3008.4448993293804,1177
3010.166216659239,1228
3011.887223831558,1160
3013.607921158498,1175
3015.3283089522993,1237
3017.0483875252826,1148
3018.7681571898443,1143
3020.4876182584626,1143
3022.2067710436927,1175
3023.9256158581707,1161
3025.644153014609,1210
3027.362382825801,1175
3029.0803056046193,1202
3030.797921664012,1215
3032.5152313170106,1181
3034.2322348767225,1171
3035.9489326563353,1194
3037.665324969115,1189
3039.3814121284063,1178
3041.097194447633,1235
3042.812672240299,1211
3044.5278458199855,1181
3046.2427155003525,1234
3047.9572815951406,1215
3049.671544418167,1154
3051.38550428333,1203
3053.0991615046073,1165
3054.812516396051,1162
3056.5255692717974,1170
3058.2383204460575,1155
3059.9507702331257,1164
3061.662918947372,1180
3063.3747669032446,1135
3065.0863144152736,1155
3066.7975617980674,1163
3068.508509366309,1193
3070.219157434767,1159
3071.9295063182844,1210
3073.639556331785,1169
3075.3493077902704,1179
3077.058761008821,1089
3078.7679163025964,1194
3080.476773986837,1191
3082.1853343768594,1171
3083.89359778806,1212
3085.6015645359153,1187
3087.3092349359786,1199
3089.016609303884,1180
3090.7236879553434,1223
3092.4304712061476,1167
3094.136959372166,1147
3095.843152769349,1134
3097.5490517137237,1118
3099.2546565213966,1132
3100.959967508554,1211
3102.66498499146,1195
3104.3697092864577,1191
3106.0741407099695,1208
3107.778279578498,1178
3109.482126208622,1227
3111.1856809170004,1116
3112.8889440203716,1226
3114.5919158355528,1194
3116.294596679439,1183
3117.996986869006,1186
3119.6990867213062,1195
3121.4008965534726,1194
3123.102416682717,1183
3124.803647426329,1213
3126.5045891016784,1159
3128.205242026213,1155
3129.90560651746,1211
3131.605682893025,1224
3133.3054714705922,1183
3135.0049725679282,1192
3136.7041865028714,1185
3138.4031135933465,1156
3140.101754157353,1190
3141.800108512971,1144
3143.498176978357,1223
3145.1959598717494,1164
3146.8934575114636,1202
3148.5906702158954,1183
3150.2875983035183,1191
3151.9842420928853,1146
3153.680601902627,1177
3155.376678051456,1187
3157.07247085816,1140
3158.767980641609,1119
3160.463207720748,1127
3162.158152414606,1141
3163.8528150422862,1165
3165.5471959229726,1189
3167.2412953759303,1195
3168.9351137204976,1217
3170.628651276098,1153
3172.3219083622307,1205
3174.014885298474,1136
3175.707582404485,1172
3177.4000000000005,1229
3179.092138404835,1140
3180.7839979388846,1158
3182.47557892212,1164
3184.166881674594,1178
3185.8579065164386,1168
3187.5486537678626,1156
3189.2391237491547,1181
3190.9293167806827,1163
3192.6192331828934,1162
3194.3088732763117,1189
3195.998237381542,1201
3197.687325819268,1114
3199.376138910251,1164
3201.064676975334,1163
3202.7529403354347,1123
3204.4409293115523,1132
3206.1286442247647,1185
3207.816085396229,1125
3209.5032531471825,1207
3211.190147798936,1160
3212.8767696728846,1159
3214.5631190905015,1129
3216.2491963733373,1106
3217.9350018430214,1141
3219.6205358212637,1162
3221.305798629851,1182
3222.990790590651,1127
3224.6755120256103,1153
3226.359963256751,1132
3228.0441446061795,1122
3229.7280563960758,1183
3231.411698948703,1173
3233.0950725863995,1189
3234.778177631587,1156
3236.461014406761,1170
3238.1435832345005,1149
3239.8258844374595,1181
3241.507918338374,1182
3243.1896852600576,1150
3244.8711855254023,1130
3246.552419457381,1178
3248.233387379042,1170
3249.914089613516,1179
3251.59452648401,1170
3253.274698313813,1155
3254.95460542629,1169
3256.6342481448855,1107
3258.313626793125,1107
3259.9927416946084,1085
3261.6715931730196,1079
3263.3501815521176,1122
3265.0285071557437,1157
3266.706570307815,1112
3268.3843713323286,1120
3270.0619105533615,1101
3271.739188295068,1124
3273.4162048816834,1131
3275.0929606375184,1173
3276.769455886966,1171
3278.445690954498,1121
3280.1216661646613,1130
3281.797381842087,1129
3283.4728383114807,1125
3285.1480358976296,1163
3286.8229749253996,1187
3288.4976557197333,1159
3290.172078605655,1198
3291.846243908266,1161
3293.5201519527463,1153
3295.193803064357,1090
3296.8671975684374,1128
3298.5403357904024,1137
3300.21321805575,1139
3301.8858446900567,1179
3303.558216018975,1107
3305.23033236824,1146
3306.9021940636603,1130
3308.57380143113,1144
3310.2451547966184,1155
3311.916254486174,1144
3313.5871008259246,1204
3315.2576941420766,1166
3316.9280347609147,1147
3318.5981230088046,1125
3320.2679592121895,1191
3321.9375436975924,1062
3323.606876791612,1108
3325.27595882093,1124
3326.944790112305,1168
3328.6133709925753,1136
3330.2817017886573,1130
3331.949782827547,1126
3333.617614436319,1163
3335.2851969421245,1142
3336.952530672199,1136
3338.619615953853,1160
3340.286453114475,1146
3341.9530424815357,1120
3343.619384382583,1105
3345.2854791452437,1124
3346.951327097224,1105
3348.6169285663073,1151
3350.2822838803577,1158
3351.947393367319,1146
3353.61225735521,1172
3355.2768761721345,1139
3356.9412501462693,1148
3358.605379605873,1137
3360.2692648792827,1137
3361.9329062949146,1108
3363.596304181263,1113
