CollectionTime,9/25/2024 11:56:38 AM
ExposureUsed,3
CalibratedSpectrum
-962.7078968117929,500
-959.9714848408522,546
-957.2358232597828,540
-954.5009119013725,591
-951.7667505983302,611
-949.0333391832855,581
-946.3006774887896,574
-943.5687653473143,594
-940.837602591253,575
-938.1071890529199,566
-935.3775245645503,562
-932.6486089583007,604
-929.9204420662485,575
-927.1930237203925,620
-924.4663537526524,601
-921.7404319948689,603
-919.0152582788041,579
-916.2908324361409,597
-913.5671542984834,613
-910.8442236973568,615
-908.1220404642074,607
-905.4006044304027,630
-902.679915427231,585
-899.959973285902,583
-897.2407778375464,586
-894.5223289132158,578
-891.8046263438832,573
-889.0876699604426,535
-886.3714595937089,572
-883.6559950744183,565
-880.9412762332282,574
-878.2273029007168,546
-875.5140749073835,525
-872.8015920836489,529
-870.0898542598545,518
-867.3788612662631,524
-864.6686129330585,545
-861.9591090903457,585
-859.2503495681506,543
-856.5423341964203,526
-853.8350628050229,536
-851.1285352237478,553
-848.4227512823054,517
-845.7177108103272,573
-843.0134136373656,581
-840.3098595928943,541
-837.6070485063082,585
-834.9049802069229,625
-832.2036545239757,616
-829.5030712866244,542
-826.8032303239481,549
-824.1041314649472,551
-821.4057745385428,579
-818.7081593735775,622
-816.0112857988148,586
-813.3151536429393,594
-810.6197627345566,584
-807.9251129021936,585
-805.2312039742981,581
-802.5380357792392,572
-799.8456081453069,603
-797.1539209007124,598
-794.462973873588,599
-791.772766891987,566
-789.083299783884,580
-786.3945723771743,576
-783.7065844996748,612
-781.0193359791231,533
-778.3328266431781,561
-775.6470563194197,594
-772.9620248353489,540
-770.2777320183878,556
-767.5941776958798,580
-764.9113616950891,580
-762.2292838432011,563
-759.5479439673222,563
-756.8673418944801,566
-754.1874774516235,605
-751.5083504656222,630
-748.8299607632671,609
-746.15230817127,568
-743.475392516264,625
-740.7992136248035,634
-738.1237713233636,585
-735.4490654383407,594
-732.7750957960521,648
-730.1018622227365,595
-727.4293645445534,595
-724.7576025875837,597
-722.0865761778291,579
-719.4162851412126,583
-716.7467293035781,621
-714.0779084906909,632
-711.409822528237,646
-708.7424712418238,615
-706.0758544569796,584
-703.4099719991541,582
-700.7448236937178,616
-698.0804093659622,595
-695.4167288411002,620
-692.7537819442656,636
-690.0915685005134,611
-687.4300883348199,627
-684.7693412720819,651
-682.1093271371178,632
-679.4500457546669,668
-676.7914969493897,640
-674.1336805458676,641
-671.4765963686034,606
-668.8202442420206,607
-666.1646239904642,653
-663.5097354382001,623
-660.8555784094151,645
-658.2021527282176,593
-655.5494582186366,631
-652.8974947046223,650
-650.2462620100463,680
-647.5957599587009,695
-644.9459883742998,623
-642.2969470804776,682
-639.6486359007902,669
-637.0010546587141,646
-634.3542031776476,675
-631.7080812809096,677
-629.0626887917401,676
-626.4180255333008,658
-623.7740913286734,716
-621.1308860008619,784
-618.4884093727904,704
-615.8466612673046,667
-613.2056415071715,662
-610.5653499150785,637
-607.9257863136347,674
-605.28695052537,699
-602.6488423727357,727
-600.0114616781036,698
-597.3748082637674,700
-594.7388819519412,732
-592.1036825647604,762
-589.4692099242818,766
-586.8354638524829,771
-584.2024441712624,824
-581.5701507024403,809
-578.9385832677575,739
-576.3077416888759,756
-573.6776257873787,705
-571.0482353847704,728
-568.4195703024757,759
-565.7916303618415,712
-563.164415384135,736
-560.5379251905453,729
-557.9121596021815,711
-555.2871184400748,722
-552.6628015251767,724
-550.0392086783606,775
-547.4163397204204,740
-544.794194472071,829
-542.1727727539491,786
-539.5520743866118,753
-536.9320991905377,773
-534.3128469861261,892
-531.6943175936979,947
-529.0765108334947,890
-526.4594265256793,960
-523.8430644903358,1143
-521.2274245474689,1334
-518.612506517005,1336
-515.9983102187913,1390
-513.3848354725959,1528
-510.77208209810846,1705
-508.16004991493924,1930
-505.5487387426199,2151
-502.9381484006032,2227
-500.3282787082628,2242
-497.71912948489364,2074
-495.1107005497117,1913
-492.5029917218539,1581
-489.8960028203786,1383
-487.28973366426493,1163
-484.68418407241325,1050
-482.07935386364494,988
-479.47524285670266,998
-476.87185087025,927
-474.2691777228715,970
-471.66722323307334,984
-469.0659872192821,952
-466.4654694998459,937
-463.86566989303384,982
-461.26658821703614,955
-458.66822428996414,966
-456.07057792985,980
-453.4736489546475,956
-450.877437182231,924
-448.28194243039627,868
-445.68716451686,910
-443.09310325926003,849
-440.49975847515555,868
-437.9071299820263,865
-435.31521759727354,861
-432.72402113821954,911
-430.13354042210767,1010
-427.5437752661022,1003
-424.95472548728867,920
-422.36639090267386,959
-419.7787713291855,1004
-417.1918665836721,1035
-414.60567648290385,1013
-412.0202008435715,1050
-409.4354394822874,997
-406.8513922155845,1008
-404.26805885991723,1016
-401.685439231661,1059
-399.103533147112,1066
-396.522340422488,998
-393.9418608739278,983
-391.3620943174908,986
-388.7830405691583,989
-386.2046994448317,1007
-383.6270707603344,964
-381.05015433141045,920
-378.473949973725,886
-375.8984575028645,803
-373.32367673433623,787
-370.74960748356875,770
-368.1762495659117,762
-365.60360279663576,746
-363.03166699093265,668
-360.4604419639154,702
-357.8899275306178,630
-355.32012350599507,588
-352.7510297049233,560
-350.1826459421999,565
-347.61497203254316,558
-345.04800779059235,576
-342.4817530309082,561
-339.91620756797226,591
-337.35137121618743,628
-334.7872437898774,659
-332.22382510328725,692
-329.66111497058273,791
-327.09911320585127,803
-324.53781962310075,658
-321.9772340362607,609
-319.4173562591816,592
-316.8581861056348,597
-314.2997233893127,686
-311.7419679238294,628
-309.1849195227194,614
-306.62857799943856,643
-304.0729431673641,668
-301.51801483979375,683
-298.963792829947,674
-296.41027695096386,655
-293.85746701590574,727
-291.3053628377552,814
-288.7539642294155,827
-286.2032710037115,839
-283.65328297338897,914
-281.1039999511146,830
-278.5554217494762,881
-276.007548180983,928
-273.4603790580651,863
-270.9139141930734,873
-268.3681533982807,968
-265.8230964858798,821
-263.27874326798565,872
-260.7350935566336,824
-258.1921471637804,799
-255.6499039013039,860
-253.10836358100266,829
-250.56752601459698,803
-248.02739101372765,856
-245.48795838995704,919
-242.94922795476816,967
-240.41119951956557,909
-237.8738728956746,873
-235.33724789434166,913
-232.80132432673452,851
-230.2661020039418,821
-227.73158073697357,848
-225.19776033676033,995
-222.66464061415422,1136
-220.1322213799284,1028
-217.60050244477725,963
-215.06948361931552,911
-212.53916471408013,968
-210.00954553952818,1148
-207.48062590603843,1158
-204.9524056239104,1008
-202.4248845033651,1027
-199.8980623545441,1066
-197.37193898751036,1133
-194.84651421224817,1116
-192.32178783866232,1085
-189.79775967657952,1152
-187.27442953574644,1257
-184.7517972258321,1302
-182.2298625564256,1206
-179.7086253370378,1090
-177.18808537710026,1373
-174.66824248596583,1677
-172.14909647290835,1516
-169.6306471471229,1332
-167.11289431772548,1181
-164.59583779375328,1313
-162.07947738416453,1503
-159.5638128978386,1643
-157.04884414357605,2009
-154.53457093009854,1912
-152.02099306604828,1467
-149.50811035998936,1353
-146.99592262040665,1322
-144.48442965570587,1641
-141.97363127421409,2064
-139.46352728417958,2039
-136.95411749377126,1958
-134.44540171107985,1952
-131.93737974411636,1876
-129.43005140081357,1658
-126.92341648902493,1874
-124.41747481652521,2439
-121.91222619101006,3112
-119.40767042009657,4307
-116.90380731132257,4793
-114.40063667214702,4920
-111.8981583099503,4333
-109.3963720320337,4205
-106.89527764561933,4009
-104.39487495785067,4889
-101.89516377579241,5510
-99.39614390642998,7313
-96.89781515667039,10155
-94.40017733334128,12905
-91.90323024319173,12396
-89.40697369289148,9257
-86.91140748903172,6734
-84.41653143812482,6151
-81.92234534660395,8265
-79.42884902082358,12940
-76.93604226705907,16147
-74.4439248915071,18059
-71.95249670028534,20341
-69.46175749943245,23916
-66.97170709490854,31730
-64.48234529259423,41185
-61.99367189829195,45357
-59.50568671772464,47768
-57.01838955653636,49217
-54.53178022029283,53644
-52.045858514480074,51857
-49.560624244506016,44006
-47.07607721569923,32678
-44.59221723330904,26042
-42.10904410250669,24021
-39.62655762838392,27557
-37.14475761595372,33551
-34.66364387015028,39164
-32.18321619582866,44442
-29.70347439776515,46917
-27.224418280657005,46079
-24.74604764912317,47888
-22.26836230770266,65040
-19.7913620608565,65040
-17.315046712966478,65040
-14.83941606833514,65040
-12.36446993118659,65040
-9.89020810566592,65040
-7.416630395839093,65040
-4.94373660569363,65040
-2.471526539137585,65040
-6.821210263296962E-13,65040
2.47084320796705,65040
4.941003281093458,65040
7.410480415786196,65040
9.879274808531363,65040
12.347386655893956,65040
14.814816154518212,65040
17.28156350112681,65040
19.74762889252179,65040
22.21301252558385,65040
24.67771459727237,24249
27.141735304626195,6995
29.605074844762612,6844
32.06773341487792,6086
34.52971121224755,5218
36.99100843422559,5181
39.45162527824516,6934
41.91156194181792,6935
44.370818622535126,5723
46.82939551806646,4660
49.287292826160524,4005
51.74451074464503,4409
54.201049471426245,4729
56.65690920448981,4350
59.112090141899785,4620
61.56659248179983,4652
64.02041642241159,3263
66.4735621620365,2440
68.92602989905402,3291
71.37781983192338,3669
73.82893215918205,3056
76.27936707944684,2836
78.72912479141326,3267
81.17820549385567,3024
83.62660938562783,2554
86.07433666566146,2417
88.5213875329681,2995
90.96776218663751,3169
93.41346082583925,2969
95.85848364982041,2722
98.30283085790859,2287
100.7465026495089,2300
103.18949922410604,2263
105.63182078126385,2393
108.07346752062438,2332
110.51443964190923,2070
112.95473734491827,1994
115.39436082953114,1691
117.83331029570547,2108
120.27158594347827,2543
122.7091879729652,2484
125.1461165843615,2316
127.58237197794062,2199
130.01795435405518,1939
132.4528639131364,1595
134.88710085569494,1555
137.32066538231982,1857
139.75355769367923,1603
142.1857779905207,1516
144.61732647366978,1651
147.04820334403132,1690
149.47840880258934,1694
151.90794305040674,1509
154.33680628862487,1578
156.76499871846443,1630
159.19252054122433,1800
161.61937195828352,1848
164.04555317109896,1963
166.47106438120693,2150
168.89590579022217,2623
171.320077599839,2519
173.7435800118302,2544
176.16641322804742,2541
178.58857745042144,2623
181.01007288096173,2667
183.43089972175687,2814
185.85105817497413,2784
188.27054844285988,2517
190.6893707277394,2642
193.10752523201643,2595
195.5250121581745,2592
197.9418317087751,2724
200.3579840864594,2693
202.7734694939469,2598
205.18828813403627,2810
207.6024402096051,2903
210.01592592360964,2719
212.42874547908548,2836
214.84089907914665,2852
217.2523869269868,2597
219.66320922587727,2842
222.0733661791695,2751
224.48285799029293,2837
226.8916848627572,2631
229.29984700014882,2813
231.7073446061355,2800
234.11417788446204,2681
236.520347038953,2643
238.92585227351185,2692
241.33069379212054,2704
243.73487179884035,2660
246.1383864978112,2684
248.541238093252,2648
250.9434267894609,2759
253.34495279081432,2897
255.74581630176783,2907
258.1460175268563,2693
260.54555667069314,2797
262.9444339379703,2784
265.3426495334594,2864
267.7402036620107,2762
270.1370965285529,2885
272.53332833809407,2895
274.9288992957214,2919
277.32380960660055,2801
279.718059475976,2869
282.1116491091717,2710
284.5045787115897,2761
286.89684848871195,2732
289.2884586460981,2624
291.67940938938807,2707
294.0697009242996,2684
296.4593334566299,2789
298.84830719225477,2811
301.23662233712923,2817
303.6242790972866,2558
306.01127767884,2557
308.39761828798066,2606
310.78330113097934,2608
313.16832641418534,2559
315.5526943440269,2450
317.9364051270112,2452
320.3194589697242,2514
322.70185607883093,2428
325.0835966610754,2464
327.4646809232805,2562
329.8451090723478,2453
332.2248813152577,2423
334.6039978590701,2441
336.9824589109231,2398
339.36026467803447,2318
341.7374153677,2252
344.113911187295,2198
346.48975234427337,2277
348.8649390461686,2251
351.2394715005918,2168
353.61334991523415,2235
355.9865744978655,2191
358.35914545633375,2238
360.73106299856715,2221
363.10232733257146,2249
365.47293866643247,2345
367.84289720831396,2194
370.2122031664593,2144
372.5808567491905,2124
374.9488581649083,2060
377.31620762209275,2198
379.6829053293021,2088
382.0489514951745,2111
384.4143463284262,2113
386.7790900378528,2104
389.14318283232853,2092
391.50662492080653,2174
393.86941651231916,2144
396.23155781597745,2153
398.5930490409713,2080
400.9538903965696,2126
403.3140820921202,2104
405.6736243370498,2139
408.03251734086336,2161
410.3907613131465,2062
412.74835646356166,2076
415.10530300185144,2016
417.4616011378372,2022
419.81725108141893,2026
422.1722530425758,2084
424.5266072313656,1983
426.880313857925,2127
429.2333731324701,2012
431.58578526529516,1981
433.9375504667738,2005
436.2886689473588,1967
438.63914091758113,1942
440.9889665880513,1915
443.33814616945835,1953
445.68667987257015,1889
448.03456790823395,1956
450.3818104873759,1886
452.72840782100013,1939
455.07436012019105,1917
457.41966759611057,1891
459.7643304600007,1938
462.10834892318155,1949
464.4517231970525,1996
466.79445349309174,1937
469.1365400228566,1895
471.4779829979826,2013
473.81878263018564,1963
476.15893913125876,2023
478.4984527130747,2083
480.8373235875855,2135
483.17555196682144,2187
485.5131380628919,2289
487.8500820879857,2327
490.1863842543697,2377
492.52204477439034,2531
494.8570638604725,2846
497.1914417251204,3223
499.52517858091653,3865
501.85827464052306,4407
504.19073011668036,4789
506.5225452222086,5002
508.85372017000566,4880
511.18425517304956,4883
513.514150444396,4997
515.8434061971808,5716
518.1720226446176,6562
520.4999999999999,6639
522.8273384766991,6342
525.1540382881666,5772
527.480099647932,5073
529.8055227696037,4051
532.1303078668694,3067
534.454455153496,2569
536.777964843328,2264
539.1008371502907,2179
541.4230722883866,2079
543.744670471698,1983
546.0656319143858,2017
548.3859568306899,2018
550.7056454349294,2016
553.0246979415016,2083
555.3431145648834,2051
557.6608955196306,1995
559.978041020377,1992
562.2945512818363,2061
564.6104265188006,1939
566.9256669461412,1887
569.2402727788082,1927
571.5542442318302,2019
573.8675815203156,1993
576.1802848594508,2037
578.4923544645015,1916
580.8037905508126,1993
583.114593333807,1978
585.4247630289875,1973
587.7342998519354,1907
590.0432040183106,2001
592.3514757438526,1984
594.6591152443794,2074
596.9661227357875,1936
599.2724984340531,1925
601.578242555231,2023
603.8833553154542,1945
606.1878369309362,1967
608.4916876179676,1960
610.7949075929192,1934
613.0974970722403,1912
615.3994562724587,1954
617.7007854101818,1968
620.0014847020951,1887
622.3015543649641,1927
624.6009946156324,1937
626.8998056710224,1972
629.1979877481361,1968
631.4955410640538,1948
633.7924658359349,1953
636.0887622810175,2014
638.3844306166192,2012
640.6794710601358,1928
642.9738838290426,2033
645.2676691408932,1951
647.5608272133207,2034
649.853358264037,1984
652.1452625108324,1959
654.4365401715764,1975
656.7271914642178,2035
659.0172166067838,2061
661.3066158173809,2077
663.5953893141935,1904
665.8835373154867,2028
668.1710600396028,1997
670.4579577049639,2102
672.7442305300709,2134
675.0298787335033,2019
677.3149025339197,2053
679.599302150058,2020
681.8830778007342,2002
684.1662297048437,2018
686.4487580813608,2069
688.7306631493387,1989
691.0119451279091,1929
693.2926042362834,2046
695.5726406937516,1987
697.8520547196814,1964
700.1308465335215,1974
702.4090163547982,2006
704.6865644031171,2002
706.9634908981619,1942
709.2397960596965,1967
711.5154801075631,1998
713.7905432616823,1971
716.0649857420548,2014
718.3388077687592,2011
720.612009561953,2053
722.8845913418733,1992
725.1565533288352,1989
727.427895743234,1924
729.6986188055427,1977
731.9687227363137,2022
734.238207756178,2062
736.5070740858458,1960
738.7753219461066,2036
741.0429515578281,2036
743.3099631419569,1980
745.5763569195191,1961
747.8421331116193,1993
750.1072919394409,2004
752.3718336242467,2007
754.6357583873777,2025
756.8990664502545,1999
759.1617580343765,2035
761.423833361321,2095
763.6852926527457,1961
765.9461361303862,2043
768.206364016058,2139
770.4659765316536,2031
772.7249738991469,1991
774.9833563405886,2062
777.2411240781092,2081
779.4982773339183,2104
781.7548163303044,1983
784.010741289634,2113
786.2660524343538,2084
788.5207499869881,2033
790.7748341701416,2007
793.0283052064964,2117
795.2811633188143,2082
797.5334087299362,1993
799.7850416627813,2064
802.0360623403484,2080
804.2864709857143,2058
806.5362678220353,2109
808.7854530725468,2095
811.0340269605625,2000
813.2819897094754,2071
815.5293415427581,2040
817.77608268396,2081
820.0222133567116,2034
822.2677337847211,2074
824.5126441917765,2097
826.7569448017433,2148
829.0006358385675,2102
831.2437175262731,1997
833.4861900889629,2009
835.7280537508192,1975
837.9693087361026,2025
840.2099552691533,2143
842.4499935743896,2029
844.689423876309,2008
846.9282463994886,1970
849.1664613685833,2052
851.4040690083276,1968
853.6410695435349,2043
855.877463199097,2059
858.1132501999847,2058
860.3484307712487,2066
862.5830051380175,2020
864.8169735254988,2046
867.0503361589791,2072
869.2830932638243,2101
871.5152450654786,2184
873.7467917894654,2095
875.9777336613873,2015
878.2080709069252,1983
880.4378037518389,2062
882.666932421968,2119
884.8954571432301,2015
887.1233781416219,2106
889.3506956432192,2060
891.5774098741766,2122
893.803521060728,2095
896.0290294291852,2079
898.2539352059397,2146
900.4782386174619,2066
902.7019398903011,2057
904.925039251085,2162
907.147536926521,2198
909.3694331433943,2132
911.59072812857,2163
913.8114221089921,2093
916.0315153116827,2169
918.2510079637437,2025
920.4699002923547,2118
922.6881925247761,2065
924.905884888345,2073
927.1229776104793,2043
929.3394709186747,2032
931.555365040506,2067
933.7706602036275,2063
935.9853566357709,2061
938.1994545647489,2115
940.4129542184515,2079
942.6258558248488,2115
944.8381596119883,2090
947.0498658079974,2115
949.2609746410825,2069
951.4714863395287,2100
953.6814011316998,2113
955.8907192460387,2067
958.0994409110671,2053
960.3075663553858,2097
962.5150958076741,2145
964.7220294966913,2053
966.928367651274,2029
969.1341105003388,2057
971.3392582728806,1925
973.5438111979742,1965
975.747769504772,2011
977.9511334225061,1994
980.153903180487,1964
982.3560790081052,2017
984.5576611348289,1931
986.7586497902058,1852
988.9590452038618,1854
991.158847605503,1892
993.3580572249133,1935
995.5566742919558,1887
997.7546990365728,1809
999.952131688785,1778
1002.1489724786926,1758
1004.3452216364743,1755
1006.5408793923874,1724
1008.7359459767691,1708
1010.9304216200343,1758
1013.1243065526781,1632
1015.3176010052733,1616
1017.510305208472,1625
1019.7024193930064,1571
1021.8939437896848,1654
1024.0848786293977,1617
1026.2752241431122,1629
1028.4649805618747,1600
1030.6541481168115,1638
1032.842727039127,1617
1035.0307175601051,1567
1037.2181199111074,1659
1039.4049343235752,1533
1041.591161029029,1536
1043.7768002590683,1540
1045.9618522453698,1521
1048.1463172196918,1602
1050.3301954138697,1562
1052.513487059818,1560
1054.69619238953,1638
1056.8783116350783,1516
1059.0598450286152,1569
1061.2407928023704,1600
1063.4211551886528,1632
1065.6009324198508,1571
1067.780124728432,1545
1069.9587323469414,1568
1072.1367555080046,1571
1074.314194444325,1563
1076.4910493886855,1540
1078.667320573947,1495
1080.843008233051,1525
1083.0181125990161,1472
1085.1926339049414,1427
1087.3665723840027,1508
1089.5399282694575,1556
1091.7127017946405,1537
1093.8848931929647,1453
1096.0565026979243,1534
1098.2275305430899,1505
1100.3979769621128,1418
1102.567842188722,1469
1104.737126456726,1430
1106.9058300000124,1498
1109.0739530525475,1499
1111.2414958483764,1406
1113.4084586216231,1415
1115.5748416064907,1438
1117.7406450372605,1439
1119.9058691482942,1508
1122.0705141740304,1468
1124.2345803489884,1553
1126.3980679077658,1500
1128.5609770850388,1475
1130.7233081155623,1443
1132.8850612341707,1470
1135.0462366757774,1491
1137.2068346753745,1405
1139.3668554680326,1482
1141.526299288901,1436
1143.68516637321,1473
1145.8434569562655,1420
1148.001171273455,1436
1150.158309560244,1380
1152.3148720521767,1449
1154.470858984876,1448
1156.626270594044,1466
1158.7811071154629,1439
1160.9353687849912,1476
1163.089055838569,1500
1165.242168512213,1438
1167.3947070420209,1470
1169.5466716641677,1428
1171.6980626149075,1387
1173.8488801305748,1433
1175.9991244475814,1459
1178.1487958024186,1442
1180.2978944316555,1367
1182.4464205719428,1385
1184.5943744600072,1460
1186.7417563326567,1470
1188.8885664267755,1439
1191.0348049793297,1421
1193.1804722273619,1372
1195.325568407995,1404
1197.4700937584303,1433
1199.614048515948,1475
1201.7574329179074,1410
1203.900247201746,1462
1206.042491604982,1435
1208.1841663652099,1400
1210.3252717201053,1409
1212.465807907422,1423
1214.6057751649923,1489
1216.7451737307279,1367
1218.8840038426192,1459
1221.0222657387353,1463
1223.1599596572241,1517
1225.2970858363137,1404
1227.4336445143094,1446
1229.5696359295966,1490
1231.705060320639,1440
1233.8399179259786,1492
1235.9742089842384,1445
1238.107933734118,1481
1240.2410924143974,1471
1242.373685263935,1442
1244.5057125216676,1512
1246.6371744266116,1518
1248.7680712178621,1424
1250.898403134593,1445
1253.028170416058,1477
1255.1573733015875,1495
1257.2860120305932,1462
1259.4140868425648,1545
1261.54159797707,1462
1263.6685456737569,1430
1265.7949301723515,1481
1267.9207517126597,1490
1270.046010534565,1541
1272.1707068780306,1452
1274.2948409830983,1523
1276.4184130898889,1510
1278.541423438603,1517
1280.6638722695184,1513
1282.785759822993,1538
1284.9070863394636,1501
1287.0278520594447,1513
1289.1480572235314,1559
1291.2677020723963,1576
1293.3867868467923,1530
1295.5053117875495,1595
1297.623277135579,1547
1299.740683131868,1558
1301.8575300174857,1532
1303.973818033578,1575
1306.0895474213703,1583
1308.2047184221678,1553
1310.3193312773528,1519
1312.4333862283888,1592
1314.5468835168163,1541
1316.659823384255,1571
1318.7722060724045,1567
1320.8840318230418,1601
1322.9953008780249,1628
1325.1060134792888,1565
1327.2161698688478,1557
1329.3257702887959,1610
1331.4348149813054,1609
1333.5433041886276,1630
1335.6512381530933,1570
1337.7586171171101,1548
1339.8654413231675,1513
1341.9717110138317,1584
1344.0774264317488,1531
1346.1825878196432,1593
1348.2871954203192,1531
1350.3912494766587,1560
1352.4947502316231,1561
1354.5976979282532,1585
1356.7000928096686,1563
1358.8019351190665,1550
1360.9032250997243,1591
1363.0039629949988,1592
1365.1041490483235,1578
1367.2037835032133,1572
1369.3028666032606,1525
1371.401398592137,1546
1373.4993797135926,1567
1375.5968102114575,1582
1377.6936903296396,1584
1379.7900203121262,1563
1381.8858004029835,1609
1383.9810308463561,1582
1386.075711886469,1606
1388.1698437676241,1569
1390.2634267342032,1588
1392.356461030667,1547
1394.4489469015557,1589
1396.5408845914872,1567
1398.6322743451592,1657
1400.7231164073469,1666
1402.813411022907,1582
1404.903158436773,1577
1406.9923588939578,1555
1409.0810126395531,1589
1411.1691199187303,1596
1413.2566809767386,1634
1415.343696058907,1638
1417.4301654106425,1580
1419.5160892774315,1594
1421.6014679048399,1615
1423.6863015385125,1592
1425.7705904241707,1603
1427.8543348076178,1623
1429.9375349347342,1636
1432.0201910514802,1610
1434.102303403894,1589
1436.1838722380944,1619
1438.2648978002767,1668
1440.3453803367174,1596
1442.4253200937692,1661
1444.5047173178677,1622
1446.5835722555234,1606
1448.6618851533285,1664
1450.739656257952,1667
1452.8168858161434,1640
1454.8935740747306,1671
1456.96972128062,1724
1459.045327680797,1694
1461.120393522327,1710
1463.1949190523528,1706
1465.2689045180973,1673
1467.3423501668608,1739
1469.415256246024,1718
1471.4876230030463,1784
1473.559450685465,1743
1475.6307395408976,1768
1477.7014898170391,1736
1479.771701761665,1778
1481.8413756226287,1872
1483.9105116478618,1788
1485.9791100853772,1804
1488.0471711832643,1751
1490.1146951896926,1782
1492.1816823529098,1790
1494.2481329212433,1847
1496.3140471430984,1875
1498.3794252669609,1899
1500.4442675413939,1873
1502.5085742150404,1887
1504.572345536622,1898
1506.6355817549388,1926
1508.6982831188702,1872
1510.7604498773744,1869
1512.8220822794883,1859
1514.8831805743293,1829
1516.9437450110909,1954
1519.003775839048,1964
1521.0632733075522,1935
1523.1222376660367,1905
1525.1806691640113,1923
1527.2385680510652,1860
1529.2959345768668,1920
1531.3527689911643,1944
1533.4090715437833,1915
1535.4648424846291,1986
1537.5200820636855,1989
1539.5747905310159,1958
1541.6289681367616,1971
1543.6826151311434,2012
1545.7357317644614,2101
1547.7883182870937,2064
1549.8403749494987,2072
1551.8919020022113,2019
1553.9428996958477,2055
1555.9933682811015,2080
1558.0433080087469,2195
1560.0927191296346,2201
1562.1416018946961,2209
1564.1899565549415,2189
1566.2377833614592,2279
1568.2850825654164,2278
1570.3318544180606,2315
1572.3780991707158,2334
1574.423817074788,2263
1576.4690083817595,2257
1578.5136733431923,2240
1580.5578122107272,2116
1582.601425236085,2162
1584.6445126710646,2115
1586.6870747675434,2013
1588.7291117774776,1998
1590.7706239529034,1917
1592.8116115459347,1903
1594.8520748087658,1899
1596.8920139936686,1792
1598.9314293529933,1774
1600.9703211391711,1754
1603.008689604711,1764
1605.0465350022005,1748
1607.0838575843068,1714
1609.1206576037753,1741
1611.1569353134305,1682
1613.1926909661765,1641
1615.2279248149953,1642
1617.2626371129481,1682
1619.2968281131757,1622
1621.3304980688963,1653
1623.3636472334088,1685
1625.39627586009,1641
1627.428384202396,1553
1629.459972513861,1577
1631.4910410480993,1549
1633.5215900588028,1574
1635.551619799744,1537
1637.5811305247717,1558
1639.6101224878166,1599
1641.6385959428862,1624
1643.6665511440683,1489
1645.693988345528,1540
1647.7209078015112,1509
1649.7473097663405,1567
1651.7731944944203,1555
1653.7985622402307,1596
1655.823413258333,1549
1657.847747803366,1540
1659.8715661300494,1585
1661.8948684931793,1581
1663.9176551476316,1484
1665.9399263483624,1506
1667.9616823504057,1535
1669.982923408873,1504
1672.0036497789574,1563
1674.0238617159293,1501
1676.043559475138,1477
1678.0627433120121,1481
1680.081413482059,1462
1682.0995702408654,1532
1684.117213844096,1540
1686.134344547495,1505
1688.1509626068864,1463
1690.1670682781705,1513
1692.182661817329,1514
1694.1977434804217,1473
1696.2123135235875,1491
1698.226372203043,1537
1700.2399197750851,1566
1702.2529564960905,1572
1704.2654826225112,1549
1706.277498410882,1503
1708.2890041178139,1505
1710.2999999999988,1507
1712.3104863142066,1465
1714.3204633172854,1476
1716.329931266163,1532
1718.3388904178469,1511
1720.3473410294214,1510
1722.3552833580516,1483
1724.3627176609807,1501
1726.3696441955308,1529
1728.3760632191033,1556
1730.3819749891782,1524
1732.3873797633146,1440
1734.3922777991502,1526
1736.3966693544012,1483
1738.4005546868639,1517
1740.4039340544127,1436
1742.406807715001,1493
1744.4091759266616,1542
1746.4110389475054,1497
1748.4123970357223,1496
1750.413250449582,1507
1752.4135994474318,1441
1754.4134442876993,1485
1756.4127852288902,1463
1758.4116225295893,1464
1760.4099564484595,1479
1762.407787244244,1455
1764.405115175764,1454
1766.4019405019203,1453
1768.3982634816916,1476
1770.3940843741357,1459
1772.3894034383907,1454
1774.3842209336717,1515
1776.378537119274,1490
1778.372352254571,1459
1780.3656665990156,1435
1782.3584804121397,1460
1784.3507939535534,1411
1786.3426074829463,1447
1788.3339212600863,1462
1790.3247355448211,1458
1792.3150505970766,1495
1794.3048666768573,1475
1796.2941840442477,1513
1798.2830029594106,1448
1800.2713236825884,1467
1802.2591464741004,1443
1804.2464715943465,1442
1806.2332993038058,1479
1808.2196298630352,1448
1810.2054635326708,1531
1812.190800573428,1491
1814.175641246101,1476
1816.1599858115628,1508
1818.1438345307652,1463
1820.127187664738,1444
1822.1100454745924,1452
1824.092408221516,1417
1826.0742761667766,1476
1828.055649571721,1525
1830.0365286977735,1464
1832.0169138064398,1441
1833.9968051593014,1456
1835.9762030180214,1458
1837.9551076443408,1406
1839.9335193000788,1464
1841.9114382471344,1481
1843.888864747485,1495
1845.8657990631878,1484
1847.842241456378,1452
1849.8181921892697,1504
1851.7936515241558,1456
1853.7686197234098,1451
1855.7430970494815,1390
1857.7170837649014,1391
1859.6905801322787,1435
1861.6635864143004,1420
1863.6361028737338,1439
1865.608129773424,1432
1867.5796673762961,1446
1869.5507159453537,1428
1871.521275743678,1461
1873.4913470344313,1451
1875.4609300808534,1507
1877.4300251462632,1488
1879.3986324940588,1519
1881.366752387717,1479
1883.3343850907936,1433
1885.3015308669228,1459
1887.268189979819,1537
1889.2343626932739,1493
1891.2000492711595,1546
1893.1652499774254,1507
1895.1299650761011,1477
1897.0941948312952,1513
1899.0579395071945,1496
1901.0211993680641,1479
1902.98397467825,1496
1904.9462657021745,1461
1906.9080727043415,1499
1908.869395949332,1473
1910.8302357018065,1481
1912.790592226504,1488
1914.7504657882428,1468
1916.7098566519212,1468
1918.6687650825133,1540
1920.6271913450764,1507
1922.5851357047422,1459
1924.5425984267245,1477
1926.499579776314,1594
1928.4560800188833,1552
1930.4120994198802,1515
1932.367638244833,1524
1934.32269675935,1525
1936.2772752291175,1429
1938.231373919899,1479
1940.1849930975404,1512
1942.1381330279637,1483
1944.0907939771696,1482
1946.0429762112412,1474
1947.9946799963363,1521
1949.9459055986945,1432
1951.896653284633,1517
1953.8469233205478,1496
1955.7967159729142,1419
1957.7460315082863,1501
1959.6948701932974,1428
1961.6432322946594,1421
1963.5911180791632,1422
1965.5385278136787,1493
1967.4854617651545,1465
1969.4319202006182,1486
1971.377903387176,1432
1973.3234115920136,1506
1975.268445082395,1521
1977.2130041256642,1510
1979.1570889892423,1399
1981.1006999406304,1487
1983.04383724741,1502
1984.986501177238,1512
1986.928691997853,1494
1988.8704099770712,1492
1990.811655382789,1467
1992.7524284829801,1487
1994.692729545698,1510
1996.6325588390755,1480
1998.5719166313224,1482
2000.5108031907307,1489
2002.4492187856677,1419
2004.387163684583,1474
2006.3246381560011,1492
2008.2616424685298,1490
2010.1981768908527,1484
2012.1342416917332,1534
2014.069837140014,1468
2016.0049635046162,1439
2017.9396210545406,1458
2019.8738100588666,1516
2021.8075307867502,1451
2023.740783507431,1421
2025.6735684902228,1436
2027.6058860045214,1451
2029.5377363198004,1440
2031.4691197056118,1471
2033.4000364315875,1504
2035.3304867674374,1448
2037.260470982952,1460
2039.189989347998,1444
2041.1190421325232,1477
2043.047629606554,1470
2044.9757520401945,1478
2046.9034097036288,1407
2048.8306028671195,1461
2050.7573318010086,1439
2052.683596775716,1430
2054.609398061742,1388
2056.5347359296647,1429
2058.4596106501403,1413
2060.384022493906,1354
2062.3079717317764,1425
2064.231458634646,1470
2066.1544834734873,1420
2068.077046519352,1417
2069.99914804337,1408
2071.9207883167524,1422
2073.8419676107865,1438
2075.7626861968406,1523
2077.6829443463607,1445
2079.6027423308715,1465
2081.522080421977,1448
2083.440958891362,1505
2085.359378010786,1439
2087.2773380520907,1418
2089.194839287196,1442
2091.111881988101,1442
2093.0284664268825,1421
2094.9445928756973,1385
2096.86026160678,1456
2098.775472892446,1466
2100.690227005088,1511
2102.604524217178,1532
2104.5183648012676,1439
2106.431749029985,1474
2108.34467717604,1443
2110.2571495122206,1434
2112.169166311393,1426
2114.080727846503,1446
2115.9918343905747,1455
2117.902486216711,1528
2119.8126835980956,1481
2121.722426807987,1493
2123.6317161197285,1507
2125.5405518067364,1433
2127.448934142509,1426
2129.356863400624,1446
2131.264339854737,1494
2133.1713637785815,1490
2135.077935445972,1484
2136.9840551308002,1484
2138.889723107037,1483
2140.7949396487334,1551
2142.699705030018,1466
2144.6040195250994,1457
2146.507883408264,1506
2148.4112969538774,1464
2150.3142604363848,1513
2152.2167741303097,1556
2154.1188383102535,1507
2156.0204532508997,1524
2157.9216192270064,1488
2159.822336513414,1521
2161.7226053850413,1505
2163.622426116884,1486
2165.5217989840185,1532
2167.4207242616,1508
2169.319202224862,1496
2171.2172331491165,1550
2173.1148173097563,1568
2175.0119549822507,1525
2176.90864644215,1565
2178.8048919650823,1534
2180.7006918267534,1502
2182.596046302952,1578
2184.4909556695407,1518
2186.3854202024645,1510
2188.279440177746,1501
2190.173015871487,1564
2192.066147559868,1491
2193.958835519149,1471
2195.851080025667,1577
2197.7428813558417,1595
2199.6342397861667,1519
2201.5251555932186,1542
2203.415629053651,1581
2205.3056604441986,1511
2207.19525004167,1548
2209.084398122958,1544
2210.9731049650327,1581
2212.861370844941,1594
2214.749196039812,1597
2216.636580826851,1618
2218.523525483344,1598
2220.410030286655,1513
2222.296095514226,1564
2224.1817214435805,1569
2226.066908352319,1552
2227.951656518121,1512
2229.835966218746,1621
2231.71983773203,1594
2233.6032713358913,1608
2235.486267308324,1600
2237.3688259274036,1615
2239.2509474712824,1578
2241.132632218193,1532
2243.013880446447,1568
2244.8946924344323,1601
2246.7750684606203,1551
2248.6550088035574,1593
2250.534513741871,1598
2252.413583554265,1597
2254.292218519526,1608
2256.170418916517,1612
2258.0481850241786,1607
2259.925517121534,1572
2261.8024154876825,1576
2263.678880401803,1620
2265.5549121431536,1628
2267.430510991071,1559
2269.305677224971,1560
2271.180411124348,1483
2273.0547129687766,1524
2274.9285830379076,1540
2276.8020216114737,1608
2278.6750289692845,1526
2280.5476053912294,1564
2282.4197511572766,1637
2284.2914665474727,1606
2286.162751841943,1612
2288.0336073208937,1603
2289.904033264608,1639
2291.774029953448,1654
2293.6435976678554,1646
2295.5127366883517,1575
2297.381447295534,1497
2299.2497297700825,1556
2301.1175843927526,1471
2302.9850114443825,1438
2304.852011205885,1358
2306.7185839582553,1415
2308.5847299825664,1362
2310.4504495599676,1331
2312.3157429716925,1276
2314.1806104990483,1299
2316.0450524234247,1353
2317.9090690262888,1307
2319.772660589186,1312
2321.635827393742,1336
2323.498569721661,1309
2325.3608878547248,1290
2327.2227820747967,1282
2329.0842526638157,1316
2330.945299903803,1296
2332.805924076857,1321
2334.6661254651535,1274
2336.525904350951,1282
2338.3852610165827,1261
2340.244195744464,1318
2342.102708817088,1272
2343.9608005170253,1300
2345.8184711269287,1228
2347.675720929526,1309
2349.532550207628,1330
2351.38895924412,1313
2353.24494832197,1343
2355.100517724223,1329
2356.955667734004,1291
2358.810398634514,1303
2360.664710709037,1363
2362.5186042409337,1276
2364.3720795136437,1312
2366.225136810686,1356
2368.0777764156583,1285
2369.929998612237,1375
2371.7818036841777,1299
2373.633191915315,1303
2375.484163589562,1306
2377.3347189909114,1351
2379.184858403434,1319
2381.03458211128,1263
2382.8838903986775,1299
2384.732783549936,1302
2386.5812618494406,1321
2388.4293255816588,1324
2390.2769750311327,1308
2392.1242104824883,1344
2393.971032220427,1276
2395.8174405297295,1330
2397.6634356952563,1316
2399.509018001947,1311
2401.3541877348193,1336
2403.1989451789705,1319
2405.043290619576,1352
2406.8872243418905,1305
2408.730746631247,1316
2410.5738577730594,1299
2412.4165580528183,1331
2414.258847756095,1326
2416.100727168537,1291
2417.9421965758734,1335
2419.783256263912,1289
2421.623906518538,1353
2423.4641476257157,1292
2425.303979871491,1351
2427.143403541984,1288
2428.9824189233977,1320
2430.821026302012,1376
2432.6592259641866,1332
2434.497018196361,1329
2436.33440328505,1332
2438.171381516851,1323
2440.00795317844,1380
2441.844118556569,1362
2443.6798779380724,1382
2445.5152316098606,1321
2447.3501798589255,1344
2449.1847229723357,1343
2451.0188612372403,1342
2452.8525949408663,1285
2454.6859243705203,1330
2456.518849813587,1348
2458.3513715575314,1270
2460.183489889895,1346
2462.015205098301,1324
2463.8465174704493,1325
2465.67742729412,1307
2467.5079348571717,1379
2469.338040447542,1304
2471.1677443532476,1355
2472.9970468623833,1333
2474.825948263123,1322
2476.6544488437207,1320
2478.482548892508,1364
2480.310248697896,1297
2482.137548548374,1400
2483.9644487325118,1302
2485.790949538956,1346
2487.617051256433,1385
2489.44275417375,1327
2491.26805857979,1350
2493.0929647635157,1329
2494.917473013971,1362
2496.741583620276,1375
2498.5652968716304,1413
2500.3886130573137,1333
2502.2115324666834,1406
2504.0340553891765,1316
2505.856182114308,1317
2507.6779129316733,1376
2509.499248130945,1358
2511.3201880018764,1348
2513.140732834298,1419
2514.9608829181198,1365
2516.780638543331,1380
2518.6,1356
2520.418967578273,1341
2522.237541568376,1370
2524.0557222606144,1349
2525.8735099453706,1314
2527.6909049131086,1359
2529.507907454368,1330
2531.32451785977,1359
2533.140736420014,1367
2534.9565634258774,1373
2536.771999168218,1448
2538.5870439379714,1342
2540.4016980261526,1470
2542.2159617238544,1394
2544.02983532225,1397
2545.8433191125914,1399
2547.656413386209,1393
2549.4691184345115,1413
2551.2814345489874,1414
2553.093362021204,1460
2554.904901142808,1430
2556.716052205523,1404
2558.526815501153,1415
2560.3371913215824,1456
2562.147179958771,1496
2563.956781704761,1482
2565.7659968516705,1496
2567.5748256916986,1511
2569.3832685171224,1474
2571.1913256202984,1581
2572.9989972936614,1586
2574.806283829725,1488
2576.613185521084,1586
2578.4197026604074,1480
2580.2258355404483,1498
2582.031584454035,1504
2583.836949694077,1521
2585.6419315535613,1469
2587.4465303255533,1498
2589.2507463032002,1544
2591.0545797797245,1534
2592.8580310484303,1543
2594.6611004026995,1553
2596.463788135992,1515
2598.266094541849,1491
2600.0680199138874,1465
2601.869564545807,1480
2603.670728731383,1492
2605.4715127644704,1506
2607.2719169390048,1571
2609.071941548998,1584
2610.8715868885433,1513
2612.670853251811,1546
2614.469740933052,1482
2616.268250226594,1526
2618.0663814268455,1523
2619.864134828292,1473
2621.6615107255006,1468
2623.458509413115,1486
2625.2551311858597,1434
2627.0513763385347,1480
2628.8472451660223,1514
2630.6427379632833,1460
2632.4378550253564,1562
2634.232596647359,1492
2636.026963124488,1419
2637.8209547520187,1446
2639.6145718253065,1444
2641.407814639785,1461
2643.200683490966,1502
2644.9931786744414,1463
2646.7853004858807,1436
2648.577049221034,1403
2650.3684251757277,1443
2652.1594286458712,1455
2653.9500599274484,1428
2655.740319316525,1405
2657.5302071092437,1395
2659.3197236018286,1363
2661.10886909058,1441
2662.8976438718782,1385
2664.686048242183,1354
2666.4740824980327,1417
2668.2617469360443,1389
2670.0490418529134,1398
2671.8359675454153,1380
2673.622524310403,1384
2675.408712444811,1389
2677.1945322456495,1345
2678.979984010009,1361
2680.76506803506,1385
2682.5497846180497,1390
2684.334134056306,1364
2686.1181166472343,1327
2687.9017326883213,1334
2689.6849824771293,1386
2691.4678663113013,1312
2693.2503844885596,1378
2695.032537306705,1311
2696.8143250636167,1323
2698.5957480572542,1340
2700.3768065856534,1370
2702.1575009469316,1304
2703.937831439283,1327
2705.717798360982,1256
2707.4974020103837,1309
2709.276642685917,1361
2711.055520686095,1344
2712.834036309506,1344
2714.612189854819,1276
2716.389981620782,1328
2718.1674119062204,1295
2719.944481010041,1322
2721.721189231226,1270
2723.4975368688415,1337
2725.273524222027,1278
2727.0491515900053,1339
2728.824419272075,1304
2730.5993275676146,1268
2732.3738767760838,1332
2734.148067197016,1316
2735.921899130031,1312
2737.6953728748194,1339
2739.468488731156,1307
2741.2412469988926,1260
2743.0136479779617,1283
2744.785691968372,1338
2746.5573792702116,1338
2748.3287101836504,1289
2750.099685008934,1327
2751.870304046388,1322
2753.640567596418,1309
2755.4104759595057,1286
2757.1800294362156,1308
2758.949228327187,1314
2760.7180729331412,1257
2762.486563554877,1333
2764.254700493272,1322
2766.022484049284,1308
2767.789914523947,1284
2769.5569922183786,1313
2771.3237174337705,1342
2773.090090471394,1280
2774.8561116326036,1273
2776.6217812188274,1277
2778.3870995315756,1341
2780.1520668724356,1314
2781.9166835430747,1301
2783.6809498452394,1330
2785.444866080754,1295
2787.2084325515225,1265
2788.971649559527,1267
2790.73451740683,1288
2792.4970363955713,1346
2794.2592068279705,1339
2796.0210290063264,1309
2797.7825032330147,1345
2799.543629810493,1354
2801.304409041296,1302
2803.0648412280366,1255
2804.8249266734088,1293
2806.5846656801846,1309
2808.344058551212,1344
2810.1031055894246,1351
2811.8618070978273,1329
2813.6201633795085,1342
2815.378174737636,1394
2817.1358414754536,1330
2818.893163896285,1313
2820.6501423035334,1319
2822.4067770006814,1297
2824.1630682912883,1333
2825.9190164789957,1284
2827.6746218675207,1307
2829.429884760661,1258
2831.184805462294,1301
2832.9393842763743,1337
2834.693621506936,1330
2836.4475174580916,1288
2838.201072434034,1310
2839.954286739034,1319
2841.707160677441,1350
2843.459694553685,1280
2845.2118886722724,1314
2846.96374333779,1305
2848.7152588549034,1329
2850.4664355283567,1312
2852.217273662973,1297
2853.9677735636546,1316
2855.7179355353833,1338
2857.4677598832186,1342
2859.217246912299,1310
2860.9663969278427,1278
2862.715210235146,1326
2864.4636871395846,1264
2866.211827946614,1356
2867.9596329617652,1378
2869.7071024906536,1275
2871.4542368389684,1353
2873.20103631248,1336
2874.947501217038,1318
2876.6936318585695,1296
2878.4394285430812,1372
2880.1848915766604,1323
2881.9300212654707,1353
2883.6748179157553,1325
2885.4192818338374,1305
2887.1634133261173,1251
2888.907212699077,1279
2890.6506802592744,1309
2892.393816313348,1310
2894.1366211680142,1347
2895.8790951300693,1345
2897.621238506388,1307
2899.363051603925,1321
2901.1045347297118,1288
2902.8456881908596,1362
2904.58651229456,1366
2906.327007348081,1352
2908.067173658772,1298
2909.8070115340597,1311
2911.5465212814497,1280
2913.285703208527,1348
2915.0245576229563,1317
2916.7630848324807,1356
2918.5012851449196,1300
2920.2391588681758,1304
2921.976706310227,1253
2923.7139277791334,1270
2925.4508235830313,1296
2927.187394030137,1268
2928.923639428745,1347
2930.6595600872306,1327
2932.395156314046,1336
2934.1304284177218,1302
2935.8653767068713,1376
2937.6000014901815,1280
2939.3343030764227,1285
2941.068281774442,1304
2942.8019378931644,1291
2944.5352717415976,1364
2946.2682836288236,1299
2948.0009738640065,1323
2949.7333427563885,1333
2951.465390615289,1318
2953.1971177501086,1280
2954.9285244703265,1355
2956.6596110855,1276
2958.3903779052657,1320
2960.1208252393385,1368
2961.8509533975125,1336
2963.5807626896617,1279
2965.3102534257378,1281
2967.0394259157715,1281
2968.768280469873,1314
2970.496817398232,1236
2972.2250370111146,1298
2973.952939618869,1295
2975.6805255319196,1380
2977.4077950607707,1322
2979.134748516006,1380
2980.861386208289,1317
2982.587708448359,1308
2984.313715547037,1327
2986.039407815222,1311
2987.764785563891,1330
2989.489849104102,1304
2991.2145987469908,1211
2992.9390348037705,1300
2994.6631575857346,1311
2996.3869674042576,1325
2998.1104645707887,1288
2999.83364939686,1300
3001.5565221940783,1329
3003.2790832741334,1278
3005.0013329487924,1234
3006.7232715298996,1269
3008.4448993293804,1298
3010.166216659239,1306
3011.887223831558,1316
3013.607921158498,1286
3015.3283089522993,1312
3017.0483875252826,1285
3018.7681571898443,1359
3020.4876182584626,1343
3022.2067710436927,1320
3023.9256158581707,1343
3025.644153014609,1344
3027.362382825801,1288
3029.0803056046193,1292
3030.797921664012,1271
3032.5152313170106,1285
3034.2322348767225,1284
3035.9489326563353,1274
3037.665324969115,1291
3039.3814121284063,1315
3041.097194447633,1319
3042.812672240299,1346
3044.5278458199855,1325
3046.2427155003525,1288
3047.9572815951406,1342
3049.671544418167,1286
3051.38550428333,1268
3053.0991615046073,1253
3054.812516396051,1320
3056.5255692717974,1284
3058.2383204460575,1205
3059.9507702331257,1315
3061.662918947372,1281
3063.3747669032446,1322
3065.0863144152736,1306
3066.7975617980674,1300
3068.508509366309,1294
3070.219157434767,1327
3071.9295063182844,1305
3073.639556331785,1320
3075.3493077902704,1255
3077.058761008821,1285
3078.7679163025964,1279
3080.476773986837,1287
3082.1853343768594,1301
3083.89359778806,1314
3085.6015645359153,1287
3087.3092349359786,1289
3089.016609303884,1306
3090.7236879553434,1260
3092.4304712061476,1282
3094.136959372166,1241
3095.843152769349,1283
3097.5490517137237,1235
3099.2546565213966,1260
3100.959967508554,1293
3102.66498499146,1259
3104.3697092864577,1318
3106.0741407099695,1273
3107.778279578498,1289
3109.482126208622,1271
3111.1856809170004,1341
3112.8889440203716,1223
3114.5919158355528,1283
3116.294596679439,1319
3117.996986869006,1340
3119.6990867213062,1305
3121.4008965534726,1274
3123.102416682717,1285
3124.803647426329,1297
3126.5045891016784,1332
3128.205242026213,1335
3129.90560651746,1289
3131.605682893025,1274
3133.3054714705922,1272
3135.0049725679282,1373
3136.7041865028714,1265
3138.4031135933465,1277
3140.101754157353,1291
3141.800108512971,1282
3143.498176978357,1322
3145.1959598717494,1268
3146.8934575114636,1317
3148.5906702158954,1294
3150.2875983035183,1252
3151.9842420928853,1237
3153.680601902627,1312
3155.376678051456,1309
3157.07247085816,1316
3158.767980641609,1265
3160.463207720748,1307
3162.158152414606,1264
3163.8528150422862,1310
3165.5471959229726,1296
3167.2412953759303,1289
3168.9351137204976,1291
3170.628651276098,1282
3172.3219083622307,1314
3174.014885298474,1280
3175.707582404485,1249
3177.4000000000005,1281
3179.092138404835,1291
3180.7839979388846,1291
3182.47557892212,1283
3184.166881674594,1313
3185.8579065164386,1272
3187.5486537678626,1284
3189.2391237491547,1242
3190.9293167806827,1275
3192.6192331828934,1260
3194.3088732763117,1236
3195.998237381542,1294
3197.687325819268,1277
3199.376138910251,1257
3201.064676975334,1259
3202.7529403354347,1266
3204.4409293115523,1261
3206.1286442247647,1291
3207.816085396229,1265
3209.5032531471825,1283
3211.190147798936,1296
3212.8767696728846,1251
3214.5631190905015,1257
3216.2491963733373,1267
3217.9350018430214,1180
3219.6205358212637,1258
3221.305798629851,1189
3222.990790590651,1271
3224.6755120256103,1245
3226.359963256751,1178
3228.0441446061795,1265
3229.7280563960758,1260
3231.411698948703,1273
3233.0950725863995,1283
3234.778177631587,1295
3236.461014406761,1216
3238.1435832345005,1358
3239.8258844374595,1296
3241.507918338374,1307
3243.1896852600576,1236
3244.8711855254023,1273
3246.552419457381,1232
3248.233387379042,1269
3249.914089613516,1285
3251.59452648401,1302
3253.274698313813,1260
3254.95460542629,1260
3256.6342481448855,1235
3258.313626793125,1268
3259.9927416946084,1223
3261.6715931730196,1282
3263.3501815521176,1259
3265.0285071557437,1206
3266.706570307815,1241
3268.3843713323286,1225
3270.0619105533615,1232
3271.739188295068,1294
3273.4162048816834,1294
3275.0929606375184,1286
3276.769455886966,1268
3278.445690954498,1285
3280.1216661646613,1274
3281.797381842087,1272
3283.4728383114807,1272
3285.1480358976296,1258
3286.8229749253996,1293
3288.4976557197333,1308
3290.172078605655,1300
3291.846243908266,1270
3293.5201519527463,1304
3295.193803064357,1308
3296.8671975684374,1252
3298.5403357904024,1261
3300.21321805575,1248
3301.8858446900567,1264
3303.558216018975,1295
3305.23033236824,1311
3306.9021940636603,1299
3308.57380143113,1250
3310.2451547966184,1298
3311.916254486174,1340
3313.5871008259246,1346
3315.2576941420766,1326
3316.9280347609147,1276
3318.5981230088046,1300
3320.2679592121895,1240
3321.9375436975924,1274
3323.606876791612,1233
3325.27595882093,1199
3326.944790112305,1272
3328.6133709925753,1221
3330.2817017886573,1274
3331.949782827547,1246
3333.617614436319,1332
3335.2851969421245,1274
3336.952530672199,1279
3338.619615953853,1293
3340.286453114475,1237
3341.9530424815357,1222
3343.619384382583,1271
3345.2854791452437,1304
3346.951327097224,1253
3348.6169285663073,1256
3350.2822838803577,1252
3351.947393367319,1248
3353.61225735521,1269
3355.2768761721345,1224
3356.9412501462693,1256
3358.605379605873,1217
3360.2692648792827,1308
3361.9329062949146,1243
3363.596304181263,1229
