CollectionTime,9/25/2024 12:01:14 PM
ExposureUsed,3
CalibratedSpectrum
-962.7078968117929,540
-959.9714848408522,565
-957.2358232597828,626
-954.5009119013725,623
-951.7667505983302,585
-949.0333391832855,605
-946.3006774887896,656
-943.5687653473143,640
-940.837602591253,623
-938.1071890529199,656
-935.3775245645503,599
-932.6486089583007,624
-929.9204420662485,587
-927.1930237203925,648
-924.4663537526524,643
-921.7404319948689,650
-919.0152582788041,636
-916.2908324361409,617
-913.5671542984834,651
-910.8442236973568,619
-908.1220404642074,606
-905.4006044304027,599
-902.679915427231,608
-899.959973285902,598
-897.2407778375464,597
-894.5223289132158,602
-891.8046263438832,621
-889.0876699604426,596
-886.3714595937089,578
-883.6559950744183,588
-880.9412762332282,596
-878.2273029007168,574
-875.5140749073835,620
-872.8015920836489,575
-870.0898542598545,578
-867.3788612662631,582
-864.6686129330585,610
-861.9591090903457,596
-859.2503495681506,616
-856.5423341964203,578
-853.8350628050229,575
-851.1285352237478,608
-848.4227512823054,579
-845.7177108103272,598
-843.0134136373656,571
-840.3098595928943,602
-837.6070485063082,603
-834.9049802069229,620
-832.2036545239757,617
-829.5030712866244,600
-826.8032303239481,622
-824.1041314649472,615
-821.4057745385428,596
-818.7081593735775,602
-816.0112857988148,599
-813.3151536429393,620
-810.6197627345566,599
-807.9251129021936,576
-805.2312039742981,596
-802.5380357792392,610
-799.8456081453069,639
-797.1539209007124,630
-794.462973873588,599
-791.772766891987,624
-789.083299783884,628
-786.3945723771743,635
-783.7065844996748,661
-781.0193359791231,602
-778.3328266431781,639
-775.6470563194197,632
-772.9620248353489,584
-770.2777320183878,619
-767.5941776958798,623
-764.9113616950891,606
-762.2292838432011,616
-759.5479439673222,636
-756.8673418944801,611
-754.1874774516235,659
-751.5083504656222,612
-748.8299607632671,589
-746.15230817127,619
-743.475392516264,647
-740.7992136248035,619
-738.1237713233636,577
-735.4490654383407,628
-732.7750957960521,642
-730.1018622227365,642
-727.4293645445534,626
-724.7576025875837,672
-722.0865761778291,651
-719.4162851412126,660
-716.7467293035781,635
-714.0779084906909,642
-711.409822528237,662
-708.7424712418238,655
-706.0758544569796,649
-703.4099719991541,679
-700.7448236937178,703
-698.0804093659622,687
-695.4167288411002,701
-692.7537819442656,669
-690.0915685005134,674
-687.4300883348199,690
-684.7693412720819,691
-682.1093271371178,703
-679.4500457546669,716
-676.7914969493897,682
-674.1336805458676,669
-671.4765963686034,693
-668.8202442420206,687
-666.1646239904642,679
-663.5097354382001,731
-660.8555784094151,683
-658.2021527282176,699
-655.5494582186366,683
-652.8974947046223,723
-650.2462620100463,753
-647.5957599587009,703
-644.9459883742998,692
-642.2969470804776,761
-639.6486359007902,734
-637.0010546587141,721
-634.3542031776476,750
-631.7080812809096,707
-629.0626887917401,734
-626.4180255333008,656
-623.7740913286734,710
-621.1308860008619,748
-618.4884093727904,683
-615.8466612673046,730
-613.2056415071715,698
-610.5653499150785,699
-607.9257863136347,705
-605.28695052537,722
-602.6488423727357,718
-600.0114616781036,716
-597.3748082637674,734
-594.7388819519412,707
-592.1036825647604,742
-589.4692099242818,696
-586.8354638524829,735
-584.2024441712624,746
-581.5701507024403,759
-578.9385832677575,725
-576.3077416888759,795
-573.6776257873787,746
-571.0482353847704,721
-568.4195703024757,712
-565.7916303618415,707
-563.164415384135,732
-560.5379251905453,747
-557.9121596021815,774
-555.2871184400748,734
-552.6628015251767,713
-550.0392086783606,754
-547.4163397204204,770
-544.794194472071,788
-542.1727727539491,752
-539.5520743866118,756
-536.9320991905377,768
-534.3128469861261,819
-531.6943175936979,815
-529.0765108334947,812
-526.4594265256793,881
-523.8430644903358,1044
-521.2274245474689,1191
-518.612506517005,1197
-515.9983102187913,1213
-513.3848354725959,1270
-510.77208209810846,1274
-508.16004991493924,1476
-505.5487387426199,1595
-502.9381484006032,1543
-500.3282787082628,1593
-497.71912948489364,1539
-495.1107005497117,1339
-492.5029917218539,1234
-489.8960028203786,1136
-487.28973366426493,997
-484.68418407241325,993
-482.07935386364494,964
-479.47524285670266,911
-476.87185087025,920
-474.2691777228715,888
-471.66722323307334,989
-469.0659872192821,969
-466.4654694998459,954
-463.86566989303384,952
-461.26658821703614,919
-458.66822428996414,949
-456.07057792985,892
-453.4736489546475,923
-450.877437182231,932
-448.28194243039627,903
-445.68716451686,879
-443.09310325926003,853
-440.49975847515555,868
-437.9071299820263,846
-435.31521759727354,891
-432.72402113821954,926
-430.13354042210767,982
-427.5437752661022,887
-424.95472548728867,928
-422.36639090267386,937
-419.7787713291855,949
-417.1918665836721,944
-414.60567648290385,989
-412.0202008435715,982
-409.4354394822874,948
-406.8513922155845,966
-404.26805885991723,1026
-401.685439231661,1001
-399.103533147112,1005
-396.522340422488,941
-393.9418608739278,936
-391.3620943174908,930
-388.7830405691583,967
-386.2046994448317,909
-383.6270707603344,904
-381.05015433141045,849
-378.473949973725,820
-375.8984575028645,746
-373.32367673433623,697
-370.74960748356875,624
-368.1762495659117,625
-365.60360279663576,600
-363.03166699093265,568
-360.4604419639154,540
-357.8899275306178,513
-355.32012350599507,487
-352.7510297049233,489
-350.1826459421999,493
-347.61497203254316,465
-345.04800779059235,457
-342.4817530309082,446
-339.91620756797226,454
-337.35137121618743,471
-334.7872437898774,469
-332.22382510328725,490
-329.66111497058273,571
-327.09911320585127,596
-324.53781962310075,529
-321.9772340362607,487
-319.4173562591816,452
-316.8581861056348,471
-314.2997233893127,467
-311.7419679238294,494
-309.1849195227194,522
-306.62857799943856,502
-304.0729431673641,461
-301.51801483979375,491
-298.963792829947,524
-296.41027695096386,513
-293.85746701590574,568
-291.3053628377552,550
-288.7539642294155,536
-286.2032710037115,612
-283.65328297338897,588
-281.1039999511146,587
-278.5554217494762,624
-276.007548180983,588
-273.4603790580651,608
-270.9139141930734,664
-268.3681533982807,677
-265.8230964858798,634
-263.27874326798565,554
-260.7350935566336,571
-258.1921471637804,649
-255.6499039013039,643
-253.10836358100266,655
-250.56752601459698,631
-248.02739101372765,647
-245.48795838995704,763
-242.94922795476816,705
-240.41119951956557,701
-237.8738728956746,773
-235.33724789434166,819
-232.80132432673452,702
-230.2661020039418,649
-227.73158073697357,669
-225.19776033676033,675
-222.66464061415422,779
-220.1322213799284,743
-217.60050244477725,727
-215.06948361931552,749
-212.53916471408013,820
-210.00954553952818,842
-207.48062590603843,785
-204.9524056239104,711
-202.4248845033651,771
-199.8980623545441,859
-197.37193898751036,886
-194.84651421224817,792
-192.32178783866232,721
-189.79775967657952,829
-187.27442953574644,940
-184.7517972258321,932
-182.2298625564256,796
-179.7086253370378,687
-177.18808537710026,865
-174.66824248596583,1026
-172.14909647290835,1051
-169.6306471471229,999
-167.11289431772548,889
-164.59583779375328,925
-162.07947738416453,1074
-159.5638128978386,1276
-157.04884414357605,1343
-154.53457093009854,1299
-152.02099306604828,1094
-149.50811035998936,995
-146.99592262040665,1071
-144.48442965570587,1099
-141.97363127421409,1336
-139.46352728417958,1382
-136.95411749377126,1350
-134.44540171107985,1320
-131.93737974411636,1262
-129.43005140081357,1140
-126.92341648902493,1556
-124.41747481652521,1907
-121.91222619101006,2203
-119.40767042009657,2883
-116.90380731132257,2907
-114.40063667214702,2798
-111.8981583099503,2367
-109.3963720320337,2303
-106.89527764561933,2714
-104.39487495785067,3596
-101.89516377579241,4691
-99.39614390642998,5960
-96.89781515667039,6950
-94.40017733334128,7795
-91.90323024319173,6085
-89.40697369289148,4025
-86.91140748903172,3266
-84.41653143812482,3253
-81.92234534660395,3752
-79.42884902082358,4987
-76.93604226705907,5298
-74.4439248915071,4765
-71.95249670028534,4551
-69.46175749943245,4958
-66.97170709490854,6183
-64.48234529259423,8104
-61.99367189829195,10602
-59.50568671772464,14509
-57.01838955653636,17344
-54.53178022029283,21675
-52.045858514480074,22131
-49.560624244506016,19434
-47.07607721569923,17558
-44.59221723330904,15630
-42.10904410250669,13571
-39.62655762838392,14105
-37.14475761595372,17551
-34.66364387015028,20503
-32.18321619582866,24625
-29.70347439776515,25855
-27.224418280657005,25638
-24.74604764912317,28960
-22.26836230770266,42869
-19.7913620608565,65039
-17.315046712966478,65039
-14.83941606833514,65039
-12.36446993118659,65039
-9.89020810566592,65039
-7.416630395839093,65039
-4.94373660569363,65039
-2.471526539137585,65039
-6.821210263296962E-13,65039
2.47084320796705,65039
4.941003281093458,65039
7.410480415786196,65039
9.879274808531363,65039
12.347386655893956,65039
14.814816154518212,65039
17.28156350112681,65039
19.74762889252179,65039
22.21301252558385,23967
24.67771459727237,4858
27.141735304626195,3348
29.605074844762612,3081
32.06773341487792,2811
34.52971121224755,2933
36.99100843422559,2703
39.45162527824516,3216
41.91156194181792,2914
44.370818622535126,2591
46.82939551806646,2331
49.287292826160524,2467
51.74451074464503,2543
54.201049471426245,2120
56.65690920448981,2781
59.112090141899785,3048
61.56659248179983,3203
64.02041642241159,2242
66.4735621620365,1600
68.92602989905402,1818
71.37781983192338,2078
73.82893215918205,1862
76.27936707944684,1713
78.72912479141326,1570
81.17820549385567,1647
83.62660938562783,1495
86.07433666566146,1177
88.5213875329681,1371
90.96776218663751,1829
93.41346082583925,1820
95.85848364982041,1638
98.30283085790859,1349
100.7465026495089,1295
103.18949922410604,1405
105.63182078126385,1422
108.07346752062438,1676
110.51443964190923,1543
112.95473734491827,1338
115.39436082953114,1127
117.83331029570547,1248
120.27158594347827,1480
122.7091879729652,1617
125.1461165843615,1635
127.58237197794062,1316
130.01795435405518,1143
132.4528639131364,984
134.88710085569494,991
137.32066538231982,1272
139.75355769367923,1109
142.1857779905207,1010
144.61732647366978,1071
147.04820334403132,1072
149.47840880258934,999
151.90794305040674,1037
154.33680628862487,1067
156.76499871846443,1265
159.19252054122433,1398
161.61937195828352,1571
164.04555317109896,1629
166.47106438120693,1797
168.89590579022217,2095
171.320077599839,2192
173.7435800118302,2172
176.16641322804742,2271
178.58857745042144,2421
181.01007288096173,2301
183.43089972175687,2499
185.85105817497413,2633
188.27054844285988,2396
190.6893707277394,2436
193.10752523201643,2523
195.5250121581745,2517
197.9418317087751,2539
200.3579840864594,2397
202.7734694939469,2567
205.18828813403627,2603
207.6024402096051,2841
210.01592592360964,2743
212.42874547908548,2724
214.84089907914665,2681
217.2523869269868,2640
219.66320922587727,2693
222.0733661791695,2722
224.48285799029293,2718
226.8916848627572,2677
229.29984700014882,2734
231.7073446061355,2842
234.11417788446204,2804
236.520347038953,2920
238.92585227351185,2853
241.33069379212054,2947
243.73487179884035,3002
246.1383864978112,3121
248.541238093252,3093
250.9434267894609,3180
253.34495279081432,3278
255.74581630176783,3275
258.1460175268563,3263
260.54555667069314,3329
262.9444339379703,3339
265.3426495334594,3262
267.7402036620107,3008
270.1370965285529,2998
272.53332833809407,2886
274.9288992957214,2814
277.32380960660055,2660
279.718059475976,2550
282.1116491091717,2510
284.5045787115897,2511
286.89684848871195,2574
289.2884586460981,2536
291.67940938938807,2590
294.0697009242996,2493
296.4593334566299,2594
298.84830719225477,2515
301.23662233712923,2465
303.6242790972866,2456
306.01127767884,2356
308.39761828798066,2432
310.78330113097934,2382
313.16832641418534,2281
315.5526943440269,2210
317.9364051270112,2296
320.3194589697242,2237
322.70185607883093,2236
325.0835966610754,2200
327.4646809232805,2113
329.8451090723478,2159
332.2248813152577,2063
334.6039978590701,2013
336.9824589109231,2134
339.36026467803447,2113
341.7374153677,2026
344.113911187295,2057
346.48975234427337,2025
348.8649390461686,1992
351.2394715005918,2033
353.61334991523415,2052
355.9865744978655,1994
358.35914545633375,2013
360.73106299856715,2102
363.10232733257146,1973
365.47293866643247,2039
367.84289720831396,2025
370.2122031664593,1955
372.5808567491905,1954
374.9488581649083,1964
377.31620762209275,1929
379.6829053293021,1923
382.0489514951745,1883
384.4143463284262,1903
386.7790900378528,1876
389.14318283232853,1893
391.50662492080653,1886
393.86941651231916,1944
396.23155781597745,1970
398.5930490409713,2026
400.9538903965696,1968
403.3140820921202,1932
405.6736243370498,1910
408.03251734086336,1876
410.3907613131465,1849
412.74835646356166,1850
415.10530300185144,1787
417.4616011378372,1918
419.81725108141893,1803
422.1722530425758,1784
424.5266072313656,1862
426.880313857925,1809
429.2333731324701,1894
431.58578526529516,1831
433.9375504667738,1810
436.2886689473588,1845
438.63914091758113,1821
440.9889665880513,1810
443.33814616945835,1801
445.68667987257015,1801
448.03456790823395,1763
450.3818104873759,1833
452.72840782100013,1790
455.07436012019105,1803
457.41966759611057,1761
459.7643304600007,1764
462.10834892318155,1801
464.4517231970525,1781
466.79445349309174,1818
469.1365400228566,1726
471.4779829979826,1816
473.81878263018564,1901
476.15893913125876,1821
478.4984527130747,1799
480.8373235875855,1870
483.17555196682144,1920
485.5131380628919,1955
487.8500820879857,2029
490.1863842543697,2111
492.52204477439034,2197
494.8570638604725,2350
497.1914417251204,2510
499.52517858091653,2762
501.85827464052306,3092
504.19073011668036,3374
506.5225452222086,3377
508.85372017000566,3400
511.18425517304956,3370
513.514150444396,3478
515.8434061971808,4264
518.1720226446176,5227
520.4999999999999,5322
522.8273384766991,5148
525.1540382881666,4688
527.480099647932,4065
529.8055227696037,3328
532.1303078668694,2585
534.454455153496,2154
536.777964843328,2022
539.1008371502907,1938
541.4230722883866,1881
543.744670471698,1907
546.0656319143858,1863
548.3859568306899,1779
550.7056454349294,1679
553.0246979415016,1744
555.3431145648834,1740
557.6608955196306,1811
559.978041020377,1705
562.2945512818363,1761
564.6104265188006,1746
566.9256669461412,1841
569.2402727788082,1818
571.5542442318302,1811
573.8675815203156,1873
576.1802848594508,1840
578.4923544645015,1825
580.8037905508126,1840
583.114593333807,1800
585.4247630289875,1793
587.7342998519354,1858
590.0432040183106,1843
592.3514757438526,1838
594.6591152443794,1779
596.9661227357875,1785
599.2724984340531,1799
601.578242555231,1795
603.8833553154542,1877
606.1878369309362,1780
608.4916876179676,1806
610.7949075929192,1779
613.0974970722403,1805
615.3994562724587,1802
617.7007854101818,1710
620.0014847020951,1783
622.3015543649641,1738
624.6009946156324,1795
626.8998056710224,1795
629.1979877481361,1842
631.4955410640538,1769
633.7924658359349,1792
636.0887622810175,1781
638.3844306166192,1813
640.6794710601358,1835
642.9738838290426,1868
645.2676691408932,1836
647.5608272133207,1805
649.853358264037,1810
652.1452625108324,1878
654.4365401715764,1803
656.7271914642178,1925
659.0172166067838,1889
661.3066158173809,1907
663.5953893141935,1845
665.8835373154867,1893
668.1710600396028,1883
670.4579577049639,1979
672.7442305300709,1956
675.0298787335033,1899
677.3149025339197,1845
679.599302150058,1889
681.8830778007342,1922
684.1662297048437,1903
686.4487580813608,1858
688.7306631493387,1885
691.0119451279091,1880
693.2926042362834,1848
695.5726406937516,1838
697.8520547196814,1916
700.1308465335215,1901
702.4090163547982,1879
704.6865644031171,1848
706.9634908981619,1783
709.2397960596965,1854
711.5154801075631,1823
713.7905432616823,1874
716.0649857420548,1835
718.3388077687592,1830
720.612009561953,1887
722.8845913418733,1871
725.1565533288352,1794
727.427895743234,1788
729.6986188055427,1793
731.9687227363137,1796
734.238207756178,1820
736.5070740858458,1843
738.7753219461066,1832
741.0429515578281,1856
743.3099631419569,1818
745.5763569195191,1835
747.8421331116193,1821
750.1072919394409,1841
752.3718336242467,1796
754.6357583873777,1852
756.8990664502545,1816
759.1617580343765,1822
761.423833361321,1805
763.6852926527457,1851
765.9461361303862,1847
768.206364016058,1822
770.4659765316536,1834
772.7249738991469,1870
774.9833563405886,1877
777.2411240781092,1967
779.4982773339183,1894
781.7548163303044,1776
784.010741289634,1795
786.2660524343538,1859
788.5207499869881,1823
790.7748341701416,1903
793.0283052064964,1816
795.2811633188143,1846
797.5334087299362,1881
799.7850416627813,1870
802.0360623403484,1880
804.2864709857143,1903
806.5362678220353,1878
808.7854530725468,1902
811.0340269605625,1817
813.2819897094754,1886
815.5293415427581,1913
817.77608268396,1911
820.0222133567116,1908
822.2677337847211,1854
824.5126441917765,1906
826.7569448017433,1870
829.0006358385675,1903
831.2437175262731,1861
833.4861900889629,1865
835.7280537508192,1870
837.9693087361026,1835
840.2099552691533,1856
842.4499935743896,1861
844.689423876309,1950
846.9282463994886,1896
849.1664613685833,1870
851.4040690083276,1876
853.6410695435349,1930
855.877463199097,1860
858.1132501999847,1843
860.3484307712487,1851
862.5830051380175,1948
864.8169735254988,1870
867.0503361589791,1924
869.2830932638243,1928
871.5152450654786,1885
873.7467917894654,1896
875.9777336613873,1873
878.2080709069252,1889
880.4378037518389,1834
882.666932421968,1920
884.8954571432301,1892
887.1233781416219,1950
889.3506956432192,1972
891.5774098741766,1923
893.803521060728,1953
896.0290294291852,1974
898.2539352059397,1905
900.4782386174619,1984
902.7019398903011,1948
904.925039251085,1927
907.147536926521,1949
909.3694331433943,1924
911.59072812857,1959
913.8114221089921,1995
916.0315153116827,1923
918.2510079637437,1889
920.4699002923547,1996
922.6881925247761,1929
924.905884888345,1955
927.1229776104793,1914
929.3394709186747,1939
931.555365040506,2018
933.7706602036275,1978
935.9853566357709,1895
938.1994545647489,1956
940.4129542184515,1940
942.6258558248488,1946
944.8381596119883,1925
947.0498658079974,1942
949.2609746410825,1989
951.4714863395287,1998
953.6814011316998,1943
955.8907192460387,1967
958.0994409110671,1991
960.3075663553858,1929
962.5150958076741,1903
964.7220294966913,1929
966.928367651274,1914
969.1341105003388,1927
971.3392582728806,1880
973.5438111979742,1820
975.747769504772,1949
977.9511334225061,1874
980.153903180487,1860
982.3560790081052,1811
984.5576611348289,1843
986.7586497902058,1825
988.9590452038618,1826
991.158847605503,1751
993.3580572249133,1767
995.5566742919558,1615
997.7546990365728,1671
999.952131688785,1673
1002.1489724786926,1714
1004.3452216364743,1723
1006.5408793923874,1695
1008.7359459767691,1687
1010.9304216200343,1639
1013.1243065526781,1644
1015.3176010052733,1643
1017.510305208472,1588
1019.7024193930064,1668
1021.8939437896848,1587
1024.0848786293977,1596
1026.2752241431122,1590
1028.4649805618747,1630
1030.6541481168115,1581
1032.842727039127,1623
1035.0307175601051,1602
1037.2181199111074,1602
1039.4049343235752,1582
1041.591161029029,1611
1043.7768002590683,1626
1045.9618522453698,1582
1048.1463172196918,1538
1050.3301954138697,1616
1052.513487059818,1546
1054.69619238953,1532
1056.8783116350783,1615
1059.0598450286152,1596
1061.2407928023704,1554
1063.4211551886528,1549
1065.6009324198508,1552
1067.780124728432,1561
1069.9587323469414,1539
1072.1367555080046,1495
1074.314194444325,1547
1076.4910493886855,1558
1078.667320573947,1525
1080.843008233051,1512
1083.0181125990161,1579
1085.1926339049414,1496
1087.3665723840027,1483
1089.5399282694575,1457
1091.7127017946405,1503
1093.8848931929647,1575
1096.0565026979243,1465
1098.2275305430899,1501
1100.3979769621128,1539
1102.567842188722,1516
1104.737126456726,1496
1106.9058300000124,1494
1109.0739530525475,1448
1111.2414958483764,1513
1113.4084586216231,1500
1115.5748416064907,1453
1117.7406450372605,1538
1119.9058691482942,1449
1122.0705141740304,1486
1124.2345803489884,1477
1126.3980679077658,1495
1128.5609770850388,1483
1130.7233081155623,1475
1132.8850612341707,1512
1135.0462366757774,1393
1137.2068346753745,1455
1139.3668554680326,1460
1141.526299288901,1442
1143.68516637321,1499
1145.8434569562655,1463
1148.001171273455,1446
1150.158309560244,1423
1152.3148720521767,1467
1154.470858984876,1405
1156.626270594044,1495
1158.7811071154629,1420
1160.9353687849912,1444
1163.089055838569,1479
1165.242168512213,1440
1167.3947070420209,1406
1169.5466716641677,1443
1171.6980626149075,1440
1173.8488801305748,1478
1175.9991244475814,1463
1178.1487958024186,1469
1180.2978944316555,1445
1182.4464205719428,1438
1184.5943744600072,1482
1186.7417563326567,1432
1188.8885664267755,1459
1191.0348049793297,1446
1193.1804722273619,1506
1195.325568407995,1494
1197.4700937584303,1440
1199.614048515948,1495
1201.7574329179074,1482
1203.900247201746,1506
1206.042491604982,1508
1208.1841663652099,1503
1210.3252717201053,1452
1212.465807907422,1486
1214.6057751649923,1437
1216.7451737307279,1507
1218.8840038426192,1424
1221.0222657387353,1494
1223.1599596572241,1433
1225.2970858363137,1452
1227.4336445143094,1500
1229.5696359295966,1568
1231.705060320639,1527
1233.8399179259786,1480
1235.9742089842384,1481
1238.107933734118,1491
1240.2410924143974,1485
1242.373685263935,1558
1244.5057125216676,1501
1246.6371744266116,1545
1248.7680712178621,1529
1250.898403134593,1519
1253.028170416058,1565
1255.1573733015875,1532
1257.2860120305932,1595
1259.4140868425648,1559
1261.54159797707,1578
1263.6685456737569,1561
1265.7949301723515,1546
1267.9207517126597,1596
1270.046010534565,1607
1272.1707068780306,1617
1274.2948409830983,1625
1276.4184130898889,1554
1278.541423438603,1660
1280.6638722695184,1656
1282.785759822993,1610
1284.9070863394636,1652
1287.0278520594447,1640
1289.1480572235314,1646
1291.2677020723963,1641
1293.3867868467923,1744
1295.5053117875495,1712
1297.623277135579,1645
1299.740683131868,1679
1301.8575300174857,1749
1303.973818033578,1699
1306.0895474213703,1797
1308.2047184221678,1740
1310.3193312773528,1759
1312.4333862283888,1717
1314.5468835168163,1774
1316.659823384255,1710
1318.7722060724045,1746
1320.8840318230418,1755
1322.9953008780249,1744
1325.1060134792888,1794
1327.2161698688478,1783
1329.3257702887959,1808
1331.4348149813054,1778
1333.5433041886276,1839
1335.6512381530933,1765
1337.7586171171101,1818
1339.8654413231675,1775
1341.9717110138317,1794
1344.0774264317488,1769
1346.1825878196432,1748
1348.2871954203192,1728
1350.3912494766587,1789
1352.4947502316231,1715
1354.5976979282532,1715
1356.7000928096686,1742
1358.8019351190665,1772
1360.9032250997243,1722
1363.0039629949988,1672
1365.1041490483235,1752
1367.2037835032133,1749
1369.3028666032606,1731
1371.401398592137,1781
1373.4993797135926,1726
1375.5968102114575,1768
1377.6936903296396,1771
1379.7900203121262,1696
1381.8858004029835,1728
1383.9810308463561,1719
1386.075711886469,1772
1388.1698437676241,1723
1390.2634267342032,1711
1392.356461030667,1763
1394.4489469015557,1737
1396.5408845914872,1831
1398.6322743451592,1784
1400.7231164073469,1784
1402.813411022907,1822
1404.903158436773,1683
1406.9923588939578,1809
1409.0810126395531,1792
1411.1691199187303,1850
1413.2566809767386,1860
1415.343696058907,1875
1417.4301654106425,1899
1419.5160892774315,1809
1421.6014679048399,1887
1423.6863015385125,1904
1425.7705904241707,1928
1427.8543348076178,1884
1429.9375349347342,1913
1432.0201910514802,1973
1434.102303403894,2047
1436.1838722380944,1995
1438.2648978002767,2040
1440.3453803367174,2009
1442.4253200937692,2086
1444.5047173178677,2129
1446.5835722555234,2136
1448.6618851533285,2211
1450.739656257952,2205
1452.8168858161434,2206
1454.8935740747306,2323
1456.96972128062,2378
1459.045327680797,2348
1461.120393522327,2420
1463.1949190523528,2472
1465.2689045180973,2580
1467.3423501668608,2540
1469.415256246024,2601
1471.4876230030463,2649
1473.559450685465,2618
1475.6307395408976,2655
1477.7014898170391,2838
1479.771701761665,2830
1481.8413756226287,2856
1483.9105116478618,2895
1485.9791100853772,2829
1488.0471711832643,2938
1490.1146951896926,2958
1492.1816823529098,3010
1494.2481329212433,3081
1496.3140471430984,3109
1498.3794252669609,3178
1500.4442675413939,3119
1502.5085742150404,3159
1504.572345536622,3204
1506.6355817549388,3198
1508.6982831188702,3172
1510.7604498773744,3339
1512.8220822794883,3286
1514.8831805743293,3367
1516.9437450110909,3330
1519.003775839048,3319
1521.0632733075522,3404
1523.1222376660367,3319
1525.1806691640113,3415
1527.2385680510652,3423
1529.2959345768668,3521
1531.3527689911643,3503
1533.4090715437833,3511
1535.4648424846291,3485
1537.5200820636855,3691
1539.5747905310159,3689
1541.6289681367616,3633
1543.6826151311434,3725
1545.7357317644614,3825
1547.7883182870937,3788
1549.8403749494987,3914
1551.8919020022113,4071
1553.9428996958477,4066
1555.9933682811015,4130
1558.0433080087469,4209
1560.0927191296346,4278
1562.1416018946961,4309
1564.1899565549415,4341
1566.2377833614592,4310
1568.2850825654164,4415
1570.3318544180606,4385
1572.3780991707158,4158
1574.423817074788,3991
1576.4690083817595,4025
1578.5136733431923,3805
1580.5578122107272,3658
1582.601425236085,3384
1584.6445126710646,3292
1586.6870747675434,3104
1588.7291117774776,3006
1590.7706239529034,2927
1592.8116115459347,2733
1594.8520748087658,2652
1596.8920139936686,2598
1598.9314293529933,2536
1600.9703211391711,2411
1603.008689604711,2332
1605.0465350022005,2230
1607.0838575843068,2201
1609.1206576037753,2204
1611.1569353134305,2044
1613.1926909661765,2004
1615.2279248149953,1981
1617.2626371129481,1955
1619.2968281131757,1924
1621.3304980688963,1927
1623.3636472334088,1858
1625.39627586009,1831
1627.428384202396,1816
1629.459972513861,1787
1631.4910410480993,1759
1633.5215900588028,1704
1635.551619799744,1672
1637.5811305247717,1715
1639.6101224878166,1715
1641.6385959428862,1660
1643.6665511440683,1725
1645.693988345528,1649
1647.7209078015112,1689
1649.7473097663405,1592
1651.7731944944203,1601
1653.7985622402307,1616
1655.823413258333,1602
1657.847747803366,1617
1659.8715661300494,1670
1661.8948684931793,1669
1663.9176551476316,1640
1665.9399263483624,1633
1667.9616823504057,1538
1669.982923408873,1610
1672.0036497789574,1613
1674.0238617159293,1661
1676.043559475138,1596
1678.0627433120121,1538
1680.081413482059,1596
1682.0995702408654,1574
1684.117213844096,1545
1686.134344547495,1574
1688.1509626068864,1541
1690.1670682781705,1583
1692.182661817329,1563
1694.1977434804217,1547
1696.2123135235875,1587
1698.226372203043,1608
1700.2399197750851,1572
1702.2529564960905,1574
1704.2654826225112,1531
1706.277498410882,1612
1708.2890041178139,1556
1710.2999999999988,1461
1712.3104863142066,1477
1714.3204633172854,1555
1716.329931266163,1483
1718.3388904178469,1531
1720.3473410294214,1593
1722.3552833580516,1462
1724.3627176609807,1509
1726.3696441955308,1530
1728.3760632191033,1531
1730.3819749891782,1527
1732.3873797633146,1459
1734.3922777991502,1460
1736.3966693544012,1539
1738.4005546868639,1535
1740.4039340544127,1453
1742.406807715001,1413
1744.4091759266616,1412
1746.4110389475054,1466
1748.4123970357223,1467
1750.413250449582,1435
1752.4135994474318,1367
1754.4134442876993,1485
1756.4127852288902,1432
1758.4116225295893,1383
1760.4099564484595,1413
1762.407787244244,1416
1764.405115175764,1370
1766.4019405019203,1438
1768.3982634816916,1389
1770.3940843741357,1396
1772.3894034383907,1406
1774.3842209336717,1382
1776.378537119274,1358
1778.372352254571,1380
1780.3656665990156,1361
1782.3584804121397,1453
1784.3507939535534,1341
1786.3426074829463,1362
1788.3339212600863,1390
1790.3247355448211,1354
1792.3150505970766,1328
1794.3048666768573,1413
1796.2941840442477,1367
1798.2830029594106,1375
1800.2713236825884,1422
1802.2591464741004,1386
1804.2464715943465,1339
1806.2332993038058,1373
1808.2196298630352,1375
1810.2054635326708,1361
1812.190800573428,1309
1814.175641246101,1396
1816.1599858115628,1379
1818.1438345307652,1345
1820.127187664738,1373
1822.1100454745924,1316
1824.092408221516,1368
1826.0742761667766,1363
1828.055649571721,1349
1830.0365286977735,1379
1832.0169138064398,1357
1833.9968051593014,1329
1835.9762030180214,1379
1837.9551076443408,1364
1839.9335193000788,1310
1841.9114382471344,1296
1843.888864747485,1315
1845.8657990631878,1317
1847.842241456378,1324
1849.8181921892697,1310
1851.7936515241558,1321
1853.7686197234098,1328
1855.7430970494815,1364
1857.7170837649014,1276
1859.6905801322787,1330
1861.6635864143004,1306
1863.6361028737338,1284
1865.608129773424,1281
1867.5796673762961,1281
1869.5507159453537,1322
1871.521275743678,1363
1873.4913470344313,1363
1875.4609300808534,1367
1877.4300251462632,1361
1879.3986324940588,1374
1881.366752387717,1379
1883.3343850907936,1347
1885.3015308669228,1371
1887.268189979819,1382
1889.2343626932739,1342
1891.2000492711595,1425
1893.1652499774254,1367
1895.1299650761011,1323
1897.0941948312952,1395
1899.0579395071945,1401
1901.0211993680641,1367
1902.98397467825,1379
1904.9462657021745,1386
1906.9080727043415,1392
1908.869395949332,1373
1910.8302357018065,1360
1912.790592226504,1394
1914.7504657882428,1342
1916.7098566519212,1414
1918.6687650825133,1407
1920.6271913450764,1324
1922.5851357047422,1392
1924.5425984267245,1334
1926.499579776314,1349
1928.4560800188833,1387
1930.4120994198802,1342
1932.367638244833,1363
1934.32269675935,1331
1936.2772752291175,1326
1938.231373919899,1329
1940.1849930975404,1291
1942.1381330279637,1323
1944.0907939771696,1318
1946.0429762112412,1324
1947.9946799963363,1282
1949.9459055986945,1325
1951.896653284633,1349
1953.8469233205478,1344
1955.7967159729142,1278
1957.7460315082863,1332
1959.6948701932974,1281
1961.6432322946594,1296
1963.5911180791632,1228
1965.5385278136787,1289
1967.4854617651545,1303
1969.4319202006182,1325
1971.377903387176,1387
1973.3234115920136,1324
1975.268445082395,1313
1977.2130041256642,1272
1979.1570889892423,1335
1981.1006999406304,1331
1983.04383724741,1307
1984.986501177238,1289
1986.928691997853,1374
1988.8704099770712,1254
1990.811655382789,1245
1992.7524284829801,1242
1994.692729545698,1264
1996.6325588390755,1271
1998.5719166313224,1271
2000.5108031907307,1321
2002.4492187856677,1258
2004.387163684583,1207
2006.3246381560011,1229
2008.2616424685298,1271
2010.1981768908527,1269
2012.1342416917332,1288
2014.069837140014,1268
2016.0049635046162,1281
2017.9396210545406,1260
2019.8738100588666,1247
2021.8075307867502,1195
2023.740783507431,1290
2025.6735684902228,1256
2027.6058860045214,1252
2029.5377363198004,1267
2031.4691197056118,1265
2033.4000364315875,1289
2035.3304867674374,1267
2037.260470982952,1233
2039.189989347998,1266
2041.1190421325232,1225
2043.047629606554,1212
2044.9757520401945,1199
2046.9034097036288,1278
2048.8306028671195,1291
2050.7573318010086,1296
2052.683596775716,1234
2054.609398061742,1203
2056.5347359296647,1221
2058.4596106501403,1231
2060.384022493906,1268
2062.3079717317764,1211
2064.231458634646,1264
2066.1544834734873,1294
2068.077046519352,1255
2069.99914804337,1272
2071.9207883167524,1240
2073.8419676107865,1299
2075.7626861968406,1269
2077.6829443463607,1264
2079.6027423308715,1312
2081.522080421977,1242
2083.440958891362,1345
2085.359378010786,1291
2087.2773380520907,1239
2089.194839287196,1255
2091.111881988101,1246
2093.0284664268825,1230
2094.9445928756973,1263
2096.86026160678,1277
2098.775472892446,1224
2100.690227005088,1257
2102.604524217178,1246
2104.5183648012676,1278
2106.431749029985,1260
2108.34467717604,1264
2110.2571495122206,1276
2112.169166311393,1262
2114.080727846503,1268
2115.9918343905747,1258
2117.902486216711,1239
2119.8126835980956,1303
2121.722426807987,1237
2123.6317161197285,1272
2125.5405518067364,1278
2127.448934142509,1273
2129.356863400624,1245
2131.264339854737,1268
2133.1713637785815,1198
2135.077935445972,1288
2136.9840551308002,1283
2138.889723107037,1291
2140.7949396487334,1292
2142.699705030018,1258
2144.6040195250994,1301
2146.507883408264,1324
2148.4112969538774,1323
2150.3142604363848,1319
2152.2167741303097,1272
2154.1188383102535,1248
2156.0204532508997,1286
2157.9216192270064,1294
2159.822336513414,1234
2161.7226053850413,1233
2163.622426116884,1273
2165.5217989840185,1290
2167.4207242616,1333
2169.319202224862,1348
2171.2172331491165,1268
2173.1148173097563,1325
2175.0119549822507,1269
2176.90864644215,1314
2178.8048919650823,1271
2180.7006918267534,1282
2182.596046302952,1305
2184.4909556695407,1249
2186.3854202024645,1255
2188.279440177746,1303
2190.173015871487,1293
2192.066147559868,1336
2193.958835519149,1286
2195.851080025667,1309
2197.7428813558417,1313
2199.6342397861667,1342
2201.5251555932186,1300
2203.415629053651,1351
2205.3056604441986,1312
2207.19525004167,1287
2209.084398122958,1270
2210.9731049650327,1282
2212.861370844941,1335
2214.749196039812,1235
2216.636580826851,1348
2218.523525483344,1301
2220.410030286655,1254
2222.296095514226,1245
2224.1817214435805,1247
2226.066908352319,1291
2227.951656518121,1266
2229.835966218746,1309
2231.71983773203,1335
2233.6032713358913,1287
2235.486267308324,1266
2237.3688259274036,1261
2239.2509474712824,1328
2241.132632218193,1294
2243.013880446447,1248
2244.8946924344323,1313
2246.7750684606203,1292
2248.6550088035574,1370
2250.534513741871,1326
2252.413583554265,1342
2254.292218519526,1279
2256.170418916517,1329
2258.0481850241786,1272
2259.925517121534,1297
2261.8024154876825,1324
2263.678880401803,1295
2265.5549121431536,1358
2267.430510991071,1315
2269.305677224971,1293
2271.180411124348,1322
2273.0547129687766,1279
2274.9285830379076,1250
2276.8020216114737,1296
2278.6750289692845,1299
2280.5476053912294,1247
2282.4197511572766,1347
2284.2914665474727,1354
2286.162751841943,1349
2288.0336073208937,1273
2289.904033264608,1299
2291.774029953448,1339
2293.6435976678554,1325
2295.5127366883517,1312
2297.381447295534,1266
2299.2497297700825,1241
2301.1175843927526,1244
2302.9850114443825,1225
2304.852011205885,1238
2306.7185839582553,1251
2308.5847299825664,1204
2310.4504495599676,1197
2312.3157429716925,1232
2314.1806104990483,1207
2316.0450524234247,1210
2317.9090690262888,1248
2319.772660589186,1243
2321.635827393742,1214
2323.498569721661,1158
2325.3608878547248,1220
2327.2227820747967,1219
2329.0842526638157,1149
2330.945299903803,1227
2332.805924076857,1249
2334.6661254651535,1202
2336.525904350951,1193
2338.3852610165827,1198
2340.244195744464,1229
2342.102708817088,1229
2343.9608005170253,1173
2345.8184711269287,1271
2347.675720929526,1224
2349.532550207628,1195
2351.38895924412,1255
2353.24494832197,1245
2355.100517724223,1218
2356.955667734004,1199
2358.810398634514,1254
2360.664710709037,1210
2362.5186042409337,1206
2364.3720795136437,1266
2366.225136810686,1219
2368.0777764156583,1286
2369.929998612237,1298
2371.7818036841777,1171
2373.633191915315,1243
2375.484163589562,1236
2377.3347189909114,1213
2379.184858403434,1181
2381.03458211128,1247
2382.8838903986775,1269
2384.732783549936,1281
2386.5812618494406,1281
2388.4293255816588,1210
2390.2769750311327,1264
2392.1242104824883,1225
2393.971032220427,1257
2395.8174405297295,1223
2397.6634356952563,1236
2399.509018001947,1259
2401.3541877348193,1282
2403.1989451789705,1311
2405.043290619576,1222
2406.8872243418905,1235
2408.730746631247,1227
2410.5738577730594,1286
2412.4165580528183,1252
2414.258847756095,1291
2416.100727168537,1243
2417.9421965758734,1290
2419.783256263912,1267
2421.623906518538,1247
2423.4641476257157,1225
2425.303979871491,1310
2427.143403541984,1326
2428.9824189233977,1280
2430.821026302012,1315
2432.6592259641866,1347
2434.497018196361,1265
2436.33440328505,1276
2438.171381516851,1274
2440.00795317844,1272
2441.844118556569,1298
2443.6798779380724,1313
2445.5152316098606,1293
2447.3501798589255,1284
2449.1847229723357,1289
2451.0188612372403,1324
2452.8525949408663,1264
2454.6859243705203,1305
2456.518849813587,1289
2458.3513715575314,1257
2460.183489889895,1230
2462.015205098301,1291
2463.8465174704493,1246
2465.67742729412,1300
2467.5079348571717,1322
2469.338040447542,1272
2471.1677443532476,1269
2472.9970468623833,1310
2474.825948263123,1285
2476.6544488437207,1279
2478.482548892508,1337
2480.310248697896,1265
2482.137548548374,1330
2483.9644487325118,1301
2485.790949538956,1350
2487.617051256433,1343
2489.44275417375,1374
2491.26805857979,1271
2493.0929647635157,1259
2494.917473013971,1347
2496.741583620276,1271
2498.5652968716304,1337
2500.3886130573137,1371
2502.2115324666834,1351
2504.0340553891765,1319
2505.856182114308,1280
2507.6779129316733,1373
2509.499248130945,1379
2511.3201880018764,1326
2513.140732834298,1330
2514.9608829181198,1356
2516.780638543331,1389
2518.6,1368
2520.418967578273,1390
2522.237541568376,1362
2524.0557222606144,1350
2525.8735099453706,1347
2527.6909049131086,1367
2529.507907454368,1451
2531.32451785977,1413
2533.140736420014,1410
2534.9565634258774,1462
2536.771999168218,1415
2538.5870439379714,1454
2540.4016980261526,1462
2542.2159617238544,1475
2544.02983532225,1421
2545.8433191125914,1540
2547.656413386209,1516
2549.4691184345115,1537
2551.2814345489874,1550
2553.093362021204,1536
2554.904901142808,1575
2556.716052205523,1554
2558.526815501153,1575
2560.3371913215824,1575
2562.147179958771,1612
2563.956781704761,1622
2565.7659968516705,1636
2567.5748256916986,1634
2569.3832685171224,1671
2571.1913256202984,1686
2572.9989972936614,1670
2574.806283829725,1691
2576.613185521084,1651
2578.4197026604074,1728
2580.2258355404483,1658
2582.031584454035,1667
2583.836949694077,1748
2585.6419315535613,1760
2587.4465303255533,1647
2589.2507463032002,1698
2591.0545797797245,1692
2592.8580310484303,1696
2594.6611004026995,1783
2596.463788135992,1776
2598.266094541849,1742
2600.0680199138874,1760
2601.869564545807,1744
2603.670728731383,1729
2605.4715127644704,1767
2607.2719169390048,1796
2609.071941548998,1752
2610.8715868885433,1805
2612.670853251811,1767
2614.469740933052,1748
2616.268250226594,1805
2618.0663814268455,1770
2619.864134828292,1712
2621.6615107255006,1695
2623.458509413115,1719
2625.2551311858597,1673
2627.0513763385347,1724
2628.8472451660223,1742
2630.6427379632833,1698
2632.4378550253564,1638
2634.232596647359,1575
2636.026963124488,1680
2637.8209547520187,1571
2639.6145718253065,1584
2641.407814639785,1634
2643.200683490966,1651
2644.9931786744414,1568
2646.7853004858807,1561
2648.577049221034,1590
2650.3684251757277,1547
2652.1594286458712,1508
2653.9500599274484,1501
2655.740319316525,1450
2657.5302071092437,1483
2659.3197236018286,1518
2661.10886909058,1478
2662.8976438718782,1453
2664.686048242183,1495
2666.4740824980327,1449
2668.2617469360443,1381
2670.0490418529134,1414
2671.8359675454153,1431
2673.622524310403,1398
2675.408712444811,1444
2677.1945322456495,1360
2678.979984010009,1379
2680.76506803506,1377
2682.5497846180497,1380
2684.334134056306,1350
2686.1181166472343,1353
2687.9017326883213,1360
2689.6849824771293,1275
2691.4678663113013,1358
2693.2503844885596,1293
2695.032537306705,1383
2696.8143250636167,1337
2698.5957480572542,1302
2700.3768065856534,1299
2702.1575009469316,1315
2703.937831439283,1299
2705.717798360982,1245
2707.4974020103837,1248
2709.276642685917,1259
2711.055520686095,1259
2712.834036309506,1236
2714.612189854819,1280
2716.389981620782,1198
2718.1674119062204,1228
2719.944481010041,1237
2721.721189231226,1241
2723.4975368688415,1254
2725.273524222027,1242
2727.0491515900053,1257
2728.824419272075,1242
2730.5993275676146,1198
2732.3738767760838,1185
2734.148067197016,1183
2735.921899130031,1226
2737.6953728748194,1200
2739.468488731156,1157
2741.2412469988926,1212
2743.0136479779617,1203
2744.785691968372,1175
2746.5573792702116,1170
2748.3287101836504,1192
2750.099685008934,1205
2751.870304046388,1178
2753.640567596418,1224
2755.4104759595057,1187
2757.1800294362156,1173
2758.949228327187,1164
2760.7180729331412,1178
2762.486563554877,1164
2764.254700493272,1217
2766.022484049284,1217
2767.789914523947,1170
2769.5569922183786,1142
2771.3237174337705,1173
2773.090090471394,1186
2774.8561116326036,1216
2776.6217812188274,1178
2778.3870995315756,1207
2780.1520668724356,1181
2781.9166835430747,1192
2783.6809498452394,1138
2785.444866080754,1177
2787.2084325515225,1222
2788.971649559527,1185
2790.73451740683,1154
2792.4970363955713,1194
2794.2592068279705,1142
2796.0210290063264,1189
2797.7825032330147,1148
2799.543629810493,1177
2801.304409041296,1176
2803.0648412280366,1200
2804.8249266734088,1172
2806.5846656801846,1122
2808.344058551212,1180
2810.1031055894246,1214
2811.8618070978273,1168
2813.6201633795085,1234
2815.378174737636,1199
2817.1358414754536,1159
2818.893163896285,1181
2820.6501423035334,1177
2822.4067770006814,1172
2824.1630682912883,1200
2825.9190164789957,1154
2827.6746218675207,1193
2829.429884760661,1196
2831.184805462294,1177
2832.9393842763743,1245
2834.693621506936,1209
2836.4475174580916,1145
2838.201072434034,1127
2839.954286739034,1213
2841.707160677441,1175
2843.459694553685,1181
2845.2118886722724,1160
2846.96374333779,1163
2848.7152588549034,1182
2850.4664355283567,1147
2852.217273662973,1145
2853.9677735636546,1178
2855.7179355353833,1139
2857.4677598832186,1176
2859.217246912299,1213
2860.9663969278427,1130
2862.715210235146,1109
2864.4636871395846,1180
2866.211827946614,1140
2867.9596329617652,1171
2869.7071024906536,1219
2871.4542368389684,1193
2873.20103631248,1154
2874.947501217038,1128
2876.6936318585695,1148
2878.4394285430812,1165
2880.1848915766604,1186
2881.9300212654707,1184
2883.6748179157553,1148
2885.4192818338374,1150
2887.1634133261173,1136
2888.907212699077,1201
2890.6506802592744,1221
2892.393816313348,1188
2894.1366211680142,1169
2895.8790951300693,1149
2897.621238506388,1202
2899.363051603925,1167
2901.1045347297118,1212
2902.8456881908596,1153
2904.58651229456,1159
2906.327007348081,1154
2908.067173658772,1142
2909.8070115340597,1172
2911.5465212814497,1147
2913.285703208527,1176
2915.0245576229563,1155
2916.7630848324807,1144
2918.5012851449196,1138
2920.2391588681758,1111
2921.976706310227,1146
2923.7139277791334,1159
2925.4508235830313,1135
2927.187394030137,1133
2928.923639428745,1128
2930.6595600872306,1169
2932.395156314046,1159
2934.1304284177218,1164
2935.8653767068713,1127
2937.6000014901815,1155
2939.3343030764227,1175
2941.068281774442,1195
2942.8019378931644,1163
2944.5352717415976,1173
2946.2682836288236,1193
2948.0009738640065,1183
2949.7333427563885,1140
2951.465390615289,1169
2953.1971177501086,1169
2954.9285244703265,1177
2956.6596110855,1200
2958.3903779052657,1156
2960.1208252393385,1195
2961.8509533975125,1112
2963.5807626896617,1175
2965.3102534257378,1118
2967.0394259157715,1134
2968.768280469873,1122
2970.496817398232,1171
2972.2250370111146,1176
2973.952939618869,1225
2975.6805255319196,1170
2977.4077950607707,1126
2979.134748516006,1167
2980.861386208289,1164
2982.587708448359,1173
2984.313715547037,1157
2986.039407815222,1169
2987.764785563891,1183
2989.489849104102,1227
2991.2145987469908,1098
2992.9390348037705,1196
2994.6631575857346,1208
2996.3869674042576,1184
2998.1104645707887,1133
2999.83364939686,1099
3001.5565221940783,1167
3003.2790832741334,1100
3005.0013329487924,1153
3006.7232715298996,1063
3008.4448993293804,1143
3010.166216659239,1147
3011.887223831558,1128
3013.607921158498,1139
3015.3283089522993,1119
3017.0483875252826,1086
3018.7681571898443,1118
3020.4876182584626,1171
3022.2067710436927,1120
3023.9256158581707,1148
3025.644153014609,1131
3027.362382825801,1171
3029.0803056046193,1129
3030.797921664012,1142
3032.5152313170106,1134
3034.2322348767225,1175
3035.9489326563353,1131
3037.665324969115,1114
3039.3814121284063,1118
3041.097194447633,1122
3042.812672240299,1123
3044.5278458199855,1163
3046.2427155003525,1172
3047.9572815951406,1104
3049.671544418167,1127
3051.38550428333,1124
3053.0991615046073,1125
3054.812516396051,1153
3056.5255692717974,1042
3058.2383204460575,1126
3059.9507702331257,1118
3061.662918947372,1129
3063.3747669032446,1142
3065.0863144152736,1160
3066.7975617980674,1088
3068.508509366309,1136
3070.219157434767,1118
3071.9295063182844,1143
3073.639556331785,1175
3075.3493077902704,1133
3077.058761008821,1133
3078.7679163025964,1134
3080.476773986837,1121
3082.1853343768594,1089
3083.89359778806,1174
3085.6015645359153,1171
3087.3092349359786,1132
3089.016609303884,1157
3090.7236879553434,1171
3092.4304712061476,1139
3094.136959372166,1179
3095.843152769349,1120
3097.5490517137237,1136
3099.2546565213966,1124
3100.959967508554,1138
3102.66498499146,1183
3104.3697092864577,1157
3106.0741407099695,1194
3107.778279578498,1108
3109.482126208622,1127
3111.1856809170004,1112
3112.8889440203716,1143
3114.5919158355528,1150
3116.294596679439,1148
3117.996986869006,1125
3119.6990867213062,1149
3121.4008965534726,1226
3123.102416682717,1157
3124.803647426329,1156
3126.5045891016784,1141
3128.205242026213,1180
3129.90560651746,1213
3131.605682893025,1189
3133.3054714705922,1200
3135.0049725679282,1164
3136.7041865028714,1175
3138.4031135933465,1192
3140.101754157353,1163
3141.800108512971,1151
3143.498176978357,1082
3145.1959598717494,1107
3146.8934575114636,1148
3148.5906702158954,1139
3150.2875983035183,1124
3151.9842420928853,1153
3153.680601902627,1157
3155.376678051456,1166
3157.07247085816,1117
3158.767980641609,1118
3160.463207720748,1136
3162.158152414606,1119
3163.8528150422862,1159
3165.5471959229726,1168
3167.2412953759303,1130
3168.9351137204976,1128
3170.628651276098,1146
3172.3219083622307,1136
3174.014885298474,1156
3175.707582404485,1116
3177.4000000000005,1126
3179.092138404835,1187
3180.7839979388846,1146
3182.47557892212,1111
3184.166881674594,1090
3185.8579065164386,1110
3187.5486537678626,1120
3189.2391237491547,1107
3190.9293167806827,1129
3192.6192331828934,1175
3194.3088732763117,1168
3195.998237381542,1145
3197.687325819268,1161
3199.376138910251,1153
3201.064676975334,1080
3202.7529403354347,1086
3204.4409293115523,1122
3206.1286442247647,1087
3207.816085396229,1087
3209.5032531471825,1113
3211.190147798936,1084
3212.8767696728846,1119
3214.5631190905015,1093
3216.2491963733373,1107
3217.9350018430214,1133
3219.6205358212637,1104
3221.305798629851,1113
3222.990790590651,1107
3224.6755120256103,1150
3226.359963256751,1086
3228.0441446061795,1137
3229.7280563960758,1103
3231.411698948703,1118
3233.0950725863995,1108
3234.778177631587,1150
3236.461014406761,1150
3238.1435832345005,1063
3239.8258844374595,1111
3241.507918338374,1083
3243.1896852600576,1126
3244.8711855254023,1078
3246.552419457381,1120
3248.233387379042,1138
3249.914089613516,1174
3251.59452648401,1084
3253.274698313813,1140
3254.95460542629,1112
3256.6342481448855,1098
3258.313626793125,1116
3259.9927416946084,1065
3261.6715931730196,1098
3263.3501815521176,1077
3265.0285071557437,1083
3266.706570307815,1108
3268.3843713323286,1158
3270.0619105533615,1103
3271.739188295068,1112
3273.4162048816834,1103
3275.0929606375184,1176
3276.769455886966,1136
3278.445690954498,1169
3280.1216661646613,1070
3281.797381842087,1116
3283.4728383114807,1126
3285.1480358976296,1057
3286.8229749253996,1106
3288.4976557197333,1090
3290.172078605655,1120
3291.846243908266,1088
3293.5201519527463,1087
3295.193803064357,1088
3296.8671975684374,1134
3298.5403357904024,1093
3300.21321805575,1110
3301.8858446900567,1100
3303.558216018975,1112
3305.23033236824,1100
3306.9021940636603,1119
3308.57380143113,1146
3310.2451547966184,1163
3311.916254486174,1132
3313.5871008259246,1151
3315.2576941420766,1141
3316.9280347609147,1079
3318.5981230088046,1111
3320.2679592121895,1063
3321.9375436975924,1140
3323.606876791612,1110
3325.27595882093,1082
3326.944790112305,1065
3328.6133709925753,1082
3330.2817017886573,1091
3331.949782827547,1029
3333.617614436319,1108
3335.2851969421245,1128
3336.952530672199,1126
3338.619615953853,1109
3340.286453114475,1119
3341.9530424815357,1113
3343.619384382583,1105
3345.2854791452437,1091
3346.951327097224,1066
3348.6169285663073,1115
3350.2822838803577,1121
3351.947393367319,1069
3353.61225735521,1086
3355.2768761721345,1123
3356.9412501462693,1131
3358.605379605873,1096
3360.2692648792827,1087
3361.9329062949146,1090
3363.596304181263,1074
