CollectionTime,9/26/2024 8:27:18 AM
ExposureUsed,3
CalibratedSpectrum
-962.7078968117929,614
-959.9714848408522,608
-957.2358232597828,655
-954.5009119013725,647
-951.7667505983302,638
-949.0333391832855,590
-946.3006774887896,626
-943.5687653473143,660
-940.837602591253,697
-938.1071890529199,628
-935.3775245645503,624
-932.6486089583007,583
-929.9204420662485,671
-927.1930237203925,697
-924.4663537526524,670
-921.7404319948689,609
-919.0152582788041,658
-916.2908324361409,661
-913.5671542984834,675
-910.8442236973568,630
-908.1220404642074,685
-905.4006044304027,684
-902.679915427231,652
-899.959973285902,601
-897.2407778375464,608
-894.5223289132158,597
-891.8046263438832,622
-889.0876699604426,628
-886.3714595937089,608
-883.6559950744183,618
-880.9412762332282,635
-878.2273029007168,594
-875.5140749073835,581
-872.8015920836489,635
-870.0898542598545,611
-867.3788612662631,646
-864.6686129330585,567
-861.9591090903457,610
-859.2503495681506,552
-856.5423341964203,564
-853.8350628050229,574
-851.1285352237478,610
-848.4227512823054,617
-845.7177108103272,607
-843.0134136373656,644
-840.3098595928943,676
-837.6070485063082,636
-834.9049802069229,597
-832.2036545239757,611
-829.5030712866244,608
-826.8032303239481,649
-824.1041314649472,620
-821.4057745385428,600
-818.7081593735775,576
-816.0112857988148,577
-813.3151536429393,651
-810.6197627345566,650
-807.9251129021936,670
-805.2312039742981,660
-802.5380357792392,633
-799.8456081453069,613
-797.1539209007124,584
-794.462973873588,635
-791.772766891987,652
-789.083299783884,662
-786.3945723771743,658
-783.7065844996748,651
-781.0193359791231,711
-778.3328266431781,635
-775.6470563194197,623
-772.9620248353489,654
-770.2777320183878,648
-767.5941776958798,639
-764.9113616950891,586
-762.2292838432011,583
-759.5479439673222,589
-756.8673418944801,638
-754.1874774516235,668
-751.5083504656222,697
-748.8299607632671,692
-746.15230817127,755
-743.475392516264,698
-740.7992136248035,611
-738.1237713233636,653
-735.4490654383407,653
-732.7750957960521,645
-730.1018622227365,660
-727.4293645445534,698
-724.7576025875837,715
-722.0865761778291,673
-719.4162851412126,702
-716.7467293035781,736
-714.0779084906909,742
-711.409822528237,680
-708.7424712418238,668
-706.0758544569796,643
-703.4099719991541,624
-700.7448236937178,644
-698.0804093659622,651
-695.4167288411002,680
-692.7537819442656,663
-690.0915685005134,754
-687.4300883348199,710
-684.7693412720819,717
-682.1093271371178,701
-679.4500457546669,703
-676.7914969493897,743
-674.1336805458676,716
-671.4765963686034,670
-668.8202442420206,646
-666.1646239904642,663
-663.5097354382001,658
-660.8555784094151,651
-658.2021527282176,646
-655.5494582186366,717
-652.8974947046223,725
-650.2462620100463,719
-647.5957599587009,749
-644.9459883742998,818
-642.2969470804776,794
-639.6486359007902,703
-637.0010546587141,660
-634.3542031776476,664
-631.7080812809096,663
-629.0626887917401,743
-626.4180255333008,818
-623.7740913286734,779
-621.1308860008619,735
-618.4884093727904,682
-615.8466612673046,720
-613.2056415071715,771
-610.5653499150785,744
-607.9257863136347,744
-605.28695052537,753
-602.6488423727357,738
-600.0114616781036,843
-597.3748082637674,984
-594.7388819519412,1018
-592.1036825647604,849
-589.4692099242818,826
-586.8354638524829,902
-584.2024441712624,927
-581.5701507024403,895
-578.9385832677575,814
-576.3077416888759,802
-573.6776257873787,856
-571.0482353847704,919
-568.4195703024757,835
-565.7916303618415,770
-563.164415384135,767
-560.5379251905453,767
-557.9121596021815,763
-555.2871184400748,824
-552.6628015251767,807
-550.0392086783606,866
-547.4163397204204,847
-544.794194472071,907
-542.1727727539491,894
-539.5520743866118,842
-536.9320991905377,930
-534.3128469861261,1009
-531.6943175936979,1023
-529.0765108334947,1012
-526.4594265256793,1216
-523.8430644903358,1438
-521.2274245474689,1563
-518.612506517005,1629
-515.9983102187913,1708
-513.3848354725959,1881
-510.77208209810846,1988
-508.16004991493924,2123
-505.5487387426199,2114
-502.9381484006032,1985
-500.3282787082628,1806
-497.71912948489364,1677
-495.1107005497117,1457
-492.5029917218539,1344
-489.8960028203786,1175
-487.28973366426493,1051
-484.68418407241325,992
-482.07935386364494,1009
-479.47524285670266,971
-476.87185087025,983
-474.2691777228715,1054
-471.66722323307334,1005
-469.0659872192821,957
-466.4654694998459,949
-463.86566989303384,917
-461.26658821703614,947
-458.66822428996414,957
-456.07057792985,969
-453.4736489546475,1034
-450.877437182231,973
-448.28194243039627,926
-445.68716451686,937
-443.09310325926003,983
-440.49975847515555,941
-437.9071299820263,1014
-435.31521759727354,1112
-432.72402113821954,1138
-430.13354042210767,1025
-427.5437752661022,1019
-424.95472548728867,1035
-422.36639090267386,1120
-419.7787713291855,1175
-417.1918665836721,1187
-414.60567648290385,1168
-412.0202008435715,1152
-409.4354394822874,1161
-406.8513922155845,1114
-404.26805885991723,1148
-401.685439231661,1084
-399.103533147112,1107
-396.522340422488,1088
-393.9418608739278,993
-391.3620943174908,979
-388.7830405691583,1039
-386.2046994448317,1026
-383.6270707603344,1019
-381.05015433141045,1057
-378.473949973725,956
-375.8984575028645,813
-373.32367673433623,779
-370.74960748356875,801
-368.1762495659117,741
-365.60360279663576,723
-363.03166699093265,803
-360.4604419639154,751
-357.8899275306178,718
-355.32012350599507,707
-352.7510297049233,659
-350.1826459421999,616
-347.61497203254316,712
-345.04800779059235,697
-342.4817530309082,762
-339.91620756797226,830
-337.35137121618743,786
-334.7872437898774,817
-332.22382510328725,937
-329.66111497058273,1024
-327.09911320585127,864
-324.53781962310075,797
-321.9772340362607,695
-319.4173562591816,726
-316.8581861056348,633
-314.2997233893127,743
-311.7419679238294,875
-309.1849195227194,812
-306.62857799943856,743
-304.0729431673641,756
-301.51801483979375,826
-298.963792829947,867
-296.41027695096386,863
-293.85746701590574,959
-291.3053628377552,919
-288.7539642294155,1041
-286.2032710037115,1072
-283.65328297338897,1233
-281.1039999511146,1330
-278.5554217494762,1572
-276.007548180983,1254
-273.4603790580651,947
-270.9139141930734,1102
-268.3681533982807,1130
-265.8230964858798,1248
-263.27874326798565,1002
-260.7350935566336,983
-258.1921471637804,1237
-255.6499039013039,1476
-253.10836358100266,1147
-250.56752601459698,1117
-248.02739101372765,1403
-245.48795838995704,1521
-242.94922795476816,1276
-240.41119951956557,1027
-237.8738728956746,1196
-235.33724789434166,1378
-232.80132432673452,1412
-230.2661020039418,1369
-227.73158073697357,1414
-225.19776033676033,1708
-222.66464061415422,1711
-220.1322213799284,1309
-217.60050244477725,1261
-215.06948361931552,1486
-212.53916471408013,2212
-210.00954553952818,2266
-207.48062590603843,1486
-204.9524056239104,1254
-202.4248845033651,1721
-199.8980623545441,1912
-197.37193898751036,2005
-194.84651421224817,1656
-192.32178783866232,1535
-189.79775967657952,1847
-187.27442953574644,2164
-184.7517972258321,2115
-182.2298625564256,1591
-179.7086253370378,1448
-177.18808537710026,1754
-174.66824248596583,2437
-172.14909647290835,2858
-169.6306471471229,2087
-167.11289431772548,1591
-164.59583779375328,1733
-162.07947738416453,2488
-159.5638128978386,2957
-157.04884414357605,3004
-154.53457093009854,2643
-152.02099306604828,1962
-149.50811035998936,1747
-146.99592262040665,2182
-144.48442965570587,3029
-141.97363127421409,3948
-139.46352728417958,4339
-136.95411749377126,3837
-134.44540171107985,2859
-131.93737974411636,2005
-129.43005140081357,2522
-126.92341648902493,4003
-124.41747481652521,6533
-121.91222619101006,8451
-119.40767042009657,8048
-116.90380731132257,5950
-114.40063667214702,4287
-111.8981583099503,3054
-109.3963720320337,3912
-106.89527764561933,6384
-104.39487495785067,13663
-101.89516377579241,19993
-99.39614390642998,22047
-96.89781515667039,20241
-94.40017733334128,17201
-91.90323024319173,15118
-89.40697369289148,14155
-86.91140748903172,10847
-84.41653143812482,11095
-81.92234534660395,18511
-79.42884902082358,30253
-76.93604226705907,34782
-74.4439248915071,33938
-71.95249670028534,34588
-69.46175749943245,38916
-66.97170709490854,50867
-64.48234529259423,56383
-61.99367189829195,52093
-59.50568671772464,43039
-57.01838955653636,41436
-54.53178022029283,30878
-52.045858514480074,26923
-49.560624244506016,22819
-47.07607721569923,21460
-44.59221723330904,21338
-42.10904410250669,23546
-39.62655762838392,26953
-37.14475761595372,32478
-34.66364387015028,38195
-32.18321619582866,46670
-29.70347439776515,56737
-27.224418280657005,65024
-24.74604764912317,65024
-22.26836230770266,65024
-19.7913620608565,65024
-17.315046712966478,65024
-14.83941606833514,65024
-12.36446993118659,65024
-9.89020810566592,65024
-7.416630395839093,65024
-4.94373660569363,65024
-2.471526539137585,65024
-6.821210263296962E-13,65024
2.47084320796705,65024
4.941003281093458,65024
7.410480415786196,65024
9.879274808531363,65024
12.347386655893956,65024
14.814816154518212,65024
17.28156350112681,65024
19.74762889252179,65024
22.21301252558385,25328
24.67771459727237,7490
27.141735304626195,7487
29.605074844762612,8162
32.06773341487792,7307
34.52971121224755,6973
36.99100843422559,7475
39.45162527824516,7157
41.91156194181792,7557
44.370818622535126,5889
46.82939551806646,6192
49.287292826160524,6397
51.74451074464503,5608
54.201049471426245,3939
56.65690920448981,3684
59.112090141899785,4010
61.56659248179983,3725
64.02041642241159,3911
66.4735621620365,4451
68.92602989905402,5371
71.37781983192338,5467
73.82893215918205,5027
76.27936707944684,4141
78.72912479141326,4271
81.17820549385567,4420
83.62660938562783,4028
86.07433666566146,3785
88.5213875329681,3089
90.96776218663751,3114
93.41346082583925,2952
95.85848364982041,3021
98.30283085790859,3773
100.7465026495089,3933
103.18949922410604,3429
105.63182078126385,2572
108.07346752062438,2452
110.51443964190923,1887
112.95473734491827,2175
115.39436082953114,3039
117.83331029570547,3488
120.27158594347827,2793
122.7091879729652,2254
125.1461165843615,2230
127.58237197794062,2757
130.01795435405518,2469
132.4528639131364,2508
134.88710085569494,2910
137.32066538231982,2643
139.75355769367923,2314
142.1857779905207,2502
144.61732647366978,2249
147.04820334403132,2034
149.47840880258934,1711
151.90794305040674,1958
154.33680628862487,2082
156.76499871846443,2100
159.19252054122433,2177
161.61937195828352,2392
164.04555317109896,2567
166.47106438120693,2734
168.89590579022217,2771
171.320077599839,2943
173.7435800118302,3187
176.16641322804742,3368
178.58857745042144,3145
181.01007288096173,2873
183.43089972175687,3000
185.85105817497413,2866
188.27054844285988,2588
190.6893707277394,2727
193.10752523201643,3070
195.5250121581745,3121
197.9418317087751,2787
200.3579840864594,3009
202.7734694939469,3176
205.18828813403627,3156
207.6024402096051,3015
210.01592592360964,3151
212.42874547908548,2746
214.84089907914665,2731
217.2523869269868,2913
219.66320922587727,2811
222.0733661791695,2790
224.48285799029293,2998
226.8916848627572,2993
229.29984700014882,2811
231.7073446061355,2927
234.11417788446204,2953
236.520347038953,2919
238.92585227351185,3080
241.33069379212054,2889
243.73487179884035,2787
246.1383864978112,2729
248.541238093252,2917
250.9434267894609,2955
253.34495279081432,2863
255.74581630176783,2780
258.1460175268563,2910
260.54555667069314,3073
262.9444339379703,3229
265.3426495334594,3293
267.7402036620107,3011
270.1370965285529,2863
272.53332833809407,2849
274.9288992957214,2872
277.32380960660055,2866
279.718059475976,2753
282.1116491091717,2619
284.5045787115897,2608
286.89684848871195,2703
289.2884586460981,2646
291.67940938938807,2804
294.0697009242996,2877
296.4593334566299,2766
298.84830719225477,2808
301.23662233712923,2678
303.6242790972866,2747
306.01127767884,2633
308.39761828798066,2650
310.78330113097934,2465
313.16832641418534,2377
315.5526943440269,2448
317.9364051270112,2621
320.3194589697242,2420
322.70185607883093,2342
325.0835966610754,2205
327.4646809232805,2270
329.8451090723478,2350
332.2248813152577,2405
334.6039978590701,2404
336.9824589109231,2228
339.36026467803447,2153
341.7374153677,2250
344.113911187295,2278
346.48975234427337,2252
348.8649390461686,2324
351.2394715005918,2119
353.61334991523415,2164
355.9865744978655,2039
358.35914545633375,2253
360.73106299856715,2147
363.10232733257146,2105
365.47293866643247,2147
367.84289720831396,2203
370.2122031664593,2143
372.5808567491905,2075
374.9488581649083,2048
377.31620762209275,2002
379.6829053293021,1991
382.0489514951745,1977
384.4143463284262,2093
386.7790900378528,1997
389.14318283232853,2143
391.50662492080653,2253
393.86941651231916,2362
396.23155781597745,2306
398.5930490409713,2170
400.9538903965696,2137
403.3140820921202,2038
405.6736243370498,2034
408.03251734086336,2012
410.3907613131465,1968
412.74835646356166,2101
415.10530300185144,1949
417.4616011378372,2011
419.81725108141893,1959
422.1722530425758,1964
424.5266072313656,1982
426.880313857925,1935
429.2333731324701,1975
431.58578526529516,1927
433.9375504667738,1976
436.2886689473588,1990
438.63914091758113,1942
440.9889665880513,1890
443.33814616945835,1899
445.68667987257015,1898
448.03456790823395,1928
450.3818104873759,1963
452.72840782100013,1924
455.07436012019105,1920
457.41966759611057,1916
459.7643304600007,1828
462.10834892318155,1961
464.4517231970525,1912
466.79445349309174,1920
469.1365400228566,2005
471.4779829979826,1911
473.81878263018564,1927
476.15893913125876,2035
478.4984527130747,2159
480.8373235875855,2186
483.17555196682144,2161
485.5131380628919,2212
487.8500820879857,2215
490.1863842543697,2381
492.52204477439034,2590
494.8570638604725,2913
497.1914417251204,3346
499.52517858091653,3886
501.85827464052306,4285
504.19073011668036,4589
506.5225452222086,4615
508.85372017000566,4658
511.18425517304956,5075
513.514150444396,6620
515.8434061971808,8236
518.1720226446176,8744
520.4999999999999,8306
522.8273384766991,7419
525.1540382881666,6799
527.480099647932,5453
529.8055227696037,3841
532.1303078668694,2969
534.454455153496,2583
536.777964843328,2281
539.1008371502907,2210
541.4230722883866,2239
543.744670471698,2166
546.0656319143858,2079
548.3859568306899,2026
550.7056454349294,2110
553.0246979415016,2231
555.3431145648834,2130
557.6608955196306,2073
559.978041020377,2034
562.2945512818363,2111
564.6104265188006,2044
566.9256669461412,2062
569.2402727788082,2086
571.5542442318302,2255
573.8675815203156,2030
576.1802848594508,2012
578.4923544645015,2020
580.8037905508126,1936
583.114593333807,2037
585.4247630289875,1971
587.7342998519354,2037
590.0432040183106,1974
592.3514757438526,1943
594.6591152443794,1956
596.9661227357875,2025
599.2724984340531,1976
601.578242555231,1997
603.8833553154542,1977
606.1878369309362,1982
608.4916876179676,1941
610.7949075929192,1967
613.0974970722403,1972
615.3994562724587,1906
617.7007854101818,1982
620.0014847020951,1979
622.3015543649641,1936
624.6009946156324,1918
626.8998056710224,1963
629.1979877481361,1986
631.4955410640538,1934
633.7924658359349,1920
636.0887622810175,1921
638.3844306166192,1987
640.6794710601358,1972
642.9738838290426,1984
645.2676691408932,1979
647.5608272133207,1929
649.853358264037,1965
652.1452625108324,2008
654.4365401715764,1927
656.7271914642178,2049
659.0172166067838,2106
661.3066158173809,1928
663.5953893141935,1984
665.8835373154867,1878
668.1710600396028,2047
670.4579577049639,2006
672.7442305300709,1964
675.0298787335033,1943
677.3149025339197,1953
679.599302150058,1977
681.8830778007342,2109
684.1662297048437,2101
686.4487580813608,2001
688.7306631493387,1977
691.0119451279091,1959
693.2926042362834,1988
695.5726406937516,1983
697.8520547196814,1987
700.1308465335215,1914
702.4090163547982,1903
704.6865644031171,1924
706.9634908981619,1902
709.2397960596965,1894
711.5154801075631,1956
713.7905432616823,2031
716.0649857420548,1964
718.3388077687592,1883
720.612009561953,1885
722.8845913418733,1912
725.1565533288352,1910
727.427895743234,1951
729.6986188055427,1895
731.9687227363137,1966
734.238207756178,1956
736.5070740858458,1970
738.7753219461066,1989
741.0429515578281,1976
743.3099631419569,1952
745.5763569195191,1963
747.8421331116193,1967
750.1072919394409,1973
752.3718336242467,1921
754.6357583873777,1970
756.8990664502545,1952
759.1617580343765,1990
761.423833361321,1901
763.6852926527457,1899
765.9461361303862,2001
768.206364016058,1926
770.4659765316536,2052
772.7249738991469,2011
774.9833563405886,2041
777.2411240781092,2023
779.4982773339183,1994
781.7548163303044,1974
784.010741289634,1970
786.2660524343538,2027
788.5207499869881,2102
790.7748341701416,2150
793.0283052064964,2031
795.2811633188143,2012
797.5334087299362,2020
799.7850416627813,2005
802.0360623403484,2038
804.2864709857143,2064
806.5362678220353,2068
808.7854530725468,1981
811.0340269605625,1912
813.2819897094754,1987
815.5293415427581,2072
817.77608268396,2104
820.0222133567116,1950
822.2677337847211,2021
824.5126441917765,2099
826.7569448017433,2020
829.0006358385675,1980
831.2437175262731,1934
833.4861900889629,1955
835.7280537508192,2007
837.9693087361026,2048
840.2099552691533,1838
842.4499935743896,1916
844.689423876309,1976
846.9282463994886,2096
849.1664613685833,1965
851.4040690083276,2026
853.6410695435349,1952
855.877463199097,1982
858.1132501999847,1955
860.3484307712487,2060
862.5830051380175,2018
864.8169735254988,1963
867.0503361589791,2014
869.2830932638243,2008
871.5152450654786,1915
873.7467917894654,2048
875.9777336613873,2052
878.2080709069252,2062
880.4378037518389,1995
882.666932421968,2044
884.8954571432301,2024
887.1233781416219,2061
889.3506956432192,1923
891.5774098741766,1956
893.803521060728,2009
896.0290294291852,1988
898.2539352059397,1950
900.4782386174619,1973
902.7019398903011,2016
904.925039251085,2061
907.147536926521,1986
909.3694331433943,2020
911.59072812857,2063
913.8114221089921,2053
916.0315153116827,2047
918.2510079637437,2028
920.4699002923547,1999
922.6881925247761,2032
924.905884888345,2066
927.1229776104793,2050
929.3394709186747,1970
931.555365040506,2029
933.7706602036275,2038
935.9853566357709,2128
938.1994545647489,2082
940.4129542184515,2076
942.6258558248488,2098
944.8381596119883,2155
947.0498658079974,2112
949.2609746410825,2094
951.4714863395287,2057
953.6814011316998,2049
955.8907192460387,2057
958.0994409110671,2093
960.3075663553858,2148
962.5150958076741,2121
964.7220294966913,2129
966.928367651274,2124
969.1341105003388,1977
971.3392582728806,1960
973.5438111979742,1991
975.747769504772,1975
977.9511334225061,2003
980.153903180487,2067
982.3560790081052,1958
984.5576611348289,1927
986.7586497902058,1977
988.9590452038618,1877
991.158847605503,1916
993.3580572249133,1828
995.5566742919558,1821
997.7546990365728,1738
999.952131688785,1732
1002.1489724786926,1731
1004.3452216364743,1619
1006.5408793923874,1635
1008.7359459767691,1580
1010.9304216200343,1609
1013.1243065526781,1608
1015.3176010052733,1629
1017.510305208472,1595
1019.7024193930064,1658
1021.8939437896848,1679
1024.0848786293977,1594
1026.2752241431122,1596
1028.4649805618747,1581
1030.6541481168115,1576
1032.842727039127,1587
1035.0307175601051,1527
1037.2181199111074,1559
1039.4049343235752,1540
1041.591161029029,1516
1043.7768002590683,1537
1045.9618522453698,1622
1048.1463172196918,1600
1050.3301954138697,1571
1052.513487059818,1529
1054.69619238953,1512
1056.8783116350783,1524
1059.0598450286152,1552
1061.2407928023704,1526
1063.4211551886528,1518
1065.6009324198508,1494
1067.780124728432,1476
1069.9587323469414,1514
1072.1367555080046,1593
1074.314194444325,1492
1076.4910493886855,1570
1078.667320573947,1523
1080.843008233051,1469
1083.0181125990161,1461
1085.1926339049414,1468
1087.3665723840027,1504
1089.5399282694575,1510
1091.7127017946405,1520
1093.8848931929647,1535
1096.0565026979243,1399
1098.2275305430899,1467
1100.3979769621128,1486
1102.567842188722,1465
1104.737126456726,1408
1106.9058300000124,1479
1109.0739530525475,1441
1111.2414958483764,1489
1113.4084586216231,1416
1115.5748416064907,1552
1117.7406450372605,1502
1119.9058691482942,1502
1122.0705141740304,1437
1124.2345803489884,1491
1126.3980679077658,1446
1128.5609770850388,1530
1130.7233081155623,1494
1132.8850612341707,1444
1135.0462366757774,1368
1137.2068346753745,1496
1139.3668554680326,1453
1141.526299288901,1424
1143.68516637321,1449
1145.8434569562655,1508
1148.001171273455,1430
1150.158309560244,1437
1152.3148720521767,1409
1154.470858984876,1495
1156.626270594044,1479
1158.7811071154629,1478
1160.9353687849912,1422
1163.089055838569,1411
1165.242168512213,1437
1167.3947070420209,1491
1169.5466716641677,1434
1171.6980626149075,1520
1173.8488801305748,1479
1175.9991244475814,1488
1178.1487958024186,1423
1180.2978944316555,1424
1182.4464205719428,1441
1184.5943744600072,1374
1186.7417563326567,1385
1188.8885664267755,1434
1191.0348049793297,1403
1193.1804722273619,1366
1195.325568407995,1425
1197.4700937584303,1409
1199.614048515948,1443
1201.7574329179074,1424
1203.900247201746,1408
1206.042491604982,1413
1208.1841663652099,1460
1210.3252717201053,1457
1212.465807907422,1501
1214.6057751649923,1479
1216.7451737307279,1438
1218.8840038426192,1468
1221.0222657387353,1491
1223.1599596572241,1420
1225.2970858363137,1519
1227.4336445143094,1519
1229.5696359295966,1453
1231.705060320639,1514
1233.8399179259786,1546
1235.9742089842384,1445
1238.107933734118,1399
1240.2410924143974,1476
1242.373685263935,1527
1244.5057125216676,1440
1246.6371744266116,1444
1248.7680712178621,1478
1250.898403134593,1486
1253.028170416058,1511
1255.1573733015875,1516
1257.2860120305932,1520
1259.4140868425648,1500
1261.54159797707,1471
1263.6685456737569,1508
1265.7949301723515,1563
1267.9207517126597,1537
1270.046010534565,1510
1272.1707068780306,1496
1274.2948409830983,1442
1276.4184130898889,1549
1278.541423438603,1561
1280.6638722695184,1551
1282.785759822993,1461
1284.9070863394636,1551
1287.0278520594447,1546
1289.1480572235314,1556
1291.2677020723963,1544
1293.3867868467923,1597
1295.5053117875495,1554
1297.623277135579,1513
1299.740683131868,1595
1301.8575300174857,1670
1303.973818033578,1708
1306.0895474213703,1660
1308.2047184221678,1576
1310.3193312773528,1709
1312.4333862283888,1604
1314.5468835168163,1589
1316.659823384255,1639
1318.7722060724045,1605
1320.8840318230418,1622
1322.9953008780249,1652
1325.1060134792888,1652
1327.2161698688478,1618
1329.3257702887959,1672
1331.4348149813054,1657
1333.5433041886276,1607
1335.6512381530933,1634
1337.7586171171101,1577
1339.8654413231675,1581
1341.9717110138317,1579
1344.0774264317488,1607
1346.1825878196432,1591
1348.2871954203192,1565
1350.3912494766587,1579
1352.4947502316231,1591
1354.5976979282532,1572
1356.7000928096686,1536
1358.8019351190665,1542
1360.9032250997243,1460
1363.0039629949988,1486
1365.1041490483235,1514
1367.2037835032133,1463
1369.3028666032606,1519
1371.401398592137,1593
1373.4993797135926,1511
1375.5968102114575,1521
1377.6936903296396,1550
1379.7900203121262,1542
1381.8858004029835,1450
1383.9810308463561,1476
1386.075711886469,1494
1388.1698437676241,1543
1390.2634267342032,1565
1392.356461030667,1573
1394.4489469015557,1559
1396.5408845914872,1544
1398.6322743451592,1529
1400.7231164073469,1499
1402.813411022907,1495
1404.903158436773,1533
1406.9923588939578,1535
1409.0810126395531,1494
1411.1691199187303,1523
1413.2566809767386,1529
1415.343696058907,1481
1417.4301654106425,1541
1419.5160892774315,1562
1421.6014679048399,1519
1423.6863015385125,1503
1425.7705904241707,1522
1427.8543348076178,1529
1429.9375349347342,1563
1432.0201910514802,1497
1434.102303403894,1529
1436.1838722380944,1516
1438.2648978002767,1571
1440.3453803367174,1625
1442.4253200937692,1603
1444.5047173178677,1651
1446.5835722555234,1576
1448.6618851533285,1577
1450.739656257952,1599
1452.8168858161434,1572
1454.8935740747306,1623
1456.96972128062,1626
1459.045327680797,1612
1461.120393522327,1610
1463.1949190523528,1630
1465.2689045180973,1619
1467.3423501668608,1626
1469.415256246024,1607
1471.4876230030463,1615
1473.559450685465,1620
1475.6307395408976,1590
1477.7014898170391,1684
1479.771701761665,1779
1481.8413756226287,1643
1483.9105116478618,1603
1485.9791100853772,1668
1488.0471711832643,1714
1490.1146951896926,1717
1492.1816823529098,1702
1494.2481329212433,1777
1496.3140471430984,1788
1498.3794252669609,1696
1500.4442675413939,1671
1502.5085742150404,1766
1504.572345536622,1785
1506.6355817549388,1708
1508.6982831188702,1706
1510.7604498773744,1677
1512.8220822794883,1751
1514.8831805743293,1761
1516.9437450110909,1762
1519.003775839048,1792
1521.0632733075522,1746
1523.1222376660367,1760
1525.1806691640113,1845
1527.2385680510652,1825
1529.2959345768668,1772
1531.3527689911643,1854
1533.4090715437833,1852
1535.4648424846291,1855
1537.5200820636855,1811
1539.5747905310159,1876
1541.6289681367616,1882
1543.6826151311434,1913
1545.7357317644614,1961
1547.7883182870937,1937
1549.8403749494987,1928
1551.8919020022113,1987
1553.9428996958477,2038
1555.9933682811015,2089
1558.0433080087469,2052
1560.0927191296346,2051
1562.1416018946961,2135
1564.1899565549415,2016
1566.2377833614592,2030
1568.2850825654164,1992
1570.3318544180606,2006
1572.3780991707158,1986
1574.423817074788,1975
1576.4690083817595,1886
1578.5136733431923,1926
1580.5578122107272,1910
1582.601425236085,1879
1584.6445126710646,1834
1586.6870747675434,1796
1588.7291117774776,1810
1590.7706239529034,1754
1592.8116115459347,1737
1594.8520748087658,1687
1596.8920139936686,1703
1598.9314293529933,1637
1600.9703211391711,1648
1603.008689604711,1629
1605.0465350022005,1622
1607.0838575843068,1588
1609.1206576037753,1525
1611.1569353134305,1598
1613.1926909661765,1640
1615.2279248149953,1594
1617.2626371129481,1581
1619.2968281131757,1533
1621.3304980688963,1523
1623.3636472334088,1526
1625.39627586009,1491
1627.428384202396,1479
1629.459972513861,1452
1631.4910410480993,1561
1633.5215900588028,1477
1635.551619799744,1460
1637.5811305247717,1489
1639.6101224878166,1475
1641.6385959428862,1444
1643.6665511440683,1430
1645.693988345528,1362
1647.7209078015112,1404
1649.7473097663405,1439
1651.7731944944203,1466
1653.7985622402307,1501
1655.823413258333,1464
1657.847747803366,1409
1659.8715661300494,1425
1661.8948684931793,1487
1663.9176551476316,1451
1665.9399263483624,1354
1667.9616823504057,1404
1669.982923408873,1432
1672.0036497789574,1419
1674.0238617159293,1393
1676.043559475138,1340
1678.0627433120121,1393
1680.081413482059,1436
1682.0995702408654,1387
1684.117213844096,1378
1686.134344547495,1390
1688.1509626068864,1412
1690.1670682781705,1395
1692.182661817329,1437
1694.1977434804217,1463
1696.2123135235875,1389
1698.226372203043,1460
1700.2399197750851,1524
1702.2529564960905,1437
1704.2654826225112,1399
1706.277498410882,1360
1708.2890041178139,1420
1710.2999999999988,1445
1712.3104863142066,1383
1714.3204633172854,1414
1716.329931266163,1363
1718.3388904178469,1423
1720.3473410294214,1423
1722.3552833580516,1388
1724.3627176609807,1310
1726.3696441955308,1323
1728.3760632191033,1358
1730.3819749891782,1418
1732.3873797633146,1352
1734.3922777991502,1310
1736.3966693544012,1400
1738.4005546868639,1376
1740.4039340544127,1404
1742.406807715001,1409
1744.4091759266616,1390
1746.4110389475054,1432
1748.4123970357223,1434
1750.413250449582,1341
1752.4135994474318,1347
1754.4134442876993,1371
1756.4127852288902,1389
1758.4116225295893,1290
1760.4099564484595,1426
1762.407787244244,1427
1764.405115175764,1348
1766.4019405019203,1333
1768.3982634816916,1305
1770.3940843741357,1382
1772.3894034383907,1414
1774.3842209336717,1421
1776.378537119274,1332
1778.372352254571,1310
1780.3656665990156,1367
1782.3584804121397,1374
1784.3507939535534,1426
1786.3426074829463,1329
1788.3339212600863,1402
1790.3247355448211,1401
1792.3150505970766,1427
1794.3048666768573,1374
1796.2941840442477,1423
1798.2830029594106,1383
1800.2713236825884,1415
1802.2591464741004,1428
1804.2464715943465,1382
1806.2332993038058,1384
1808.2196298630352,1405
1810.2054635326708,1388
1812.190800573428,1355
1814.175641246101,1371
1816.1599858115628,1386
1818.1438345307652,1358
1820.127187664738,1334
1822.1100454745924,1386
1824.092408221516,1359
1826.0742761667766,1397
1828.055649571721,1399
1830.0365286977735,1357
1832.0169138064398,1384
1833.9968051593014,1434
1835.9762030180214,1389
1837.9551076443408,1408
1839.9335193000788,1417
1841.9114382471344,1367
1843.888864747485,1352
1845.8657990631878,1284
1847.842241456378,1374
1849.8181921892697,1385
1851.7936515241558,1390
1853.7686197234098,1410
1855.7430970494815,1359
1857.7170837649014,1314
1859.6905801322787,1395
1861.6635864143004,1372
1863.6361028737338,1345
1865.608129773424,1371
1867.5796673762961,1380
1869.5507159453537,1384
1871.521275743678,1443
1873.4913470344313,1406
1875.4609300808534,1314
1877.4300251462632,1361
1879.3986324940588,1382
1881.366752387717,1405
1883.3343850907936,1368
1885.3015308669228,1403
1887.268189979819,1528
1889.2343626932739,1428
1891.2000492711595,1441
1893.1652499774254,1367
1895.1299650761011,1375
1897.0941948312952,1419
1899.0579395071945,1348
1901.0211993680641,1379
1902.98397467825,1352
1904.9462657021745,1441
1906.9080727043415,1390
1908.869395949332,1427
1910.8302357018065,1388
1912.790592226504,1368
1914.7504657882428,1349
1916.7098566519212,1377
1918.6687650825133,1388
1920.6271913450764,1415
1922.5851357047422,1396
1924.5425984267245,1402
1926.499579776314,1420
1928.4560800188833,1410
1930.4120994198802,1363
1932.367638244833,1373
1934.32269675935,1350
1936.2772752291175,1413
1938.231373919899,1381
1940.1849930975404,1394
1942.1381330279637,1360
1944.0907939771696,1432
1946.0429762112412,1403
1947.9946799963363,1365
1949.9459055986945,1308
1951.896653284633,1372
1953.8469233205478,1377
1955.7967159729142,1386
1957.7460315082863,1313
1959.6948701932974,1334
1961.6432322946594,1362
1963.5911180791632,1413
1965.5385278136787,1372
1967.4854617651545,1340
1969.4319202006182,1386
1971.377903387176,1389
1973.3234115920136,1379
1975.268445082395,1392
1977.2130041256642,1306
1979.1570889892423,1371
1981.1006999406304,1364
1983.04383724741,1387
1984.986501177238,1368
1986.928691997853,1401
1988.8704099770712,1396
1990.811655382789,1362
1992.7524284829801,1425
1994.692729545698,1390
1996.6325588390755,1344
1998.5719166313224,1389
2000.5108031907307,1348
2002.4492187856677,1354
2004.387163684583,1334
2006.3246381560011,1337
2008.2616424685298,1323
2010.1981768908527,1389
2012.1342416917332,1366
2014.069837140014,1423
2016.0049635046162,1363
2017.9396210545406,1371
2019.8738100588666,1334
2021.8075307867502,1337
2023.740783507431,1364
2025.6735684902228,1424
2027.6058860045214,1372
2029.5377363198004,1370
2031.4691197056118,1374
2033.4000364315875,1447
2035.3304867674374,1430
2037.260470982952,1368
2039.189989347998,1360
2041.1190421325232,1391
2043.047629606554,1331
2044.9757520401945,1412
2046.9034097036288,1373
2048.8306028671195,1327
2050.7573318010086,1318
2052.683596775716,1348
2054.609398061742,1388
2056.5347359296647,1373
2058.4596106501403,1341
2060.384022493906,1350
2062.3079717317764,1341
2064.231458634646,1363
2066.1544834734873,1316
2068.077046519352,1417
2069.99914804337,1347
2071.9207883167524,1332
2073.8419676107865,1361
2075.7626861968406,1355
2077.6829443463607,1318
2079.6027423308715,1313
2081.522080421977,1403
2083.440958891362,1324
2085.359378010786,1352
2087.2773380520907,1354
2089.194839287196,1363
2091.111881988101,1354
2093.0284664268825,1331
2094.9445928756973,1369
2096.86026160678,1418
2098.775472892446,1464
2100.690227005088,1359
2102.604524217178,1392
2104.5183648012676,1409
2106.431749029985,1371
2108.34467717604,1344
2110.2571495122206,1330
2112.169166311393,1356
2114.080727846503,1332
2115.9918343905747,1366
2117.902486216711,1377
2119.8126835980956,1336
2121.722426807987,1343
2123.6317161197285,1340
2125.5405518067364,1374
2127.448934142509,1429
2129.356863400624,1362
2131.264339854737,1397
2133.1713637785815,1387
2135.077935445972,1437
2136.9840551308002,1365
2138.889723107037,1340
2140.7949396487334,1445
2142.699705030018,1385
2144.6040195250994,1412
2146.507883408264,1404
2148.4112969538774,1372
2150.3142604363848,1386
2152.2167741303097,1387
2154.1188383102535,1364
2156.0204532508997,1331
2157.9216192270064,1332
2159.822336513414,1412
2161.7226053850413,1415
2163.622426116884,1413
2165.5217989840185,1454
2167.4207242616,1445
2169.319202224862,1289
2171.2172331491165,1353
2173.1148173097563,1372
2175.0119549822507,1341
2176.90864644215,1397
2178.8048919650823,1414
2180.7006918267534,1380
2182.596046302952,1399
2184.4909556695407,1378
2186.3854202024645,1400
2188.279440177746,1386
2190.173015871487,1412
2192.066147559868,1470
2193.958835519149,1394
2195.851080025667,1405
2197.7428813558417,1436
2199.6342397861667,1387
2201.5251555932186,1444
2203.415629053651,1418
2205.3056604441986,1394
2207.19525004167,1411
2209.084398122958,1462
2210.9731049650327,1429
2212.861370844941,1393
2214.749196039812,1390
2216.636580826851,1418
2218.523525483344,1442
2220.410030286655,1473
2222.296095514226,1415
2224.1817214435805,1404
2226.066908352319,1458
2227.951656518121,1438
2229.835966218746,1453
2231.71983773203,1389
2233.6032713358913,1404
2235.486267308324,1442
2237.3688259274036,1435
2239.2509474712824,1381
2241.132632218193,1429
2243.013880446447,1366
2244.8946924344323,1457
2246.7750684606203,1418
2248.6550088035574,1361
2250.534513741871,1390
2252.413583554265,1416
2254.292218519526,1375
2256.170418916517,1352
2258.0481850241786,1396
2259.925517121534,1430
2261.8024154876825,1448
2263.678880401803,1438
2265.5549121431536,1463
2267.430510991071,1405
2269.305677224971,1402
2271.180411124348,1349
2273.0547129687766,1416
2274.9285830379076,1373
2276.8020216114737,1357
2278.6750289692845,1342
2280.5476053912294,1399
2282.4197511572766,1454
2284.2914665474727,1402
2286.162751841943,1490
2288.0336073208937,1355
2289.904033264608,1419
2291.774029953448,1347
2293.6435976678554,1322
2295.5127366883517,1362
2297.381447295534,1345
2299.2497297700825,1272
2301.1175843927526,1278
2302.9850114443825,1298
2304.852011205885,1303
2306.7185839582553,1297
2308.5847299825664,1253
2310.4504495599676,1219
2312.3157429716925,1243
2314.1806104990483,1207
2316.0450524234247,1210
2317.9090690262888,1251
2319.772660589186,1224
2321.635827393742,1251
2323.498569721661,1197
2325.3608878547248,1188
2327.2227820747967,1166
2329.0842526638157,1216
2330.945299903803,1164
2332.805924076857,1197
2334.6661254651535,1242
2336.525904350951,1254
2338.3852610165827,1239
2340.244195744464,1247
2342.102708817088,1210
2343.9608005170253,1213
2345.8184711269287,1172
2347.675720929526,1222
2349.532550207628,1225
2351.38895924412,1263
2353.24494832197,1281
2355.100517724223,1307
2356.955667734004,1226
2358.810398634514,1200
2360.664710709037,1246
2362.5186042409337,1190
2364.3720795136437,1194
2366.225136810686,1267
2368.0777764156583,1237
2369.929998612237,1198
2371.7818036841777,1195
2373.633191915315,1231
2375.484163589562,1157
2377.3347189909114,1193
2379.184858403434,1215
2381.03458211128,1225
2382.8838903986775,1233
2384.732783549936,1242
2386.5812618494406,1314
2388.4293255816588,1265
2390.2769750311327,1208
2392.1242104824883,1226
2393.971032220427,1265
2395.8174405297295,1236
2397.6634356952563,1214
2399.509018001947,1228
2401.3541877348193,1243
2403.1989451789705,1246
2405.043290619576,1234
2406.8872243418905,1239
2408.730746631247,1172
2410.5738577730594,1275
2412.4165580528183,1209
2414.258847756095,1261
2416.100727168537,1171
2417.9421965758734,1215
2419.783256263912,1218
2421.623906518538,1190
2423.4641476257157,1281
2425.303979871491,1245
2427.143403541984,1161
2428.9824189233977,1226
2430.821026302012,1235
2432.6592259641866,1233
2434.497018196361,1236
2436.33440328505,1239
2438.171381516851,1257
2440.00795317844,1293
2441.844118556569,1278
2443.6798779380724,1221
2445.5152316098606,1263
2447.3501798589255,1224
2449.1847229723357,1215
2451.0188612372403,1233
2452.8525949408663,1257
2454.6859243705203,1207
2456.518849813587,1260
2458.3513715575314,1292
2460.183489889895,1268
2462.015205098301,1260
2463.8465174704493,1286
2465.67742729412,1271
2467.5079348571717,1273
2469.338040447542,1266
2471.1677443532476,1287
2472.9970468623833,1279
2474.825948263123,1228
2476.6544488437207,1234
2478.482548892508,1250
2480.310248697896,1271
2482.137548548374,1208
2483.9644487325118,1222
2485.790949538956,1263
2487.617051256433,1270
2489.44275417375,1271
2491.26805857979,1263
2493.0929647635157,1239
2494.917473013971,1237
2496.741583620276,1251
2498.5652968716304,1239
2500.3886130573137,1254
2502.2115324666834,1227
2504.0340553891765,1253
2505.856182114308,1256
2507.6779129316733,1295
2509.499248130945,1258
2511.3201880018764,1335
2513.140732834298,1289
2514.9608829181198,1309
2516.780638543331,1250
2518.6,1220
2520.418967578273,1230
2522.237541568376,1250
2524.0557222606144,1291
2525.8735099453706,1268
2527.6909049131086,1282
2529.507907454368,1247
2531.32451785977,1285
2533.140736420014,1304
2534.9565634258774,1281
2536.771999168218,1288
2538.5870439379714,1284
2540.4016980261526,1333
2542.2159617238544,1299
2544.02983532225,1303
2545.8433191125914,1321
2547.656413386209,1333
2549.4691184345115,1312
2551.2814345489874,1332
2553.093362021204,1346
2554.904901142808,1290
2556.716052205523,1294
2558.526815501153,1372
2560.3371913215824,1359
2562.147179958771,1276
2563.956781704761,1369
2565.7659968516705,1383
2567.5748256916986,1319
2569.3832685171224,1363
2571.1913256202984,1321
2572.9989972936614,1354
2574.806283829725,1321
2576.613185521084,1355
2578.4197026604074,1281
2580.2258355404483,1354
2582.031584454035,1335
2583.836949694077,1366
2585.6419315535613,1328
2587.4465303255533,1367
2589.2507463032002,1340
2591.0545797797245,1305
2592.8580310484303,1306
2594.6611004026995,1320
2596.463788135992,1346
2598.266094541849,1370
2600.0680199138874,1341
2601.869564545807,1329
2603.670728731383,1339
2605.4715127644704,1287
2607.2719169390048,1320
2609.071941548998,1329
2610.8715868885433,1363
2612.670853251811,1339
2614.469740933052,1298
2616.268250226594,1330
2618.0663814268455,1377
2619.864134828292,1289
2621.6615107255006,1314
2623.458509413115,1307
2625.2551311858597,1349
2627.0513763385347,1355
2628.8472451660223,1329
2630.6427379632833,1280
2632.4378550253564,1341
2634.232596647359,1348
2636.026963124488,1360
2637.8209547520187,1325
2639.6145718253065,1328
2641.407814639785,1307
2643.200683490966,1352
2644.9931786744414,1270
2646.7853004858807,1300
2648.577049221034,1278
2650.3684251757277,1290
2652.1594286458712,1295
2653.9500599274484,1264
2655.740319316525,1309
2657.5302071092437,1312
2659.3197236018286,1302
2661.10886909058,1232
2662.8976438718782,1274
2664.686048242183,1294
2666.4740824980327,1276
2668.2617469360443,1294
2670.0490418529134,1258
2671.8359675454153,1261
2673.622524310403,1295
2675.408712444811,1302
2677.1945322456495,1236
2678.979984010009,1223
2680.76506803506,1281
2682.5497846180497,1299
2684.334134056306,1253
2686.1181166472343,1235
2687.9017326883213,1229
2689.6849824771293,1213
2691.4678663113013,1274
2693.2503844885596,1300
2695.032537306705,1307
2696.8143250636167,1308
2698.5957480572542,1286
2700.3768065856534,1219
2702.1575009469316,1219
2703.937831439283,1254
2705.717798360982,1257
2707.4974020103837,1244
2709.276642685917,1255
2711.055520686095,1237
2712.834036309506,1219
2714.612189854819,1212
2716.389981620782,1212
2718.1674119062204,1240
2719.944481010041,1268
2721.721189231226,1277
2723.4975368688415,1267
2725.273524222027,1227
2727.0491515900053,1276
2728.824419272075,1226
2730.5993275676146,1226
2732.3738767760838,1208
2734.148067197016,1228
2735.921899130031,1226
2737.6953728748194,1200
2739.468488731156,1230
2741.2412469988926,1214
2743.0136479779617,1246
2744.785691968372,1279
2746.5573792702116,1260
2748.3287101836504,1248
2750.099685008934,1246
2751.870304046388,1186
2753.640567596418,1241
2755.4104759595057,1228
2757.1800294362156,1205
2758.949228327187,1199
2760.7180729331412,1225
2762.486563554877,1198
2764.254700493272,1220
2766.022484049284,1255
2767.789914523947,1187
2769.5569922183786,1217
2771.3237174337705,1220
2773.090090471394,1212
2774.8561116326036,1244
2776.6217812188274,1235
2778.3870995315756,1208
2780.1520668724356,1209
2781.9166835430747,1188
2783.6809498452394,1287
2785.444866080754,1274
2787.2084325515225,1254
2788.971649559527,1193
2790.73451740683,1227
2792.4970363955713,1190
2794.2592068279705,1170
2796.0210290063264,1190
2797.7825032330147,1220
2799.543629810493,1226
2801.304409041296,1231
2803.0648412280366,1234
2804.8249266734088,1230
2806.5846656801846,1228
2808.344058551212,1237
2810.1031055894246,1207
2811.8618070978273,1258
2813.6201633795085,1255
2815.378174737636,1162
2817.1358414754536,1184
2818.893163896285,1217
2820.6501423035334,1219
2822.4067770006814,1198
2824.1630682912883,1249
2825.9190164789957,1235
2827.6746218675207,1235
2829.429884760661,1205
2831.184805462294,1252
2832.9393842763743,1233
2834.693621506936,1222
2836.4475174580916,1214
2838.201072434034,1191
2839.954286739034,1172
2841.707160677441,1215
2843.459694553685,1215
2845.2118886722724,1264
2846.96374333779,1227
2848.7152588549034,1255
2850.4664355283567,1266
2852.217273662973,1220
2853.9677735636546,1174
2855.7179355353833,1263
2857.4677598832186,1285
2859.217246912299,1206
2860.9663969278427,1196
2862.715210235146,1222
2864.4636871395846,1231
2866.211827946614,1180
2867.9596329617652,1166
2869.7071024906536,1256
2871.4542368389684,1265
2873.20103631248,1181
2874.947501217038,1143
2876.6936318585695,1211
2878.4394285430812,1194
2880.1848915766604,1256
2881.9300212654707,1252
2883.6748179157553,1188
2885.4192818338374,1209
2887.1634133261173,1158
2888.907212699077,1120
2890.6506802592744,1220
2892.393816313348,1244
2894.1366211680142,1248
2895.8790951300693,1269
2897.621238506388,1265
2899.363051603925,1197
2901.1045347297118,1187
2902.8456881908596,1235
2904.58651229456,1212
2906.327007348081,1166
2908.067173658772,1182
2909.8070115340597,1232
2911.5465212814497,1246
2913.285703208527,1211
2915.0245576229563,1227
2916.7630848324807,1228
2918.5012851449196,1262
2920.2391588681758,1201
2921.976706310227,1238
2923.7139277791334,1258
2925.4508235830313,1207
2927.187394030137,1227
2928.923639428745,1259
2930.6595600872306,1265
2932.395156314046,1231
2934.1304284177218,1222
2935.8653767068713,1216
2937.6000014901815,1252
2939.3343030764227,1247
2941.068281774442,1215
2942.8019378931644,1136
2944.5352717415976,1215
2946.2682836288236,1246
2948.0009738640065,1223
2949.7333427563885,1287
2951.465390615289,1227
2953.1971177501086,1247
2954.9285244703265,1286
2956.6596110855,1250
2958.3903779052657,1216
2960.1208252393385,1274
2961.8509533975125,1165
2963.5807626896617,1250
2965.3102534257378,1212
2967.0394259157715,1225
2968.768280469873,1271
2970.496817398232,1225
2972.2250370111146,1209
2973.952939618869,1251
2975.6805255319196,1233
2977.4077950607707,1248
2979.134748516006,1240
2980.861386208289,1177
2982.587708448359,1234
2984.313715547037,1205
2986.039407815222,1190
2987.764785563891,1206
2989.489849104102,1228
2991.2145987469908,1194
2992.9390348037705,1204
2994.6631575857346,1197
2996.3869674042576,1271
2998.1104645707887,1237
2999.83364939686,1195
3001.5565221940783,1174
3003.2790832741334,1192
3005.0013329487924,1180
3006.7232715298996,1217
3008.4448993293804,1220
3010.166216659239,1210
3011.887223831558,1195
3013.607921158498,1163
3015.3283089522993,1155
3017.0483875252826,1151
3018.7681571898443,1171
3020.4876182584626,1235
3022.2067710436927,1171
3023.9256158581707,1193
3025.644153014609,1183
3027.362382825801,1165
3029.0803056046193,1259
3030.797921664012,1202
3032.5152313170106,1156
3034.2322348767225,1204
3035.9489326563353,1199
3037.665324969115,1203
3039.3814121284063,1169
3041.097194447633,1177
3042.812672240299,1233
3044.5278458199855,1113
3046.2427155003525,1194
3047.9572815951406,1190
3049.671544418167,1204
3051.38550428333,1184
3053.0991615046073,1173
3054.812516396051,1229
3056.5255692717974,1208
3058.2383204460575,1190
3059.9507702331257,1240
3061.662918947372,1174
3063.3747669032446,1176
3065.0863144152736,1175
3066.7975617980674,1168
3068.508509366309,1224
3070.219157434767,1156
3071.9295063182844,1227
3073.639556331785,1200
3075.3493077902704,1167
3077.058761008821,1200
3078.7679163025964,1202
3080.476773986837,1203
3082.1853343768594,1194
3083.89359778806,1193
3085.6015645359153,1196
3087.3092349359786,1159
3089.016609303884,1203
3090.7236879553434,1223
3092.4304712061476,1189
3094.136959372166,1214
3095.843152769349,1185
3097.5490517137237,1173
3099.2546565213966,1183
3100.959967508554,1201
3102.66498499146,1217
3104.3697092864577,1201
3106.0741407099695,1186
3107.778279578498,1239
3109.482126208622,1166
3111.1856809170004,1216
3112.8889440203716,1138
3114.5919158355528,1198
3116.294596679439,1208
3117.996986869006,1246
3119.6990867213062,1217
3121.4008965534726,1196
3123.102416682717,1147
3124.803647426329,1209
3126.5045891016784,1207
3128.205242026213,1214
3129.90560651746,1199
3131.605682893025,1199
3133.3054714705922,1211
3135.0049725679282,1242
3136.7041865028714,1211
3138.4031135933465,1156
3140.101754157353,1194
3141.800108512971,1152
3143.498176978357,1160
3145.1959598717494,1202
3146.8934575114636,1175
3148.5906702158954,1167
3150.2875983035183,1159
3151.9842420928853,1189
3153.680601902627,1191
3155.376678051456,1160
3157.07247085816,1164
3158.767980641609,1190
3160.463207720748,1240
3162.158152414606,1195
3163.8528150422862,1188
3165.5471959229726,1187
3167.2412953759303,1207
3168.9351137204976,1172
3170.628651276098,1174
3172.3219083622307,1168
3174.014885298474,1172
3175.707582404485,1203
3177.4000000000005,1169
3179.092138404835,1185
3180.7839979388846,1192
3182.47557892212,1171
3184.166881674594,1252
3185.8579065164386,1160
3187.5486537678626,1169
3189.2391237491547,1177
3190.9293167806827,1154
3192.6192331828934,1158
3194.3088732763117,1173
3195.998237381542,1199
3197.687325819268,1152
3199.376138910251,1158
3201.064676975334,1147
3202.7529403354347,1176
3204.4409293115523,1147
3206.1286442247647,1200
3207.816085396229,1142
3209.5032531471825,1108
3211.190147798936,1155
3212.8767696728846,1205
3214.5631190905015,1150
3216.2491963733373,1174
3217.9350018430214,1147
3219.6205358212637,1154
3221.305798629851,1149
3222.990790590651,1115
3224.6755120256103,1159
3226.359963256751,1163
3228.0441446061795,1111
3229.7280563960758,1146
3231.411698948703,1196
3233.0950725863995,1167
3234.778177631587,1169
3236.461014406761,1153
3238.1435832345005,1169
3239.8258844374595,1176
3241.507918338374,1133
3243.1896852600576,1158
3244.8711855254023,1168
3246.552419457381,1182
3248.233387379042,1198
3249.914089613516,1150
3251.59452648401,1213
3253.274698313813,1144
3254.95460542629,1156
3256.6342481448855,1156
3258.313626793125,1143
3259.9927416946084,1171
3261.6715931730196,1134
3263.3501815521176,1188
3265.0285071557437,1151
3266.706570307815,1177
3268.3843713323286,1150
3270.0619105533615,1174
3271.739188295068,1142
3273.4162048816834,1160
3275.0929606375184,1192
3276.769455886966,1161
3278.445690954498,1180
3280.1216661646613,1223
3281.797381842087,1172
3283.4728383114807,1190
3285.1480358976296,1198
3286.8229749253996,1150
3288.4976557197333,1160
3290.172078605655,1161
3291.846243908266,1161
3293.5201519527463,1190
3295.193803064357,1122
3296.8671975684374,1178
3298.5403357904024,1202
3300.21321805575,1126
3301.8858446900567,1162
3303.558216018975,1110
3305.23033236824,1206
3306.9021940636603,1258
3308.57380143113,1183
3310.2451547966184,1195
3311.916254486174,1157
3313.5871008259246,1150
3315.2576941420766,1162
3316.9280347609147,1119
3318.5981230088046,1173
3320.2679592121895,1073
3321.9375436975924,1133
3323.606876791612,1148
3325.27595882093,1114
3326.944790112305,1149
3328.6133709925753,1159
3330.2817017886573,1152
3331.949782827547,1148
3333.617614436319,1181
3335.2851969421245,1178
3336.952530672199,1135
3338.619615953853,1151
3340.286453114475,1128
3341.9530424815357,1130
3343.619384382583,1137
3345.2854791452437,1186
3346.951327097224,1174
3348.6169285663073,1188
3350.2822838803577,1173
3351.947393367319,1188
3353.61225735521,1177
3355.2768761721345,1128
3356.9412501462693,1126
3358.605379605873,1187
3360.2692648792827,1133
3361.9329062949146,1176
3363.596304181263,1175
