CollectionTime,9/26/2024 8:29:30 AM
ExposureUsed,3
CalibratedSpectrum
-962.7078968117929,546
-959.9714848408522,577
-957.2358232597828,571
-954.5009119013725,598
-951.7667505983302,621
-949.0333391832855,556
-946.3006774887896,591
-943.5687653473143,605
-940.837602591253,612
-938.1071890529199,591
-935.3775245645503,597
-932.6486089583007,623
-929.9204420662485,615
-927.1930237203925,694
-924.4663537526524,607
-921.7404319948689,586
-919.0152582788041,660
-916.2908324361409,746
-913.5671542984834,675
-910.8442236973568,578
-908.1220404642074,604
-905.4006044304027,611
-902.679915427231,577
-899.959973285902,595
-897.2407778375464,613
-894.5223289132158,601
-891.8046263438832,584
-889.0876699604426,565
-886.3714595937089,607
-883.6559950744183,633
-880.9412762332282,612
-878.2273029007168,632
-875.5140749073835,550
-872.8015920836489,568
-870.0898542598545,620
-867.3788612662631,589
-864.6686129330585,601
-861.9591090903457,588
-859.2503495681506,529
-856.5423341964203,554
-853.8350628050229,584
-851.1285352237478,618
-848.4227512823054,623
-845.7177108103272,645
-843.0134136373656,602
-840.3098595928943,587
-837.6070485063082,627
-834.9049802069229,611
-832.2036545239757,621
-829.5030712866244,693
-826.8032303239481,606
-824.1041314649472,576
-821.4057745385428,600
-818.7081593735775,567
-816.0112857988148,581
-813.3151536429393,587
-810.6197627345566,620
-807.9251129021936,643
-805.2312039742981,668
-802.5380357792392,602
-799.8456081453069,589
-797.1539209007124,575
-794.462973873588,626
-791.772766891987,615
-789.083299783884,652
-786.3945723771743,692
-783.7065844996748,650
-781.0193359791231,671
-778.3328266431781,641
-775.6470563194197,635
-772.9620248353489,631
-770.2777320183878,615
-767.5941776958798,560
-764.9113616950891,598
-762.2292838432011,585
-759.5479439673222,594
-756.8673418944801,673
-754.1874774516235,633
-751.5083504656222,615
-748.8299607632671,616
-746.15230817127,626
-743.475392516264,594
-740.7992136248035,609
-738.1237713233636,596
-735.4490654383407,623
-732.7750957960521,563
-730.1018622227365,628
-727.4293645445534,652
-724.7576025875837,603
-722.0865761778291,597
-719.4162851412126,632
-716.7467293035781,674
-714.0779084906909,784
-711.409822528237,658
-708.7424712418238,665
-706.0758544569796,659
-703.4099719991541,700
-700.7448236937178,676
-698.0804093659622,675
-695.4167288411002,687
-692.7537819442656,663
-690.0915685005134,682
-687.4300883348199,669
-684.7693412720819,636
-682.1093271371178,638
-679.4500457546669,665
-676.7914969493897,691
-674.1336805458676,652
-671.4765963686034,619
-668.8202442420206,656
-666.1646239904642,621
-663.5097354382001,636
-660.8555784094151,677
-658.2021527282176,681
-655.5494582186366,642
-652.8974947046223,668
-650.2462620100463,706
-647.5957599587009,718
-644.9459883742998,746
-642.2969470804776,715
-639.6486359007902,689
-637.0010546587141,639
-634.3542031776476,609
-631.7080812809096,660
-629.0626887917401,772
-626.4180255333008,810
-623.7740913286734,738
-621.1308860008619,715
-618.4884093727904,656
-615.8466612673046,689
-613.2056415071715,740
-610.5653499150785,739
-607.9257863136347,725
-605.28695052537,675
-602.6488423727357,714
-600.0114616781036,841
-597.3748082637674,850
-594.7388819519412,883
-592.1036825647604,805
-589.4692099242818,872
-586.8354638524829,890
-584.2024441712624,834
-581.5701507024403,896
-578.9385832677575,835
-576.3077416888759,831
-573.6776257873787,870
-571.0482353847704,805
-568.4195703024757,784
-565.7916303618415,773
-563.164415384135,761
-560.5379251905453,705
-557.9121596021815,744
-555.2871184400748,725
-552.6628015251767,764
-550.0392086783606,784
-547.4163397204204,789
-544.794194472071,783
-542.1727727539491,781
-539.5520743866118,884
-536.9320991905377,911
-534.3128469861261,933
-531.6943175936979,891
-529.0765108334947,990
-526.4594265256793,1078
-523.8430644903358,1269
-521.2274245474689,1367
-518.612506517005,1408
-515.9983102187913,1464
-513.3848354725959,1674
-510.77208209810846,1760
-508.16004991493924,1788
-505.5487387426199,1768
-502.9381484006032,1646
-500.3282787082628,1559
-497.71912948489364,1345
-495.1107005497117,1235
-492.5029917218539,1125
-489.8960028203786,1035
-487.28973366426493,901
-484.68418407241325,903
-482.07935386364494,860
-479.47524285670266,884
-476.87185087025,955
-474.2691777228715,968
-471.66722323307334,898
-469.0659872192821,910
-466.4654694998459,894
-463.86566989303384,890
-461.26658821703614,939
-458.66822428996414,954
-456.07057792985,921
-453.4736489546475,947
-450.877437182231,936
-448.28194243039627,864
-445.68716451686,878
-443.09310325926003,871
-440.49975847515555,865
-437.9071299820263,964
-435.31521759727354,1049
-432.72402113821954,1119
-430.13354042210767,1042
-427.5437752661022,933
-424.95472548728867,970
-422.36639090267386,992
-419.7787713291855,1028
-417.1918665836721,1127
-414.60567648290385,1095
-412.0202008435715,1058
-409.4354394822874,1013
-406.8513922155845,1104
-404.26805885991723,1101
-401.685439231661,997
-399.103533147112,1015
-396.522340422488,1073
-393.9418608739278,959
-391.3620943174908,950
-388.7830405691583,1052
-386.2046994448317,945
-383.6270707603344,914
-381.05015433141045,913
-378.473949973725,786
-375.8984575028645,713
-373.32367673433623,794
-370.74960748356875,710
-368.1762495659117,690
-365.60360279663576,718
-363.03166699093265,761
-360.4604419639154,750
-357.8899275306178,681
-355.32012350599507,647
-352.7510297049233,616
-350.1826459421999,580
-347.61497203254316,598
-345.04800779059235,638
-342.4817530309082,727
-339.91620756797226,715
-337.35137121618743,685
-334.7872437898774,725
-332.22382510328725,822
-329.66111497058273,864
-327.09911320585127,683
-324.53781962310075,661
-321.9772340362607,644
-319.4173562591816,636
-316.8581861056348,649
-314.2997233893127,717
-311.7419679238294,753
-309.1849195227194,744
-306.62857799943856,707
-304.0729431673641,777
-301.51801483979375,945
-298.963792829947,903
-296.41027695096386,890
-293.85746701590574,859
-291.3053628377552,830
-288.7539642294155,931
-286.2032710037115,1075
-283.65328297338897,1022
-281.1039999511146,1302
-278.5554217494762,1401
-276.007548180983,1107
-273.4603790580651,869
-270.9139141930734,1033
-268.3681533982807,1039
-265.8230964858798,1136
-263.27874326798565,1052
-260.7350935566336,1007
-258.1921471637804,1113
-255.6499039013039,1313
-253.10836358100266,1080
-250.56752601459698,987
-248.02739101372765,1177
-245.48795838995704,1343
-242.94922795476816,1195
-240.41119951956557,938
-237.8738728956746,1023
-235.33724789434166,1282
-232.80132432673452,1270
-230.2661020039418,1062
-227.73158073697357,1146
-225.19776033676033,1317
-222.66464061415422,1480
-220.1322213799284,1241
-217.60050244477725,1129
-215.06948361931552,1396
-212.53916471408013,1985
-210.00954553952818,2048
-207.48062590603843,1444
-204.9524056239104,1023
-202.4248845033651,1217
-199.8980623545441,1433
-197.37193898751036,1525
-194.84651421224817,1375
-192.32178783866232,1305
-189.79775967657952,1449
-187.27442953574644,1704
-184.7517972258321,1770
-182.2298625564256,1491
-179.7086253370378,1398
-177.18808537710026,1682
-174.66824248596583,2021
-172.14909647290835,2179
-169.6306471471229,1775
-167.11289431772548,1518
-164.59583779375328,1518
-162.07947738416453,2160
-159.5638128978386,2467
-157.04884414357605,2321
-154.53457093009854,2009
-152.02099306604828,1575
-149.50811035998936,1494
-146.99592262040665,1709
-144.48442965570587,2302
-141.97363127421409,3093
-139.46352728417958,2917
-136.95411749377126,2596
-134.44540171107985,2223
-131.93737974411636,1810
-129.43005140081357,2164
-126.92341648902493,3284
-124.41747481652521,4974
-121.91222619101006,5200
-119.40767042009657,4462
-116.90380731132257,3667
-114.40063667214702,2936
-111.8981583099503,2612
-109.3963720320337,3214
-106.89527764561933,4717
-104.39487495785067,8298
-101.89516377579241,11613
-99.39614390642998,11832
-96.89781515667039,13122
-94.40017733334128,12630
-91.90323024319173,11667
-89.40697369289148,12616
-86.91140748903172,15894
-84.41653143812482,19590
-81.92234534660395,20843
-79.42884902082358,19042
-76.93604226705907,13730
-74.4439248915071,14965
-71.95249670028534,24656
-69.46175749943245,39648
-66.97170709490854,49326
-64.48234529259423,47437
-61.99367189829195,36838
-59.50568671772464,27118
-57.01838955653636,25390
-54.53178022029283,19650
-52.045858514480074,19990
-49.560624244506016,17932
-47.07607721569923,19038
-44.59221723330904,17257
-42.10904410250669,19626
-39.62655762838392,19630
-37.14475761595372,26397
-34.66364387015028,31772
-32.18321619582866,41379
-29.70347439776515,53592
-27.224418280657005,63586
-24.74604764912317,65025
-22.26836230770266,65025
-19.7913620608565,65025
-17.315046712966478,65025
-14.83941606833514,65025
-12.36446993118659,65025
-9.89020810566592,65025
-7.416630395839093,65025
-4.94373660569363,65025
-2.471526539137585,65025
-6.821210263296962E-13,65025
2.47084320796705,65025
4.941003281093458,65025
7.410480415786196,65025
9.879274808531363,65025
12.347386655893956,65025
14.814816154518212,65025
17.28156350112681,65025
19.74762889252179,65025
22.21301252558385,25744
24.67771459727237,8452
27.141735304626195,9568
29.605074844762612,10807
32.06773341487792,7496
34.52971121224755,6010
36.99100843422559,6982
39.45162527824516,6662
41.91156194181792,5662
44.370818622535126,4945
46.82939551806646,5194
49.287292826160524,4604
51.74451074464503,5254
54.201049471426245,5118
56.65690920448981,4844
59.112090141899785,4302
61.56659248179983,3888
64.02041642241159,3881
66.4735621620365,4391
68.92602989905402,5875
71.37781983192338,5721
73.82893215918205,4708
76.27936707944684,3583
78.72912479141326,3238
81.17820549385567,3540
83.62660938562783,3353
86.07433666566146,3476
88.5213875329681,3017
90.96776218663751,2563
93.41346082583925,2179
95.85848364982041,2214
98.30283085790859,3156
100.7465026495089,3104
103.18949922410604,2854
105.63182078126385,2172
108.07346752062438,2213
110.51443964190923,1959
112.95473734491827,1914
115.39436082953114,2566
117.83331029570547,2903
120.27158594347827,2260
122.7091879729652,1861
125.1461165843615,2348
127.58237197794062,3032
130.01795435405518,2335
132.4528639131364,2412
134.88710085569494,3217
137.32066538231982,2504
139.75355769367923,1860
142.1857779905207,2057
144.61732647366978,2090
147.04820334403132,1889
149.47840880258934,1682
151.90794305040674,1745
154.33680628862487,1971
156.76499871846443,1957
159.19252054122433,2070
161.61937195828352,1990
164.04555317109896,2282
166.47106438120693,2332
168.89590579022217,2395
171.320077599839,2763
173.7435800118302,2838
176.16641322804742,2955
178.58857745042144,2700
181.01007288096173,2429
183.43089972175687,2695
185.85105817497413,2585
188.27054844285988,2521
190.6893707277394,2731
193.10752523201643,2868
195.5250121581745,2738
197.9418317087751,2367
200.3579840864594,2688
202.7734694939469,2637
205.18828813403627,2649
207.6024402096051,2578
210.01592592360964,2517
212.42874547908548,2449
214.84089907914665,2506
217.2523869269868,2661
219.66320922587727,2571
222.0733661791695,2442
224.48285799029293,2625
226.8916848627572,2657
229.29984700014882,2597
231.7073446061355,2506
234.11417788446204,2538
236.520347038953,2624
238.92585227351185,2695
241.33069379212054,2746
243.73487179884035,2721
246.1383864978112,2624
248.541238093252,2701
250.9434267894609,2794
253.34495279081432,2782
255.74581630176783,2689
258.1460175268563,2807
260.54555667069314,2825
262.9444339379703,3129
265.3426495334594,2767
267.7402036620107,2586
270.1370965285529,2806
272.53332833809407,2561
274.9288992957214,2497
277.32380960660055,2657
279.718059475976,2449
282.1116491091717,2298
284.5045787115897,2344
286.89684848871195,2447
289.2884586460981,2458
291.67940938938807,2405
294.0697009242996,2488
296.4593334566299,2595
298.84830719225477,2654
301.23662233712923,2482
303.6242790972866,2414
306.01127767884,2400
308.39761828798066,2318
310.78330113097934,2225
313.16832641418534,2180
315.5526943440269,2173
317.9364051270112,2324
320.3194589697242,2189
322.70185607883093,2205
325.0835966610754,2127
327.4646809232805,2110
329.8451090723478,2202
332.2248813152577,2170
334.6039978590701,2188
336.9824589109231,2068
339.36026467803447,2132
341.7374153677,2101
344.113911187295,2187
346.48975234427337,2089
348.8649390461686,2050
351.2394715005918,2111
353.61334991523415,2012
355.9865744978655,2057
358.35914545633375,2085
360.73106299856715,1923
363.10232733257146,2071
365.47293866643247,2103
367.84289720831396,2002
370.2122031664593,1957
372.5808567491905,1964
374.9488581649083,2016
377.31620762209275,1957
379.6829053293021,1842
382.0489514951745,1904
384.4143463284262,1960
386.7790900378528,1861
389.14318283232853,1861
391.50662492080653,1983
393.86941651231916,2045
396.23155781597745,2017
398.5930490409713,1912
400.9538903965696,1817
403.3140820921202,1889
405.6736243370498,1833
408.03251734086336,1837
410.3907613131465,1956
412.74835646356166,1955
415.10530300185144,1882
417.4616011378372,1830
419.81725108141893,1883
422.1722530425758,1814
424.5266072313656,1850
426.880313857925,1807
429.2333731324701,1823
431.58578526529516,1843
433.9375504667738,1769
436.2886689473588,1795
438.63914091758113,1763
440.9889665880513,1702
443.33814616945835,1720
445.68667987257015,1759
448.03456790823395,1906
450.3818104873759,1810
452.72840782100013,1767
455.07436012019105,1740
457.41966759611057,1693
459.7643304600007,1689
462.10834892318155,1750
464.4517231970525,1815
466.79445349309174,1766
469.1365400228566,1735
471.4779829979826,1838
473.81878263018564,1733
476.15893913125876,1913
478.4984527130747,2058
480.8373235875855,2021
483.17555196682144,2005
485.5131380628919,2016
487.8500820879857,2010
490.1863842543697,2038
492.52204477439034,2214
494.8570638604725,2464
497.1914417251204,2863
499.52517858091653,3147
501.85827464052306,3362
504.19073011668036,3688
506.5225452222086,3673
508.85372017000566,3742
511.18425517304956,4191
513.514150444396,5501
515.8434061971808,7216
518.1720226446176,7697
520.4999999999999,7139
522.8273384766991,6910
525.1540382881666,6043
527.480099647932,4754
529.8055227696037,3303
532.1303078668694,2643
534.454455153496,2158
536.777964843328,2098
539.1008371502907,1987
541.4230722883866,1864
543.744670471698,1859
546.0656319143858,1915
548.3859568306899,1909
550.7056454349294,1970
553.0246979415016,1907
555.3431145648834,1863
557.6608955196306,1827
559.978041020377,1866
562.2945512818363,1854
564.6104265188006,1758
566.9256669461412,1769
569.2402727788082,1826
571.5542442318302,1891
573.8675815203156,1783
576.1802848594508,1802
578.4923544645015,1828
580.8037905508126,1742
583.114593333807,1731
585.4247630289875,1738
587.7342998519354,1627
590.0432040183106,1662
592.3514757438526,1673
594.6591152443794,1747
596.9661227357875,1801
599.2724984340531,1815
601.578242555231,1771
603.8833553154542,1753
606.1878369309362,1738
608.4916876179676,1742
610.7949075929192,1785
613.0974970722403,1787
615.3994562724587,1766
617.7007854101818,1759
620.0014847020951,1771
622.3015543649641,1719
624.6009946156324,1788
626.8998056710224,1718
629.1979877481361,1678
631.4955410640538,1725
633.7924658359349,1674
636.0887622810175,1753
638.3844306166192,1765
640.6794710601358,1740
642.9738838290426,1804
645.2676691408932,1788
647.5608272133207,1747
649.853358264037,1827
652.1452625108324,1878
654.4365401715764,1888
656.7271914642178,1895
659.0172166067838,1861
661.3066158173809,1794
663.5953893141935,1804
665.8835373154867,1848
668.1710600396028,1912
670.4579577049639,1855
672.7442305300709,1843
675.0298787335033,1826
677.3149025339197,1752
679.599302150058,1842
681.8830778007342,1837
684.1662297048437,1856
686.4487580813608,1901
688.7306631493387,1863
691.0119451279091,1780
693.2926042362834,1795
695.5726406937516,1793
697.8520547196814,1804
700.1308465335215,1788
702.4090163547982,1756
704.6865644031171,1760
706.9634908981619,1756
709.2397960596965,1805
711.5154801075631,1821
713.7905432616823,1829
716.0649857420548,1862
718.3388077687592,1741
720.612009561953,1833
722.8845913418733,1775
725.1565533288352,1774
727.427895743234,1704
729.6986188055427,1721
731.9687227363137,1790
734.238207756178,1867
736.5070740858458,1787
738.7753219461066,1857
741.0429515578281,1761
743.3099631419569,1836
745.5763569195191,1788
747.8421331116193,1767
750.1072919394409,1785
752.3718336242467,1786
754.6357583873777,1828
756.8990664502545,1845
759.1617580343765,1827
761.423833361321,1762
763.6852926527457,1846
765.9461361303862,1781
768.206364016058,1785
770.4659765316536,1828
772.7249738991469,1746
774.9833563405886,1773
777.2411240781092,1808
779.4982773339183,1863
781.7548163303044,1846
784.010741289634,1879
786.2660524343538,1962
788.5207499869881,1977
790.7748341701416,1888
793.0283052064964,1864
795.2811633188143,1809
797.5334087299362,1838
799.7850416627813,1846
802.0360623403484,1808
804.2864709857143,1876
806.5362678220353,1908
808.7854530725468,1873
811.0340269605625,1826
813.2819897094754,1890
815.5293415427581,1892
817.77608268396,1896
820.0222133567116,1797
822.2677337847211,1893
824.5126441917765,1936
826.7569448017433,1830
829.0006358385675,1758
831.2437175262731,1792
833.4861900889629,1803
835.7280537508192,1792
837.9693087361026,1841
840.2099552691533,1765
842.4499935743896,1769
844.689423876309,1793
846.9282463994886,1724
849.1664613685833,1729
851.4040690083276,1771
853.6410695435349,1826
855.877463199097,1794
858.1132501999847,1793
860.3484307712487,1918
862.5830051380175,1820
864.8169735254988,1878
867.0503361589791,1815
869.2830932638243,1870
871.5152450654786,1765
873.7467917894654,1837
875.9777336613873,1896
878.2080709069252,1847
880.4378037518389,1811
882.666932421968,1908
884.8954571432301,1884
887.1233781416219,1836
889.3506956432192,1836
891.5774098741766,1838
893.803521060728,1804
896.0290294291852,1839
898.2539352059397,1830
900.4782386174619,1898
902.7019398903011,1865
904.925039251085,1772
907.147536926521,1833
909.3694331433943,1841
911.59072812857,1937
913.8114221089921,1840
916.0315153116827,1823
918.2510079637437,1771
920.4699002923547,1762
922.6881925247761,1795
924.905884888345,1869
927.1229776104793,1789
929.3394709186747,1786
931.555365040506,1765
933.7706602036275,1805
935.9853566357709,1841
938.1994545647489,1937
940.4129542184515,1893
942.6258558248488,1951
944.8381596119883,1857
947.0498658079974,1874
949.2609746410825,1896
951.4714863395287,1855
953.6814011316998,1811
955.8907192460387,1819
958.0994409110671,1911
960.3075663553858,1863
962.5150958076741,1848
964.7220294966913,1917
966.928367651274,1892
969.1341105003388,1839
971.3392582728806,1840
973.5438111979742,1811
975.747769504772,1875
977.9511334225061,1826
980.153903180487,1815
982.3560790081052,1777
984.5576611348289,1794
986.7586497902058,1796
988.9590452038618,1754
991.158847605503,1793
993.3580572249133,1636
995.5566742919558,1566
997.7546990365728,1618
999.952131688785,1704
1002.1489724786926,1666
1004.3452216364743,1599
1006.5408793923874,1557
1008.7359459767691,1577
1010.9304216200343,1573
1013.1243065526781,1575
1015.3176010052733,1558
1017.510305208472,1545
1019.7024193930064,1571
1021.8939437896848,1589
1024.0848786293977,1548
1026.2752241431122,1502
1028.4649805618747,1518
1030.6541481168115,1541
1032.842727039127,1438
1035.0307175601051,1466
1037.2181199111074,1464
1039.4049343235752,1456
1041.591161029029,1460
1043.7768002590683,1437
1045.9618522453698,1444
1048.1463172196918,1438
1050.3301954138697,1433
1052.513487059818,1432
1054.69619238953,1414
1056.8783116350783,1438
1059.0598450286152,1485
1061.2407928023704,1476
1063.4211551886528,1513
1065.6009324198508,1453
1067.780124728432,1404
1069.9587323469414,1436
1072.1367555080046,1450
1074.314194444325,1374
1076.4910493886855,1423
1078.667320573947,1385
1080.843008233051,1353
1083.0181125990161,1353
1085.1926339049414,1417
1087.3665723840027,1404
1089.5399282694575,1432
1091.7127017946405,1383
1093.8848931929647,1374
1096.0565026979243,1400
1098.2275305430899,1398
1100.3979769621128,1376
1102.567842188722,1400
1104.737126456726,1389
1106.9058300000124,1364
1109.0739530525475,1386
1111.2414958483764,1340
1113.4084586216231,1329
1115.5748416064907,1368
1117.7406450372605,1388
1119.9058691482942,1369
1122.0705141740304,1396
1124.2345803489884,1355
1126.3980679077658,1359
1128.5609770850388,1353
1130.7233081155623,1309
1132.8850612341707,1319
1135.0462366757774,1355
1137.2068346753745,1341
1139.3668554680326,1349
1141.526299288901,1354
1143.68516637321,1349
1145.8434569562655,1311
1148.001171273455,1357
1150.158309560244,1374
1152.3148720521767,1372
1154.470858984876,1374
1156.626270594044,1433
1158.7811071154629,1396
1160.9353687849912,1335
1163.089055838569,1391
1165.242168512213,1395
1167.3947070420209,1368
1169.5466716641677,1362
1171.6980626149075,1361
1173.8488801305748,1364
1175.9991244475814,1317
1178.1487958024186,1399
1180.2978944316555,1446
1182.4464205719428,1405
1184.5943744600072,1223
1186.7417563326567,1360
1188.8885664267755,1308
1191.0348049793297,1317
1193.1804722273619,1393
1195.325568407995,1409
1197.4700937584303,1370
1199.614048515948,1298
1201.7574329179074,1349
1203.900247201746,1362
1206.042491604982,1353
1208.1841663652099,1353
1210.3252717201053,1345
1212.465807907422,1374
1214.6057751649923,1354
1216.7451737307279,1372
1218.8840038426192,1358
1221.0222657387353,1417
1223.1599596572241,1353
1225.2970858363137,1371
1227.4336445143094,1405
1229.5696359295966,1364
1231.705060320639,1393
1233.8399179259786,1404
1235.9742089842384,1396
1238.107933734118,1404
1240.2410924143974,1405
1242.373685263935,1422
1244.5057125216676,1432
1246.6371744266116,1383
1248.7680712178621,1362
1250.898403134593,1447
1253.028170416058,1413
1255.1573733015875,1416
1257.2860120305932,1492
1259.4140868425648,1404
1261.54159797707,1383
1263.6685456737569,1438
1265.7949301723515,1396
1267.9207517126597,1426
1270.046010534565,1473
1272.1707068780306,1414
1274.2948409830983,1488
1276.4184130898889,1497
1278.541423438603,1507
1280.6638722695184,1496
1282.785759822993,1462
1284.9070863394636,1516
1287.0278520594447,1504
1289.1480572235314,1516
1291.2677020723963,1490
1293.3867868467923,1517
1295.5053117875495,1575
1297.623277135579,1544
1299.740683131868,1585
1301.8575300174857,1542
1303.973818033578,1590
1306.0895474213703,1557
1308.2047184221678,1609
1310.3193312773528,1711
1312.4333862283888,1589
1314.5468835168163,1601
1316.659823384255,1576
1318.7722060724045,1632
1320.8840318230418,1648
1322.9953008780249,1663
1325.1060134792888,1673
1327.2161698688478,1661
1329.3257702887959,1648
1331.4348149813054,1692
1333.5433041886276,1582
1335.6512381530933,1610
1337.7586171171101,1573
1339.8654413231675,1597
1341.9717110138317,1576
1344.0774264317488,1556
1346.1825878196432,1586
1348.2871954203192,1487
1350.3912494766587,1542
1352.4947502316231,1514
1354.5976979282532,1570
1356.7000928096686,1528
1358.8019351190665,1531
1360.9032250997243,1530
1363.0039629949988,1482
1365.1041490483235,1504
1367.2037835032133,1497
1369.3028666032606,1518
1371.401398592137,1522
1373.4993797135926,1521
1375.5968102114575,1493
1377.6936903296396,1519
1379.7900203121262,1516
1381.8858004029835,1478
1383.9810308463561,1522
1386.075711886469,1504
1388.1698437676241,1504
1390.2634267342032,1436
1392.356461030667,1475
1394.4489469015557,1452
1396.5408845914872,1466
1398.6322743451592,1486
1400.7231164073469,1483
1402.813411022907,1477
1404.903158436773,1483
1406.9923588939578,1517
1409.0810126395531,1477
1411.1691199187303,1494
1413.2566809767386,1477
1415.343696058907,1462
1417.4301654106425,1495
1419.5160892774315,1488
1421.6014679048399,1498
1423.6863015385125,1551
1425.7705904241707,1460
1427.8543348076178,1453
1429.9375349347342,1488
1432.0201910514802,1477
1434.102303403894,1506
1436.1838722380944,1488
1438.2648978002767,1447
1440.3453803367174,1495
1442.4253200937692,1551
1444.5047173178677,1521
1446.5835722555234,1558
1448.6618851533285,1536
1450.739656257952,1592
1452.8168858161434,1552
1454.8935740747306,1563
1456.96972128062,1545
1459.045327680797,1565
1461.120393522327,1639
1463.1949190523528,1610
1465.2689045180973,1661
1467.3423501668608,1616
1469.415256246024,1639
1471.4876230030463,1645
1473.559450685465,1657
1475.6307395408976,1722
1477.7014898170391,1641
1479.771701761665,1701
1481.8413756226287,1742
1483.9105116478618,1692
1485.9791100853772,1729
1488.0471711832643,1781
1490.1146951896926,1712
1492.1816823529098,1711
1494.2481329212433,1749
1496.3140471430984,1739
1498.3794252669609,1738
1500.4442675413939,1767
1502.5085742150404,1830
1504.572345536622,1801
1506.6355817549388,1819
1508.6982831188702,1815
1510.7604498773744,1794
1512.8220822794883,1837
1514.8831805743293,1858
1516.9437450110909,1842
1519.003775839048,1834
1521.0632733075522,1848
1523.1222376660367,1839
1525.1806691640113,1907
1527.2385680510652,1915
1529.2959345768668,1962
1531.3527689911643,1933
1533.4090715437833,1978
1535.4648424846291,1966
1537.5200820636855,2034
1539.5747905310159,2039
1541.6289681367616,2017
1543.6826151311434,2101
1545.7357317644614,2084
1547.7883182870937,2142
1549.8403749494987,2174
1551.8919020022113,2204
1553.9428996958477,2202
1555.9933682811015,2239
1558.0433080087469,2195
1560.0927191296346,2274
1562.1416018946961,2318
1564.1899565549415,2248
1566.2377833614592,2267
1568.2850825654164,2203
1570.3318544180606,2212
1572.3780991707158,2129
1574.423817074788,2088
1576.4690083817595,2101
1578.5136733431923,2059
1580.5578122107272,1934
1582.601425236085,1869
1584.6445126710646,1877
1586.6870747675434,1839
1588.7291117774776,1817
1590.7706239529034,1789
1592.8116115459347,1848
1594.8520748087658,1736
1596.8920139936686,1691
1598.9314293529933,1680
1600.9703211391711,1687
1603.008689604711,1676
1605.0465350022005,1560
1607.0838575843068,1529
1609.1206576037753,1586
1611.1569353134305,1498
1613.1926909661765,1528
1615.2279248149953,1502
1617.2626371129481,1503
1619.2968281131757,1458
1621.3304980688963,1501
1623.3636472334088,1481
1625.39627586009,1457
1627.428384202396,1451
1629.459972513861,1512
1631.4910410480993,1424
1633.5215900588028,1417
1635.551619799744,1344
1637.5811305247717,1451
1639.6101224878166,1365
1641.6385959428862,1377
1643.6665511440683,1387
1645.693988345528,1335
1647.7209078015112,1381
1649.7473097663405,1340
1651.7731944944203,1453
1653.7985622402307,1390
1655.823413258333,1360
1657.847747803366,1379
1659.8715661300494,1353
1661.8948684931793,1323
1663.9176551476316,1321
1665.9399263483624,1339
1667.9616823504057,1353
1669.982923408873,1358
1672.0036497789574,1310
1674.0238617159293,1340
1676.043559475138,1344
1678.0627433120121,1364
1680.081413482059,1319
1682.0995702408654,1353
1684.117213844096,1362
1686.134344547495,1334
1688.1509626068864,1339
1690.1670682781705,1352
1692.182661817329,1320
1694.1977434804217,1263
1696.2123135235875,1342
1698.226372203043,1402
1700.2399197750851,1341
1702.2529564960905,1363
1704.2654826225112,1347
1706.277498410882,1368
1708.2890041178139,1291
1710.2999999999988,1302
1712.3104863142066,1331
1714.3204633172854,1335
1716.329931266163,1294
1718.3388904178469,1365
1720.3473410294214,1345
1722.3552833580516,1292
1724.3627176609807,1313
1726.3696441955308,1314
1728.3760632191033,1343
1730.3819749891782,1364
1732.3873797633146,1262
1734.3922777991502,1284
1736.3966693544012,1319
1738.4005546868639,1272
1740.4039340544127,1252
1742.406807715001,1320
1744.4091759266616,1298
1746.4110389475054,1268
1748.4123970357223,1246
1750.413250449582,1296
1752.4135994474318,1289
1754.4134442876993,1280
1756.4127852288902,1312
1758.4116225295893,1286
1760.4099564484595,1257
1762.407787244244,1277
1764.405115175764,1280
1766.4019405019203,1215
1768.3982634816916,1261
1770.3940843741357,1299
1772.3894034383907,1228
1774.3842209336717,1321
1776.378537119274,1325
1778.372352254571,1279
1780.3656665990156,1278
1782.3584804121397,1265
1784.3507939535534,1238
1786.3426074829463,1305
1788.3339212600863,1296
1790.3247355448211,1315
1792.3150505970766,1308
1794.3048666768573,1261
1796.2941840442477,1290
1798.2830029594106,1275
1800.2713236825884,1275
1802.2591464741004,1296
1804.2464715943465,1271
1806.2332993038058,1296
1808.2196298630352,1258
1810.2054635326708,1346
1812.190800573428,1297
1814.175641246101,1269
1816.1599858115628,1342
1818.1438345307652,1260
1820.127187664738,1303
1822.1100454745924,1269
1824.092408221516,1307
1826.0742761667766,1215
1828.055649571721,1277
1830.0365286977735,1284
1832.0169138064398,1330
1833.9968051593014,1278
1835.9762030180214,1337
1837.9551076443408,1282
1839.9335193000788,1251
1841.9114382471344,1297
1843.888864747485,1310
1845.8657990631878,1285
1847.842241456378,1257
1849.8181921892697,1293
1851.7936515241558,1228
1853.7686197234098,1303
1855.7430970494815,1237
1857.7170837649014,1350
1859.6905801322787,1274
1861.6635864143004,1270
1863.6361028737338,1277
1865.608129773424,1236
1867.5796673762961,1303
1869.5507159453537,1318
1871.521275743678,1286
1873.4913470344313,1329
1875.4609300808534,1261
1877.4300251462632,1295
1879.3986324940588,1273
1881.366752387717,1311
1883.3343850907936,1311
1885.3015308669228,1289
1887.268189979819,1317
1889.2343626932739,1310
1891.2000492711595,1250
1893.1652499774254,1283
1895.1299650761011,1337
1897.0941948312952,1330
1899.0579395071945,1251
1901.0211993680641,1313
1902.98397467825,1289
1904.9462657021745,1350
1906.9080727043415,1308
1908.869395949332,1332
1910.8302357018065,1235
1912.790592226504,1251
1914.7504657882428,1286
1916.7098566519212,1299
1918.6687650825133,1325
1920.6271913450764,1284
1922.5851357047422,1316
1924.5425984267245,1281
1926.499579776314,1321
1928.4560800188833,1292
1930.4120994198802,1325
1932.367638244833,1402
1934.32269675935,1313
1936.2772752291175,1299
1938.231373919899,1289
1940.1849930975404,1333
1942.1381330279637,1322
1944.0907939771696,1282
1946.0429762112412,1229
1947.9946799963363,1284
1949.9459055986945,1301
1951.896653284633,1278
1953.8469233205478,1252
1955.7967159729142,1285
1957.7460315082863,1281
1959.6948701932974,1267
1961.6432322946594,1317
1963.5911180791632,1324
1965.5385278136787,1314
1967.4854617651545,1228
1969.4319202006182,1299
1971.377903387176,1291
1973.3234115920136,1340
1975.268445082395,1295
1977.2130041256642,1283
1979.1570889892423,1300
1981.1006999406304,1293
1983.04383724741,1228
1984.986501177238,1298
1986.928691997853,1331
1988.8704099770712,1291
1990.811655382789,1320
1992.7524284829801,1271
1994.692729545698,1275
1996.6325588390755,1240
1998.5719166313224,1242
2000.5108031907307,1246
2002.4492187856677,1196
2004.387163684583,1269
2006.3246381560011,1320
2008.2616424685298,1264
2010.1981768908527,1298
2012.1342416917332,1289
2014.069837140014,1288
2016.0049635046162,1283
2017.9396210545406,1251
2019.8738100588666,1224
2021.8075307867502,1207
2023.740783507431,1284
2025.6735684902228,1242
2027.6058860045214,1275
2029.5377363198004,1276
2031.4691197056118,1247
2033.4000364315875,1241
2035.3304867674374,1300
2037.260470982952,1256
2039.189989347998,1253
2041.1190421325232,1248
2043.047629606554,1230
2044.9757520401945,1227
2046.9034097036288,1201
2048.8306028671195,1277
2050.7573318010086,1272
2052.683596775716,1252
2054.609398061742,1237
2056.5347359296647,1290
2058.4596106501403,1268
2060.384022493906,1262
2062.3079717317764,1250
2064.231458634646,1239
2066.1544834734873,1193
2068.077046519352,1198
2069.99914804337,1285
2071.9207883167524,1274
2073.8419676107865,1268
2075.7626861968406,1231
2077.6829443463607,1221
2079.6027423308715,1238
2081.522080421977,1226
2083.440958891362,1223
2085.359378010786,1226
2087.2773380520907,1241
2089.194839287196,1285
2091.111881988101,1225
2093.0284664268825,1254
2094.9445928756973,1235
2096.86026160678,1297
2098.775472892446,1295
2100.690227005088,1209
2102.604524217178,1315
2104.5183648012676,1311
2106.431749029985,1197
2108.34467717604,1238
2110.2571495122206,1249
2112.169166311393,1277
2114.080727846503,1217
2115.9918343905747,1289
2117.902486216711,1277
2119.8126835980956,1271
2121.722426807987,1250
2123.6317161197285,1225
2125.5405518067364,1286
2127.448934142509,1257
2129.356863400624,1233
2131.264339854737,1297
2133.1713637785815,1230
2135.077935445972,1322
2136.9840551308002,1270
2138.889723107037,1280
2140.7949396487334,1285
2142.699705030018,1266
2144.6040195250994,1286
2146.507883408264,1282
2148.4112969538774,1257
2150.3142604363848,1265
2152.2167741303097,1249
2154.1188383102535,1253
2156.0204532508997,1287
2157.9216192270064,1260
2159.822336513414,1284
2161.7226053850413,1229
2163.622426116884,1250
2165.5217989840185,1264
2167.4207242616,1257
2169.319202224862,1278
2171.2172331491165,1269
2173.1148173097563,1279
2175.0119549822507,1209
2176.90864644215,1234
2178.8048919650823,1262
2180.7006918267534,1296
2182.596046302952,1309
2184.4909556695407,1275
2186.3854202024645,1227
2188.279440177746,1252
2190.173015871487,1288
2192.066147559868,1232
2193.958835519149,1262
2195.851080025667,1239
2197.7428813558417,1269
2199.6342397861667,1302
2201.5251555932186,1239
2203.415629053651,1256
2205.3056604441986,1295
2207.19525004167,1258
2209.084398122958,1256
2210.9731049650327,1292
2212.861370844941,1277
2214.749196039812,1293
2216.636580826851,1257
2218.523525483344,1286
2220.410030286655,1307
2222.296095514226,1295
2224.1817214435805,1307
2226.066908352319,1225
2227.951656518121,1304
2229.835966218746,1263
2231.71983773203,1300
2233.6032713358913,1283
2235.486267308324,1271
2237.3688259274036,1310
2239.2509474712824,1328
2241.132632218193,1292
2243.013880446447,1311
2244.8946924344323,1321
2246.7750684606203,1293
2248.6550088035574,1315
2250.534513741871,1329
2252.413583554265,1341
2254.292218519526,1333
2256.170418916517,1287
2258.0481850241786,1341
2259.925517121534,1261
2261.8024154876825,1301
2263.678880401803,1271
2265.5549121431536,1288
2267.430510991071,1248
2269.305677224971,1277
2271.180411124348,1336
2273.0547129687766,1280
2274.9285830379076,1248
2276.8020216114737,1258
2278.6750289692845,1276
2280.5476053912294,1252
2282.4197511572766,1263
2284.2914665474727,1304
2286.162751841943,1305
2288.0336073208937,1281
2289.904033264608,1345
2291.774029953448,1279
2293.6435976678554,1296
2295.5127366883517,1341
2297.381447295534,1308
2299.2497297700825,1306
2301.1175843927526,1217
2302.9850114443825,1202
2304.852011205885,1193
2306.7185839582553,1173
2308.5847299825664,1204
2310.4504495599676,1175
2312.3157429716925,1236
2314.1806104990483,1190
2316.0450524234247,1197
2317.9090690262888,1181
2319.772660589186,1148
2321.635827393742,1170
2323.498569721661,1170
2325.3608878547248,1154
2327.2227820747967,1182
2329.0842526638157,1134
2330.945299903803,1135
2332.805924076857,1183
2334.6661254651535,1127
2336.525904350951,1138
2338.3852610165827,1166
2340.244195744464,1153
2342.102708817088,1103
2343.9608005170253,1141
2345.8184711269287,1156
2347.675720929526,1125
2349.532550207628,1157
2351.38895924412,1130
2353.24494832197,1208
2355.100517724223,1158
2356.955667734004,1203
2358.810398634514,1183
2360.664710709037,1178
2362.5186042409337,1143
2364.3720795136437,1164
2366.225136810686,1207
2368.0777764156583,1122
2369.929998612237,1188
2371.7818036841777,1172
2373.633191915315,1165
2375.484163589562,1160
2377.3347189909114,1138
2379.184858403434,1212
2381.03458211128,1215
2382.8838903986775,1180
2384.732783549936,1198
2386.5812618494406,1208
2388.4293255816588,1114
2390.2769750311327,1210
2392.1242104824883,1210
2393.971032220427,1213
2395.8174405297295,1206
2397.6634356952563,1164
2399.509018001947,1160
2401.3541877348193,1202
2403.1989451789705,1142
2405.043290619576,1163
2406.8872243418905,1191
2408.730746631247,1226
2410.5738577730594,1193
2412.4165580528183,1174
2414.258847756095,1200
2416.100727168537,1108
2417.9421965758734,1163
2419.783256263912,1121
2421.623906518538,1168
2423.4641476257157,1219
2425.303979871491,1178
2427.143403541984,1190
2428.9824189233977,1217
2430.821026302012,1162
2432.6592259641866,1196
2434.497018196361,1170
2436.33440328505,1222
2438.171381516851,1145
2440.00795317844,1146
2441.844118556569,1090
2443.6798779380724,1202
2445.5152316098606,1183
2447.3501798589255,1216
2449.1847229723357,1197
2451.0188612372403,1165
2452.8525949408663,1187
2454.6859243705203,1159
2456.518849813587,1151
2458.3513715575314,1154
2460.183489889895,1191
2462.015205098301,1194
2463.8465174704493,1211
2465.67742729412,1194
2467.5079348571717,1117
2469.338040447542,1164
2471.1677443532476,1180
2472.9970468623833,1201
2474.825948263123,1175
2476.6544488437207,1247
2478.482548892508,1217
2480.310248697896,1193
2482.137548548374,1144
2483.9644487325118,1190
2485.790949538956,1175
2487.617051256433,1204
2489.44275417375,1221
2491.26805857979,1222
2493.0929647635157,1233
2494.917473013971,1173
2496.741583620276,1223
2498.5652968716304,1204
2500.3886130573137,1244
2502.2115324666834,1184
2504.0340553891765,1220
2505.856182114308,1224
2507.6779129316733,1263
2509.499248130945,1235
2511.3201880018764,1259
2513.140732834298,1206
2514.9608829181198,1177
2516.780638543331,1216
2518.6,1213
2520.418967578273,1206
2522.237541568376,1280
2524.0557222606144,1184
2525.8735099453706,1224
2527.6909049131086,1241
2529.507907454368,1195
2531.32451785977,1227
2533.140736420014,1216
2534.9565634258774,1233
2536.771999168218,1235
2538.5870439379714,1211
2540.4016980261526,1300
2542.2159617238544,1245
2544.02983532225,1293
2545.8433191125914,1226
2547.656413386209,1225
2549.4691184345115,1267
2551.2814345489874,1270
2553.093362021204,1316
2554.904901142808,1277
2556.716052205523,1274
2558.526815501153,1290
2560.3371913215824,1285
2562.147179958771,1313
2563.956781704761,1337
2565.7659968516705,1288
2567.5748256916986,1265
2569.3832685171224,1336
2571.1913256202984,1309
2572.9989972936614,1296
2574.806283829725,1318
2576.613185521084,1357
2578.4197026604074,1369
2580.2258355404483,1385
2582.031584454035,1316
2583.836949694077,1345
2585.6419315535613,1403
2587.4465303255533,1333
2589.2507463032002,1307
2591.0545797797245,1300
2592.8580310484303,1288
2594.6611004026995,1320
2596.463788135992,1337
2598.266094541849,1359
2600.0680199138874,1377
2601.869564545807,1314
2603.670728731383,1323
2605.4715127644704,1289
2607.2719169390048,1316
2609.071941548998,1286
2610.8715868885433,1316
2612.670853251811,1380
2614.469740933052,1325
2616.268250226594,1353
2618.0663814268455,1351
2619.864134828292,1368
2621.6615107255006,1333
2623.458509413115,1333
2625.2551311858597,1314
2627.0513763385347,1272
2628.8472451660223,1307
2630.6427379632833,1281
2632.4378550253564,1309
2634.232596647359,1291
2636.026963124488,1271
2637.8209547520187,1309
2639.6145718253065,1269
2641.407814639785,1269
2643.200683490966,1302
2644.9931786744414,1298
2646.7853004858807,1303
2648.577049221034,1357
2650.3684251757277,1296
2652.1594286458712,1273
2653.9500599274484,1277
2655.740319316525,1264
2657.5302071092437,1302
2659.3197236018286,1208
2661.10886909058,1209
2662.8976438718782,1296
2664.686048242183,1250
2666.4740824980327,1219
2668.2617469360443,1166
2670.0490418529134,1287
2671.8359675454153,1246
2673.622524310403,1266
2675.408712444811,1280
2677.1945322456495,1187
2678.979984010009,1216
2680.76506803506,1198
2682.5497846180497,1270
2684.334134056306,1199
2686.1181166472343,1258
2687.9017326883213,1187
2689.6849824771293,1203
2691.4678663113013,1215
2693.2503844885596,1236
2695.032537306705,1263
2696.8143250636167,1262
2698.5957480572542,1218
2700.3768065856534,1194
2702.1575009469316,1225
2703.937831439283,1235
2705.717798360982,1165
2707.4974020103837,1203
2709.276642685917,1163
2711.055520686095,1188
2712.834036309506,1136
2714.612189854819,1176
2716.389981620782,1153
2718.1674119062204,1180
2719.944481010041,1196
2721.721189231226,1133
2723.4975368688415,1227
2725.273524222027,1189
2727.0491515900053,1207
2728.824419272075,1162
2730.5993275676146,1209
2732.3738767760838,1191
2734.148067197016,1141
2735.921899130031,1222
2737.6953728748194,1133
2739.468488731156,1151
2741.2412469988926,1178
2743.0136479779617,1210
2744.785691968372,1193
2746.5573792702116,1211
2748.3287101836504,1184
2750.099685008934,1158
2751.870304046388,1162
2753.640567596418,1137
2755.4104759595057,1124
2757.1800294362156,1142
2758.949228327187,1168
2760.7180729331412,1168
2762.486563554877,1223
2764.254700493272,1157
2766.022484049284,1154
2767.789914523947,1157
2769.5569922183786,1117
2771.3237174337705,1082
2773.090090471394,1146
2774.8561116326036,1101
2776.6217812188274,1120
2778.3870995315756,1169
2780.1520668724356,1126
2781.9166835430747,1143
2783.6809498452394,1106
2785.444866080754,1183
2787.2084325515225,1135
2788.971649559527,1173
2790.73451740683,1146
2792.4970363955713,1176
2794.2592068279705,1188
2796.0210290063264,1163
2797.7825032330147,1196
2799.543629810493,1153
2801.304409041296,1139
2803.0648412280366,1162
2804.8249266734088,1169
2806.5846656801846,1171
2808.344058551212,1141
2810.1031055894246,1189
2811.8618070978273,1141
2813.6201633795085,1141
2815.378174737636,1190
2817.1358414754536,1150
2818.893163896285,1156
2820.6501423035334,1161
2822.4067770006814,1216
2824.1630682912883,1140
2825.9190164789957,1173
2827.6746218675207,1170
2829.429884760661,1197
2831.184805462294,1170
2832.9393842763743,1145
2834.693621506936,1200
2836.4475174580916,1175
2838.201072434034,1077
2839.954286739034,1126
2841.707160677441,1194
2843.459694553685,1208
2845.2118886722724,1217
2846.96374333779,1153
2848.7152588549034,1124
2850.4664355283567,1149
2852.217273662973,1153
2853.9677735636546,1182
2855.7179355353833,1188
2857.4677598832186,1170
2859.217246912299,1164
2860.9663969278427,1149
2862.715210235146,1158
2864.4636871395846,1135
2866.211827946614,1117
2867.9596329617652,1082
2869.7071024906536,1142
2871.4542368389684,1114
2873.20103631248,1148
2874.947501217038,1158
2876.6936318585695,1188
2878.4394285430812,1105
2880.1848915766604,1143
2881.9300212654707,1146
2883.6748179157553,1156
2885.4192818338374,1133
2887.1634133261173,1178
2888.907212699077,1146
2890.6506802592744,1165
2892.393816313348,1149
2894.1366211680142,1128
2895.8790951300693,1140
2897.621238506388,1201
2899.363051603925,1137
2901.1045347297118,1117
2902.8456881908596,1112
2904.58651229456,1113
2906.327007348081,1138
2908.067173658772,1169
2909.8070115340597,1183
2911.5465212814497,1117
2913.285703208527,1136
2915.0245576229563,1152
2916.7630848324807,1139
2918.5012851449196,1125
2920.2391588681758,1129
2921.976706310227,1180
2923.7139277791334,1115
2925.4508235830313,1172
2927.187394030137,1149
2928.923639428745,1181
2930.6595600872306,1145
2932.395156314046,1133
2934.1304284177218,1155
2935.8653767068713,1172
2937.6000014901815,1170
2939.3343030764227,1163
2941.068281774442,1134
2942.8019378931644,1168
2944.5352717415976,1185
2946.2682836288236,1102
2948.0009738640065,1191
2949.7333427563885,1166
2951.465390615289,1182
2953.1971177501086,1159
2954.9285244703265,1175
2956.6596110855,1125
2958.3903779052657,1115
2960.1208252393385,1110
2961.8509533975125,1140
2963.5807626896617,1146
2965.3102534257378,1130
2967.0394259157715,1172
2968.768280469873,1110
2970.496817398232,1109
2972.2250370111146,1107
2973.952939618869,1201
2975.6805255319196,1138
2977.4077950607707,1156
2979.134748516006,1132
2980.861386208289,1184
2982.587708448359,1185
2984.313715547037,1173
2986.039407815222,1144
2987.764785563891,1155
2989.489849104102,1124
2991.2145987469908,1145
2992.9390348037705,1193
2994.6631575857346,1172
2996.3869674042576,1136
2998.1104645707887,1125
2999.83364939686,1147
3001.5565221940783,1144
3003.2790832741334,1085
3005.0013329487924,1136
3006.7232715298996,1155
3008.4448993293804,1120
3010.166216659239,1169
3011.887223831558,1183
3013.607921158498,1134
3015.3283089522993,1142
3017.0483875252826,1128
3018.7681571898443,1145
3020.4876182584626,1113
3022.2067710436927,1093
3023.9256158581707,1136
3025.644153014609,1144
3027.362382825801,1113
3029.0803056046193,1118
3030.797921664012,1129
3032.5152313170106,1130
3034.2322348767225,1144
3035.9489326563353,1116
3037.665324969115,1147
3039.3814121284063,1102
3041.097194447633,1095
3042.812672240299,1109
3044.5278458199855,1154
3046.2427155003525,1122
3047.9572815951406,1103
3049.671544418167,1135
3051.38550428333,1117
3053.0991615046073,1150
3054.812516396051,1152
3056.5255692717974,1160
3058.2383204460575,1174
3059.9507702331257,1116
3061.662918947372,1105
3063.3747669032446,1145
3065.0863144152736,1133
3066.7975617980674,1120
3068.508509366309,1152
3070.219157434767,1138
3071.9295063182844,1132
3073.639556331785,1068
3075.3493077902704,1129
3077.058761008821,1123
3078.7679163025964,1126
3080.476773986837,1109
3082.1853343768594,1129
3083.89359778806,1101
3085.6015645359153,1130
3087.3092349359786,1159
3089.016609303884,1120
3090.7236879553434,1148
3092.4304712061476,1123
3094.136959372166,1093
3095.843152769349,1171
3097.5490517137237,1116
3099.2546565213966,1105
3100.959967508554,1130
3102.66498499146,1126
3104.3697092864577,1115
3106.0741407099695,1094
3107.778279578498,1067
3109.482126208622,1173
3111.1856809170004,1093
3112.8889440203716,1134
3114.5919158355528,1163
3116.294596679439,1162
3117.996986869006,1121
3119.6990867213062,1137
3121.4008965534726,1126
3123.102416682717,1133
3124.803647426329,1129
3126.5045891016784,1139
3128.205242026213,1141
3129.90560651746,1119
3131.605682893025,1147
3133.3054714705922,1146
3135.0049725679282,1130
3136.7041865028714,1095
3138.4031135933465,1156
3140.101754157353,1120
3141.800108512971,1139
3143.498176978357,1178
3145.1959598717494,1093
3146.8934575114636,1145
3148.5906702158954,1109
3150.2875983035183,1112
3151.9842420928853,1120
3153.680601902627,1150
3155.376678051456,1091
3157.07247085816,1099
3158.767980641609,1093
3160.463207720748,1091
3162.158152414606,1129
3163.8528150422862,1095
3165.5471959229726,1106
3167.2412953759303,1118
3168.9351137204976,1111
3170.628651276098,1121
3172.3219083622307,1173
3174.014885298474,1133
3175.707582404485,1120
3177.4000000000005,1108
3179.092138404835,1132
3180.7839979388846,1164
3182.47557892212,1137
3184.166881674594,1126
3185.8579065164386,1109
3187.5486537678626,1138
3189.2391237491547,1093
3190.9293167806827,1108
3192.6192331828934,1081
3194.3088732763117,1173
3195.998237381542,1120
3197.687325819268,1097
3199.376138910251,1089
3201.064676975334,1149
3202.7529403354347,1072
3204.4409293115523,1102
3206.1286442247647,1105
3207.816085396229,1098
3209.5032531471825,1121
3211.190147798936,1122
3212.8767696728846,1152
3214.5631190905015,1116
3216.2491963733373,1110
3217.9350018430214,1060
3219.6205358212637,1107
3221.305798629851,1101
3222.990790590651,1054
3224.6755120256103,1102
3226.359963256751,1143
3228.0441446061795,1113
3229.7280563960758,1058
3231.411698948703,1080
3233.0950725863995,1093
3234.778177631587,1103
3236.461014406761,1162
3238.1435832345005,1152
3239.8258844374595,1150
3241.507918338374,1089
3243.1896852600576,1116
3244.8711855254023,1131
3246.552419457381,1114
3248.233387379042,1140
3249.914089613516,1105
3251.59452648401,1100
3253.274698313813,1102
3254.95460542629,1102
3256.6342481448855,1078
3258.313626793125,1076
3259.9927416946084,1115
3261.6715931730196,1060
3263.3501815521176,1103
3265.0285071557437,1074
3266.706570307815,1056
3268.3843713323286,1094
3270.0619105533615,1062
3271.739188295068,1120
3273.4162048816834,1088
3275.0929606375184,1103
3276.769455886966,1071
3278.445690954498,1142
3280.1216661646613,1113
3281.797381842087,1077
3283.4728383114807,1112
3285.1480358976296,1094
3286.8229749253996,1107
3288.4976557197333,1140
3290.172078605655,1125
3291.846243908266,1133
3293.5201519527463,1077
3295.193803064357,1105
3296.8671975684374,1076
3298.5403357904024,1128
3300.21321805575,1108
3301.8858446900567,1079
3303.558216018975,1128
3305.23033236824,1137
3306.9021940636603,1060
3308.57380143113,1121
3310.2451547966184,1113
3311.916254486174,1106
3313.5871008259246,1137
3315.2576941420766,1111
3316.9280347609147,1095
3318.5981230088046,1074
3320.2679592121895,1116
3321.9375436975924,1068
3323.606876791612,1075
3325.27595882093,1080
3326.944790112305,1113
3328.6133709925753,1064
3330.2817017886573,1066
3331.949782827547,1060
3333.617614436319,1111
3335.2851969421245,1171
3336.952530672199,1123
3338.619615953853,1147
3340.286453114475,1070
3341.9530424815357,1086
3343.619384382583,1089
3345.2854791452437,1139
3346.951327097224,1122
3348.6169285663073,1086
3350.2822838803577,1109
3351.947393367319,1145
3353.61225735521,1103
3355.2768761721345,1098
3356.9412501462693,1084
3358.605379605873,1143
3360.2692648792827,1121
3361.9329062949146,1091
3363.596304181263,1036
