CollectionTime,4/2/2024 11:21:24 AM
ExposureUsed,3
CalibratedSpectrum
-994.8464149364308,903
-991.9439705588344,982
-989.042830375826,940
-986.1429931109675,971
-983.2444574887519,1032
-980.3472222346043,1053
-977.4512860748813,922
-974.5566477368716,932
-971.6633059487953,954
-968.7712594398042,979
-965.8805069399822,919
-962.9910471803447,934
-960.1028788928387,937
-957.2160008103432,959
-954.3304116666687,958
-951.4461101965578,907
-948.5630951356844,983
-945.6813652206545,1078
-942.8009191890055,1050
-939.9217557792067,1046
-937.0438737306594,1029
-934.167271783696,988
-931.2919486795813,962
-928.4179031605115,951
-925.5451339696144,1022
-922.67363985095,1045
-919.8034195495097,983
-916.9344718112166,1026
-914.0667953829256,975
-911.2003890124234,1028
-908.3352514484286,998
-905.471381440591,999
-902.6087777394928,987
-899.7474390966474,1030
-896.8873642645002,1010
-894.0285519964284,1012
-891.1710010467407,969
-888.3147101706776,993
-885.4596781244115,901
-882.6059036650465,955
-879.7533855506183,942
-876.9021225400943,966
-874.0521133933738,981
-871.2033568712878,968
-868.3558517355991,980
-865.509596749002,1084
-862.6645906751228,1072
-859.8208322785192,1069
-856.9783203246812,1012
-854.1370535800299,984
-851.2970308119186,996
-848.4582507886321,996
-845.620712279387,1003
-842.7844140543316,1011
-839.9493548845461,1050
-837.1155335420422,1011
-834.2829487997635,997
-831.4515994315852,1005
-828.6214842123144,1048
-825.7926019176898,986
-822.9649513243819,999
-820.138531209993,1044
-817.3133403530569,981
-814.4893775330396,1065
-811.6666415303382,985
-808.845131126282,962
-806.0248451031321,1029
-803.2057822440808,960
-800.3879413332527,974
-797.5713211557038,1020
-794.755920497422,1085
-791.941738145327,1073
-789.1287728872701,1101
-786.3170235120342,1153
-783.5064888093341,1097
-780.6971675698165,978
-777.8890585850597,979
-775.0821606475735,1097
-772.2764725507997,994
-769.4719930891118,956
-766.6687210578151,1010
-763.8666552531465,1105
-761.0657944722747,1284
-758.2661375133,1227
-755.4676831752547,1105
-752.6704302581027,1040
-749.8743775627395,993
-747.0795238909925,1037
-744.285868045621,1042
-741.4934088303156,977
-738.702145049699,1025
-735.9120755093254,1054
-733.123199015681,1225
-730.3355143761836,1185
-727.5490203991826,1059
-724.7637158939592,1045
-721.9795996707265,1084
-719.1966705406293,996
-716.4149273157439,985
-713.6343688090786,1001
-710.8549938345734,1009
-708.0768012070998,995
-705.2997897424614,1023
-702.5239582573931,1067
-699.7493055695622,1052
-696.9758304975669,1046
-694.2035318609377,1109
-691.4324084801367,1051
-688.6624591765578,1087
-685.8936827725265,983
-683.1260780913001,1060
-680.3596439570675,1066
-677.5943791949499,1033
-674.8302826309991,1005
-672.0673530922,1009
-669.3055894064685,1010
-666.5449904026519,1120
-663.78555491053,1092
-661.0272817608139,1022
-658.2701697851465,1055
-655.5142178161026,1087
-652.7594246871884,1083
-650.0057892328422,1005
-647.2533102884337,1042
-644.5019866902646,1048
-641.7518172755683,996
-639.0028008825099,1015
-636.254936350186,1096
-633.5082225186254,1050
-630.7626582287882,1123
-628.0182423225665,1065
-625.2749736427841,1061
-622.5328510331965,1181
-619.7918733384909,1154
-617.0520394042862,1104
-614.3133480771331,1107
-611.5757982045143,1099
-608.8393886348437,1220
-606.1041182174672,1187
-603.3699858026625,1165
-600.6369902416393,1162
-597.9051303865383,1177
-595.1744050904326,1251
-592.4448132073267,1198
-589.7163535921568,1172
-586.9890251007912,1082
-584.2628265900296,1061
-581.5377569176036,1086
-578.8138149421764,1191
-576.090999523343,1187
-573.3693095216302,1157
-570.6487437984965,1105
-567.9293012163321,1182
-565.210980638459,1246
-562.4937809291307,1198
-559.7777009535329,1152
-557.0627395777825,1178
-554.3488956689287,1172
-551.6361680949519,1214
-548.9245557247644,1241
-546.2140574282107,1279
-543.5046720760662,1257
-540.7963985400388,1282
-538.0892356927677,1312
-535.3831824078238,1343
-532.6782375597103,1441
-529.9744000238613,1495
-527.2716686766433,1633
-524.5700423953542,1756
-521.8695200582238,1687
-519.1701005444136,1585
-516.4717827340166,1663
-513.7745655080581,1915
-511.0784477484944,2077
-508.38342833821423,2122
-505.68950616103757,1936
-502.9966801017163,1894
-500.3049490459341,2033
-497.61431188030633,1808
-494.9247674923801,1618
-492.2363147706342,1476
-489.54895260447927,1341
-486.86267988425755,1387
-484.1774955012431,1444
-481.4933983476417,1474
-478.8103873165908,1331
-476.1284613021596,1283
-473.44761919934945,1334
-470.7678599040928,1380
-468.089182313254,1310
-465.4115853246294,1340
-462.735067836947,1532
-460.0596287498663,1470
-457.3852669639789,1286
-454.71198138080774,1203
-452.03977090280773,1180
-449.3686344333656,1228
-446.69857087679964,1281
-444.02957913835996,1327
-441.36165812422837,1292
-438.6948067415183,1346
-436.0290238982752,1341
-433.36430850347597,1309
-430.7006594670296,1335
-428.0380756997763,1341
-425.3765561134885,1397
-422.7160996208702,1333
-420.0567051355571,1418
-417.3983715721164,1355
-414.7410978460475,1335
-412.08488287378145,1348
-409.4297255726806,1390
-406.77562486103955,1204
-404.1225796580843,1246
-401.4705888839728,1077
-398.8196514597947,999
-396.1697663075713,1121
-393.5209323502555,1087
-390.8731485117323,882
-388.22641371681823,881
-385.5807268912615,1053
-382.93608696174226,962
-380.29249285587207,834
-377.64994350219456,791
-375.0084378301849,800
-372.36797477025016,806
-369.7285532537287,788
-367.0901722128914,795
-364.45283058094014,762
-361.8165272920089,824
-359.1812612811634,743
-356.54703148440103,615
-353.9138368386507,615
-351.28167628177346,885
-348.6505487525617,966
-346.02045319074,826
-343.3913885369643,743
-340.76335373282245,813
-338.1363477208339,818
-335.5103694444499,854
-332.8854178480535,860
-330.26149187695944,894
-327.63859047741425,846
-325.016712596596,701
-322.3958571826148,651
-319.77602318451227,723
-317.15720955226186,762
-314.5394152367686,776
-311.9226391898695,747
-309.3068803643333,777
-306.69213771386023,850
-304.0784101930824,1027
-301.4656967575635,1033
-298.8539963637994,934
-296.2433079692172,1040
-293.6336305321761,1015
-291.02496301196675,899
-288.41730436881176,985
-285.81065356386534,919
-283.2050095592135,949
-280.60037131787396,1230
-277.9967378037961,1484
-275.39410798186134,1195
-272.7924808178824,1207
-270.19185527860407,1165
-267.5922303317028,1133
-264.9936049457866,1367
-262.3959780903955,1256
-259.79934873600087,1251
-257.2037158540064,1338
-254.6090784167469,1348
-252.01543539748934,1401
-249.42278577043237,1128
-246.8311285107061,1069
-244.24046259437262,1088
-241.6507869984256,1053
-239.0621007007909,1130
-236.4744026803254,1168
-233.88769191681808,1178
-231.30196739098994,1105
-228.7172280844934,1091
-226.13347297991243,1307
-223.550701060763,1369
-220.9689113114929,1298
-218.3881027174814,1219
-215.8082742650397,1334
-213.22942494141068,1712
-210.65155373476898,2283
-208.07465963422078,2103
-205.49874162980439,1916
-202.92379871248932,1970
-200.34982987417743,1842
-197.7768341077018,1465
-195.20481040682762,1348
-192.63375776625162,1280
-190.0636751816021,1299
-187.49456164943945,1424
-184.92641616725564,1622
-182.3592377334743,1552
-179.79302534745102,1566
-177.2277780094729,1791
-174.66349472075865,1684
-172.10017448345923,1751
-169.5378163006569,1730
-166.97641917636565,1630
-164.41598211553162,1770
-161.8565041240322,2124
-159.29798420867678,1980
-156.74042137720642,1862
-154.18381463829382,1989
-151.6281630015436,1863
-149.07346547749228,1572
-146.51972107760753,1341
-143.96692881428908,1466
-141.41508770086864,1895
-138.86419675160937,1973
-136.31425498170609,1661
-133.7652614072856,1736
-131.21721504540642,1758
-128.67011491405844,2099
-126.12396003216395,2867
-123.57874941957618,3215
-121.03448209708074,2730
-118.49115708639465,2583
-115.94877341016684,2595
-113.40733009197788,2697
-110.86682615633993,2849
-108.32726062869733,2813
-105.78863253542556,3632
-103.25094090383243,5027
-100.71418476215695,4359
-98.17836313957025,4092
-95.64347506617503,3034
-93.10951957300585,3180
-90.57649569202886,3492
-88.04440245614194,3661
-85.51323889917478,3770
-82.98300405588896,5413
-80.45369696197747,7092
-77.925316654065,10478
-75.39786216970867,13578
-72.87133254739649,17070
-70.34572682654857,19874
-67.82104404751692,23865
-65.29728325158499,27755
-62.774443480968216,30006
-60.252523778813384,32205
-57.73152318919938,30202
-55.21144075713676,33020
-52.69227552856796,27812
-50.17402655036665,25767
-47.65669287033859,24240
-45.14027353722133,23450
-42.624767600684095,24103
-40.11017411132775,25658
-37.59649212068507,27833
-35.08372068122037,29298
-32.57185884632963,31490
-30.06090567034107,35478
-27.550860208513996,36012
-25.04172151704006,46994
-22.533488653042014,65042
-20.02616067457484,65042
-17.51973664062507,65042
-15.014215611111126,65042
-12.509596646882983,65042
-10.005878809722162,65042
-7.503061162342419,65042
-5.001142768389059,65042
-2.5001226924387083,65042
-3.410605131648481E-13,65042
2.49922624248552,65042
4.997556967646801,65042
7.494993107179766,65042
9.99153559184856,65042
12.487185351485778,65042
14.98194331499235,65042
17.475810410337544,65042
19.96878756455851,65042
22.46087570376085,65042
24.952075753118834,34952
27.442388636874625,9336
29.93181527833849,7079
32.42035659988892,8233
34.90801352297353,13375
37.39478696810693,13009
39.880677854873056,10579
42.36568710192364,8112
44.8498156269784,8513
47.33306434682618,7514
49.815434177322686,7512
52.296926033393675,7611
54.77754082903198,7912
57.25727947729865,9493
59.736142890323435,8375
62.214131979304284,5134
64.6912476545076,3964
67.16749082526735,3355
69.64286239998614,2759
72.11736328613551,3411
74.59099439025431,4239
77.06375661794982,5447
79.53565087389825,4703
82.0066780618431,3851
84.4768390845968,3678
86.94613484403999,4146
89.41456624112152,5760
91.88213417585825,5073
94.34883954733527,3385
96.81468325370679,3394
99.2796661921941,2300
101.74378925908763,2783
104.20705334974559,3147
106.66945935859462,3762
109.1310081791296,3981
111.59170070391383,4078
114.05153782457865,3315
116.5105204318238,2352
118.96864941541708,2896
121.42592566419489,3830
123.88235006606146,3886
126.3379235079899,2894
128.79264687602085,2561
131.2465210552641,2869
133.69954692989631,2740
136.15172538316415,3266
138.60305729738116,3051
141.05354355393,2866
143.50318503326116,2929
145.95198261489327,2938
148.39993717741368,2859
150.84704959847772,3430
153.29332075480897,3554
155.73875152219944,3490
158.18334277550935,3477
160.62709538866693,3185
163.0700102346691,3008
165.51208818558075,3030
167.953330112535,2968
170.39373688573346,2717
172.8333093744459,3059
175.2720484470101,3298
177.70995497083277,3443
180.14702981238815,3796
182.58327383721917,3647
185.01868790993672,3614
187.45327289422062,3541
189.88702965281777,3142
192.31995904754444,3208
194.75206193928489,3345
197.18333918799135,3290
199.61379165268454,3262
202.04342019145315,3219
204.4722256614548,3199
206.90020891891436,3345
209.32737081912592,3216
211.7537122164515,3080
214.17923396432116,3137
216.6039369152336,3251
219.0278219207553,3176
221.45088983152186,3108
223.8731414972358,3277
226.29457776666914,3168
228.71519948766172,2982
231.1350075071216,3233
233.55400267102482,3299
235.97218582441633,3396
238.38955781140908,3184
240.806119475184,3216
243.2218716579905,3298
245.6368152011462,3193
248.05095094503736,3336
250.46427972911806,3342
252.87680239191036,3424
255.28851977100544,3524
257.69943270306203,3633
260.10954202380753,3214
262.5188485680378,3100
264.92735316961557,3367
267.33505666147425,3425
269.7419598756128,3364
272.14806364310084,3324
274.5533687940747,3180
276.95787615773975,3132
279.361586562369,3092
281.7645008353045,3003
284.1666198029559,3020
286.5679442908013,3145
288.96847512338695,3138
291.3682131243279,3089
293.7671591163071,3072
296.1653139210757,3162
298.562678359453,3206
300.9592532513268,3270
303.3550394156532,3241
305.75003767045655,3080
308.14424883282936,3159
310.53767371893196,3150
312.93031314399377,3019
315.3221679223125,2864
317.71323886725304,2895
320.1035267912496,2802
322.49303250580397,2832
324.881756821487,2797
327.2697005479374,2829
329.65686449386135,2782
332.0432494670347,2875
334.4288562743004,2823
336.81368572157066,2784
339.19773861382487,2785
341.58101575511205,2790
343.96351794854786,2709
346.3452459963173,2657
348.72620069967365,2718
351.1063828589379,2682
353.48579327349967,2902
355.8644327418169,2852
358.24230206141533,2688
360.6194020288899,2662
362.99573343990255,2632
365.3712970891845,2659
367.7460937705348,2686
370.12012427682066,2666
372.493389399978,2557
374.86588993101077,2544
377.23762665999084,2644
379.6086003760588,2514
381.9788118674235,2509
384.34826192136165,2661
386.7169513242188,2552
389.08488086140824,2580
391.4520513174118,2622
393.8184634757795,2570
396.1841181191296,2805
398.54901602914856,2649
400.9131579865916,2717
403.2765447712811,2652
405.63917716210926,2828
408.00105593703483,2749
410.36218187308646,2616
412.7225557463596,2570
415.0821783320191,2502
417.4410504042976,2516
419.79917273649585,2492
422.1565461009834,2556
424.5131712691973,2539
426.869049011643,2567
429.22418009789544,2578
431.578565296596,2529
433.9322053754556,2379
436.28510110125285,2376
438.6372532398352,2380
440.98866255611733,2453
443.33932981408293,2427
445.6892557767842,2475
448.0384412063411,2414
450.38688686394175,2497
452.7345935098431,2546
455.0815619033697,2444
457.42779280291506,2570
459.7732869659403,2614
462.1180451489754,2546
464.4620681076178,2646
466.80535659653424,2514
469.1479113694588,2579
471.48973317919445,2610
473.8308227776122,2585
476.17118091565135,2699
478.51080834331924,2655
480.8497058096914,2727
483.1878740629122,2995
485.5253138501944,2953
487.8620259178176,2910
490.1980110111317,3254
492.53326987455307,3311
494.86780325156724,3389
497.201611884728,3722
499.53469651565683,3948
501.8670578850447,4150
504.1986967326493,4193
506.52961379729754,4107
508.85980981688454,3839
511.18928552837315,3679
513.5180416677952,3692
515.8460789702503,3686
518.1733981699067,4115
520.5,4806
522.8258851928354,5260
525.1510544797857,4737
527.4755085912916,4358
529.7992482568625,3827
532.1222742050759,3239
534.4445871635783,2792
536.766187859083,2526
539.0870770173726,2504
541.4072553632982,2525
543.7267236207783,2419
546.0454825128002,2436
548.363532761419,2519
550.6808750877592,2678
552.9975102120118,2678
555.3134388534377,2596
557.6286617303654,2545
559.9431795601911,2594
562.2569930593802,2487
564.570102943466,2680
566.88250992705,2545
569.1942147238021,2402
571.5052180464602,2556
573.8155206068309,2472
576.1251231157885,2585
578.4340262832759,2496
580.7422308183045,2426
583.0497374289534,2505
585.3565468223703,2402
587.6626597047714,2341
589.9680767814409,2431
592.2727987567309,2436
594.5768263340624,2520
596.8801602159238,2552
599.1828011038731,2491
601.4847496985356,2487
603.7860066996047,2445
606.0865728058427,2363
608.3864487150802,2354
610.6856351242152,2450
612.9841327292149,2461
615.2819422251141,2443
617.5790643060163,2486
619.8754996650935,2413
622.1712489945849,2468
624.466312985799,2460
626.7606923291121,2440
629.0543877139692,2547
631.347399828883,2492
633.6397293614343,2455
635.9313769982732,2613
638.2223434251173,2441
640.5126293267522,2477
642.8022353870326,2433
645.0911622888809,2399
647.3794107142876,2443
649.666981344312,2449
651.9538748590815,2518
654.2400919377915,2540
656.525633258706,2594
658.8104994991568,2426
661.0946913355442,2462
663.3782094433375,2539
665.6610544970729,2483
667.9432271703561,2601
670.22472813586,2484
672.5055580653268,2615
674.7857176295659,2563
677.065207498456,2406
679.3440283409432,2487
681.6221808250425,2453
683.899665617837,2482
686.1764833854772,2465
688.4526347931837,2400
690.7281205052436,2493
693.0029411850135,2529
695.2770974949171,2570
697.5505900964474,2545
699.8234196501651,2477
702.0955868156989,2509
704.3670922517472,2478
706.6379366160747,2478
708.9081205655159,2519
711.1776447559728,2577
713.4465098424155,2528
715.714716478883,2505
717.9822653184822,2535
720.2491570133882,2499
722.5153922148452,2483
724.7809715731639,2493
727.0458957377248,2425
729.3101653569763,2435
731.5737810784346,2559
733.8367435486853,2514
736.0990534133803,2495
738.3607113172418,2574
740.6217179040591,2533
742.8820738166899,2546
745.1417796970607,2516
747.4008361861659,2541
749.6592439240678,2541
751.9170035498973,2574
754.1741157018539,2625
756.4305810172048,2510
758.686400132286,2520
760.9415736825013,2554
763.196102302323,2536
765.4499866252911,2638
767.7032272840152,2655
769.9558249101717,2627
772.207780134506,2605
774.4590935868323,2644
776.7097658960313,2747
778.9597976900541,2661
781.2091895959184,2615
783.457942239711,2638
785.7060562465867,2657
787.9535322407687,2755
790.2003708455488,2654
792.4465726832861,2753
794.6921383754088,2782
796.9370685424128,2672
799.1813638038632,2758
801.4250247783918,2830
803.6680520837006,2730
805.9104463365579,2571
808.1522081528019,2607
810.393338147338,2714
812.6338369341406,2621
814.8737051262517,2599
817.1129433357819,2587
819.35155217391,2659
821.5895322508834,2596
823.8268841760168,2670
826.0636085576946,2641
828.2997060033681,2694
830.535177119558,2593
832.7700225118522,2592
835.0042427849078,2644
837.2378385424493,2584
839.4708103872701,2633
841.7031589212318,2592
843.9348847452643,2560
846.1659884593648,2655
848.3964706626004,2636
850.6263319531054,2602
852.8555729280824,2614
855.0841941838025,2565
857.3121963156052,2623
859.5395799178978,2695
861.7663455841566,2702
863.9924939069251,2676
866.2180254778159,2656
868.4429408875103,2683
870.6672407257561,2617
872.890925581371,2755
875.1139960422404,2728
877.336452695318,2595
879.5582961266261,2818
881.7795269212543,2601
884.0001456633613,2759
886.2201529361741,2723
888.4395493219874,2692
890.6583354021648,2798
892.8765117571375,2775
895.094078966405,2773
897.3110376085365,2713
899.5273882611671,2690
901.7431315010019,2641
903.958267903814,2602
906.1727980444443,2714
908.3867224968019,2622
910.6000418338647,2640
912.8127566276792,2701
915.0248674493587,2660
917.2363748690857,2664
919.4472794561113,2769
921.6575817787543,2681
923.867282404402,2593
926.0763818995099,2492
928.2848808296014,2506
930.4927797592693,2461
932.700079252173,2652
934.9067798710416,2642
937.112882177672,2559
939.3183867329287,2563
941.5232940967453,2549
943.727604828124,2576
945.9313194851336,2556
948.1344386249132,2540
950.3369628036685,2614
952.5388925766747,2586
954.7402284982745,2563
956.9409711218789,2530
959.1411209999676,2547
961.3406786840883,2457
963.5396447248565,2432
965.7380196719573,2539
967.9358040741427,2459
970.1329984792335,2551
972.3296034341188,2473
974.5256194847555,2511
976.72104717617,2511
978.9158870524552,2449
981.1101396567742,2527
983.3038055313566,2470
985.4968852175009,2511
987.6893792555747,2479
989.8812881850124,2401
992.072612544318,2396
994.263352871063,2386
996.453509701887,2473
998.6430835724984,2431
1000.832075017674,2410
1003.0204845712583,2349
1005.208312766164,2318
1007.3955601343728,2312
1009.5822272069338,2337
1011.7683145139652,2330
1013.9538225846525,2229
1016.1387519472505,2282
1018.3231031290818,2295
1020.5068766565371,2301
1022.6900730550753,2352
1024.872692849224,2423
1027.054736562579,2270
1029.2362047178037,2168
1031.4170978366305,2199
1033.5974164398597,2221
1035.7771610473603,2307
1037.9563321780693,2251
1040.1349303499917,2246
1042.3129560802006,2185
1044.490409884838,2169
1046.667292279115,2217
1048.8436037773079,2107
1051.0193448927644,2174
1053.1945161378994,2232
1055.3691180241954,2229
1057.5431510622038,2159
1059.7166157615447,2266
1061.8895126309053,2269
1064.0618421780423,2219
1066.2336049097798,2176
1068.4048013320107,2207
1070.5754319496955,2157
1072.745497266863,2193
1074.9149977866118,2139
1077.0839340111065,2182
1079.2523064415818,2100
1081.4201155783398,2175
1083.587361920751,2158
1085.7540459672537,2127
1087.9201682153553,2103
1090.0857291616308,2164
1092.2507293017238,2165
1094.4151691303464,2057
1096.579049141279,2070
1098.7423698273687,2105
1100.9051316805335,2116
1103.0673351917571,2096
1105.2289808510936,2178
1107.3900691476633,2102
1109.550600569657,2084
1111.710575604332,2086
1113.8699947380146,2087
1116.028858456099,2113
1118.1871672430489,2138
1120.344921582394,2080
1122.5021219567334,2140
1124.6587688477362,2090
1126.8148627361365,2111
1128.9704041017399,2130
1131.1253934234173,2202
1133.2798311791098,2105
1135.4337178458263,2129
1137.5870538996437,2036
1139.7398398157075,2022
1141.8920760682313,2118
1144.0437631304972,2061
1146.1949014748543,2155
1148.3454915727225,2082
1150.4955338945874,2010
1152.6450289100044,2070
1154.7939770875969,2053
1156.9423788950558,2046
1159.0902347991405,2074
1161.2375452656802,2096
1163.3843107595703,2109
1165.530531744775,2073
1167.6762086843282,2122
1169.8213420403304,2030
1171.9659322739503,2046
1174.1099798454266,2035
1176.2534852140639,2090
1178.3964488382376,1946
1180.538871175389,2081
1182.680752682029,2081
1184.8220938137365,2038
1186.9628950251595,1951
1189.103156770012,2010
1191.2428795010783,2038
1193.3820636702108,2038
1195.5207097283287,1962
1197.6588181254215,2031
1199.7963893105457,2030
1201.9334237318253,2071
1204.0699218364548,2022
1206.2058840706954,2008
1208.3413108798773,2023
1210.476202708397,1962
1212.6105599997222,1931
1214.7443831963874,2010
1216.877672739995,1867
1219.0104290712165,1960
1221.1426526297905,2055
1223.2743438545253,2075
1225.4055031832972,2014
1227.5361310530493,2092
1229.6662278997946,1957
1231.7957941586142,2022
1233.9248302636565,1929
1236.053336648139,2001
1238.1813137443464,1998
1240.3087619836338,1975
1242.4356817964222,2066
1244.5620736122019,2046
1246.6879378595318,1970
1248.813274966039,2007
1250.938085358418,1979
1253.062369462432,1978
1255.186127702913,2004
1257.3093605037611,2014
1259.4320682879434,1964
1261.554251477498,2013
1263.6759104935277,2019
1265.797045756206,1965
1267.9176576847744,1962
1270.0377466975428,1979
1272.1573132118879,1952
1274.2763576442567,2054
1276.394880410162,2017
1278.5128819241877,2011
1280.6303625999835,2106
1282.7473228502695,1994
1284.8637630868325,1995
1286.9796837205272,2134
1289.0950851612783,2121
1291.209967818078,2087
1293.3243320989864,2062
1295.4381784111324,2064
1297.551507160712,2022
1299.6643187529912,2104
1301.776613592303,2102
1303.888392082049,2073
1305.9996546246998,2108
1308.1104016217923,2068
1310.220633473934,2115
1312.3303505807999,2101
1314.4395533411316,2002
1316.5482421527418,2085
1318.6564174125092,2023
1320.7640795163816,2078
1322.8712288593752,2053
1324.9778658355744,2068
1327.0839908381313,2031
1329.1896042592675,2084
1331.2947064902714,2076
1333.3992979215009,2034
1335.503378942381,2029
1337.6069499414057,2089
1339.7100113061383,1966
1341.8125634232074,2000
1343.9146066783128,2046
1346.0161414562212,2082
1348.1171681407677,1997
1350.2176871148563,2034
1352.3176987604575,2003
1354.4172034586127,2136
1356.5162015894289,2141
1358.6146935320835,2091
1360.7126796648213,2017
1362.8101603649548,2078
1364.9071360088656,1927
1367.0036069720036,2042
1369.099573628886,2002
1371.195036353099,1970
1373.2899955172975,1941
1375.3844514932039,1972
1377.4784046516088,2026
1379.5718553623715,1891
1381.6648039944193,1995
1383.7572509157485,2048
1385.8491964934224,1955
1387.9406410935735,1960
1390.0315850814022,2037
1392.122028821177,1929
1394.2119726762357,1972
1396.3014170089828,2010
1398.3903621808918,1988
1400.4788085525051,1974
1402.566756483432,1923
1404.6542063323514,1970
1406.7411584570095,1989
1408.8276132142219,1965
1410.9135709598704,2009
1412.9990320489078,2054
1415.083996835353,2049
1417.1684656722937,1958
1419.2524389118867,1982
1421.3359169053565,1990
1423.4189000029946,1967
1425.5013885541634,2038
1427.5833829072913,1988
1429.664883409876,1963
1431.7458904084833,1963
1433.8264042487467,1897
1435.9064252753697,1999
1437.9859538321216,1916
1440.0649902618416,1996
1442.1435349064373,1954
1444.2215881068837,2090
1446.2991502032237,1991
1448.37622153457,1968
1450.452802439103,2075
1452.5288932540698,2058
1454.604494315788,1996
1456.6796059596427,1996
1458.7542285200866,2014
1460.8283623306415,2100
1462.902007723897,2031
1464.9751650315106,2054
1467.0478345842089,2034
1469.1200167117868,2078
1471.1917117431062,2068
1473.2629200060992,2060
1475.333641827764,2015
1477.4038775341692,2044
1479.4736274504498,1997
1481.5428919008104,2070
1483.6116712085222,2036
1485.6799656959279,2122
1487.7477756844346,2118
1489.8151014945201,2060
1491.88194344573,2193
1493.9483018566775,2108
1496.0141770450455,2142
1498.0795693275822,2182
1500.1444790201076,2263
1502.2089064375086,2212
1504.2728518937402,2163
1506.3363157018239,2211
1508.3992981738534,2127
1510.4617996209872,2197
1512.5238203534536,2236
1514.5853606805495,2338
1516.6464209106384,2241
1518.7070013511543,2267
1520.7671023085973,2339
1522.8267240885375,2309
1524.885866995612,2244
1526.9445313335268,2425
1529.002717405056,2376
1531.0604255120425,2467
1533.1176559553965,2538
1535.1744090350971,2636
1537.2306850501914,2601
1539.2864842987956,2676
1541.3418070780922,2652
1543.396653684334,2726
1545.4510244128405,2810
1547.5049195580013,2765
1549.5583394132727,2756
1551.61128427118,2870
1553.6637544233158,2855
1555.7157501603415,2885
1557.7672717719888,3022
1559.8183195470538,3065
1561.8688937734037,3120
1563.9189947379737,3068
1565.9686227267657,3155
1568.0177780248514,3024
1570.0664609163696,2987
1572.1146716845292,2936
1574.162410611605,2883
1576.2096779789413,2770
1578.2564740669518,2708
1580.3027991551157,2554
1582.3486535219831,2504
1584.3940374451709,2460
1586.4389512013645,2291
1588.4833950663178,2313
1590.5273693148533,2263
1592.5708742208603,2271
1594.6139100572982,2174
1596.6564770961936,2184
1598.698575608642,2182
1600.7402058648063,2106
1602.7813681339185,2045
1604.8220626842776,2038
1606.8622897832533,1981
1608.9020496972812,2001
1610.9413426918663,2049
1612.9801690315808,1979
1615.018528980066,2006
1617.056422800033,1955
1619.0938507532578,1982
1621.1308131005876,1977
1623.1673101019355,1913
1625.2033420162848,1977
1627.2389091016862,1930
1629.274011615259,1908
1631.3086498131897,1894
1633.3428239507352,1968
1635.376534282219,1880
1637.4097810610324,1861
1639.4425645396364,1936
1641.4748849695593,1900
1643.5067426013989,1878
1645.53813768482,1942
1647.5690704685549,1904
1649.5995412004067,1850
1651.6295501272452,1856
1653.6590974950086,1878
1655.6881835487025,1892
1657.7168085324029,1874
1659.7449726892523,1856
1661.772676261462,1828
1663.7999194903114,1898
1665.8267026161484,1851
1667.8530258783894,1843
1669.8788895155185,1815
1671.9042937650888,1803
1673.9292388637205,1868
1675.953725047103,1815
1677.977752549994,1815
1680.0013216062184,1784
1682.0244324486712,1773
1684.0470853093134,1776
1686.0692804191767,1808
1688.0910180083588,1805
1690.1122983060268,1751
1692.1331215404175,1834
1694.1534879388319,1832
1696.173397727644,1840
1698.1928511322926,1834
1700.211848377286,1812
1702.2303896862018,1915
1704.248475281684,1913
1706.2661053854458,1870
1708.2832802182684,1870
1710.300000000002,1942
1712.3162649495644,1797
1714.3320752849409,1766
1716.3474312231865,1822
1718.362332980424,1764
1720.376780771845,1811
1722.3907748117072,1814
1724.4043153133393,1789
1726.4174024891367,1759
1728.4300365505628,1839
1730.442217708151,1864
1732.4539461715008,1865
1734.465222149282,1770
1736.4760458492306,1812
1738.4864174781524,1807
1740.496337241921,1770
1742.5058053454786,1775
1744.5148219928346,1792
1746.523387387068,1841
1748.531501730325,1758
1750.5391652238209,1771
1752.5463780678388,1745
1754.55314046173,1754
1756.5594526039135,1863
1758.565314691879,1804
1760.5707269221812,1777
1762.5756894904443,1789
1764.580202591363,1812
1766.5842664186966,1764
1768.5878811652751,1816
1770.591047022996,1766
1772.593764182825,1810
1774.5960328347965,1848
1776.5978531680116,1793
1778.5992253706427,1815
1780.6001496299273,1815
1782.6006261321731,1755
1784.6006550627553,1783
1786.6002366061175,1759
1788.5993709457725,1788
1790.5980582642992,1765
1792.5962987433468,1858
1794.5940925636314,1812
1796.5914399049389,1771
1798.5883409461221,1732
1800.584795865102,1782
1802.580804838869,1771
1804.5763680434807,1803
1806.571485654064,1756
1808.566157844813,1814
1810.5603847889902,1760
1812.5541666589274,1816
1814.5475036260236,1854
1816.5403958607467,1795
1818.5328435326323,1734
1820.5248468102845,1708
1822.5164058613755,1744
1824.5075208526468,1787
1826.4981919499064,1733
1828.488419318032,1799
1830.4782031209684,1793
1832.4675435217305,1793
1834.4564406823993,1713
1836.4448947641258,1831
1838.432905927128,1815
1840.4204743306927,1730
1842.4076001331746,1776
1844.3942834919985,1818
1846.380524563654,1758
1848.366323503702,1753
1850.351680466771,1702
1852.3365956065563,1790
1854.3210690758228,1847
1856.3051010264044,1699
1858.2886916092007,1835
1860.271840974182,1726
1862.2545492703862,1756
1864.2368166459191,1808
1866.2186432479543,1828
1868.2000292227349,1807
1870.1809747155717,1813
1872.1614798708429,1801
1874.1415448319963,1695
1876.1211697415474,1813
1878.1003547410805,1824
1880.0790999712472,1769
1882.0574055717675,1761
1884.0352716814305,1774
1886.0126984380927,1741
1887.989685978679,1749
1889.9662344391836,1773
1891.9423439546672,1806
1893.9180146592607,1746
1895.893246686161,1842
1897.868040167636,1807
1899.8423952350195,1800
1901.8163120187137,1818
1903.7897906481917,1777
1905.7628312519923,1760
1907.7354339577219,1830
1909.7075988920578,1752
1911.6793261807447,1805
1913.6506159485943,1784
1915.6214683194871,1836
1917.5918834163726,1807
1919.5618613612687,1755
1921.5314022752605,1743
1923.5005062785012,1788
1925.4691734902144,1891
1927.4374040286893,1755
1929.4051980112845,1782
1931.3725555544274,1846
1933.3394767736136,1809
1935.305961783406,1828
1937.2720106974361,1857
1939.237623628404,1803
1941.2028006880778,1913
1943.167541987295,1833
1945.1318476359588,1863
1947.0957177430432,1870
1949.0591524165898,1812
1951.0221517637078,1793
1952.984715890574,1787
1954.9468449024357,1777
1956.9085389036072,1770
1958.8697979974704,1746
1960.8306222864767,1698
1962.7910118721456,1844
1964.7509668550638,1813
1966.7104873348871,1808
1968.6695734103387,1736
1970.6282251792127,1825
1972.586442738368,1812
1974.5442261837343,1779
1976.501575610307,1846
1978.4584911121533,1744
1980.4149727824056,1806
1982.3710207132658,1766
1984.326634996004,1823
1986.2818157209585,1835
1988.2365629775359,1835
1990.1908768542116,1851
1992.144757438527,1855
1994.0982048170954,1809
1996.0512190755953,1850
1998.0038002987749,1803
1999.95594857045,1750
2001.9076639735054,1827
2003.8589465898945,1807
2005.8097965006368,1852
2007.760213785822,1789
2009.7101985246077,1805
2011.6597507952201,1829
2013.6088706749524,1840
2015.5575582401675,1825
2017.5058135662953,1873
2019.4536367278351,1786
2021.4010277983534,1805
2023.347986850486,1789
2025.2945139559365,1776
2027.2406091854768,1831
2029.1862726089462,1835
2031.1315042952538,1892
2033.0763043123766,1864
2035.0206727273585,1819
2036.964609606313,1809
2038.908115014422,1825
2040.8511890159348,1819
2042.7938316741693,1809
2044.7360430515123,1864
2046.677823209417,1833
2048.6191722084077,1694
2050.5600901080743,1764
2052.5005769670765,1858
2054.440632843142,1782
2056.380257793066,1843
2058.3194518727128,1878
2060.258215137015,1849
2062.1965476399732,1860
2064.1344494346554,1864
2066.0719205732,1851
2068.008961106812,1826
2069.945571085764,1842
2071.8817505593997,1810
2073.817499576128,1777
2075.7528181834273,1830
2077.6877064278447,1885
2079.622164354995,1830
2081.556192009562,1840
2083.4897894352966,1777
2085.4229566750187,1894
2087.355693770616,1840
2089.2880007630456,1844
2091.219877692331,1785
2093.151324597566,1862
2095.0823415169107,1813
2097.012928487595,1814
2098.9430855459173,1855
2100.872812727242,1862
2102.8021100660035,1829
2104.730977595705,1862
2106.659415348917,1866
2108.5874233572777,1865
2110.5150016514945,1859
2112.442150261343,1931
2114.3688692156675,1903
2116.2951585423793,1855
2118.2210182684585,1780
2120.146448419954,1875
2122.0714490219825,1870
2123.9960200987293,1837
2125.920161673447,1886
2127.843873768458,1863
2129.767156405151,1805
2131.690009603985,1891
2133.612433384486,1824
2135.534427765249,1807
2137.4559927639366,1878
2139.37712839728,1860
2141.2978346810783,1882
2143.2181116301995,1808
2145.1379592585795,1905
2147.057377579222,1843
2148.9763666042,1874
2150.894926344655,1900
2152.813056810794,1867
2154.730758011896,1849
2156.648029956306,1840
2158.564872651437,1838
2160.481286103772,1888
2162.397270318861,1896
2164.312825301323,1831
2166.227951054844,1822
2168.14264758218,1783
2170.056914885153,1829
2171.9707529646566,1891
2173.8841618206484,1847
2175.7971414521585,1966
2177.7096918572825,1889
2179.621813033186,1952
2181.5335049761,1853
2183.444767681327,1867
2185.355601143236,1875
2187.2660053552654,1920
2189.1759803099208,1884
2191.085525998777,1886
2192.994642412475,1897
2194.903329540727,1866
2196.811587372312,1884
2198.7194158950765,1887
2200.626815095937,1835
2202.5337849608763,1956
2204.440325474948,1918
2206.346436622271,1909
2208.2521183860345,1954
2210.157370748496,1924
2212.0621936909793,1925
2213.966587193879,1920
2215.8705512366573,1959
2217.774085797842,1927
2219.677190855033,1919
2221.579866384897,1893
2223.4821123631677,1829
2225.3839287646483,1915
2227.2853155632106,1956
2229.186272731794,1939
2231.0868002424063,1954
2232.986898066123,1972
2234.8865661730892,1908
2236.785804532517,1922
2238.6846131126877,1909
2240.5829918809495,1881
2242.4809408037213,1899
2244.3784598464877,1941
2246.275548973803,1926
2248.172208149288,1907
2250.0684373356357,1959
2251.964236494603,1944
2253.859605587017,1908
2255.7545445727733,1977
2257.6490534108357,1877
2259.5431320592356,1927
2261.436780475073,2025
2263.329998614516,1989
2265.222786432802,1883
2267.1151438842344,1897
2269.0070709221877,1885
2270.8985674991022,1900
2272.789633566488,1934
2274.6802690749237,1877
2276.570473974053,1845
2278.4602482125933,1865
2280.3495917383257,1880
2282.238504498101,1941
2284.1269864378387,1951
2286.0150375025264,1891
2287.9026576362203,1876
2289.789846782043,1976
2291.6766048821873,1940
2293.5629318779147,1999
2295.4488277095534,1911
2297.3342923164996,2016
2299.2193256372193,1902
2301.1039276092465,1939
2302.9880981691817,2006
2304.871837252696,1955
2306.755144794528,1915
2308.6380207284838,1966
2310.5204649874386,1969
2312.4024775033354,2022
2314.2840582071854,1953
2316.165207029068,1971
2318.0459238981325,2001
2319.926208742594,1900
2321.8060614897363,1992
2323.6854820659137,1914
2325.5644703965463,1985
2327.443026406124,1935
2329.321150018203,1955
2331.1988411554107,1989
2333.0760997394395,1984
2334.952925691053,1923
2336.829318930082,2000
2338.705279375424,2003
2340.5808069450477,1978
2342.4559015559867,1974
2344.3305631243456,1979
2346.204791565297,1998
2348.07858679308,1904
2349.9519487210027,2013
2351.824877261443,2021
2353.6973723258448,2022
2355.5694338247226,2014
2357.4410616676564,1965
2359.312255763297,1977
2361.1830160193617,2036
2363.053342342637,2000
2364.9232346389776,1915
2366.792692813306,1984
2368.6617167696145,2060
2370.5303064109603,2034
2372.3984616394723,2038
2374.2661823563467,1970
2376.1334684618464,2024
2378.0003198553054,2035
2379.8667364351227,2001
2381.7327180987672,1936
2383.5982647427777,2040
2385.4633762627586,1991
2387.3280525533837,1973
2389.192293508395,2093
2391.0560990206027,1955
2392.919468981885,2034
2394.782403283189,1988
2396.644901814531,2025
2398.5069644649916,2029
2400.3685911227235,2042
2402.2297816749474,2008
2404.0905360079505,2049
2405.950854007089,2057
2407.8107355567886,2056
2409.670180540541,2026
2411.529188840908,2024
2413.387760339518,1936
2415.2458949170705,1967
2417.1035924533294,2045
2418.96085282713,1990
2420.8176759163744,1993
2422.6740615980334,2015
2424.5300097481468,2032
2426.38552024182,1954
2428.24059295323,2048
2430.0952277556207,2038
2431.949424521303,1969
2433.803183121658,2062
2435.6565034271343,2081
2437.5093853072485,2049
2439.361828630585,2100
2441.213833264798,2093
2443.0653990766095,2077
2444.916525931808,2070
2446.7672136952524,2046
2448.6174622308695,2041
2450.4672714016538,2110
2452.3166410696676,2034
2454.165571096043,2054
2456.0140613409794,2074
2457.8621116637432,2093
2459.709721922672,2041
2461.556891975169,2056
2463.403621677707,1999
2465.249910885827,2064
2467.0957594541383,2036
2468.9411672363167,2050
2470.78613408511,2050
2472.630659852331,2062
2474.4747443888614,2087
2476.3183875446516,2061
2478.161589168721,2023
2480.0043491091556,2045
2481.8466672131112,2090
2483.6885433268108,2073
2485.529977295547,2092
2487.370968963678,2003
2489.2115181746335,2057
2491.0516247709097,2091
2492.891288594071,2024
2494.7305094847497,2011
2496.569287282649,1966
2498.407621826537,2027
2500.2455129542523,2065
2502.0829605027,2026
2503.919964307855,2053
2505.7565242047594,1976
2507.5926400275252,2024
2509.42831160933,2068
2511.263538782423,2006
2513.0983213781174,2065
2514.9326592267994,2036
2516.76655215792,2044
2518.5999999999995,2100
2520.4330025806275,2054
2522.2655597264607,2006
2524.0976712632237,2068
2525.9293370157097,2103
2527.760556807782,2096
2529.591330462369,2122
2531.4216578014702,2106
2533.2515386461523,2080
2535.080972816548,2009
2536.9099601318626,2102
2538.738500410366,2148
2540.5665934693993,2134
2542.3942391253695,2114
2544.221437193752,2078
2546.0481874890925,2070
2547.874489825003,2153
2549.700344014164,2140
2551.5257498683245,2154
2553.350707198304,2133
2555.175215813986,2131
2556.9992755243256,2118
2558.8228861373454,2128
2560.646047460134,2035
2562.468759298852,2058
2564.2910214587255,2185
2566.1128337440496,2124
2567.93419595819,2141
2569.7551079035757,2090
2571.5755693817077,2136
2573.395580193155,2046
2575.2151401375536,2141
2577.034249013609,2196
2578.8529066190936,2138
2580.6711127508493,2114
2582.488867204785,2168
2584.3061697758794,2169
2586.1230202581787,2182
2587.939418444797,2149
2589.7553641279183,2170
2591.570857098791,2207
2593.385897147736,2113
2595.200484064141,2157
2597.014617636461,2163
2598.8282976522214,2133
2600.6415238980126,2154
2602.454296159496,2256
2604.266614221401,2100
2606.0784778675243,2171
2607.8898868807305,2262
2609.700841042955,2156
2611.5113401351973,2171
2613.32138393753,2229
2615.13097222909,2182
2616.940104788084,2252
2618.748781391788,2260
2620.557001816543,2235
2622.364765837763,2204
2624.1720732299264,2225
2625.9789237665814,2262
2627.7853172203445,2274
2629.5912533629,2218
2631.396731965001,2270
2633.2017527964676,2203
2635.0063156261904,2220
2636.810420222126,2212
2638.614066351301,2185
2640.417253779809,2271
2642.219982272813,2150
2644.022251594542,2247
2645.8240615082973,2174
2647.625411776444,2217
2649.4263021604183,2214
2651.226732420724,2149
2653.026702316933,2185
2654.8262116076858,2180
2656.625260050691,2209
2658.423847402724,2136
2660.221973419631,2093
2662.0196378563246,2090
2663.8168404667867,2083
2665.613581004068,2145
2667.4098592202854,2091
2669.2056748666246,2173
2671.0010276933417,2174
2672.7959174497596,2105
2674.5903438842674,2185
2676.384306744327,2062
2678.177805776465,2050
2679.9708407262765,2131
2681.7634113384274,2124
2683.555517356648,2098
2685.3471585237403,2110
2687.138334581574,2016
2688.9290452710843,2040
2690.7192903322784,2067
2692.50906950423,2163
2694.2983825250794,2106
2696.087229132039,2090
2697.875609061386,2070
2699.6635220484677,2091
2701.450967827699,2130
2703.237946132564,2066
2705.0244566956126,2070
2706.8104992484664,2060
2708.596073521813,2100
2710.381179245408,2104
2712.1658161480777,2066
2713.949983957714,2085
2715.7336824012773,2040
2717.516911204798,2039
2719.299670093374,2056
2721.0819587911706,2017
2722.8637770214223,2117
2724.6451245064322,2035
2726.426000967571,2052
2728.2064061252763,1995
2729.986339699057,2066
2731.765801407488,1997
2733.5447909682134,2061
2735.323308097945,2038
2737.101352512463,2128
2738.8789239266166,2058
2740.6560220543215,1965
2742.4326466085645,2032
2744.2087973013977,2026
2745.984473843944,2053
2747.7596759463922,1994
2749.534403318001,2021
2751.308655667096,1995
2753.0824327010737,2007
2754.8557341263954,2010
2756.628559648593,1955
2758.4009089722667,2034
2760.172781801083,2021
2761.944177837779,2013
2763.715096784159,2030
2765.4855383410945,2020
2767.2555022085267,2040
2769.024988085465,2003
2770.793995669988,1923
2772.5625246592385,1949
2774.3305747494323,2042
2776.098145635852,2039
2777.865237012847,2042
2779.6318485738357,2055
2781.397980011306,1985
2783.163631016813,1959
2784.928801280979,1996
2786.6934904934974,1963
2788.457698343127,2046
2790.221424517697,2003
2791.9846687041027,2026
2793.74743058831,1949
2795.5097098553515,1966
2797.2715061893286,1978
2799.0328192734105,1927
2800.793648789836,2012
2802.553994419911,2090
2804.3138558440087,2046
2806.073232741573,2018
2807.8321247911135,2078
2809.590531670211,1957
2811.3484530555115,2011
2813.105888622732,2061
2814.8628380466557,1982
2816.6193010011348,1981
2818.3752771590903,1972
2820.13076619251,2022
2821.885767772452,2009
2823.640281569041,1995
2825.3943072514703,2039
2827.147844488002,2044
2828.9008929459665,1967
2830.6534522917614,2030
2832.405522190854,2071
2834.1571023077786,2020
2835.9081923061394,1970
2837.658791848606,2026
2839.40890059692,2055
2841.1585182118874,2015
2842.907644353386,2016
2844.6562786803593,1986
2846.4044208508203,1991
2848.15207052185,1982
2849.899227349598,2032
2851.6458909892804,2045
2853.392061095185,2029
2855.137737320664,2011
2856.882919318142,2065
2858.6276067391063,2051
2860.371799234118,1964
2862.1154964528037,1970
2863.8586980438586,1965
2865.6014036550464,2003
2867.343612933199,1992
2869.0853255242173,2006
2870.826541073068,2079
2872.567259223789,2063
2874.307479619485,2000
2876.0472019023287,1981
2877.7864257135625,2007
2879.525150693495,1975
2881.263376481505,1882
2883.0011027160385,1946
2884.73832903461,1984
2886.4750550738027,1987
2888.2112804692665,2078
2889.9470048557223,1980
2891.682227866956,1983
2893.416949135825,1989
2895.151168294252,2042
2896.88488497323,1989
2898.6180988028204,1935
2900.3508094121503,1967
2902.083016429419,2050
2903.81471948189,2021
2905.5459181958972,1931
2907.276612196844,1921
2909.0068011091994,1920
2910.736484556502,1993
2912.465662161359,1948
2914.194333545445,1955
2915.922498329504,1961
2917.650156133346,1979
2919.377306575852,1900
2921.103949274969,1906
2922.830083847715,1969
2924.555709910173,1934
2926.2808270774967,1943
2928.005434963907,1985
2929.7295331826936,1985
2931.4531213462133,1984
2933.1761990658924,2001
2934.8987659522254,1964
2936.6208216147747,1909
2938.3423656621694,1994
2940.0633977021116,1945
2941.783917341366,1932
2943.503924185768,1983
2945.223417840223,1976
2946.9423979087023,1957
2948.6608639942456,1988
2950.378815698962,1923
2952.096252624029,2007
2953.81317436969,1973
2955.529580535259,2002
2957.2454707191177,1938
2958.9608445187164,1945
2960.6757015305734,1959
2962.3900413502733,1902
2964.103863572472,1966
2965.817167790894,1987
2967.529953598327,1972
2969.2422205866337,1938
2970.953968346739,1930
2972.6651964686407,1964
2974.3759045414035,1894
2976.0860921531585,1967
2977.7957588911067,1965
2979.504904341517,1910
2981.2135280897273,1840
2982.9216297201433,1947
2984.629208816238,1925
2986.336264960554,1951
2988.0427977347017,1959
2989.7488067193594,1933
2991.454291494274,2034
2993.1592516382607,1899
2994.8636867292034,2007
2996.567596344053,1994
2998.2709800588295,1934
2999.973837448621,1965
3001.6761680875857,1927
3003.377971548946,1897
3005.0792474049954,1973
3006.7799952270957,1990
3008.480214585676,1934
3010.1799050502345,1947
3011.8790661893368,1940
3013.5776975706176,1897
3015.2757987607793,1942
3016.973369325592,1941
3018.6704088298966,1919
3020.366916837598,1976
3022.0628929116747,1878
3023.7583366141675,1875
3025.4532475061915,1863
3027.147625147925,1906
3028.841469098617,1919
3030.534778916585,1892
3032.2275541592144,1905
3033.9197943829577,1947
3035.611499143338,1888
3037.302667994943,1918
3038.9933004914333,1892
3040.683396185535,1917
3042.372954629042,1967
3044.061975372817,1940
3045.7504579667934,1902
3047.4384019599684,1920
3049.1258069004116,1895
3050.812672335258,1898
3052.4989978107124,1892
3054.184782872047,1972
3055.870027063603,1887
3057.554729928791,1916
3059.238891010086,1981
3060.9225098490347,1841
3062.6055859862518,1862
3064.2881189614177,1968
3065.970108313285,1940
3067.651553579671,1940
3069.3324542974633,1928
3071.012810002616,1921
3072.6926202301543,1862
3074.3718845141702,1930
3076.050602387822,1926
3077.728773383339,1956
3079.406397032018,1967
3081.083472864223,1913
3082.7600004093874,1912
3084.4359791960137,1940
3086.11140875167,1978
3087.7862886029952,1819
3089.4606182756943,1926
3091.134397294544,1870
3092.807625183385,1890
3094.4803014651284,1836
3096.152425661755,1847
3097.8239972943097,1906
3099.49501588291,1846
3101.165480946741,1848
3102.8353920040518,1930
3104.504748572165,1945
3106.1735501674693,1886
3107.8417963054226,1867
3109.5094865005485,1897
3111.176620266441,1903
3112.8431971157625,1948
3114.5092165602427,1887
3116.1746781106813,1939
3117.839581276943,1895
3119.503925567965,1865
3121.167710491747,1862
3122.830935555364,1917
3124.493600264954,1881
3126.1557041257247,1881
3127.817246641952,1913
3129.478227316982,1894
3131.1386456532273,1892
3132.798501152168,1969
3134.4577933143537,1865
3136.116521639402,1881
3137.7746856259982,1911
3139.4322847718977,1932
3141.0893185739224,2009
3142.745786527962,1865
3144.4016881289754,1876
3146.0570228709903,1852
3147.711790247102,1871
3149.3659897494754,1862
3151.0196208693396,1913
3152.6726830969974,1851
3154.3251759218165,1840
3155.9770988322334,1961
3157.6284513157534,1876
3159.2792328589485,1857
3160.929442947461,1809
3162.579081066002,1895
3164.2281466983477,1841
3165.8766393273454,1884
3167.5245584349086,1849
3169.1719035020224,1857
3170.818674008735,1838
3172.4648694341677,1856
3174.110489256508,1922
3175.7555329530105,1887
3177.4000000000005,1853
3179.0438898728707,1871
3180.6872020460805,1811
3182.32993599316,1923
3183.972091186706,1863
3185.613667098384,1843
3187.254663198927,1883
3188.8950789581386,1867
3190.5349138448873,1785
3192.1741673271126,1857
3193.8128388718224,1807
3195.4509279450886,1894
3197.0884340120574,1868
3198.725356536939,1878
3200.361694983014,1825
3201.997448812629,1794
3203.632617487203,1875
3205.2672004672195,1874
3206.901197212229,1804
3208.5346071808563,1863
3210.167429830789,1853
3211.799664618785,1808
3213.4313110006706,1789
3215.0623684313387,1783
3216.692836364753,1851
3218.3227142539445,1871
3219.9520015510125,1843
3221.5806977071215,1820
3223.2088021725103,1783
3224.8363143964816,1817
3226.4632338274077,1815
3228.089559912728,1748
3229.715292098951,1774
3231.3404298316545,1791
3232.9649725554846,1810
3234.5889197141523,1846
3236.2122707504395,1798
3237.8350251061984,1781
3239.457182222345,1796
3241.0787415388677,1863
3242.6997024948187,1809
3244.3200645283223,1850
3245.9398270765696,1882
3247.558989575821,1862
3249.177551461403,1859
3250.7955121677123,1852
3252.412871128213,1849
3254.029627775437,1842
3255.6457815409867,1806
3257.2613318555286,1828
3258.876278148802,1824
3260.490619849613,1828
3262.1043563858348,1801
3263.717487184408,1800
3265.3300116713453,1792
3266.941929271725,1865
3268.5532394096917,1818
3270.1639415084646,1811
3271.7740349903233,1759
3273.383519276621,1790
3274.9923937877775,1862
3276.6006579432833,1737
3278.2083111616903,1850
3279.815352860627,1794
3281.421782456786,1836
3283.027599365927,1822
3284.632803002881,1790
3286.237392781545,1724
3287.841368114885,1861
3289.4447284149373,1798
3291.047473092801,1810
3292.649601558651,1814
3294.2511132217223,1810
3295.8520074903254,1788
3297.452283771835,1771
3299.051941472695,1857
3300.650979998417,1833
3302.2493987535827,1826
3303.8471971418403,1844
3305.4443745659064,1798
3307.0409304275654,1818
3308.636864127674,1802
3310.2321750661513,1747
3311.8268626419876,1820
3313.420926253242,1791
3315.01436529704,1853
3316.6071791695776,1771
3318.1993672661183,1765
3319.7909289809913,1822
3321.3818637075983,1759
3322.972170838406,1824
3324.561849764951,1764
3326.150899877838,1802
3327.7393205667386,1830
3329.3271112203956,1778
3330.9142712266166,1663
3332.5007999722793,1779
3334.08669684333,1767
3335.6719612247834,1830
3337.2565925007193,1747
3338.840590054291,1848
3340.4239532677157,1796
3342.006681522281,1803
3343.5887741983406,1829
3345.1702306753214,1800
3346.7510503317126,1821
3348.3312325450743,1852
3349.910776692037,1778
3351.4896821482953,1859
3353.0679482886153,1783
3354.645574486829,1767
3356.2225601158398,1801
3357.798904547615,1896
