CollectionTime,4/2/2024 11:17:40 AM
ExposureUsed,3
CalibratedSpectrum
-994.8464149364308,583
-991.9439705588344,633
-989.042830375826,605
-986.1429931109675,619
-983.2444574887519,665
-980.3472222346043,669
-977.4512860748813,637
-974.5566477368716,570
-971.6633059487953,581
-968.7712594398042,610
-965.8805069399822,622
-962.9910471803447,602
-960.1028788928387,578
-957.2160008103432,611
-954.3304116666687,633
-951.4461101965578,618
-948.5630951356844,612
-945.6813652206545,674
-942.8009191890055,688
-939.9217557792067,704
-937.0438737306594,650
-934.167271783696,648
-931.2919486795813,635
-928.4179031605115,608
-925.5451339696144,640
-922.67363985095,651
-919.8034195495097,646
-916.9344718112166,671
-914.0667953829256,643
-911.2003890124234,685
-908.3352514484286,645
-905.471381440591,608
-902.6087777394928,607
-899.7474390966474,644
-896.8873642645002,719
-894.0285519964284,690
-891.1710010467407,621
-888.3147101706776,627
-885.4596781244115,592
-882.6059036650465,566
-879.7533855506183,601
-876.9021225400943,577
-874.0521133933738,610
-871.2033568712878,637
-868.3558517355991,610
-865.509596749002,707
-862.6645906751228,734
-859.8208322785192,726
-856.9783203246812,701
-854.1370535800299,628
-851.2970308119186,597
-848.4582507886321,650
-845.620712279387,660
-842.7844140543316,618
-839.9493548845461,659
-837.1155335420422,606
-834.2829487997635,596
-831.4515994315852,634
-828.6214842123144,697
-825.7926019176898,685
-822.9649513243819,676
-820.138531209993,620
-817.3133403530569,674
-814.4893775330396,727
-811.6666415303382,699
-808.845131126282,639
-806.0248451031321,640
-803.2057822440808,631
-800.3879413332527,642
-797.5713211557038,685
-794.755920497422,742
-791.941738145327,673
-789.1287728872701,650
-786.3170235120342,695
-783.5064888093341,661
-780.6971675698165,602
-777.8890585850597,620
-775.0821606475735,650
-772.2764725507997,704
-769.4719930891118,694
-766.6687210578151,684
-763.8666552531465,796
-761.0657944722747,935
-758.2661375133,835
-755.4676831752547,721
-752.6704302581027,670
-749.8743775627395,666
-747.0795238909925,702
-744.285868045621,677
-741.4934088303156,647
-738.702145049699,693
-735.9120755093254,732
-733.123199015681,891
-730.3355143761836,873
-727.5490203991826,770
-724.7637158939592,700
-721.9795996707265,716
-719.1966705406293,627
-716.4149273157439,619
-713.6343688090786,651
-710.8549938345734,658
-708.0768012070998,670
-705.2997897424614,719
-702.5239582573931,734
-699.7493055695622,735
-696.9758304975669,703
-694.2035318609377,668
-691.4324084801367,677
-688.6624591765578,720
-685.8936827725265,698
-683.1260780913001,721
-680.3596439570675,698
-677.5943791949499,743
-674.8302826309991,684
-672.0673530922,676
-669.3055894064685,708
-666.5449904026519,795
-663.78555491053,768
-661.0272817608139,729
-658.2701697851465,746
-655.5142178161026,772
-652.7594246871884,751
-650.0057892328422,701
-647.2533102884337,734
-644.5019866902646,734
-641.7518172755683,753
-639.0028008825099,751
-636.254936350186,726
-633.5082225186254,774
-630.7626582287882,704
-628.0182423225665,753
-625.2749736427841,712
-622.5328510331965,790
-619.7918733384909,814
-617.0520394042862,792
-614.3133480771331,835
-611.5757982045143,828
-608.8393886348437,865
-606.1041182174672,893
-603.3699858026625,882
-600.6369902416393,835
-597.9051303865383,877
-595.1744050904326,876
-592.4448132073267,857
-589.7163535921568,886
-586.9890251007912,824
-584.2628265900296,827
-581.5377569176036,804
-578.8138149421764,820
-576.090999523343,853
-573.3693095216302,791
-570.6487437984965,810
-567.9293012163321,853
-565.210980638459,864
-562.4937809291307,841
-559.7777009535329,851
-557.0627395777825,890
-554.3488956689287,862
-551.6361680949519,896
-548.9245557247644,943
-546.2140574282107,983
-543.5046720760662,1022
-540.7963985400388,955
-538.0892356927677,1013
-535.3831824078238,1078
-532.6782375597103,1159
-529.9744000238613,1176
-527.2716686766433,1227
-524.5700423953542,1486
-521.8695200582238,1364
-519.1701005444136,1357
-516.4717827340166,1448
-513.7745655080581,1636
-511.0784477484944,1812
-508.38342833821423,1878
-505.68950616103757,1730
-502.9966801017163,1695
-500.3049490459341,1774
-497.61431188030633,1599
-494.9247674923801,1357
-492.2363147706342,1185
-489.54895260447927,1128
-486.86267988425755,1149
-484.1774955012431,1141
-481.4933983476417,1257
-478.8103873165908,1085
-476.1284613021596,1007
-473.44761919934945,1055
-470.7678599040928,1041
-468.089182313254,1115
-465.4115853246294,1121
-462.735067836947,1121
-460.0596287498663,1140
-457.3852669639789,999
-454.71198138080774,944
-452.03977090280773,963
-449.3686344333656,955
-446.69857087679964,987
-444.02957913835996,1087
-441.36165812422837,1050
-438.6948067415183,1049
-436.0290238982752,1027
-433.36430850347597,1037
-430.7006594670296,1091
-428.0380756997763,1101
-425.3765561134885,1109
-422.7160996208702,1028
-420.0567051355571,1105
-417.3983715721164,1146
-414.7410978460475,1101
-412.08488287378145,1126
-409.4297255726806,1072
-406.77562486103955,974
-404.1225796580843,999
-401.4705888839728,961
-398.8196514597947,858
-396.1697663075713,821
-393.5209323502555,844
-390.8731485117323,779
-388.22641371681823,765
-385.5807268912615,926
-382.93608696174226,917
-380.29249285587207,745
-377.64994350219456,636
-375.0084378301849,707
-372.36797477025016,769
-369.7285532537287,748
-367.0901722128914,786
-364.45283058094014,744
-361.8165272920089,792
-359.1812612811634,732
-356.54703148440103,638
-353.9138368386507,646
-351.28167628177346,755
-348.6505487525617,822
-346.02045319074,779
-343.3913885369643,700
-340.76335373282245,800
-338.1363477208339,762
-335.5103694444499,836
-332.8854178480535,820
-330.26149187695944,729
-327.63859047741425,707
-325.016712596596,650
-322.3958571826148,646
-319.77602318451227,778
-317.15720955226186,795
-314.5394152367686,812
-311.9226391898695,779
-309.3068803643333,777
-306.69213771386023,889
-304.0784101930824,1064
-301.4656967575635,1032
-298.8539963637994,910
-296.2433079692172,919
-293.6336305321761,940
-291.02496301196675,845
-288.41730436881176,986
-285.81065356386534,867
-283.2050095592135,864
-280.60037131787396,1253
-277.9967378037961,1513
-275.39410798186134,1130
-272.7924808178824,1167
-270.19185527860407,1255
-267.5922303317028,1064
-264.9936049457866,1084
-262.3959780903955,1075
-259.79934873600087,1065
-257.2037158540064,1214
-254.6090784167469,1114
-252.01543539748934,1254
-249.42278577043237,1160
-246.8311285107061,1035
-244.24046259437262,953
-241.6507869984256,987
-239.0621007007909,1126
-236.4744026803254,1193
-233.88769191681808,1207
-231.30196739098994,1151
-228.7172280844934,1065
-226.13347297991243,1150
-223.550701060763,1203
-220.9689113114929,1068
-218.3881027174814,1087
-215.8082742650397,1105
-213.22942494141068,1294
-210.65155373476898,1600
-208.07465963422078,1589
-205.49874162980439,1574
-202.92379871248932,1653
-200.34982987417743,1553
-197.7768341077018,1359
-195.20481040682762,1235
-192.63375776625162,1153
-190.0636751816021,1190
-187.49456164943945,1224
-184.92641616725564,1480
-182.3592377334743,1497
-179.79302534745102,1407
-177.2277780094729,1604
-174.66349472075865,1625
-172.10017448345923,1719
-169.5378163006569,1560
-166.97641917636565,1418
-164.41598211553162,1629
-161.8565041240322,1902
-159.29798420867678,1760
-156.74042137720642,1715
-154.18381463829382,1647
-151.6281630015436,1504
-149.07346547749228,1509
-146.51972107760753,1328
-143.96692881428908,1424
-141.41508770086864,2048
-138.86419675160937,1924
-136.31425498170609,1755
-133.7652614072856,1848
-131.21721504540642,2116
-128.67011491405844,2208
-126.12396003216395,2479
-123.57874941957618,2927
-121.03448209708074,2539
-118.49115708639465,2237
-115.94877341016684,2485
-113.40733009197788,2706
-110.86682615633993,2801
-108.32726062869733,2750
-105.78863253542556,3291
-103.25094090383243,4435
-100.71418476215695,4764
-98.17836313957025,4007
-95.64347506617503,3123
-93.10951957300585,2643
-90.57649569202886,3120
-88.04440245614194,3614
-85.51323889917478,3759
-82.98300405588896,4951
-80.45369696197747,6137
-77.925316654065,8720
-75.39786216970867,13061
-72.87133254739649,17002
-70.34572682654857,19028
-67.82104404751692,22266
-65.29728325158499,25098
-62.774443480968216,27003
-60.252523778813384,28414
-57.73152318919938,26020
-55.21144075713676,26953
-52.69227552856796,27614
-50.17402655036665,24172
-47.65669287033859,21810
-45.14027353722133,22494
-42.624767600684095,25041
-40.11017411132775,25273
-37.59649212068507,26741
-35.08372068122037,30545
-32.57185884632963,28664
-30.06090567034107,29447
-27.550860208513996,33611
-25.04172151704006,43529
-22.533488653042014,59403
-20.02616067457484,65042
-17.51973664062507,65042
-15.014215611111126,65042
-12.509596646882983,65042
-10.005878809722162,65042
-7.503061162342419,65042
-5.001142768389059,65042
-2.5001226924387083,65042
-3.410605131648481E-13,65042
2.49922624248552,65042
4.997556967646801,65042
7.494993107179766,65042
9.99153559184856,65042
12.487185351485778,65042
14.98194331499235,65042
17.475810410337544,65042
19.96878756455851,65042
22.46087570376085,65042
24.952075753118834,29770
27.442388636874625,8944
29.93181527833849,6846
32.42035659988892,6096
34.90801352297353,8870
37.39478696810693,9380
39.880677854873056,8549
42.36568710192364,7605
44.8498156269784,8685
47.33306434682618,7625
49.815434177322686,7259
52.296926033393675,7362
54.77754082903198,7323
57.25727947729865,8056
59.736142890323435,8082
62.214131979304284,5504
64.6912476545076,3793
67.16749082526735,3527
69.64286239998614,3164
72.11736328613551,3925
74.59099439025431,4276
77.06375661794982,4416
79.53565087389825,3853
82.0066780618431,3646
84.4768390845968,3872
86.94613484403999,3513
89.41456624112152,4871
91.88213417585825,5066
94.34883954733527,3399
96.81468325370679,2984
99.2796661921941,2265
101.74378925908763,2714
104.20705334974559,2976
106.66945935859462,3311
109.1310081791296,3493
111.59170070391383,4070
114.05153782457865,3911
116.5105204318238,2643
118.96864941541708,2861
121.42592566419489,3691
123.88235006606146,3947
126.3379235079899,3064
128.79264687602085,2637
131.2465210552641,2784
133.69954692989631,2562
136.15172538316415,2573
138.60305729738116,2306
141.05354355393,2104
143.50318503326116,2160
145.95198261489327,2376
148.39993717741368,2742
150.84704959847772,3117
153.29332075480897,3135
155.73875152219944,3251
158.18334277550935,3096
160.62709538866693,2843
163.0700102346691,2680
165.51208818558075,2862
167.953330112535,2969
170.39373688573346,2738
172.8333093744459,2718
175.2720484470101,2928
177.70995497083277,3038
180.14702981238815,3246
182.58327383721917,3015
185.01868790993672,2834
187.45327289422062,2908
189.88702965281777,2859
192.31995904754444,2883
194.75206193928489,3040
197.18333918799135,2906
199.61379165268454,2776
202.04342019145315,2753
204.4722256614548,2869
206.90020891891436,3153
209.32737081912592,3030
211.7537122164515,2852
214.17923396432116,2837
216.6039369152336,3020
219.0278219207553,3034
221.45088983152186,2920
223.8731414972358,3021
226.29457776666914,2884
228.71519948766172,2787
231.1350075071216,2981
233.55400267102482,2964
235.97218582441633,3016
238.38955781140908,2976
240.806119475184,3001
243.2218716579905,3059
245.6368152011462,2991
248.05095094503736,2888
250.46427972911806,2880
252.87680239191036,3006
255.28851977100544,3142
257.69943270306203,3130
260.10954202380753,2806
262.5188485680378,2700
264.92735316961557,2908
267.33505666147425,2887
269.7419598756128,2910
272.14806364310084,2970
274.5533687940747,3001
276.95787615773975,2878
279.361586562369,2767
281.7645008353045,2747
284.1666198029559,2710
286.5679442908013,2815
288.96847512338695,2847
291.3682131243279,2800
293.7671591163071,2748
296.1653139210757,2788
298.562678359453,2720
300.9592532513268,2920
303.3550394156532,2986
305.75003767045655,2773
308.14424883282936,2838
310.53767371893196,2958
312.93031314399377,2700
315.3221679223125,2462
317.71323886725304,2549
320.1035267912496,2619
322.49303250580397,2588
324.881756821487,2479
327.2697005479374,2538
329.65686449386135,2471
332.0432494670347,2418
334.4288562743004,2479
336.81368572157066,2490
339.19773861382487,2473
341.58101575511205,2458
343.96351794854786,2401
346.3452459963173,2347
348.72620069967365,2386
351.1063828589379,2456
353.48579327349967,2429
355.8644327418169,2440
358.24230206141533,2377
360.6194020288899,2330
362.99573343990255,2262
365.3712970891845,2178
367.7460937705348,2345
370.12012427682066,2291
372.493389399978,2233
374.86588993101077,2233
377.23762665999084,2225
379.6086003760588,2216
381.9788118674235,2082
384.34826192136165,2202
386.7169513242188,2131
389.08488086140824,2263
391.4520513174118,2220
393.8184634757795,2309
396.1841181191296,2346
398.54901602914856,2398
400.9131579865916,2432
403.2765447712811,2333
405.63917716210926,2277
408.00105593703483,2270
410.36218187308646,2198
412.7225557463596,2200
415.0821783320191,2159
417.4410504042976,2120
419.79917273649585,2142
422.1565461009834,2201
424.5131712691973,2214
426.869049011643,2206
429.22418009789544,2263
431.578565296596,2064
433.9322053754556,2133
436.28510110125285,2049
438.6372532398352,2043
440.98866255611733,2141
443.33932981408293,2163
445.6892557767842,2092
448.0384412063411,2032
450.38688686394175,2192
452.7345935098431,2231
455.0815619033697,2108
457.42779280291506,2072
459.7732869659403,2099
462.1180451489754,2200
464.4620681076178,2184
466.80535659653424,2173
469.1479113694588,2171
471.48973317919445,2224
473.8308227776122,2221
476.17118091565135,2207
478.51080834331924,2359
480.8497058096914,2292
483.1878740629122,2455
485.5253138501944,2554
487.8620259178176,2498
490.1980110111317,2775
492.53326987455307,2779
494.86780325156724,2984
497.201611884728,3244
499.53469651565683,3583
501.8670578850447,3766
504.1986967326493,3932
506.52961379729754,3808
508.85980981688454,3641
511.18928552837315,3363
513.5180416677952,3044
515.8460789702503,3246
518.1733981699067,3834
520.5,4609
522.8258851928354,4836
525.1510544797857,4512
527.4755085912916,3923
529.7992482568625,3405
532.1222742050759,2839
534.4445871635783,2359
536.766187859083,2142
539.0870770173726,2059
541.4072553632982,2120
543.7267236207783,1923
546.0454825128002,2048
548.363532761419,2029
550.6808750877592,2128
552.9975102120118,2080
555.3134388534377,1987
557.6286617303654,1956
559.9431795601911,1960
562.2569930593802,1897
564.570102943466,2051
566.88250992705,2031
569.1942147238021,1943
571.5052180464602,1916
573.8155206068309,1982
576.1251231157885,2021
578.4340262832759,2018
580.7422308183045,1961
583.0497374289534,1987
585.3565468223703,1995
587.6626597047714,2007
589.9680767814409,1844
592.2727987567309,1934
594.5768263340624,2038
596.8801602159238,1987
599.1828011038731,1928
601.4847496985356,1882
603.7860066996047,1934
606.0865728058427,1903
608.3864487150802,1833
610.6856351242152,1899
612.9841327292149,1913
615.2819422251141,1877
617.5790643060163,1866
619.8754996650935,1892
622.1712489945849,1856
624.466312985799,1931
626.7606923291121,1985
629.0543877139692,1974
631.347399828883,1913
633.6397293614343,1926
635.9313769982732,2066
638.2223434251173,1969
640.5126293267522,1977
642.8022353870326,1948
645.0911622888809,1986
647.3794107142876,1948
649.666981344312,1900
651.9538748590815,1898
654.2400919377915,1966
656.525633258706,1978
658.8104994991568,1943
661.0946913355442,1942
663.3782094433375,1995
665.6610544970729,1997
667.9432271703561,1994
670.22472813586,1985
672.5055580653268,2009
674.7857176295659,2037
677.065207498456,1996
679.3440283409432,1937
681.6221808250425,1935
683.899665617837,1888
686.1764833854772,1985
688.4526347931837,2008
690.7281205052436,1908
693.0029411850135,1963
695.2770974949171,1901
697.5505900964474,1907
699.8234196501651,1978
702.0955868156989,1900
704.3670922517472,1878
706.6379366160747,2000
708.9081205655159,1994
711.1776447559728,1917
713.4465098424155,1973
715.714716478883,1898
717.9822653184822,2042
720.2491570133882,2002
722.5153922148452,1930
724.7809715731639,1984
727.0458957377248,1921
729.3101653569763,1981
731.5737810784346,1920
733.8367435486853,1941
736.0990534133803,2080
738.3607113172418,1947
740.6217179040591,1982
742.8820738166899,1976
745.1417796970607,2027
747.4008361861659,2013
749.6592439240678,1970
751.9170035498973,2049
754.1741157018539,2051
756.4305810172048,1997
758.686400132286,2004
760.9415736825013,2042
763.196102302323,2011
765.4499866252911,2129
767.7032272840152,2128
769.9558249101717,2068
772.207780134506,2055
774.4590935868323,2085
776.7097658960313,2216
778.9597976900541,2155
781.2091895959184,2115
783.457942239711,2026
785.7060562465867,1948
787.9535322407687,2053
790.2003708455488,2064
792.4465726832861,2138
794.6921383754088,2128
796.9370685424128,2139
799.1813638038632,2083
801.4250247783918,2143
803.6680520837006,2090
805.9104463365579,2027
808.1522081528019,2119
810.393338147338,2144
812.6338369341406,2004
814.8737051262517,2046
817.1129433357819,2059
819.35155217391,2153
821.5895322508834,2058
823.8268841760168,2081
826.0636085576946,2045
828.2997060033681,2037
830.535177119558,1981
832.7700225118522,2020
835.0042427849078,2027
837.2378385424493,2012
839.4708103872701,1980
841.7031589212318,2046
843.9348847452643,1938
846.1659884593648,2016
848.3964706626004,2034
850.6263319531054,2007
852.8555729280824,2007
855.0841941838025,2005
857.3121963156052,2023
859.5395799178978,1974
861.7663455841566,2080
863.9924939069251,2038
866.2180254778159,2186
868.4429408875103,2100
870.6672407257561,2054
872.890925581371,2111
875.1139960422404,2071
877.336452695318,2067
879.5582961266261,2101
881.7795269212543,2162
884.0001456633613,2125
886.2201529361741,2191
888.4395493219874,2145
890.6583354021648,2156
892.8765117571375,2066
895.094078966405,2079
897.3110376085365,2174
899.5273882611671,2062
901.7431315010019,2075
903.958267903814,2062
906.1727980444443,2128
908.3867224968019,2203
910.6000418338647,2068
912.8127566276792,2076
915.0248674493587,2071
917.2363748690857,2087
919.4472794561113,2095
921.6575817787543,2050
923.867282404402,2004
926.0763818995099,2000
928.2848808296014,1975
930.4927797592693,2024
932.700079252173,2041
934.9067798710416,1937
937.112882177672,1976
939.3183867329287,2020
941.5232940967453,2026
943.727604828124,1960
945.9313194851336,1959
948.1344386249132,1963
950.3369628036685,2094
952.5388925766747,1971
954.7402284982745,1900
956.9409711218789,1932
959.1411209999676,1873
961.3406786840883,1956
963.5396447248565,1922
965.7380196719573,1943
967.9358040741427,1967
970.1329984792335,1907
972.3296034341188,1869
974.5256194847555,1897
976.72104717617,1875
978.9158870524552,1876
981.1101396567742,1817
983.3038055313566,1877
985.4968852175009,1868
987.6893792555747,1867
989.8812881850124,1906
992.072612544318,1900
994.263352871063,1930
996.453509701887,1822
998.6430835724984,1837
1000.832075017674,1809
1003.0204845712583,1795
1005.208312766164,1712
1007.3955601343728,1778
1009.5822272069338,1678
1011.7683145139652,1638
1013.9538225846525,1691
1016.1387519472505,1772
1018.3231031290818,1693
1020.5068766565371,1640
1022.6900730550753,1773
1024.872692849224,1816
1027.054736562579,1752
1029.2362047178037,1611
1031.4170978366305,1663
1033.5974164398597,1734
1035.7771610473603,1641
1037.9563321780693,1639
1040.1349303499917,1623
1042.3129560802006,1600
1044.490409884838,1583
1046.667292279115,1565
1048.8436037773079,1592
1051.0193448927644,1559
1053.1945161378994,1636
1055.3691180241954,1657
1057.5431510622038,1651
1059.7166157615447,1614
1061.8895126309053,1704
1064.0618421780423,1613
1066.2336049097798,1606
1068.4048013320107,1657
1070.5754319496955,1632
1072.745497266863,1546
1074.9149977866118,1570
1077.0839340111065,1619
1079.2523064415818,1626
1081.4201155783398,1528
1083.587361920751,1589
1085.7540459672537,1559
1087.9201682153553,1535
1090.0857291616308,1557
1092.2507293017238,1514
1094.4151691303464,1579
1096.579049141279,1601
1098.7423698273687,1520
1100.9051316805335,1526
1103.0673351917571,1536
1105.2289808510936,1609
1107.3900691476633,1575
1109.550600569657,1568
1111.710575604332,1566
1113.8699947380146,1576
1116.028858456099,1544
1118.1871672430489,1519
1120.344921582394,1533
1122.5021219567334,1583
1124.6587688477362,1559
1126.8148627361365,1541
1128.9704041017399,1498
1131.1253934234173,1607
1133.2798311791098,1592
1135.4337178458263,1556
1137.5870538996437,1524
1139.7398398157075,1524
1141.8920760682313,1491
1144.0437631304972,1531
1146.1949014748543,1539
1148.3454915727225,1562
1150.4955338945874,1476
1152.6450289100044,1462
1154.7939770875969,1521
1156.9423788950558,1502
1159.0902347991405,1541
1161.2375452656802,1497
1163.3843107595703,1464
1165.530531744775,1574
1167.6762086843282,1578
1169.8213420403304,1529
1171.9659322739503,1529
1174.1099798454266,1562
1176.2534852140639,1482
1178.3964488382376,1467
1180.538871175389,1571
1182.680752682029,1480
1184.8220938137365,1536
1186.9628950251595,1493
1189.103156770012,1534
1191.2428795010783,1528
1193.3820636702108,1523
1195.5207097283287,1466
1197.6588181254215,1448
1199.7963893105457,1507
1201.9334237318253,1550
1204.0699218364548,1526
1206.2058840706954,1496
1208.3413108798773,1523
1210.476202708397,1488
1212.6105599997222,1492
1214.7443831963874,1490
1216.877672739995,1470
1219.0104290712165,1529
1221.1426526297905,1537
1223.2743438545253,1522
1225.4055031832972,1433
1227.5361310530493,1479
1229.6662278997946,1559
1231.7957941586142,1536
1233.9248302636565,1473
1236.053336648139,1484
1238.1813137443464,1492
1240.3087619836338,1511
1242.4356817964222,1464
1244.5620736122019,1495
1246.6879378595318,1429
1248.813274966039,1499
1250.938085358418,1486
1253.062369462432,1509
1255.186127702913,1505
1257.3093605037611,1496
1259.4320682879434,1494
1261.554251477498,1498
1263.6759104935277,1480
1265.797045756206,1524
1267.9176576847744,1521
1270.0377466975428,1468
1272.1573132118879,1583
1274.2763576442567,1498
1276.394880410162,1479
1278.5128819241877,1587
1280.6303625999835,1571
1282.7473228502695,1499
1284.8637630868325,1533
1286.9796837205272,1546
1289.0950851612783,1562
1291.209967818078,1646
1293.3243320989864,1582
1295.4381784111324,1605
1297.551507160712,1567
1299.6643187529912,1634
1301.776613592303,1536
1303.888392082049,1562
1305.9996546246998,1588
1308.1104016217923,1585
1310.220633473934,1588
1312.3303505807999,1644
1314.4395533411316,1623
1316.5482421527418,1549
1318.6564174125092,1593
1320.7640795163816,1568
1322.8712288593752,1599
1324.9778658355744,1645
1327.0839908381313,1610
1329.1896042592675,1532
1331.2947064902714,1559
1333.3992979215009,1629
1335.503378942381,1611
1337.6069499414057,1593
1339.7100113061383,1527
1341.8125634232074,1552
1343.9146066783128,1502
1346.0161414562212,1586
1348.1171681407677,1581
1350.2176871148563,1629
1352.3176987604575,1631
1354.4172034586127,1597
1356.5162015894289,1617
1358.6146935320835,1630
1360.7126796648213,1577
1362.8101603649548,1626
1364.9071360088656,1573
1367.0036069720036,1595
1369.099573628886,1584
1371.195036353099,1575
1373.2899955172975,1558
1375.3844514932039,1585
1377.4784046516088,1580
1379.5718553623715,1597
1381.6648039944193,1534
1383.7572509157485,1588
1385.8491964934224,1574
1387.9406410935735,1562
1390.0315850814022,1576
1392.122028821177,1571
1394.2119726762357,1598
1396.3014170089828,1566
1398.3903621808918,1610
1400.4788085525051,1601
1402.566756483432,1579
1404.6542063323514,1559
1406.7411584570095,1537
1408.8276132142219,1653
1410.9135709598704,1608
1412.9990320489078,1682
1415.083996835353,1644
1417.1684656722937,1570
1419.2524389118867,1619
1421.3359169053565,1547
1423.4189000029946,1545
1425.5013885541634,1641
1427.5833829072913,1583
1429.664883409876,1596
1431.7458904084833,1610
1433.8264042487467,1598
1435.9064252753697,1540
1437.9859538321216,1550
1440.0649902618416,1629
1442.1435349064373,1608
1444.2215881068837,1633
1446.2991502032237,1582
1448.37622153457,1651
1450.452802439103,1593
1452.5288932540698,1636
1454.604494315788,1715
1456.6796059596427,1591
1458.7542285200866,1676
1460.8283623306415,1642
1462.902007723897,1615
1464.9751650315106,1624
1467.0478345842089,1652
1469.1200167117868,1664
1471.1917117431062,1689
1473.2629200060992,1688
1475.333641827764,1692
1477.4038775341692,1721
1479.4736274504498,1676
1481.5428919008104,1730
1483.6116712085222,1776
1485.6799656959279,1751
1487.7477756844346,1791
1489.8151014945201,1749
1491.88194344573,1799
1493.9483018566775,1872
1496.0141770450455,1778
1498.0795693275822,1810
1500.1444790201076,1852
1502.2089064375086,1756
1504.2728518937402,1823
1506.3363157018239,1824
1508.3992981738534,1887
1510.4617996209872,1843
1512.5238203534536,1928
1514.5853606805495,1932
1516.6464209106384,1961
1518.7070013511543,1957
1520.7671023085973,1966
1522.8267240885375,2014
1524.885866995612,2020
1526.9445313335268,2099
1529.002717405056,2090
1531.0604255120425,2119
1533.1176559553965,2154
1535.1744090350971,2289
1537.2306850501914,2261
1539.2864842987956,2316
1541.3418070780922,2379
1543.396653684334,2372
1545.4510244128405,2459
1547.5049195580013,2535
1549.5583394132727,2417
1551.61128427118,2451
1553.6637544233158,2580
1555.7157501603415,2591
1557.7672717719888,2604
1559.8183195470538,2743
1561.8688937734037,2733
1563.9189947379737,2804
1565.9686227267657,2839
1568.0177780248514,2787
1570.0664609163696,2745
1572.1146716845292,2770
1574.162410611605,2635
1576.2096779789413,2496
1578.2564740669518,2378
1580.3027991551157,2345
1582.3486535219831,2226
1584.3940374451709,2245
1586.4389512013645,2094
1588.4833950663178,2015
1590.5273693148533,1989
1592.5708742208603,1981
1594.6139100572982,1986
1596.6564770961936,1849
1598.698575608642,1866
1600.7402058648063,1774
1602.7813681339185,1763
1604.8220626842776,1757
1606.8622897832533,1781
1608.9020496972812,1732
1610.9413426918663,1697
1612.9801690315808,1676
1615.018528980066,1735
1617.056422800033,1699
1619.0938507532578,1713
1621.1308131005876,1729
1623.1673101019355,1725
1625.2033420162848,1741
1627.2389091016862,1596
1629.274011615259,1651
1631.3086498131897,1661
1633.3428239507352,1658
1635.376534282219,1558
1637.4097810610324,1601
1639.4425645396364,1673
1641.4748849695593,1588
1643.5067426013989,1678
1645.53813768482,1588
1647.5690704685549,1553
1649.5995412004067,1618
1651.6295501272452,1583
1653.6590974950086,1599
1655.6881835487025,1644
1657.7168085324029,1545
1659.7449726892523,1647
1661.772676261462,1597
1663.7999194903114,1555
1665.8267026161484,1552
1667.8530258783894,1628
1669.8788895155185,1580
1671.9042937650888,1615
1673.9292388637205,1545
1675.953725047103,1599
1677.977752549994,1586
1680.0013216062184,1527
1682.0244324486712,1600
1684.0470853093134,1575
1686.0692804191767,1562
1688.0910180083588,1566
1690.1122983060268,1579
1692.1331215404175,1610
1694.1534879388319,1481
1696.173397727644,1540
1698.1928511322926,1580
1700.211848377286,1626
1702.2303896862018,1643
1704.248475281684,1615
1706.2661053854458,1598
1708.2832802182684,1589
1710.300000000002,1617
1712.3162649495644,1580
1714.3320752849409,1560
1716.3474312231865,1548
1718.362332980424,1597
1720.376780771845,1601
1722.3907748117072,1559
1724.4043153133393,1609
1726.4174024891367,1590
1728.4300365505628,1591
1730.442217708151,1636
1732.4539461715008,1550
1734.465222149282,1528
1736.4760458492306,1589
1738.4864174781524,1570
1740.496337241921,1540
1742.5058053454786,1523
1744.5148219928346,1642
1746.523387387068,1577
1748.531501730325,1566
1750.5391652238209,1555
1752.5463780678388,1590
1754.55314046173,1609
1756.5594526039135,1587
1758.565314691879,1555
1760.5707269221812,1543
1762.5756894904443,1528
1764.580202591363,1580
1766.5842664186966,1622
1768.5878811652751,1582
1770.591047022996,1540
1772.593764182825,1557
1774.5960328347965,1571
1776.5978531680116,1573
1778.5992253706427,1600
1780.6001496299273,1582
1782.6006261321731,1567
1784.6006550627553,1559
1786.6002366061175,1540
1788.5993709457725,1509
1790.5980582642992,1489
1792.5962987433468,1534
1794.5940925636314,1587
1796.5914399049389,1549
1798.5883409461221,1534
1800.584795865102,1514
1802.580804838869,1580
1804.5763680434807,1573
1806.571485654064,1595
1808.566157844813,1562
1810.5603847889902,1557
1812.5541666589274,1523
1814.5475036260236,1581
1816.5403958607467,1553
1818.5328435326323,1525
1820.5248468102845,1512
1822.5164058613755,1545
1824.5075208526468,1612
1826.4981919499064,1540
1828.488419318032,1572
1830.4782031209684,1534
1832.4675435217305,1574
1834.4564406823993,1543
1836.4448947641258,1572
1838.432905927128,1665
1840.4204743306927,1664
1842.4076001331746,1618
1844.3942834919985,1577
1846.380524563654,1555
1848.366323503702,1532
1850.351680466771,1579
1852.3365956065563,1545
1854.3210690758228,1556
1856.3051010264044,1539
1858.2886916092007,1497
1860.271840974182,1528
1862.2545492703862,1629
1864.2368166459191,1643
1866.2186432479543,1567
1868.2000292227349,1591
1870.1809747155717,1560
1872.1614798708429,1633
1874.1415448319963,1559
1876.1211697415474,1617
1878.1003547410805,1547
1880.0790999712472,1606
1882.0574055717675,1599
1884.0352716814305,1508
1886.0126984380927,1588
1887.989685978679,1560
1889.9662344391836,1472
1891.9423439546672,1542
1893.9180146592607,1663
1895.893246686161,1537
1897.868040167636,1564
1899.8423952350195,1552
1901.8163120187137,1537
1903.7897906481917,1591
1905.7628312519923,1572
1907.7354339577219,1623
1909.7075988920578,1621
1911.6793261807447,1530
1913.6506159485943,1521
1915.6214683194871,1529
1917.5918834163726,1543
1919.5618613612687,1502
1921.5314022752605,1538
1923.5005062785012,1585
1925.4691734902144,1591
1927.4374040286893,1553
1929.4051980112845,1592
1931.3725555544274,1589
1933.3394767736136,1638
1935.305961783406,1628
1937.2720106974361,1548
1939.237623628404,1541
1941.2028006880778,1571
1943.167541987295,1637
1945.1318476359588,1660
1947.0957177430432,1617
1949.0591524165898,1583
1951.0221517637078,1644
1952.984715890574,1609
1954.9468449024357,1563
1956.9085389036072,1549
1958.8697979974704,1601
1960.8306222864767,1590
1962.7910118721456,1570
1964.7509668550638,1553
1966.7104873348871,1498
1968.6695734103387,1535
1970.6282251792127,1595
1972.586442738368,1615
1974.5442261837343,1602
1976.501575610307,1550
1978.4584911121533,1527
1980.4149727824056,1618
1982.3710207132658,1566
1984.326634996004,1536
1986.2818157209585,1517
1988.2365629775359,1605
1990.1908768542116,1616
1992.144757438527,1558
1994.0982048170954,1552
1996.0512190755953,1589
1998.0038002987749,1572
1999.95594857045,1538
2001.9076639735054,1553
2003.8589465898945,1604
2005.8097965006368,1542
2007.760213785822,1588
2009.7101985246077,1593
2011.6597507952201,1517
2013.6088706749524,1528
2015.5575582401675,1580
2017.5058135662953,1542
2019.4536367278351,1575
2021.4010277983534,1550
2023.347986850486,1531
2025.2945139559365,1678
2027.2406091854768,1584
2029.1862726089462,1604
2031.1315042952538,1564
2033.0763043123766,1582
2035.0206727273585,1560
2036.964609606313,1588
2038.908115014422,1535
2040.8511890159348,1624
2042.7938316741693,1585
2044.7360430515123,1578
2046.677823209417,1637
2048.6191722084077,1576
2050.5600901080743,1603
2052.5005769670765,1571
2054.440632843142,1602
2056.380257793066,1531
2058.3194518727128,1573
2060.258215137015,1492
2062.1965476399732,1540
2064.1344494346554,1604
2066.0719205732,1559
2068.008961106812,1559
2069.945571085764,1590
2071.8817505593997,1616
2073.817499576128,1615
2075.7528181834273,1546
2077.6877064278447,1536
2079.622164354995,1574
2081.556192009562,1587
2083.4897894352966,1577
2085.4229566750187,1560
2087.355693770616,1576
2089.2880007630456,1631
2091.219877692331,1569
2093.151324597566,1579
2095.0823415169107,1612
2097.012928487595,1563
2098.9430855459173,1553
2100.872812727242,1551
2102.8021100660035,1524
2104.730977595705,1573
2106.659415348917,1627
2108.5874233572777,1625
2110.5150016514945,1572
2112.442150261343,1528
2114.3688692156675,1631
2116.2951585423793,1522
2118.2210182684585,1540
2120.146448419954,1509
2122.0714490219825,1600
2123.9960200987293,1637
2125.920161673447,1590
2127.843873768458,1568
2129.767156405151,1577
2131.690009603985,1590
2133.612433384486,1576
2135.534427765249,1580
2137.4559927639366,1574
2139.37712839728,1599
2141.2978346810783,1599
2143.2181116301995,1607
2145.1379592585795,1610
2147.057377579222,1610
2148.9763666042,1579
2150.894926344655,1588
2152.813056810794,1555
2154.730758011896,1537
2156.648029956306,1549
2158.564872651437,1551
2160.481286103772,1520
2162.397270318861,1565
2164.312825301323,1559
2166.227951054844,1601
2168.14264758218,1592
2170.056914885153,1550
2171.9707529646566,1582
2173.8841618206484,1578
2175.7971414521585,1565
2177.7096918572825,1543
2179.621813033186,1631
2181.5335049761,1581
2183.444767681327,1572
2185.355601143236,1546
2187.2660053552654,1591
2189.1759803099208,1598
2191.085525998777,1580
2192.994642412475,1590
2194.903329540727,1611
2196.811587372312,1528
2198.7194158950765,1552
2200.626815095937,1540
2202.5337849608763,1549
2204.440325474948,1519
2206.346436622271,1497
2208.2521183860345,1623
2210.157370748496,1609
2212.0621936909793,1542
2213.966587193879,1501
2215.8705512366573,1547
2217.774085797842,1599
2219.677190855033,1582
2221.579866384897,1609
2223.4821123631677,1598
2225.3839287646483,1649
2227.2853155632106,1615
2229.186272731794,1541
2231.0868002424063,1609
2232.986898066123,1592
2234.8865661730892,1570
2236.785804532517,1584
2238.6846131126877,1572
2240.5829918809495,1575
2242.4809408037213,1640
2244.3784598464877,1602
2246.275548973803,1564
2248.172208149288,1552
2250.0684373356357,1582
2251.964236494603,1616
2253.859605587017,1599
2255.7545445727733,1599
2257.6490534108357,1620
2259.5431320592356,1563
2261.436780475073,1578
2263.329998614516,1589
2265.222786432802,1586
2267.1151438842344,1542
2269.0070709221877,1599
2270.8985674991022,1554
2272.789633566488,1583
2274.6802690749237,1517
2276.570473974053,1599
2278.4602482125933,1656
2280.3495917383257,1595
2282.238504498101,1592
2284.1269864378387,1541
2286.0150375025264,1576
2287.9026576362203,1609
2289.789846782043,1538
2291.6766048821873,1592
2293.5629318779147,1638
2295.4488277095534,1555
2297.3342923164996,1589
2299.2193256372193,1636
2301.1039276092465,1601
2302.9880981691817,1600
2304.871837252696,1659
2306.755144794528,1601
2308.6380207284838,1689
2310.5204649874386,1657
2312.4024775033354,1598
2314.2840582071854,1601
2316.165207029068,1588
2318.0459238981325,1649
2319.926208742594,1623
2321.8060614897363,1612
2323.6854820659137,1586
2325.5644703965463,1600
2327.443026406124,1599
2329.321150018203,1610
2331.1988411554107,1674
2333.0760997394395,1602
2334.952925691053,1631
2336.829318930082,1603
2338.705279375424,1573
2340.5808069450477,1610
2342.4559015559867,1572
2344.3305631243456,1622
2346.204791565297,1624
2348.07858679308,1563
2349.9519487210027,1654
2351.824877261443,1556
2353.6973723258448,1606
2355.5694338247226,1640
2357.4410616676564,1653
2359.312255763297,1627
2361.1830160193617,1581
2363.053342342637,1599
2364.9232346389776,1650
2366.792692813306,1623
2368.6617167696145,1629
2370.5303064109603,1577
2372.3984616394723,1593
2374.2661823563467,1636
2376.1334684618464,1629
2378.0003198553054,1602
2379.8667364351227,1639
2381.7327180987672,1651
2383.5982647427777,1651
2385.4633762627586,1576
2387.3280525533837,1626
2389.192293508395,1664
2391.0560990206027,1673
2392.919468981885,1620
2394.782403283189,1649
2396.644901814531,1623
2398.5069644649916,1696
2400.3685911227235,1627
2402.2297816749474,1671
2404.0905360079505,1684
2405.950854007089,1620
2407.8107355567886,1605
2409.670180540541,1604
2411.529188840908,1572
2413.387760339518,1592
2415.2458949170705,1598
2417.1035924533294,1610
2418.96085282713,1606
2420.8176759163744,1536
2422.6740615980334,1577
2424.5300097481468,1636
2426.38552024182,1716
2428.24059295323,1616
2430.0952277556207,1640
2431.949424521303,1607
2433.803183121658,1667
2435.6565034271343,1602
2437.5093853072485,1686
2439.361828630585,1705
2441.213833264798,1681
2443.0653990766095,1626
2444.916525931808,1635
2446.7672136952524,1634
2448.6174622308695,1591
2450.4672714016538,1650
2452.3166410696676,1663
2454.165571096043,1688
2456.0140613409794,1657
2457.8621116637432,1648
2459.709721922672,1614
2461.556891975169,1547
2463.403621677707,1627
2465.249910885827,1617
2467.0957594541383,1677
2468.9411672363167,1690
2470.78613408511,1603
2472.630659852331,1689
2474.4747443888614,1578
2476.3183875446516,1553
2478.161589168721,1628
2480.0043491091556,1649
2481.8466672131112,1619
2483.6885433268108,1640
2485.529977295547,1664
2487.370968963678,1614
2489.2115181746335,1630
2491.0516247709097,1665
2492.891288594071,1626
2494.7305094847497,1626
2496.569287282649,1618
2498.407621826537,1634
2500.2455129542523,1657
2502.0829605027,1589
2503.919964307855,1619
2505.7565242047594,1718
2507.5926400275252,1624
2509.42831160933,1711
2511.263538782423,1698
2513.0983213781174,1657
2514.9326592267994,1667
2516.76655215792,1646
2518.5999999999995,1643
2520.4330025806275,1636
2522.2655597264607,1650
2524.0976712632237,1601
2525.9293370157097,1642
2527.760556807782,1650
2529.591330462369,1584
2531.4216578014702,1683
2533.2515386461523,1636
2535.080972816548,1675
2536.9099601318626,1653
2538.738500410366,1697
2540.5665934693993,1655
2542.3942391253695,1616
2544.221437193752,1693
2546.0481874890925,1725
2547.874489825003,1631
2549.700344014164,1622
2551.5257498683245,1687
2553.350707198304,1680
2555.175215813986,1705
2556.9992755243256,1733
2558.8228861373454,1665
2560.646047460134,1726
2562.468759298852,1678
2564.2910214587255,1675
2566.1128337440496,1751
2567.93419595819,1680
2569.7551079035757,1726
2571.5755693817077,1648
2573.395580193155,1632
2575.2151401375536,1661
2577.034249013609,1674
2578.8529066190936,1696
2580.6711127508493,1704
2582.488867204785,1688
2584.3061697758794,1659
2586.1230202581787,1730
2587.939418444797,1682
2589.7553641279183,1737
2591.570857098791,1772
2593.385897147736,1720
2595.200484064141,1764
2597.014617636461,1784
2598.8282976522214,1764
2600.6415238980126,1769
2602.454296159496,1811
2604.266614221401,1765
2606.0784778675243,1846
2607.8898868807305,1800
2609.700841042955,1751
2611.5113401351973,1810
2613.32138393753,1803
2615.13097222909,1793
2616.940104788084,1839
2618.748781391788,1734
2620.557001816543,1814
2622.364765837763,1838
2624.1720732299264,1749
2625.9789237665814,1808
2627.7853172203445,1780
2629.5912533629,1853
2631.396731965001,1826
2633.2017527964676,1844
2635.0063156261904,1838
2636.810420222126,1780
2638.614066351301,1805
2640.417253779809,1814
2642.219982272813,1830
2644.022251594542,1777
2645.8240615082973,1817
2647.625411776444,1774
2649.4263021604183,1744
2651.226732420724,1703
2653.026702316933,1742
2654.8262116076858,1671
2656.625260050691,1762
2658.423847402724,1723
2660.221973419631,1753
2662.0196378563246,1751
2663.8168404667867,1731
2665.613581004068,1694
2667.4098592202854,1660
2669.2056748666246,1689
2671.0010276933417,1703
2672.7959174497596,1693
2674.5903438842674,1656
2676.384306744327,1635
2678.177805776465,1690
2679.9708407262765,1706
2681.7634113384274,1653
2683.555517356648,1648
2685.3471585237403,1661
2687.138334581574,1681
2688.9290452710843,1611
2690.7192903322784,1642
2692.50906950423,1586
2694.2983825250794,1685
2696.087229132039,1713
2697.875609061386,1643
2699.6635220484677,1591
2701.450967827699,1689
2703.237946132564,1666
2705.0244566956126,1714
2706.8104992484664,1620
2708.596073521813,1668
2710.381179245408,1654
2712.1658161480777,1635
2713.949983957714,1624
2715.7336824012773,1636
2717.516911204798,1583
2719.299670093374,1648
2721.0819587911706,1628
2722.8637770214223,1584
2724.6451245064322,1634
2726.426000967571,1630
2728.2064061252763,1621
2729.986339699057,1626
2731.765801407488,1590
2733.5447909682134,1658
2735.323308097945,1620
2737.101352512463,1656
2738.8789239266166,1621
2740.6560220543215,1689
2742.4326466085645,1609
2744.2087973013977,1690
2745.984473843944,1588
2747.7596759463922,1640
2749.534403318001,1608
2751.308655667096,1602
2753.0824327010737,1619
2754.8557341263954,1616
2756.628559648593,1621
2758.4009089722667,1608
2760.172781801083,1592
2761.944177837779,1572
2763.715096784159,1544
2765.4855383410945,1634
2767.2555022085267,1616
2769.024988085465,1593
2770.793995669988,1611
2772.5625246592385,1599
2774.3305747494323,1596
2776.098145635852,1579
2777.865237012847,1625
2779.6318485738357,1634
2781.397980011306,1629
2783.163631016813,1638
2784.928801280979,1604
2786.6934904934974,1606
2788.457698343127,1592
2790.221424517697,1584
2791.9846687041027,1635
2793.74743058831,1624
2795.5097098553515,1586
2797.2715061893286,1604
2799.0328192734105,1558
2800.793648789836,1685
2802.553994419911,1604
2804.3138558440087,1567
2806.073232741573,1655
2807.8321247911135,1651
2809.590531670211,1652
2811.3484530555115,1585
2813.105888622732,1619
2814.8628380466557,1622
2816.6193010011348,1670
2818.3752771590903,1558
2820.13076619251,1548
2821.885767772452,1644
2823.640281569041,1638
2825.3943072514703,1575
2827.147844488002,1620
2828.9008929459665,1621
2830.6534522917614,1631
2832.405522190854,1583
2834.1571023077786,1607
2835.9081923061394,1634
2837.658791848606,1606
2839.40890059692,1586
2841.1585182118874,1601
2842.907644353386,1671
2844.6562786803593,1689
2846.4044208508203,1587
2848.15207052185,1610
2849.899227349598,1623
2851.6458909892804,1628
2853.392061095185,1622
2855.137737320664,1633
2856.882919318142,1585
2858.6276067391063,1636
2860.371799234118,1634
2862.1154964528037,1633
2863.8586980438586,1629
2865.6014036550464,1555
2867.343612933199,1601
2869.0853255242173,1584
2870.826541073068,1544
2872.567259223789,1649
2874.307479619485,1563
2876.0472019023287,1564
2877.7864257135625,1592
2879.525150693495,1654
2881.263376481505,1669
2883.0011027160385,1599
2884.73832903461,1593
2886.4750550738027,1586
2888.2112804692665,1620
2889.9470048557223,1662
2891.682227866956,1582
2893.416949135825,1623
2895.151168294252,1566
2896.88488497323,1613
2898.6180988028204,1644
2900.3508094121503,1622
2902.083016429419,1645
2903.81471948189,1661
2905.5459181958972,1605
2907.276612196844,1606
2909.0068011091994,1638
2910.736484556502,1605
2912.465662161359,1574
2914.194333545445,1596
2915.922498329504,1564
2917.650156133346,1629
2919.377306575852,1606
2921.103949274969,1629
2922.830083847715,1618
2924.555709910173,1604
2926.2808270774967,1586
2928.005434963907,1638
2929.7295331826936,1630
2931.4531213462133,1605
2933.1761990658924,1619
2934.8987659522254,1653
2936.6208216147747,1595
2938.3423656621694,1631
2940.0633977021116,1632
2941.783917341366,1534
2943.503924185768,1615
2945.223417840223,1638
2946.9423979087023,1571
2948.6608639942456,1607
2950.378815698962,1696
2952.096252624029,1565
2953.81317436969,1588
2955.529580535259,1575
2957.2454707191177,1602
2958.9608445187164,1610
2960.6757015305734,1626
2962.3900413502733,1625
2964.103863572472,1594
2965.817167790894,1611
2967.529953598327,1623
2969.2422205866337,1577
2970.953968346739,1601
2972.6651964686407,1561
2974.3759045414035,1626
2976.0860921531585,1598
2977.7957588911067,1596
2979.504904341517,1634
2981.2135280897273,1611
2982.9216297201433,1562
2984.629208816238,1653
2986.336264960554,1652
2988.0427977347017,1586
2989.7488067193594,1602
2991.454291494274,1678
2993.1592516382607,1601
2994.8636867292034,1642
2996.567596344053,1630
2998.2709800588295,1581
2999.973837448621,1567
3001.6761680875857,1692
3003.377971548946,1547
3005.0792474049954,1631
3006.7799952270957,1633
3008.480214585676,1636
3010.1799050502345,1587
3011.8790661893368,1574
3013.5776975706176,1526
3015.2757987607793,1603
3016.973369325592,1595
3018.6704088298966,1575
3020.366916837598,1585
3022.0628929116747,1560
3023.7583366141675,1588
3025.4532475061915,1553
3027.147625147925,1589
3028.841469098617,1607
3030.534778916585,1619
3032.2275541592144,1616
3033.9197943829577,1578
3035.611499143338,1615
3037.302667994943,1565
3038.9933004914333,1568
3040.683396185535,1557
3042.372954629042,1595
3044.061975372817,1611
3045.7504579667934,1615
3047.4384019599684,1592
3049.1258069004116,1593
3050.812672335258,1540
3052.4989978107124,1587
3054.184782872047,1599
3055.870027063603,1570
3057.554729928791,1623
3059.238891010086,1650
3060.9225098490347,1627
3062.6055859862518,1662
3064.2881189614177,1601
3065.970108313285,1654
3067.651553579671,1694
3069.3324542974633,1581
3071.012810002616,1597
3072.6926202301543,1588
3074.3718845141702,1564
3076.050602387822,1636
3077.728773383339,1607
3079.406397032018,1611
3081.083472864223,1598
3082.7600004093874,1623
3084.4359791960137,1576
3086.11140875167,1611
3087.7862886029952,1578
3089.4606182756943,1583
3091.134397294544,1566
3092.807625183385,1624
3094.4803014651284,1586
3096.152425661755,1600
3097.8239972943097,1606
3099.49501588291,1613
3101.165480946741,1561
3102.8353920040518,1569
3104.504748572165,1585
3106.1735501674693,1577
3107.8417963054226,1650
3109.5094865005485,1559
3111.176620266441,1613
3112.8431971157625,1575
3114.5092165602427,1637
3116.1746781106813,1589
3117.839581276943,1588
3119.503925567965,1582
3121.167710491747,1642
3122.830935555364,1663
3124.493600264954,1588
3126.1557041257247,1561
3127.817246641952,1608
3129.478227316982,1593
3131.1386456532273,1670
3132.798501152168,1622
3134.4577933143537,1666
3136.116521639402,1597
3137.7746856259982,1693
3139.4322847718977,1606
3141.0893185739224,1666
3142.745786527962,1692
3144.4016881289754,1598
3146.0570228709903,1661
3147.711790247102,1645
3149.3659897494754,1657
3151.0196208693396,1598
3152.6726830969974,1618
3154.3251759218165,1583
3155.9770988322334,1612
3157.6284513157534,1578
3159.2792328589485,1568
3160.929442947461,1578
3162.579081066002,1618
3164.2281466983477,1607
3165.8766393273454,1560
3167.5245584349086,1580
3169.1719035020224,1660
3170.818674008735,1572
3172.4648694341677,1598
3174.110489256508,1570
3175.7555329530105,1629
3177.4000000000005,1659
3179.0438898728707,1639
3180.6872020460805,1582
3182.32993599316,1623
3183.972091186706,1613
3185.613667098384,1587
3187.254663198927,1649
3188.8950789581386,1567
3190.5349138448873,1601
3192.1741673271126,1638
3193.8128388718224,1641
3195.4509279450886,1606
3197.0884340120574,1566
3198.725356536939,1609
3200.361694983014,1630
3201.997448812629,1632
3203.632617487203,1658
3205.2672004672195,1630
3206.901197212229,1616
3208.5346071808563,1577
3210.167429830789,1589
3211.799664618785,1598
3213.4313110006706,1566
3215.0623684313387,1552
3216.692836364753,1544
3218.3227142539445,1627
3219.9520015510125,1559
3221.5806977071215,1586
3223.2088021725103,1537
3224.8363143964816,1642
3226.4632338274077,1606
3228.089559912728,1553
3229.715292098951,1591
3231.3404298316545,1631
3232.9649725554846,1591
3234.5889197141523,1574
3236.2122707504395,1589
3237.8350251061984,1583
3239.457182222345,1601
3241.0787415388677,1578
3242.6997024948187,1595
3244.3200645283223,1634
3245.9398270765696,1609
3247.558989575821,1599
3249.177551461403,1591
3250.7955121677123,1650
3252.412871128213,1663
3254.029627775437,1563
3255.6457815409867,1611
3257.2613318555286,1553
3258.876278148802,1540
3260.490619849613,1632
3262.1043563858348,1573
3263.717487184408,1578
3265.3300116713453,1545
3266.941929271725,1584
3268.5532394096917,1577
3270.1639415084646,1607
3271.7740349903233,1606
3273.383519276621,1552
3274.9923937877775,1586
3276.6006579432833,1584
3278.2083111616903,1619
3279.815352860627,1582
3281.421782456786,1561
3283.027599365927,1643
3284.632803002881,1583
3286.237392781545,1647
3287.841368114885,1538
3289.4447284149373,1581
3291.047473092801,1599
3292.649601558651,1651
3294.2511132217223,1571
3295.8520074903254,1551
3297.452283771835,1617
3299.051941472695,1548
3300.650979998417,1600
3302.2493987535827,1594
3303.8471971418403,1594
3305.4443745659064,1554
3307.0409304275654,1586
3308.636864127674,1598
3310.2321750661513,1576
3311.8268626419876,1603
3313.420926253242,1583
3315.01436529704,1592
3316.6071791695776,1603
3318.1993672661183,1550
3319.7909289809913,1519
3321.3818637075983,1592
3322.972170838406,1521
3324.561849764951,1601
3326.150899877838,1621
3327.7393205667386,1630
3329.3271112203956,1573
3330.9142712266166,1639
3332.5007999722793,1638
3334.08669684333,1645
3335.6719612247834,1716
3337.2565925007193,1600
3338.840590054291,1625
3340.4239532677157,1674
3342.006681522281,1625
3343.5887741983406,1681
3345.1702306753214,1668
3346.7510503317126,1573
3348.3312325450743,1584
3349.910776692037,1569
3351.4896821482953,1644
3353.0679482886153,1570
3354.645574486829,1594
3356.2225601158398,1589
3357.798904547615,1648
