CollectionTime,4/2/2024 11:21:57 AM
ExposureUsed,3
CalibratedSpectrum
-994.8464149364308,862
-991.9439705588344,928
-989.042830375826,892
-986.1429931109675,987
-983.2444574887519,1014
-980.3472222346043,971
-977.4512860748813,902
-974.5566477368716,876
-971.6633059487953,894
-968.7712594398042,936
-965.8805069399822,904
-962.9910471803447,936
-960.1028788928387,912
-957.2160008103432,945
-954.3304116666687,916
-951.4461101965578,913
-948.5630951356844,944
-945.6813652206545,994
-942.8009191890055,1001
-939.9217557792067,1054
-937.0438737306594,981
-934.167271783696,960
-931.2919486795813,934
-928.4179031605115,898
-925.5451339696144,974
-922.67363985095,1047
-919.8034195495097,1033
-916.9344718112166,958
-914.0667953829256,921
-911.2003890124234,972
-908.3352514484286,1027
-905.471381440591,919
-902.6087777394928,955
-899.7474390966474,974
-896.8873642645002,1027
-894.0285519964284,905
-891.1710010467407,950
-888.3147101706776,950
-885.4596781244115,944
-882.6059036650465,928
-879.7533855506183,974
-876.9021225400943,914
-874.0521133933738,955
-871.2033568712878,931
-868.3558517355991,973
-865.509596749002,1043
-862.6645906751228,1030
-859.8208322785192,1035
-856.9783203246812,1026
-854.1370535800299,953
-851.2970308119186,940
-848.4582507886321,979
-845.620712279387,964
-842.7844140543316,921
-839.9493548845461,925
-837.1155335420422,895
-834.2829487997635,921
-831.4515994315852,983
-828.6214842123144,987
-825.7926019176898,1012
-822.9649513243819,992
-820.138531209993,974
-817.3133403530569,975
-814.4893775330396,1050
-811.6666415303382,1057
-808.845131126282,947
-806.0248451031321,976
-803.2057822440808,968
-800.3879413332527,949
-797.5713211557038,1065
-794.755920497422,1092
-791.941738145327,975
-789.1287728872701,1023
-786.3170235120342,1105
-783.5064888093341,1062
-780.6971675698165,967
-777.8890585850597,975
-775.0821606475735,1038
-772.2764725507997,979
-769.4719930891118,964
-766.6687210578151,978
-763.8666552531465,1130
-761.0657944722747,1276
-758.2661375133,1133
-755.4676831752547,985
-752.6704302581027,977
-749.8743775627395,965
-747.0795238909925,932
-744.285868045621,1004
-741.4934088303156,987
-738.702145049699,951
-735.9120755093254,1025
-733.123199015681,1176
-730.3355143761836,1210
-727.5490203991826,1071
-724.7637158939592,1013
-721.9795996707265,993
-719.1966705406293,975
-716.4149273157439,966
-713.6343688090786,938
-710.8549938345734,978
-708.0768012070998,1002
-705.2997897424614,1005
-702.5239582573931,1038
-699.7493055695622,1045
-696.9758304975669,1064
-694.2035318609377,1042
-691.4324084801367,1024
-688.6624591765578,979
-685.8936827725265,1016
-683.1260780913001,1015
-680.3596439570675,1030
-677.5943791949499,1032
-674.8302826309991,940
-672.0673530922,964
-669.3055894064685,1005
-666.5449904026519,1131
-663.78555491053,1052
-661.0272817608139,1047
-658.2701697851465,1052
-655.5142178161026,1091
-652.7594246871884,1092
-650.0057892328422,1015
-647.2533102884337,1022
-644.5019866902646,1027
-641.7518172755683,1043
-639.0028008825099,1073
-636.254936350186,1075
-633.5082225186254,998
-630.7626582287882,1039
-628.0182423225665,1014
-625.2749736427841,1105
-622.5328510331965,1090
-619.7918733384909,1082
-617.0520394042862,1083
-614.3133480771331,1067
-611.5757982045143,1132
-608.8393886348437,1241
-606.1041182174672,1202
-603.3699858026625,1200
-600.6369902416393,1181
-597.9051303865383,1238
-595.1744050904326,1207
-592.4448132073267,1174
-589.7163535921568,1153
-586.9890251007912,1063
-584.2628265900296,1104
-581.5377569176036,1134
-578.8138149421764,1126
-576.090999523343,1133
-573.3693095216302,1130
-570.6487437984965,1120
-567.9293012163321,1193
-565.210980638459,1206
-562.4937809291307,1173
-559.7777009535329,1083
-557.0627395777825,1120
-554.3488956689287,1124
-551.6361680949519,1160
-548.9245557247644,1249
-546.2140574282107,1260
-543.5046720760662,1269
-540.7963985400388,1213
-538.0892356927677,1266
-535.3831824078238,1337
-532.6782375597103,1358
-529.9744000238613,1449
-527.2716686766433,1551
-524.5700423953542,1740
-521.8695200582238,1650
-519.1701005444136,1552
-516.4717827340166,1675
-513.7745655080581,1851
-511.0784477484944,1995
-508.38342833821423,2004
-505.68950616103757,2026
-502.9966801017163,1948
-500.3049490459341,1850
-497.61431188030633,1760
-494.9247674923801,1537
-492.2363147706342,1446
-489.54895260447927,1360
-486.86267988425755,1384
-484.1774955012431,1405
-481.4933983476417,1467
-478.8103873165908,1391
-476.1284613021596,1332
-473.44761919934945,1325
-470.7678599040928,1288
-468.089182313254,1335
-465.4115853246294,1359
-462.735067836947,1417
-460.0596287498663,1453
-457.3852669639789,1336
-454.71198138080774,1188
-452.03977090280773,1198
-449.3686344333656,1197
-446.69857087679964,1237
-444.02957913835996,1257
-441.36165812422837,1321
-438.6948067415183,1375
-436.0290238982752,1307
-433.36430850347597,1336
-430.7006594670296,1317
-428.0380756997763,1312
-425.3765561134885,1294
-422.7160996208702,1327
-420.0567051355571,1416
-417.3983715721164,1374
-414.7410978460475,1304
-412.08488287378145,1323
-409.4297255726806,1269
-406.77562486103955,1160
-404.1225796580843,1157
-401.4705888839728,1059
-398.8196514597947,1019
-396.1697663075713,1100
-393.5209323502555,987
-390.8731485117323,831
-388.22641371681823,924
-385.5807268912615,1124
-382.93608696174226,972
-380.29249285587207,811
-377.64994350219456,762
-375.0084378301849,782
-372.36797477025016,774
-369.7285532537287,775
-367.0901722128914,796
-364.45283058094014,773
-361.8165272920089,864
-359.1812612811634,749
-356.54703148440103,611
-353.9138368386507,667
-351.28167628177346,745
-348.6505487525617,856
-346.02045319074,833
-343.3913885369643,730
-340.76335373282245,792
-338.1363477208339,759
-335.5103694444499,846
-332.8854178480535,840
-330.26149187695944,808
-327.63859047741425,732
-325.016712596596,637
-322.3958571826148,654
-319.77602318451227,707
-317.15720955226186,788
-314.5394152367686,778
-311.9226391898695,710
-309.3068803643333,725
-306.69213771386023,895
-304.0784101930824,1075
-301.4656967575635,894
-298.8539963637994,912
-296.2433079692172,881
-293.6336305321761,854
-291.02496301196675,864
-288.41730436881176,882
-285.81065356386534,836
-283.2050095592135,1000
-280.60037131787396,1371
-277.9967378037961,1574
-275.39410798186134,1065
-272.7924808178824,1050
-270.19185527860407,1126
-267.5922303317028,1127
-264.9936049457866,1118
-262.3959780903955,1082
-259.79934873600087,1143
-257.2037158540064,1143
-254.6090784167469,1197
-252.01543539748934,1358
-249.42278577043237,1147
-246.8311285107061,1018
-244.24046259437262,946
-241.6507869984256,1046
-239.0621007007909,1197
-236.4744026803254,1236
-233.88769191681808,1147
-231.30196739098994,1130
-228.7172280844934,1105
-226.13347297991243,1174
-223.550701060763,1120
-220.9689113114929,1046
-218.3881027174814,1084
-215.8082742650397,1314
-213.22942494141068,1468
-210.65155373476898,1736
-208.07465963422078,1658
-205.49874162980439,1614
-202.92379871248932,1701
-200.34982987417743,1597
-197.7768341077018,1312
-195.20481040682762,1246
-192.63375776625162,1278
-190.0636751816021,1272
-187.49456164943945,1326
-184.92641616725564,1583
-182.3592377334743,1579
-179.79302534745102,1523
-177.2277780094729,1748
-174.66349472075865,1480
-172.10017448345923,1713
-169.5378163006569,1640
-166.97641917636565,1481
-164.41598211553162,1716
-161.8565041240322,1864
-159.29798420867678,1822
-156.74042137720642,1791
-154.18381463829382,1827
-151.6281630015436,1584
-149.07346547749228,1458
-146.51972107760753,1448
-143.96692881428908,1735
-141.41508770086864,2052
-138.86419675160937,1771
-136.31425498170609,1593
-133.7652614072856,1770
-131.21721504540642,1894
-128.67011491405844,1967
-126.12396003216395,2539
-123.57874941957618,3080
-121.03448209708074,2584
-118.49115708639465,2375
-115.94877341016684,2336
-113.40733009197788,2350
-110.86682615633993,2493
-108.32726062869733,2869
-105.78863253542556,3822
-103.25094090383243,5243
-100.71418476215695,4570
-98.17836313957025,4128
-95.64347506617503,3014
-93.10951957300585,2995
-90.57649569202886,3098
-88.04440245614194,3282
-85.51323889917478,3798
-82.98300405588896,5490
-80.45369696197747,7157
-77.925316654065,11031
-75.39786216970867,14240
-72.87133254739649,18291
-70.34572682654857,21020
-67.82104404751692,24824
-65.29728325158499,28772
-62.774443480968216,30864
-60.252523778813384,32180
-57.73152318919938,30947
-55.21144075713676,33066
-52.69227552856796,26848
-50.17402655036665,25059
-47.65669287033859,24943
-45.14027353722133,21345
-42.624767600684095,22691
-40.11017411132775,26342
-37.59649212068507,29376
-35.08372068122037,33033
-32.57185884632963,38567
-30.06090567034107,42282
-27.550860208513996,48269
-25.04172151704006,63925
-22.533488653042014,65042
-20.02616067457484,65042
-17.51973664062507,65042
-15.014215611111126,65042
-12.509596646882983,65042
-10.005878809722162,65042
-7.503061162342419,65042
-5.001142768389059,65042
-2.5001226924387083,65042
-3.410605131648481E-13,65042
2.49922624248552,65042
4.997556967646801,65042
7.494993107179766,65042
9.99153559184856,65042
12.487185351485778,65042
14.98194331499235,65042
17.475810410337544,65042
19.96878756455851,65042
22.46087570376085,65042
24.952075753118834,31197
27.442388636874625,9217
29.93181527833849,6380
32.42035659988892,5758
34.90801352297353,9691
37.39478696810693,9561
39.880677854873056,8661
42.36568710192364,7317
44.8498156269784,8201
47.33306434682618,7015
49.815434177322686,7201
52.296926033393675,7997
54.77754082903198,7647
57.25727947729865,8128
59.736142890323435,7548
62.214131979304284,5208
64.6912476545076,3929
67.16749082526735,3785
69.64286239998614,3035
72.11736328613551,3156
74.59099439025431,3497
77.06375661794982,3799
79.53565087389825,3911
82.0066780618431,4117
84.4768390845968,4297
86.94613484403999,3712
89.41456624112152,4870
91.88213417585825,4504
94.34883954733527,3324
96.81468325370679,3047
99.2796661921941,2342
101.74378925908763,2834
104.20705334974559,3136
106.66945935859462,3375
109.1310081791296,3297
111.59170070391383,3966
114.05153782457865,3555
116.5105204318238,2193
118.96864941541708,2489
121.42592566419489,3582
123.88235006606146,3261
126.3379235079899,2486
128.79264687602085,2667
131.2465210552641,2926
133.69954692989631,2470
136.15172538316415,2574
138.60305729738116,2703
141.05354355393,2530
143.50318503326116,2656
145.95198261489327,2744
148.39993717741368,2821
150.84704959847772,3189
153.29332075480897,3291
155.73875152219944,3284
158.18334277550935,3193
160.62709538866693,2830
163.0700102346691,2884
165.51208818558075,2930
167.953330112535,2961
170.39373688573346,2803
172.8333093744459,2758
175.2720484470101,2931
177.70995497083277,3022
180.14702981238815,3332
182.58327383721917,3208
185.01868790993672,3238
187.45327289422062,3272
189.88702965281777,3063
192.31995904754444,3048
194.75206193928489,3118
197.18333918799135,2937
199.61379165268454,2877
202.04342019145315,2903
204.4722256614548,2962
206.90020891891436,3115
209.32737081912592,3082
211.7537122164515,3007
214.17923396432116,2984
216.6039369152336,3220
219.0278219207553,3211
221.45088983152186,3114
223.8731414972358,3112
226.29457776666914,2833
228.71519948766172,2835
231.1350075071216,3109
233.55400267102482,3206
235.97218582441633,3312
238.38955781140908,3016
240.806119475184,3070
243.2218716579905,3037
245.6368152011462,2974
248.05095094503736,3080
250.46427972911806,3101
252.87680239191036,3176
255.28851977100544,3264
257.69943270306203,3403
260.10954202380753,3042
262.5188485680378,2905
264.92735316961557,3106
267.33505666147425,3082
269.7419598756128,3043
272.14806364310084,3217
274.5533687940747,3205
276.95787615773975,3053
279.361586562369,2903
281.7645008353045,2793
284.1666198029559,2866
286.5679442908013,2937
288.96847512338695,2980
291.3682131243279,2986
293.7671591163071,2951
296.1653139210757,3008
298.562678359453,2950
300.9592532513268,3116
303.3550394156532,3275
305.75003767045655,2947
308.14424883282936,2963
310.53767371893196,2895
312.93031314399377,2800
315.3221679223125,2742
317.71323886725304,2796
320.1035267912496,2678
322.49303250580397,2741
324.881756821487,2766
327.2697005479374,2670
329.65686449386135,2706
332.0432494670347,2722
334.4288562743004,2679
336.81368572157066,2703
339.19773861382487,2606
341.58101575511205,2575
343.96351794854786,2677
346.3452459963173,2580
348.72620069967365,2569
351.1063828589379,2522
353.48579327349967,2654
355.8644327418169,2542
358.24230206141533,2511
360.6194020288899,2566
362.99573343990255,2474
365.3712970891845,2486
367.7460937705348,2449
370.12012427682066,2435
372.493389399978,2502
374.86588993101077,2479
377.23762665999084,2404
379.6086003760588,2489
381.9788118674235,2397
384.34826192136165,2501
386.7169513242188,2380
389.08488086140824,2430
391.4520513174118,2405
393.8184634757795,2622
396.1841181191296,2590
398.54901602914856,2532
400.9131579865916,2669
403.2765447712811,2657
405.63917716210926,2528
408.00105593703483,2475
410.36218187308646,2390
412.7225557463596,2430
415.0821783320191,2420
417.4410504042976,2416
419.79917273649585,2403
422.1565461009834,2422
424.5131712691973,2457
426.869049011643,2418
429.22418009789544,2433
431.578565296596,2406
433.9322053754556,2393
436.28510110125285,2325
438.6372532398352,2321
440.98866255611733,2267
443.33932981408293,2366
445.6892557767842,2285
448.0384412063411,2302
450.38688686394175,2466
452.7345935098431,2392
455.0815619033697,2409
457.42779280291506,2310
459.7732869659403,2411
462.1180451489754,2414
464.4620681076178,2504
466.80535659653424,2417
469.1479113694588,2396
471.48973317919445,2447
473.8308227776122,2531
476.17118091565135,2596
478.51080834331924,2572
480.8497058096914,2527
483.1878740629122,2642
485.5253138501944,2690
487.8620259178176,2791
490.1980110111317,3007
492.53326987455307,3094
494.86780325156724,3242
497.201611884728,3474
499.53469651565683,3818
501.8670578850447,3947
504.1986967326493,4087
506.52961379729754,3992
508.85980981688454,3616
511.18928552837315,3504
513.5180416677952,3369
515.8460789702503,3495
518.1733981699067,3968
520.5,4730
522.8258851928354,4880
525.1510544797857,4676
527.4755085912916,4055
529.7992482568625,3631
532.1222742050759,3058
534.4445871635783,2708
536.766187859083,2440
539.0870770173726,2435
541.4072553632982,2341
543.7267236207783,2324
546.0454825128002,2350
548.363532761419,2368
550.6808750877592,2373
552.9975102120118,2480
555.3134388534377,2385
557.6286617303654,2426
559.9431795601911,2335
562.2569930593802,2339
564.570102943466,2434
566.88250992705,2431
569.1942147238021,2288
571.5052180464602,2321
573.8155206068309,2374
576.1251231157885,2407
578.4340262832759,2394
580.7422308183045,2317
583.0497374289534,2280
585.3565468223703,2318
587.6626597047714,2339
589.9680767814409,2344
592.2727987567309,2415
594.5768263340624,2461
596.8801602159238,2289
599.1828011038731,2317
601.4847496985356,2297
603.7860066996047,2274
606.0865728058427,2295
608.3864487150802,2323
610.6856351242152,2256
612.9841327292149,2190
615.2819422251141,2270
617.5790643060163,2190
619.8754996650935,2347
622.1712489945849,2275
624.466312985799,2229
626.7606923291121,2230
629.0543877139692,2264
631.347399828883,2289
633.6397293614343,2403
635.9313769982732,2365
638.2223434251173,2345
640.5126293267522,2361
642.8022353870326,2322
645.0911622888809,2268
647.3794107142876,2383
649.666981344312,2354
651.9538748590815,2305
654.2400919377915,2362
656.525633258706,2367
658.8104994991568,2427
661.0946913355442,2383
663.3782094433375,2506
665.6610544970729,2487
667.9432271703561,2409
670.22472813586,2454
672.5055580653268,2442
674.7857176295659,2483
677.065207498456,2336
679.3440283409432,2281
681.6221808250425,2375
683.899665617837,2356
686.1764833854772,2326
688.4526347931837,2397
690.7281205052436,2321
693.0029411850135,2374
695.2770974949171,2422
697.5505900964474,2461
699.8234196501651,2478
702.0955868156989,2405
704.3670922517472,2440
706.6379366160747,2458
708.9081205655159,2364
711.1776447559728,2425
713.4465098424155,2385
715.714716478883,2413
717.9822653184822,2416
720.2491570133882,2447
722.5153922148452,2403
724.7809715731639,2395
727.0458957377248,2413
729.3101653569763,2338
731.5737810784346,2333
733.8367435486853,2347
736.0990534133803,2548
738.3607113172418,2527
740.6217179040591,2432
742.8820738166899,2437
745.1417796970607,2442
747.4008361861659,2434
749.6592439240678,2515
751.9170035498973,2522
754.1741157018539,2454
756.4305810172048,2561
758.686400132286,2401
760.9415736825013,2481
763.196102302323,2493
765.4499866252911,2503
767.7032272840152,2627
769.9558249101717,2469
772.207780134506,2498
774.4590935868323,2633
776.7097658960313,2675
778.9597976900541,2599
781.2091895959184,2491
783.457942239711,2507
785.7060562465867,2528
787.9535322407687,2531
790.2003708455488,2585
792.4465726832861,2514
794.6921383754088,2626
796.9370685424128,2560
799.1813638038632,2692
801.4250247783918,2654
803.6680520837006,2615
805.9104463365579,2561
808.1522081528019,2496
810.393338147338,2523
812.6338369341406,2508
814.8737051262517,2536
817.1129433357819,2536
819.35155217391,2532
821.5895322508834,2515
823.8268841760168,2448
826.0636085576946,2552
828.2997060033681,2478
830.535177119558,2513
832.7700225118522,2499
835.0042427849078,2516
837.2378385424493,2563
839.4708103872701,2492
841.7031589212318,2467
843.9348847452643,2497
846.1659884593648,2560
848.3964706626004,2523
850.6263319531054,2569
852.8555729280824,2438
855.0841941838025,2571
857.3121963156052,2447
859.5395799178978,2520
861.7663455841566,2594
863.9924939069251,2603
866.2180254778159,2594
868.4429408875103,2589
870.6672407257561,2536
872.890925581371,2592
875.1139960422404,2612
877.336452695318,2578
879.5582961266261,2570
881.7795269212543,2494
884.0001456633613,2619
886.2201529361741,2636
888.4395493219874,2681
890.6583354021648,2642
892.8765117571375,2683
895.094078966405,2610
897.3110376085365,2644
899.5273882611671,2582
901.7431315010019,2483
903.958267903814,2583
906.1727980444443,2605
908.3867224968019,2569
910.6000418338647,2597
912.8127566276792,2509
915.0248674493587,2607
917.2363748690857,2514
919.4472794561113,2562
921.6575817787543,2507
923.867282404402,2512
926.0763818995099,2477
928.2848808296014,2353
930.4927797592693,2490
932.700079252173,2556
934.9067798710416,2520
937.112882177672,2481
939.3183867329287,2440
941.5232940967453,2521
943.727604828124,2474
945.9313194851336,2450
948.1344386249132,2511
950.3369628036685,2533
952.5388925766747,2544
954.7402284982745,2399
956.9409711218789,2384
959.1411209999676,2466
961.3406786840883,2386
963.5396447248565,2475
965.7380196719573,2593
967.9358040741427,2555
970.1329984792335,2421
972.3296034341188,2379
974.5256194847555,2483
976.72104717617,2435
978.9158870524552,2425
981.1101396567742,2358
983.3038055313566,2448
985.4968852175009,2413
987.6893792555747,2361
989.8812881850124,2365
992.072612544318,2424
994.263352871063,2422
996.453509701887,2333
998.6430835724984,2330
1000.832075017674,2306
1003.0204845712583,2286
1005.208312766164,2264
1007.3955601343728,2150
1009.5822272069338,2299
1011.7683145139652,2251
1013.9538225846525,2218
1016.1387519472505,2189
1018.3231031290818,2241
1020.5068766565371,2198
1022.6900730550753,2225
1024.872692849224,2321
1027.054736562579,2175
1029.2362047178037,2210
1031.4170978366305,2215
1033.5974164398597,2205
1035.7771610473603,2195
1037.9563321780693,2190
1040.1349303499917,2162
1042.3129560802006,2130
1044.490409884838,2170
1046.667292279115,2090
1048.8436037773079,2127
1051.0193448927644,2149
1053.1945161378994,2115
1055.3691180241954,2162
1057.5431510622038,2219
1059.7166157615447,2214
1061.8895126309053,2251
1064.0618421780423,2212
1066.2336049097798,2107
1068.4048013320107,2137
1070.5754319496955,2175
1072.745497266863,2115
1074.9149977866118,2039
1077.0839340111065,2122
1079.2523064415818,2095
1081.4201155783398,2028
1083.587361920751,2120
1085.7540459672537,2120
1087.9201682153553,2126
1090.0857291616308,2077
1092.2507293017238,2080
1094.4151691303464,2035
1096.579049141279,2048
1098.7423698273687,2008
1100.9051316805335,2111
1103.0673351917571,2069
1105.2289808510936,2000
1107.3900691476633,2066
1109.550600569657,2085
1111.710575604332,2059
1113.8699947380146,1998
1116.028858456099,1992
1118.1871672430489,2092
1120.344921582394,2074
1122.5021219567334,2075
1124.6587688477362,2102
1126.8148627361365,2057
1128.9704041017399,2055
1131.1253934234173,2072
1133.2798311791098,2027
1135.4337178458263,2018
1137.5870538996437,2076
1139.7398398157075,2007
1141.8920760682313,1999
1144.0437631304972,2059
1146.1949014748543,2122
1148.3454915727225,2090
1150.4955338945874,2084
1152.6450289100044,2073
1154.7939770875969,1985
1156.9423788950558,1996
1159.0902347991405,2012
1161.2375452656802,2011
1163.3843107595703,1983
1165.530531744775,2046
1167.6762086843282,2022
1169.8213420403304,1944
1171.9659322739503,2062
1174.1099798454266,1915
1176.2534852140639,1990
1178.3964488382376,1968
1180.538871175389,1956
1182.680752682029,2067
1184.8220938137365,2011
1186.9628950251595,1967
1189.103156770012,1906
1191.2428795010783,1962
1193.3820636702108,1980
1195.5207097283287,1921
1197.6588181254215,1954
1199.7963893105457,1918
1201.9334237318253,2000
1204.0699218364548,1967
1206.2058840706954,1983
1208.3413108798773,2012
1210.476202708397,2028
1212.6105599997222,1999
1214.7443831963874,1961
1216.877672739995,1966
1219.0104290712165,2036
1221.1426526297905,2047
1223.2743438545253,1996
1225.4055031832972,1958
1227.5361310530493,1958
1229.6662278997946,1983
1231.7957941586142,2000
1233.9248302636565,1914
1236.053336648139,1866
1238.1813137443464,1918
1240.3087619836338,2042
1242.4356817964222,1948
1244.5620736122019,2009
1246.6879378595318,1977
1248.813274966039,1913
1250.938085358418,1909
1253.062369462432,1950
1255.186127702913,1957
1257.3093605037611,1952
1259.4320682879434,1985
1261.554251477498,1974
1263.6759104935277,1950
1265.797045756206,1981
1267.9176576847744,2063
1270.0377466975428,2025
1272.1573132118879,2016
1274.2763576442567,2053
1276.394880410162,2013
1278.5128819241877,2001
1280.6303625999835,2043
1282.7473228502695,2025
1284.8637630868325,1985
1286.9796837205272,1968
1289.0950851612783,2101
1291.209967818078,2081
1293.3243320989864,2114
1295.4381784111324,2021
1297.551507160712,2091
1299.6643187529912,2083
1301.776613592303,2021
1303.888392082049,2029
1305.9996546246998,2116
1308.1104016217923,2059
1310.220633473934,2155
1312.3303505807999,2097
1314.4395533411316,2103
1316.5482421527418,2060
1318.6564174125092,2070
1320.7640795163816,2091
1322.8712288593752,2098
1324.9778658355744,2035
1327.0839908381313,2018
1329.1896042592675,1976
1331.2947064902714,2040
1333.3992979215009,2047
1335.503378942381,2067
1337.6069499414057,2092
1339.7100113061383,2002
1341.8125634232074,1987
1343.9146066783128,1953
1346.0161414562212,2012
1348.1171681407677,1948
1350.2176871148563,2040
1352.3176987604575,2011
1354.4172034586127,1969
1356.5162015894289,1944
1358.6146935320835,2014
1360.7126796648213,2009
1362.8101603649548,2051
1364.9071360088656,2090
1367.0036069720036,1987
1369.099573628886,1954
1371.195036353099,2014
1373.2899955172975,1968
1375.3844514932039,1979
1377.4784046516088,2038
1379.5718553623715,1996
1381.6648039944193,1916
1383.7572509157485,1973
1385.8491964934224,1912
1387.9406410935735,1991
1390.0315850814022,1984
1392.122028821177,1989
1394.2119726762357,1975
1396.3014170089828,1986
1398.3903621808918,2004
1400.4788085525051,2071
1402.566756483432,2000
1404.6542063323514,2012
1406.7411584570095,1953
1408.8276132142219,1928
1410.9135709598704,1982
1412.9990320489078,1942
1415.083996835353,1957
1417.1684656722937,1937
1419.2524389118867,1925
1421.3359169053565,2025
1423.4189000029946,1923
1425.5013885541634,1931
1427.5833829072913,2014
1429.664883409876,1876
1431.7458904084833,1977
1433.8264042487467,1985
1435.9064252753697,1951
1437.9859538321216,1908
1440.0649902618416,1976
1442.1435349064373,1972
1444.2215881068837,1984
1446.2991502032237,2076
1448.37622153457,1965
1450.452802439103,1987
1452.5288932540698,1979
1454.604494315788,2080
1456.6796059596427,2038
1458.7542285200866,2022
1460.8283623306415,2013
1462.902007723897,2014
1464.9751650315106,2055
1467.0478345842089,2079
1469.1200167117868,2051
1471.1917117431062,2102
1473.2629200060992,1983
1475.333641827764,2063
1477.4038775341692,2067
1479.4736274504498,2065
1481.5428919008104,2058
1483.6116712085222,2100
1485.6799656959279,2113
1487.7477756844346,2159
1489.8151014945201,2110
1491.88194344573,2194
1493.9483018566775,2101
1496.0141770450455,2194
1498.0795693275822,2126
1500.1444790201076,2190
1502.2089064375086,2092
1504.2728518937402,2159
1506.3363157018239,2175
1508.3992981738534,2095
1510.4617996209872,2240
1512.5238203534536,2209
1514.5853606805495,2224
1516.6464209106384,2328
1518.7070013511543,2305
1520.7671023085973,2304
1522.8267240885375,2316
1524.885866995612,2380
1526.9445313335268,2425
1529.002717405056,2515
1531.0604255120425,2399
1533.1176559553965,2644
1535.1744090350971,2536
1537.2306850501914,2609
1539.2864842987956,2671
1541.3418070780922,2706
1543.396653684334,2710
1545.4510244128405,2737
1547.5049195580013,2818
1549.5583394132727,2774
1551.61128427118,2806
1553.6637544233158,2875
1555.7157501603415,2943
1557.7672717719888,2976
1559.8183195470538,2990
1561.8688937734037,3084
1563.9189947379737,3052
1565.9686227267657,3019
1568.0177780248514,3049
1570.0664609163696,3020
1572.1146716845292,2960
1574.162410611605,2851
1576.2096779789413,2796
1578.2564740669518,2663
1580.3027991551157,2573
1582.3486535219831,2507
1584.3940374451709,2407
1586.4389512013645,2401
1588.4833950663178,2241
1590.5273693148533,2291
1592.5708742208603,2206
1594.6139100572982,2121
1596.6564770961936,2132
1598.698575608642,2112
1600.7402058648063,2085
1602.7813681339185,2098
1604.8220626842776,2062
1606.8622897832533,1995
1608.9020496972812,1974
1610.9413426918663,1896
1612.9801690315808,1917
1615.018528980066,1987
1617.056422800033,1940
1619.0938507532578,1936
1621.1308131005876,1928
1623.1673101019355,1971
1625.2033420162848,1986
1627.2389091016862,1913
1629.274011615259,1901
1631.3086498131897,1923
1633.3428239507352,1915
1635.376534282219,1865
1637.4097810610324,1852
1639.4425645396364,1940
1641.4748849695593,1888
1643.5067426013989,1898
1645.53813768482,1837
1647.5690704685549,1867
1649.5995412004067,1916
1651.6295501272452,1831
1653.6590974950086,1877
1655.6881835487025,1833
1657.7168085324029,1851
1659.7449726892523,1785
1661.772676261462,1831
1663.7999194903114,1812
1665.8267026161484,1872
1667.8530258783894,1790
1669.8788895155185,1804
1671.9042937650888,1808
1673.9292388637205,1852
1675.953725047103,1752
1677.977752549994,1706
1680.0013216062184,1736
1682.0244324486712,1758
1684.0470853093134,1725
1686.0692804191767,1721
1688.0910180083588,1815
1690.1122983060268,1810
1692.1331215404175,1809
1694.1534879388319,1744
1696.173397727644,1802
1698.1928511322926,1782
1700.211848377286,1805
1702.2303896862018,1855
1704.248475281684,1838
1706.2661053854458,1849
1708.2832802182684,1848
1710.300000000002,1814
1712.3162649495644,1772
1714.3320752849409,1773
1716.3474312231865,1816
1718.362332980424,1788
1720.376780771845,1783
1722.3907748117072,1833
1724.4043153133393,1791
1726.4174024891367,1820
1728.4300365505628,1817
1730.442217708151,1730
1732.4539461715008,1786
1734.465222149282,1791
1736.4760458492306,1793
1738.4864174781524,1733
1740.496337241921,1747
1742.5058053454786,1782
1744.5148219928346,1748
1746.523387387068,1698
1748.531501730325,1763
1750.5391652238209,1797
1752.5463780678388,1747
1754.55314046173,1777
1756.5594526039135,1750
1758.565314691879,1724
1760.5707269221812,1747
1762.5756894904443,1792
1764.580202591363,1773
1766.5842664186966,1774
1768.5878811652751,1779
1770.591047022996,1739
1772.593764182825,1681
1774.5960328347965,1719
1776.5978531680116,1736
1778.5992253706427,1735
1780.6001496299273,1706
1782.6006261321731,1748
1784.6006550627553,1700
1786.6002366061175,1737
1788.5993709457725,1732
1790.5980582642992,1787
1792.5962987433468,1761
1794.5940925636314,1748
1796.5914399049389,1735
1798.5883409461221,1711
1800.584795865102,1790
1802.580804838869,1676
1804.5763680434807,1829
1806.571485654064,1722
1808.566157844813,1759
1810.5603847889902,1772
1812.5541666589274,1677
1814.5475036260236,1663
1816.5403958607467,1697
1818.5328435326323,1714
1820.5248468102845,1724
1822.5164058613755,1738
1824.5075208526468,1738
1826.4981919499064,1764
1828.488419318032,1697
1830.4782031209684,1757
1832.4675435217305,1691
1834.4564406823993,1740
1836.4448947641258,1782
1838.432905927128,1716
1840.4204743306927,1727
1842.4076001331746,1715
1844.3942834919985,1808
1846.380524563654,1709
1848.366323503702,1756
1850.351680466771,1747
1852.3365956065563,1718
1854.3210690758228,1748
1856.3051010264044,1730
1858.2886916092007,1766
1860.271840974182,1732
1862.2545492703862,1714
1864.2368166459191,1747
1866.2186432479543,1747
1868.2000292227349,1777
1870.1809747155717,1763
1872.1614798708429,1708
1874.1415448319963,1750
1876.1211697415474,1716
1878.1003547410805,1730
1880.0790999712472,1801
1882.0574055717675,1811
1884.0352716814305,1756
1886.0126984380927,1736
1887.989685978679,1721
1889.9662344391836,1812
1891.9423439546672,1744
1893.9180146592607,1785
1895.893246686161,1761
1897.868040167636,1824
1899.8423952350195,1683
1901.8163120187137,1722
1903.7897906481917,1667
1905.7628312519923,1743
1907.7354339577219,1704
1909.7075988920578,1753
1911.6793261807447,1772
1913.6506159485943,1735
1915.6214683194871,1752
1917.5918834163726,1685
1919.5618613612687,1692
1921.5314022752605,1738
1923.5005062785012,1697
1925.4691734902144,1768
1927.4374040286893,1785
1929.4051980112845,1760
1931.3725555544274,1760
1933.3394767736136,1786
1935.305961783406,1810
1937.2720106974361,1774
1939.237623628404,1738
1941.2028006880778,1784
1943.167541987295,1788
1945.1318476359588,1819
1947.0957177430432,1814
1949.0591524165898,1711
1951.0221517637078,1715
1952.984715890574,1683
1954.9468449024357,1730
1956.9085389036072,1663
1958.8697979974704,1766
1960.8306222864767,1721
1962.7910118721456,1763
1964.7509668550638,1732
1966.7104873348871,1757
1968.6695734103387,1791
1970.6282251792127,1723
1972.586442738368,1773
1974.5442261837343,1752
1976.501575610307,1757
1978.4584911121533,1731
1980.4149727824056,1723
1982.3710207132658,1766
1984.326634996004,1703
1986.2818157209585,1788
1988.2365629775359,1771
1990.1908768542116,1741
1992.144757438527,1779
1994.0982048170954,1745
1996.0512190755953,1758
1998.0038002987749,1753
1999.95594857045,1765
2001.9076639735054,1749
2003.8589465898945,1743
2005.8097965006368,1742
2007.760213785822,1749
2009.7101985246077,1750
2011.6597507952201,1794
2013.6088706749524,1750
2015.5575582401675,1768
2017.5058135662953,1770
2019.4536367278351,1743
2021.4010277983534,1731
2023.347986850486,1753
2025.2945139559365,1752
2027.2406091854768,1814
2029.1862726089462,1760
2031.1315042952538,1749
2033.0763043123766,1700
2035.0206727273585,1760
2036.964609606313,1807
2038.908115014422,1772
2040.8511890159348,1769
2042.7938316741693,1754
2044.7360430515123,1770
2046.677823209417,1680
2048.6191722084077,1765
2050.5600901080743,1796
2052.5005769670765,1727
2054.440632843142,1760
2056.380257793066,1713
2058.3194518727128,1762
2060.258215137015,1813
2062.1965476399732,1773
2064.1344494346554,1736
2066.0719205732,1711
2068.008961106812,1835
2069.945571085764,1772
2071.8817505593997,1815
2073.817499576128,1758
2075.7528181834273,1790
2077.6877064278447,1784
2079.622164354995,1759
2081.556192009562,1805
2083.4897894352966,1760
2085.4229566750187,1805
2087.355693770616,1769
2089.2880007630456,1770
2091.219877692331,1806
2093.151324597566,1726
2095.0823415169107,1786
2097.012928487595,1809
2098.9430855459173,1712
2100.872812727242,1760
2102.8021100660035,1767
2104.730977595705,1817
2106.659415348917,1784
2108.5874233572777,1764
2110.5150016514945,1773
2112.442150261343,1838
2114.3688692156675,1780
2116.2951585423793,1797
2118.2210182684585,1810
2120.146448419954,1785
2122.0714490219825,1772
2123.9960200987293,1755
2125.920161673447,1798
2127.843873768458,1773
2129.767156405151,1842
2131.690009603985,1769
2133.612433384486,1724
2135.534427765249,1786
2137.4559927639366,1818
2139.37712839728,1858
2141.2978346810783,1723
2143.2181116301995,1792
2145.1379592585795,1816
2147.057377579222,1804
2148.9763666042,1826
2150.894926344655,1807
2152.813056810794,1781
2154.730758011896,1807
2156.648029956306,1834
2158.564872651437,1791
2160.481286103772,1768
2162.397270318861,1790
2164.312825301323,1714
2166.227951054844,1781
2168.14264758218,1794
2170.056914885153,1822
2171.9707529646566,1839
2173.8841618206484,1765
2175.7971414521585,1812
2177.7096918572825,1803
2179.621813033186,1844
2181.5335049761,1731
2183.444767681327,1790
2185.355601143236,1736
2187.2660053552654,1810
2189.1759803099208,1787
2191.085525998777,1869
2192.994642412475,1790
2194.903329540727,1802
2196.811587372312,1858
2198.7194158950765,1815
2200.626815095937,1797
2202.5337849608763,1781
2204.440325474948,1862
2206.346436622271,1771
2208.2521183860345,1850
2210.157370748496,1847
2212.0621936909793,1733
2213.966587193879,1748
2215.8705512366573,1732
2217.774085797842,1792
2219.677190855033,1857
2221.579866384897,1787
2223.4821123631677,1829
2225.3839287646483,1865
2227.2853155632106,1833
2229.186272731794,1848
2231.0868002424063,1797
2232.986898066123,1797
2234.8865661730892,1787
2236.785804532517,1818
2238.6846131126877,1828
2240.5829918809495,1855
2242.4809408037213,1803
2244.3784598464877,1843
2246.275548973803,1809
2248.172208149288,1826
2250.0684373356357,1866
2251.964236494603,1808
2253.859605587017,1853
2255.7545445727733,1958
2257.6490534108357,1852
2259.5431320592356,1815
2261.436780475073,1809
2263.329998614516,1799
2265.222786432802,1872
2267.1151438842344,1815
2269.0070709221877,1811
2270.8985674991022,1787
2272.789633566488,1868
2274.6802690749237,1777
2276.570473974053,1843
2278.4602482125933,1859
2280.3495917383257,1811
2282.238504498101,1816
2284.1269864378387,1873
2286.0150375025264,1845
2287.9026576362203,1867
2289.789846782043,1819
2291.6766048821873,1885
2293.5629318779147,1831
2295.4488277095534,1817
2297.3342923164996,1868
2299.2193256372193,1824
2301.1039276092465,1862
2302.9880981691817,1868
2304.871837252696,1842
2306.755144794528,1880
2308.6380207284838,1898
2310.5204649874386,1907
2312.4024775033354,1865
2314.2840582071854,1844
2316.165207029068,1898
2318.0459238981325,1881
2319.926208742594,1882
2321.8060614897363,1882
2323.6854820659137,1901
2325.5644703965463,1906
2327.443026406124,1894
2329.321150018203,1855
2331.1988411554107,1830
2333.0760997394395,1877
2334.952925691053,1813
2336.829318930082,1903
2338.705279375424,1814
2340.5808069450477,1845
2342.4559015559867,1810
2344.3305631243456,1899
2346.204791565297,1963
2348.07858679308,1872
2349.9519487210027,1857
2351.824877261443,1881
2353.6973723258448,1910
2355.5694338247226,1937
2357.4410616676564,1945
2359.312255763297,1996
2361.1830160193617,1942
2363.053342342637,1878
2364.9232346389776,1919
2366.792692813306,1972
2368.6617167696145,1875
2370.5303064109603,1860
2372.3984616394723,1918
2374.2661823563467,1872
2376.1334684618464,1873
2378.0003198553054,1882
2379.8667364351227,1955
2381.7327180987672,1928
2383.5982647427777,1903
2385.4633762627586,1871
2387.3280525533837,1930
2389.192293508395,1936
2391.0560990206027,1984
2392.919468981885,1929
2394.782403283189,1899
2396.644901814531,1924
2398.5069644649916,1838
2400.3685911227235,1955
2402.2297816749474,1931
2404.0905360079505,1924
2405.950854007089,1928
2407.8107355567886,1976
2409.670180540541,1919
2411.529188840908,1965
2413.387760339518,1966
2415.2458949170705,1915
2417.1035924533294,1957
2418.96085282713,1971
2420.8176759163744,1922
2422.6740615980334,1902
2424.5300097481468,2003
2426.38552024182,1926
2428.24059295323,1961
2430.0952277556207,1997
2431.949424521303,1897
2433.803183121658,1915
2435.6565034271343,1952
2437.5093853072485,1921
2439.361828630585,1950
2441.213833264798,2007
2443.0653990766095,2020
2444.916525931808,1957
2446.7672136952524,1982
2448.6174622308695,2000
2450.4672714016538,1948
2452.3166410696676,1902
2454.165571096043,1962
2456.0140613409794,1910
2457.8621116637432,1952
2459.709721922672,2004
2461.556891975169,1880
2463.403621677707,1948
2465.249910885827,1987
2467.0957594541383,2006
2468.9411672363167,1888
2470.78613408511,2003
2472.630659852331,1909
2474.4747443888614,1915
2476.3183875446516,1918
2478.161589168721,2028
2480.0043491091556,1968
2481.8466672131112,1958
2483.6885433268108,1941
2485.529977295547,2017
2487.370968963678,2006
2489.2115181746335,2029
2491.0516247709097,1928
2492.891288594071,1974
2494.7305094847497,1959
2496.569287282649,1953
2498.407621826537,1976
2500.2455129542523,1899
2502.0829605027,1894
2503.919964307855,2016
2505.7565242047594,2046
2507.5926400275252,2030
2509.42831160933,2032
2511.263538782423,1937
2513.0983213781174,1957
2514.9326592267994,2000
2516.76655215792,1936
2518.5999999999995,2001
2520.4330025806275,1954
2522.2655597264607,1970
2524.0976712632237,2008
2525.9293370157097,1998
2527.760556807782,2002
2529.591330462369,1990
2531.4216578014702,1964
2533.2515386461523,1973
2535.080972816548,2076
2536.9099601318626,2030
2538.738500410366,2057
2540.5665934693993,2077
2542.3942391253695,1977
2544.221437193752,2030
2546.0481874890925,2061
2547.874489825003,2091
2549.700344014164,2076
2551.5257498683245,2096
2553.350707198304,2059
2555.175215813986,1958
2556.9992755243256,2089
2558.8228861373454,2016
2560.646047460134,2032
2562.468759298852,2065
2564.2910214587255,2112
2566.1128337440496,2112
2567.93419595819,2097
2569.7551079035757,2075
2571.5755693817077,2140
2573.395580193155,1992
2575.2151401375536,2099
2577.034249013609,2074
2578.8529066190936,2039
2580.6711127508493,2062
2582.488867204785,2153
2584.3061697758794,2181
2586.1230202581787,2087
2587.939418444797,2036
2589.7553641279183,2100
2591.570857098791,2086
2593.385897147736,2122
2595.200484064141,2069
2597.014617636461,2121
2598.8282976522214,2029
2600.6415238980126,2156
2602.454296159496,2133
2604.266614221401,2178
2606.0784778675243,2097
2607.8898868807305,2079
2609.700841042955,2197
2611.5113401351973,2175
2613.32138393753,2135
2615.13097222909,2258
2616.940104788084,2132
2618.748781391788,2163
2620.557001816543,2225
2622.364765837763,2089
2624.1720732299264,2195
2625.9789237665814,2104
2627.7853172203445,2145
2629.5912533629,2126
2631.396731965001,2191
2633.2017527964676,2151
2635.0063156261904,2132
2636.810420222126,2170
2638.614066351301,2093
2640.417253779809,2110
2642.219982272813,2081
2644.022251594542,2147
2645.8240615082973,2095
2647.625411776444,2084
2649.4263021604183,2179
2651.226732420724,2141
2653.026702316933,2139
2654.8262116076858,2071
2656.625260050691,2102
2658.423847402724,2113
2660.221973419631,2002
2662.0196378563246,2078
2663.8168404667867,2118
2665.613581004068,2023
2667.4098592202854,2078
2669.2056748666246,2066
2671.0010276933417,2062
2672.7959174497596,2122
2674.5903438842674,2067
2676.384306744327,2039
2678.177805776465,2011
2679.9708407262765,2015
2681.7634113384274,2019
2683.555517356648,2026
2685.3471585237403,2030
2687.138334581574,2057
2688.9290452710843,1983
2690.7192903322784,2065
2692.50906950423,1997
2694.2983825250794,2052
2696.087229132039,2068
2697.875609061386,2048
2699.6635220484677,2068
2701.450967827699,2018
2703.237946132564,2007
2705.0244566956126,2014
2706.8104992484664,2008
2708.596073521813,1984
2710.381179245408,2014
2712.1658161480777,2001
2713.949983957714,2014
2715.7336824012773,1981
2717.516911204798,1975
2719.299670093374,1998
2721.0819587911706,1999
2722.8637770214223,1950
2724.6451245064322,1999
2726.426000967571,2041
2728.2064061252763,1955
2729.986339699057,2080
2731.765801407488,2082
2733.5447909682134,1929
2735.323308097945,1977
2737.101352512463,2017
2738.8789239266166,2009
2740.6560220543215,1994
2742.4326466085645,1961
2744.2087973013977,1936
2745.984473843944,2054
2747.7596759463922,1968
2749.534403318001,1924
2751.308655667096,1943
2753.0824327010737,1950
2754.8557341263954,2053
2756.628559648593,2034
2758.4009089722667,1998
2760.172781801083,2064
2761.944177837779,1967
2763.715096784159,1968
2765.4855383410945,1966
2767.2555022085267,1998
2769.024988085465,2016
2770.793995669988,1960
2772.5625246592385,1980
2774.3305747494323,1922
2776.098145635852,1977
2777.865237012847,1980
2779.6318485738357,1987
2781.397980011306,1970
2783.163631016813,2022
2784.928801280979,1957
2786.6934904934974,2009
2788.457698343127,1918
2790.221424517697,2041
2791.9846687041027,1934
2793.74743058831,2008
2795.5097098553515,1955
2797.2715061893286,1852
2799.0328192734105,1927
2800.793648789836,1955
2802.553994419911,2008
2804.3138558440087,1946
2806.073232741573,2013
2807.8321247911135,1987
2809.590531670211,2031
2811.3484530555115,1980
2813.105888622732,2018
2814.8628380466557,1929
2816.6193010011348,1942
2818.3752771590903,1958
2820.13076619251,1902
2821.885767772452,1952
2823.640281569041,2018
2825.3943072514703,1956
2827.147844488002,2004
2828.9008929459665,2023
2830.6534522917614,1903
2832.405522190854,1961
2834.1571023077786,1913
2835.9081923061394,1967
2837.658791848606,1958
2839.40890059692,1977
2841.1585182118874,1975
2842.907644353386,1946
2844.6562786803593,1934
2846.4044208508203,1953
2848.15207052185,1987
2849.899227349598,1983
2851.6458909892804,1985
2853.392061095185,1959
2855.137737320664,1972
2856.882919318142,2021
2858.6276067391063,1965
2860.371799234118,1983
2862.1154964528037,1931
2863.8586980438586,1936
2865.6014036550464,1961
2867.343612933199,1936
2869.0853255242173,1972
2870.826541073068,1940
2872.567259223789,1965
2874.307479619485,1997
2876.0472019023287,2001
2877.7864257135625,1983
2879.525150693495,2029
2881.263376481505,1891
2883.0011027160385,1921
2884.73832903461,1963
2886.4750550738027,1991
2888.2112804692665,1933
2889.9470048557223,1985
2891.682227866956,1986
2893.416949135825,1912
2895.151168294252,1985
2896.88488497323,1923
2898.6180988028204,1981
2900.3508094121503,1935
2902.083016429419,1904
2903.81471948189,1926
2905.5459181958972,1955
2907.276612196844,1906
2909.0068011091994,1901
2910.736484556502,1984
2912.465662161359,1945
2914.194333545445,1980
2915.922498329504,1967
2917.650156133346,1908
2919.377306575852,1866
2921.103949274969,1881
2922.830083847715,1947
2924.555709910173,1910
2926.2808270774967,1927
2928.005434963907,1942
2929.7295331826936,1886
2931.4531213462133,1982
2933.1761990658924,1923
2934.8987659522254,1895
2936.6208216147747,1942
2938.3423656621694,1905
2940.0633977021116,1953
2941.783917341366,1939
2943.503924185768,1923
2945.223417840223,1985
2946.9423979087023,1934
2948.6608639942456,1978
2950.378815698962,1948
2952.096252624029,1923
2953.81317436969,1893
2955.529580535259,1945
2957.2454707191177,1959
2958.9608445187164,1940
2960.6757015305734,1974
2962.3900413502733,1947
2964.103863572472,1971
2965.817167790894,1943
2967.529953598327,1905
2969.2422205866337,1936
2970.953968346739,1923
2972.6651964686407,1962
2974.3759045414035,1901
2976.0860921531585,1844
2977.7957588911067,1866
2979.504904341517,1938
2981.2135280897273,1929
2982.9216297201433,1988
2984.629208816238,1881
2986.336264960554,1900
2988.0427977347017,1927
2989.7488067193594,1962
2991.454291494274,1946
2993.1592516382607,1897
2994.8636867292034,1917
2996.567596344053,1915
2998.2709800588295,1939
2999.973837448621,1881
3001.6761680875857,1912
3003.377971548946,1928
3005.0792474049954,1973
3006.7799952270957,1908
3008.480214585676,1872
3010.1799050502345,1927
3011.8790661893368,1820
3013.5776975706176,1866
3015.2757987607793,1864
3016.973369325592,1872
3018.6704088298966,1914
3020.366916837598,1950
3022.0628929116747,1799
3023.7583366141675,1875
3025.4532475061915,1872
3027.147625147925,1912
3028.841469098617,1877
3030.534778916585,1937
3032.2275541592144,1937
3033.9197943829577,1938
3035.611499143338,1956
3037.302667994943,1853
3038.9933004914333,1871
3040.683396185535,1934
3042.372954629042,1912
3044.061975372817,1900
3045.7504579667934,1913
3047.4384019599684,1881
3049.1258069004116,1870
3050.812672335258,1838
3052.4989978107124,1844
3054.184782872047,1891
3055.870027063603,1844
3057.554729928791,1870
3059.238891010086,1894
3060.9225098490347,1900
3062.6055859862518,1881
3064.2881189614177,1894
3065.970108313285,1947
3067.651553579671,1897
3069.3324542974633,1937
3071.012810002616,1806
3072.6926202301543,1837
3074.3718845141702,1846
3076.050602387822,1870
3077.728773383339,1875
3079.406397032018,1859
3081.083472864223,1820
3082.7600004093874,1906
3084.4359791960137,1874
3086.11140875167,1834
3087.7862886029952,1858
3089.4606182756943,1851
3091.134397294544,1844
3092.807625183385,1859
3094.4803014651284,1876
3096.152425661755,1894
3097.8239972943097,1900
3099.49501588291,1877
3101.165480946741,1847
3102.8353920040518,1874
3104.504748572165,1874
3106.1735501674693,1869
3107.8417963054226,1912
3109.5094865005485,1880
3111.176620266441,1857
3112.8431971157625,1919
3114.5092165602427,1907
3116.1746781106813,1863
3117.839581276943,1841
3119.503925567965,1846
3121.167710491747,1856
3122.830935555364,1903
3124.493600264954,1857
3126.1557041257247,1910
3127.817246641952,1850
3129.478227316982,1873
3131.1386456532273,1928
3132.798501152168,1867
3134.4577933143537,1919
3136.116521639402,1898
3137.7746856259982,1857
3139.4322847718977,1845
3141.0893185739224,1905
3142.745786527962,1828
3144.4016881289754,1875
3146.0570228709903,1831
3147.711790247102,1878
3149.3659897494754,1919
3151.0196208693396,1929
3152.6726830969974,1827
3154.3251759218165,1829
3155.9770988322334,1815
3157.6284513157534,1869
3159.2792328589485,1881
3160.929442947461,1778
3162.579081066002,1737
3164.2281466983477,1803
3165.8766393273454,1846
3167.5245584349086,1803
3169.1719035020224,1854
3170.818674008735,1806
3172.4648694341677,1859
3174.110489256508,1887
3175.7555329530105,1887
3177.4000000000005,1845
3179.0438898728707,1869
3180.6872020460805,1774
3182.32993599316,1826
3183.972091186706,1878
3185.613667098384,1832
3187.254663198927,1885
3188.8950789581386,1834
3190.5349138448873,1778
3192.1741673271126,1791
3193.8128388718224,1808
3195.4509279450886,1866
3197.0884340120574,1911
3198.725356536939,1891
3200.361694983014,1803
3201.997448812629,1904
3203.632617487203,1793
3205.2672004672195,1846
3206.901197212229,1840
3208.5346071808563,1836
3210.167429830789,1787
3211.799664618785,1823
3213.4313110006706,1838
3215.0623684313387,1759
3216.692836364753,1796
3218.3227142539445,1784
3219.9520015510125,1788
3221.5806977071215,1815
3223.2088021725103,1779
3224.8363143964816,1804
3226.4632338274077,1772
3228.089559912728,1828
3229.715292098951,1798
3231.3404298316545,1813
3232.9649725554846,1773
3234.5889197141523,1777
3236.2122707504395,1863
3237.8350251061984,1795
3239.457182222345,1797
3241.0787415388677,1804
3242.6997024948187,1808
3244.3200645283223,1790
3245.9398270765696,1809
3247.558989575821,1803
3249.177551461403,1829
3250.7955121677123,1800
3252.412871128213,1767
3254.029627775437,1804
3255.6457815409867,1749
3257.2613318555286,1893
3258.876278148802,1823
3260.490619849613,1817
3262.1043563858348,1846
3263.717487184408,1768
3265.3300116713453,1747
3266.941929271725,1763
3268.5532394096917,1747
3270.1639415084646,1767
3271.7740349903233,1774
3273.383519276621,1779
3274.9923937877775,1756
3276.6006579432833,1786
3278.2083111616903,1760
3279.815352860627,1782
3281.421782456786,1813
3283.027599365927,1816
3284.632803002881,1790
3286.237392781545,1760
3287.841368114885,1803
3289.4447284149373,1768
3291.047473092801,1780
3292.649601558651,1704
3294.2511132217223,1721
3295.8520074903254,1743
3297.452283771835,1772
3299.051941472695,1731
3300.650979998417,1730
3302.2493987535827,1739
3303.8471971418403,1795
3305.4443745659064,1733
3307.0409304275654,1742
3308.636864127674,1811
3310.2321750661513,1746
3311.8268626419876,1864
3313.420926253242,1790
3315.01436529704,1778
3316.6071791695776,1795
3318.1993672661183,1760
3319.7909289809913,1718
3321.3818637075983,1770
3322.972170838406,1788
3324.561849764951,1735
3326.150899877838,1742
3327.7393205667386,1780
3329.3271112203956,1735
3330.9142712266166,1725
3332.5007999722793,1770
3334.08669684333,1723
3335.6719612247834,1807
3337.2565925007193,1788
3338.840590054291,1773
3340.4239532677157,1761
3342.006681522281,1798
3343.5887741983406,1800
3345.1702306753214,1792
3346.7510503317126,1834
3348.3312325450743,1804
3349.910776692037,1857
3351.4896821482953,1752
3353.0679482886153,1757
3354.645574486829,1816
3356.2225601158398,1724
3357.798904547615,1728
