CollectionTime,4/2/2024 11:19:58 AM
ExposureUsed,3
CalibratedSpectrum
-994.8464149364308,626
-991.9439705588344,671
-989.042830375826,631
-986.1429931109675,651
-983.2444574887519,678
-980.3472222346043,719
-977.4512860748813,633
-974.5566477368716,638
-971.6633059487953,610
-968.7712594398042,644
-965.8805069399822,636
-962.9910471803447,643
-960.1028788928387,647
-957.2160008103432,670
-954.3304116666687,671
-951.4461101965578,688
-948.5630951356844,638
-945.6813652206545,746
-942.8009191890055,772
-939.9217557792067,770
-937.0438737306594,709
-934.167271783696,685
-931.2919486795813,650
-928.4179031605115,601
-925.5451339696144,692
-922.67363985095,756
-919.8034195495097,731
-916.9344718112166,703
-914.0667953829256,683
-911.2003890124234,744
-908.3352514484286,678
-905.471381440591,692
-902.6087777394928,668
-899.7474390966474,715
-896.8873642645002,741
-894.0285519964284,718
-891.1710010467407,687
-888.3147101706776,662
-885.4596781244115,637
-882.6059036650465,610
-879.7533855506183,595
-876.9021225400943,633
-874.0521133933738,693
-871.2033568712878,663
-868.3558517355991,705
-865.509596749002,761
-862.6645906751228,797
-859.8208322785192,778
-856.9783203246812,754
-854.1370535800299,694
-851.2970308119186,687
-848.4582507886321,690
-845.620712279387,693
-842.7844140543316,676
-839.9493548845461,674
-837.1155335420422,673
-834.2829487997635,669
-831.4515994315852,694
-828.6214842123144,748
-825.7926019176898,791
-822.9649513243819,682
-820.138531209993,666
-817.3133403530569,759
-814.4893775330396,726
-811.6666415303382,701
-808.845131126282,684
-806.0248451031321,690
-803.2057822440808,633
-800.3879413332527,709
-797.5713211557038,754
-794.755920497422,784
-791.941738145327,747
-789.1287728872701,726
-786.3170235120342,780
-783.5064888093341,723
-780.6971675698165,661
-777.8890585850597,658
-775.0821606475735,740
-772.2764725507997,736
-769.4719930891118,736
-766.6687210578151,679
-763.8666552531465,870
-761.0657944722747,961
-758.2661375133,915
-755.4676831752547,806
-752.6704302581027,750
-749.8743775627395,746
-747.0795238909925,731
-744.285868045621,757
-741.4934088303156,721
-738.702145049699,745
-735.9120755093254,810
-733.123199015681,933
-730.3355143761836,958
-727.5490203991826,836
-724.7637158939592,747
-721.9795996707265,747
-719.1966705406293,669
-716.4149273157439,713
-713.6343688090786,731
-710.8549938345734,707
-708.0768012070998,730
-705.2997897424614,773
-702.5239582573931,756
-699.7493055695622,774
-696.9758304975669,755
-694.2035318609377,730
-691.4324084801367,727
-688.6624591765578,762
-685.8936827725265,760
-683.1260780913001,798
-680.3596439570675,767
-677.5943791949499,792
-674.8302826309991,761
-672.0673530922,705
-669.3055894064685,756
-666.5449904026519,829
-663.78555491053,786
-661.0272817608139,731
-658.2701697851465,802
-655.5142178161026,809
-652.7594246871884,756
-650.0057892328422,739
-647.2533102884337,721
-644.5019866902646,758
-641.7518172755683,800
-639.0028008825099,764
-636.254936350186,838
-633.5082225186254,830
-630.7626582287882,792
-628.0182423225665,780
-625.2749736427841,812
-622.5328510331965,823
-619.7918733384909,852
-617.0520394042862,845
-614.3133480771331,845
-611.5757982045143,927
-608.8393886348437,981
-606.1041182174672,1005
-603.3699858026625,919
-600.6369902416393,910
-597.9051303865383,869
-595.1744050904326,944
-592.4448132073267,952
-589.7163535921568,1004
-586.9890251007912,900
-584.2628265900296,821
-581.5377569176036,907
-578.8138149421764,900
-576.090999523343,885
-573.3693095216302,856
-570.6487437984965,911
-567.9293012163321,901
-565.210980638459,975
-562.4937809291307,940
-559.7777009535329,911
-557.0627395777825,906
-554.3488956689287,899
-551.6361680949519,954
-548.9245557247644,1025
-546.2140574282107,1049
-543.5046720760662,1108
-540.7963985400388,1073
-538.0892356927677,1081
-535.3831824078238,1111
-532.6782375597103,1194
-529.9744000238613,1306
-527.2716686766433,1363
-524.5700423953542,1520
-521.8695200582238,1477
-519.1701005444136,1400
-516.4717827340166,1543
-513.7745655080581,1702
-511.0784477484944,1876
-508.38342833821423,1829
-505.68950616103757,1818
-502.9966801017163,1745
-500.3049490459341,1744
-497.61431188030633,1594
-494.9247674923801,1387
-492.2363147706342,1215
-489.54895260447927,1148
-486.86267988425755,1183
-484.1774955012431,1239
-481.4933983476417,1300
-478.8103873165908,1182
-476.1284613021596,1078
-473.44761919934945,1093
-470.7678599040928,1091
-468.089182313254,1163
-465.4115853246294,1170
-462.735067836947,1223
-460.0596287498663,1268
-457.3852669639789,1086
-454.71198138080774,1007
-452.03977090280773,992
-449.3686344333656,1030
-446.69857087679964,1087
-444.02957913835996,1148
-441.36165812422837,1164
-438.6948067415183,1202
-436.0290238982752,1113
-433.36430850347597,1115
-430.7006594670296,1166
-428.0380756997763,1172
-425.3765561134885,1242
-422.7160996208702,1117
-420.0567051355571,1253
-417.3983715721164,1151
-414.7410978460475,1107
-412.08488287378145,1128
-409.4297255726806,1130
-406.77562486103955,1114
-404.1225796580843,1079
-401.4705888839728,990
-398.8196514597947,854
-396.1697663075713,967
-393.5209323502555,950
-390.8731485117323,804
-388.22641371681823,837
-385.5807268912615,995
-382.93608696174226,941
-380.29249285587207,776
-377.64994350219456,682
-375.0084378301849,731
-372.36797477025016,769
-369.7285532537287,815
-367.0901722128914,796
-364.45283058094014,761
-361.8165272920089,802
-359.1812612811634,726
-356.54703148440103,625
-353.9138368386507,660
-351.28167628177346,752
-348.6505487525617,886
-346.02045319074,812
-343.3913885369643,754
-340.76335373282245,842
-338.1363477208339,762
-335.5103694444499,819
-332.8854178480535,801
-330.26149187695944,788
-327.63859047741425,764
-325.016712596596,664
-322.3958571826148,641
-319.77602318451227,736
-317.15720955226186,790
-314.5394152367686,791
-311.9226391898695,793
-309.3068803643333,776
-306.69213771386023,875
-304.0784101930824,1046
-301.4656967575635,1079
-298.8539963637994,967
-296.2433079692172,954
-293.6336305321761,933
-291.02496301196675,899
-288.41730436881176,999
-285.81065356386534,941
-283.2050095592135,878
-280.60037131787396,1164
-277.9967378037961,1508
-275.39410798186134,1146
-272.7924808178824,1234
-270.19185527860407,1222
-267.5922303317028,1075
-264.9936049457866,1141
-262.3959780903955,1095
-259.79934873600087,1123
-257.2037158540064,1244
-254.6090784167469,1252
-252.01543539748934,1330
-249.42278577043237,1135
-246.8311285107061,996
-244.24046259437262,965
-241.6507869984256,1036
-239.0621007007909,1174
-236.4744026803254,1247
-233.88769191681808,1237
-231.30196739098994,1132
-228.7172280844934,1045
-226.13347297991243,1151
-223.550701060763,1246
-220.9689113114929,1152
-218.3881027174814,1060
-215.8082742650397,1100
-213.22942494141068,1401
-210.65155373476898,1867
-208.07465963422078,1777
-205.49874162980439,1620
-202.92379871248932,1713
-200.34982987417743,1650
-197.7768341077018,1410
-195.20481040682762,1241
-192.63375776625162,1050
-190.0636751816021,1226
-187.49456164943945,1313
-184.92641616725564,1601
-182.3592377334743,1526
-179.79302534745102,1385
-177.2277780094729,1682
-174.66349472075865,1690
-172.10017448345923,1767
-169.5378163006569,1490
-166.97641917636565,1398
-164.41598211553162,1650
-161.8565041240322,1941
-159.29798420867678,1851
-156.74042137720642,1765
-154.18381463829382,1617
-151.6281630015436,1493
-149.07346547749228,1514
-146.51972107760753,1292
-143.96692881428908,1485
-141.41508770086864,1842
-138.86419675160937,1821
-136.31425498170609,1804
-133.7652614072856,1863
-131.21721504540642,2087
-128.67011491405844,2094
-126.12396003216395,2557
-123.57874941957618,2925
-121.03448209708074,2651
-118.49115708639465,2523
-115.94877341016684,2649
-113.40733009197788,2806
-110.86682615633993,3017
-108.32726062869733,2939
-105.78863253542556,3426
-103.25094090383243,4721
-100.71418476215695,4616
-98.17836313957025,4192
-95.64347506617503,3135
-93.10951957300585,2879
-90.57649569202886,3245
-88.04440245614194,3591
-85.51323889917478,3777
-82.98300405588896,4934
-80.45369696197747,6265
-77.925316654065,9538
-75.39786216970867,13121
-72.87133254739649,16525
-70.34572682654857,19301
-67.82104404751692,22756
-65.29728325158499,25928
-62.774443480968216,27662
-60.252523778813384,28358
-57.73152318919938,26373
-55.21144075713676,28899
-52.69227552856796,27147
-50.17402655036665,24945
-47.65669287033859,23585
-45.14027353722133,22238
-42.624767600684095,23024
-40.11017411132775,22320
-37.59649212068507,24300
-35.08372068122037,27050
-32.57185884632963,26983
-30.06090567034107,32124
-27.550860208513996,37399
-25.04172151704006,48050
-22.533488653042014,65042
-20.02616067457484,65042
-17.51973664062507,65042
-15.014215611111126,65042
-12.509596646882983,65042
-10.005878809722162,65042
-7.503061162342419,65042
-5.001142768389059,65042
-2.5001226924387083,65042
-3.410605131648481E-13,65042
2.49922624248552,65042
4.997556967646801,65042
7.494993107179766,65042
9.99153559184856,65042
12.487185351485778,65042
14.98194331499235,65042
17.475810410337544,65042
19.96878756455851,65042
22.46087570376085,65042
24.952075753118834,30109
27.442388636874625,8435
29.93181527833849,7026
32.42035659988892,6901
34.90801352297353,10437
37.39478696810693,10467
39.880677854873056,8855
42.36568710192364,7013
44.8498156269784,8154
47.33306434682618,7460
49.815434177322686,7115
52.296926033393675,7122
54.77754082903198,7095
57.25727947729865,8261
59.736142890323435,8281
62.214131979304284,5446
64.6912476545076,3852
67.16749082526735,3489
69.64286239998614,2911
72.11736328613551,3917
74.59099439025431,4652
77.06375661794982,4829
79.53565087389825,3979
82.0066780618431,3655
84.4768390845968,3529
86.94613484403999,3514
89.41456624112152,5091
91.88213417585825,4954
94.34883954733527,3166
96.81468325370679,2986
99.2796661921941,2277
101.74378925908763,2563
104.20705334974559,2979
106.66945935859462,3249
109.1310081791296,3618
111.59170070391383,4236
114.05153782457865,3975
116.5105204318238,2549
118.96864941541708,2796
121.42592566419489,3650
123.88235006606146,3781
126.3379235079899,3066
128.79264687602085,2810
131.2465210552641,2777
133.69954692989631,2649
136.15172538316415,2625
138.60305729738116,2435
141.05354355393,2250
143.50318503326116,2381
145.95198261489327,2613
148.39993717741368,2741
150.84704959847772,3232
153.29332075480897,3271
155.73875152219944,3235
158.18334277550935,3274
160.62709538866693,3110
163.0700102346691,2947
165.51208818558075,2884
167.953330112535,2972
170.39373688573346,2810
172.8333093744459,2812
175.2720484470101,3185
177.70995497083277,3290
180.14702981238815,3424
182.58327383721917,3143
185.01868790993672,3261
187.45327289422062,3073
189.88702965281777,2964
192.31995904754444,3036
194.75206193928489,3319
197.18333918799135,3234
199.61379165268454,3087
202.04342019145315,2959
204.4722256614548,3043
206.90020891891436,3210
209.32737081912592,3162
211.7537122164515,2954
214.17923396432116,2998
216.6039369152336,3140
219.0278219207553,3125
221.45088983152186,3032
223.8731414972358,3035
226.29457776666914,3041
228.71519948766172,2841
231.1350075071216,3093
233.55400267102482,3159
235.97218582441633,3175
238.38955781140908,3003
240.806119475184,3023
243.2218716579905,3110
245.6368152011462,2999
248.05095094503736,3097
250.46427972911806,3095
252.87680239191036,3126
255.28851977100544,3212
257.69943270306203,3294
260.10954202380753,2955
262.5188485680378,2865
264.92735316961557,3126
267.33505666147425,3089
269.7419598756128,2950
272.14806364310084,3138
274.5533687940747,3048
276.95787615773975,2973
279.361586562369,2980
281.7645008353045,2768
284.1666198029559,2801
286.5679442908013,2815
288.96847512338695,2888
291.3682131243279,2955
293.7671591163071,2945
296.1653139210757,2915
298.562678359453,2914
300.9592532513268,3030
303.3550394156532,3071
305.75003767045655,2811
308.14424883282936,2962
310.53767371893196,2900
312.93031314399377,2785
315.3221679223125,2621
317.71323886725304,2624
320.1035267912496,2704
322.49303250580397,2675
324.881756821487,2645
327.2697005479374,2621
329.65686449386135,2658
332.0432494670347,2634
334.4288562743004,2678
336.81368572157066,2673
339.19773861382487,2471
341.58101575511205,2551
343.96351794854786,2598
346.3452459963173,2447
348.72620069967365,2598
351.1063828589379,2547
353.48579327349967,2631
355.8644327418169,2636
358.24230206141533,2522
360.6194020288899,2403
362.99573343990255,2392
365.3712970891845,2325
367.7460937705348,2302
370.12012427682066,2402
372.493389399978,2417
374.86588993101077,2360
377.23762665999084,2353
379.6086003760588,2350
381.9788118674235,2358
384.34826192136165,2366
386.7169513242188,2346
389.08488086140824,2356
391.4520513174118,2411
393.8184634757795,2446
396.1841181191296,2528
398.54901602914856,2548
400.9131579865916,2439
403.2765447712811,2403
405.63917716210926,2391
408.00105593703483,2395
410.36218187308646,2416
412.7225557463596,2256
415.0821783320191,2283
417.4410504042976,2324
419.79917273649585,2219
422.1565461009834,2350
424.5131712691973,2384
426.869049011643,2333
429.22418009789544,2349
431.578565296596,2168
433.9322053754556,2139
436.28510110125285,2191
438.6372532398352,2255
440.98866255611733,2151
443.33932981408293,2196
445.6892557767842,2223
448.0384412063411,2181
450.38688686394175,2290
452.7345935098431,2345
455.0815619033697,2256
457.42779280291506,2217
459.7732869659403,2373
462.1180451489754,2315
464.4620681076178,2321
466.80535659653424,2144
469.1479113694588,2355
471.48973317919445,2313
473.8308227776122,2224
476.17118091565135,2372
478.51080834331924,2445
480.8497058096914,2440
483.1878740629122,2586
485.5253138501944,2550
487.8620259178176,2568
490.1980110111317,2844
492.53326987455307,3000
494.86780325156724,3097
497.201611884728,3294
499.53469651565683,3748
501.8670578850447,3844
504.1986967326493,3930
506.52961379729754,3873
508.85980981688454,3618
511.18928552837315,3527
513.5180416677952,3287
515.8460789702503,3326
518.1733981699067,3825
520.5,4572
522.8258851928354,4743
525.1510544797857,4447
527.4755085912916,4008
529.7992482568625,3539
532.1222742050759,2923
534.4445871635783,2480
536.766187859083,2227
539.0870770173726,2209
541.4072553632982,2149
543.7267236207783,2157
546.0454825128002,2148
548.363532761419,2211
550.6808750877592,2315
552.9975102120118,2224
555.3134388534377,2164
557.6286617303654,2150
559.9431795601911,1974
562.2569930593802,2095
564.570102943466,2192
566.88250992705,2216
569.1942147238021,2090
571.5052180464602,2102
573.8155206068309,2222
576.1251231157885,2208
578.4340262832759,2240
580.7422308183045,2165
583.0497374289534,2090
585.3565468223703,2040
587.6626597047714,2069
589.9680767814409,2023
592.2727987567309,2023
594.5768263340624,2051
596.8801602159238,2107
599.1828011038731,2064
601.4847496985356,2123
603.7860066996047,2126
606.0865728058427,2075
608.3864487150802,1924
610.6856351242152,1971
612.9841327292149,2026
615.2819422251141,2024
617.5790643060163,2029
619.8754996650935,1964
622.1712489945849,1958
624.466312985799,2065
626.7606923291121,2049
629.0543877139692,2036
631.347399828883,2090
633.6397293614343,2062
635.9313769982732,2138
638.2223434251173,2072
640.5126293267522,2023
642.8022353870326,2098
645.0911622888809,2022
647.3794107142876,2061
649.666981344312,2072
651.9538748590815,2093
654.2400919377915,2074
656.525633258706,2216
658.8104994991568,2168
661.0946913355442,2088
663.3782094433375,2118
665.6610544970729,2152
667.9432271703561,2145
670.22472813586,2216
672.5055580653268,2157
674.7857176295659,2152
677.065207498456,2067
679.3440283409432,2091
681.6221808250425,2102
683.899665617837,2092
686.1764833854772,2068
688.4526347931837,2138
690.7281205052436,2088
693.0029411850135,2048
695.2770974949171,2086
697.5505900964474,2160
699.8234196501651,2067
702.0955868156989,1996
704.3670922517472,2064
706.6379366160747,2060
708.9081205655159,2086
711.1776447559728,2092
713.4465098424155,2054
715.714716478883,2146
717.9822653184822,2064
720.2491570133882,2121
722.5153922148452,2074
724.7809715731639,2062
727.0458957377248,2069
729.3101653569763,2040
731.5737810784346,2036
733.8367435486853,2055
736.0990534133803,2011
738.3607113172418,2023
740.6217179040591,2093
742.8820738166899,2135
745.1417796970607,2100
747.4008361861659,2078
749.6592439240678,2166
751.9170035498973,2147
754.1741157018539,2201
756.4305810172048,2245
758.686400132286,2162
760.9415736825013,2144
763.196102302323,2165
765.4499866252911,2180
767.7032272840152,2293
769.9558249101717,2174
772.207780134506,2161
774.4590935868323,2193
776.7097658960313,2294
778.9597976900541,2296
781.2091895959184,2170
783.457942239711,2124
785.7060562465867,2140
787.9535322407687,2169
790.2003708455488,2139
792.4465726832861,2229
794.6921383754088,2241
796.9370685424128,2296
799.1813638038632,2233
801.4250247783918,2218
803.6680520837006,2217
805.9104463365579,2134
808.1522081528019,2191
810.393338147338,2219
812.6338369341406,2119
814.8737051262517,2091
817.1129433357819,2099
819.35155217391,2133
821.5895322508834,2134
823.8268841760168,2070
826.0636085576946,2184
828.2997060033681,2135
830.535177119558,2142
832.7700225118522,2073
835.0042427849078,2088
837.2378385424493,2142
839.4708103872701,2092
841.7031589212318,2031
843.9348847452643,2101
846.1659884593648,2156
848.3964706626004,2141
850.6263319531054,2160
852.8555729280824,2109
855.0841941838025,2133
857.3121963156052,2120
859.5395799178978,2096
861.7663455841566,2188
863.9924939069251,2156
866.2180254778159,2218
868.4429408875103,2097
870.6672407257561,2133
872.890925581371,2173
875.1139960422404,2106
877.336452695318,2151
879.5582961266261,2175
881.7795269212543,2169
884.0001456633613,2187
886.2201529361741,2270
888.4395493219874,2151
890.6583354021648,2278
892.8765117571375,2223
895.094078966405,2123
897.3110376085365,2182
899.5273882611671,2302
901.7431315010019,2083
903.958267903814,2149
906.1727980444443,2163
908.3867224968019,2120
910.6000418338647,2183
912.8127566276792,2199
915.0248674493587,2205
917.2363748690857,2189
919.4472794561113,2094
921.6575817787543,2105
923.867282404402,2018
926.0763818995099,1999
928.2848808296014,2032
930.4927797592693,2104
932.700079252173,2094
934.9067798710416,2089
937.112882177672,2119
939.3183867329287,1994
941.5232940967453,2022
943.727604828124,2072
945.9313194851336,2107
948.1344386249132,2147
950.3369628036685,2113
952.5388925766747,2073
954.7402284982745,2000
956.9409711218789,2013
959.1411209999676,2044
961.3406786840883,2046
963.5396447248565,1992
965.7380196719573,1981
967.9358040741427,2129
970.1329984792335,2060
972.3296034341188,1987
974.5256194847555,1931
976.72104717617,1958
978.9158870524552,2007
981.1101396567742,1989
983.3038055313566,1969
985.4968852175009,1963
987.6893792555747,1963
989.8812881850124,1919
992.072612544318,1933
994.263352871063,1898
996.453509701887,1948
998.6430835724984,1938
1000.832075017674,1863
1003.0204845712583,1809
1005.208312766164,1885
1007.3955601343728,1776
1009.5822272069338,1846
1011.7683145139652,1764
1013.9538225846525,1723
1016.1387519472505,1794
1018.3231031290818,1812
1020.5068766565371,1760
1022.6900730550753,1824
1024.872692849224,1888
1027.054736562579,1767
1029.2362047178037,1730
1031.4170978366305,1774
1033.5974164398597,1820
1035.7771610473603,1782
1037.9563321780693,1766
1040.1349303499917,1713
1042.3129560802006,1662
1044.490409884838,1666
1046.667292279115,1689
1048.8436037773079,1654
1051.0193448927644,1693
1053.1945161378994,1648
1055.3691180241954,1735
1057.5431510622038,1715
1059.7166157615447,1715
1061.8895126309053,1699
1064.0618421780423,1692
1066.2336049097798,1776
1068.4048013320107,1674
1070.5754319496955,1666
1072.745497266863,1682
1074.9149977866118,1613
1077.0839340111065,1651
1079.2523064415818,1714
1081.4201155783398,1632
1083.587361920751,1633
1085.7540459672537,1667
1087.9201682153553,1591
1090.0857291616308,1623
1092.2507293017238,1625
1094.4151691303464,1576
1096.579049141279,1674
1098.7423698273687,1617
1100.9051316805335,1597
1103.0673351917571,1620
1105.2289808510936,1592
1107.3900691476633,1597
1109.550600569657,1662
1111.710575604332,1662
1113.8699947380146,1562
1116.028858456099,1598
1118.1871672430489,1600
1120.344921582394,1595
1122.5021219567334,1625
1124.6587688477362,1589
1126.8148627361365,1662
1128.9704041017399,1659
1131.1253934234173,1643
1133.2798311791098,1647
1135.4337178458263,1650
1137.5870538996437,1613
1139.7398398157075,1582
1141.8920760682313,1560
1144.0437631304972,1594
1146.1949014748543,1625
1148.3454915727225,1577
1150.4955338945874,1572
1152.6450289100044,1618
1154.7939770875969,1533
1156.9423788950558,1613
1159.0902347991405,1566
1161.2375452656802,1566
1163.3843107595703,1589
1165.530531744775,1709
1167.6762086843282,1614
1169.8213420403304,1521
1171.9659322739503,1578
1174.1099798454266,1602
1176.2534852140639,1559
1178.3964488382376,1616
1180.538871175389,1620
1182.680752682029,1600
1184.8220938137365,1579
1186.9628950251595,1601
1189.103156770012,1624
1191.2428795010783,1604
1193.3820636702108,1553
1195.5207097283287,1531
1197.6588181254215,1564
1199.7963893105457,1609
1201.9334237318253,1590
1204.0699218364548,1532
1206.2058840706954,1606
1208.3413108798773,1568
1210.476202708397,1572
1212.6105599997222,1558
1214.7443831963874,1525
1216.877672739995,1550
1219.0104290712165,1592
1221.1426526297905,1658
1223.2743438545253,1601
1225.4055031832972,1500
1227.5361310530493,1539
1229.6662278997946,1595
1231.7957941586142,1589
1233.9248302636565,1526
1236.053336648139,1582
1238.1813137443464,1590
1240.3087619836338,1602
1242.4356817964222,1591
1244.5620736122019,1587
1246.6879378595318,1606
1248.813274966039,1595
1250.938085358418,1506
1253.062369462432,1545
1255.186127702913,1596
1257.3093605037611,1533
1259.4320682879434,1565
1261.554251477498,1618
1263.6759104935277,1571
1265.797045756206,1618
1267.9176576847744,1614
1270.0377466975428,1688
1272.1573132118879,1605
1274.2763576442567,1574
1276.394880410162,1676
1278.5128819241877,1606
1280.6303625999835,1643
1282.7473228502695,1599
1284.8637630868325,1601
1286.9796837205272,1612
1289.0950851612783,1653
1291.209967818078,1666
1293.3243320989864,1620
1295.4381784111324,1665
1297.551507160712,1675
1299.6643187529912,1695
1301.776613592303,1643
1303.888392082049,1645
1305.9996546246998,1662
1308.1104016217923,1712
1310.220633473934,1698
1312.3303505807999,1735
1314.4395533411316,1690
1316.5482421527418,1700
1318.6564174125092,1654
1320.7640795163816,1705
1322.8712288593752,1614
1324.9778658355744,1750
1327.0839908381313,1619
1329.1896042592675,1699
1331.2947064902714,1623
1333.3992979215009,1730
1335.503378942381,1709
1337.6069499414057,1633
1339.7100113061383,1690
1341.8125634232074,1653
1343.9146066783128,1596
1346.0161414562212,1693
1348.1171681407677,1664
1350.2176871148563,1590
1352.3176987604575,1710
1354.4172034586127,1639
1356.5162015894289,1646
1358.6146935320835,1632
1360.7126796648213,1666
1362.8101603649548,1683
1364.9071360088656,1656
1367.0036069720036,1589
1369.099573628886,1593
1371.195036353099,1596
1373.2899955172975,1648
1375.3844514932039,1652
1377.4784046516088,1594
1379.5718553623715,1639
1381.6648039944193,1583
1383.7572509157485,1651
1385.8491964934224,1669
1387.9406410935735,1688
1390.0315850814022,1609
1392.122028821177,1614
1394.2119726762357,1670
1396.3014170089828,1583
1398.3903621808918,1622
1400.4788085525051,1624
1402.566756483432,1608
1404.6542063323514,1638
1406.7411584570095,1622
1408.8276132142219,1717
1410.9135709598704,1646
1412.9990320489078,1640
1415.083996835353,1626
1417.1684656722937,1622
1419.2524389118867,1658
1421.3359169053565,1621
1423.4189000029946,1569
1425.5013885541634,1644
1427.5833829072913,1642
1429.664883409876,1617
1431.7458904084833,1612
1433.8264042487467,1643
1435.9064252753697,1672
1437.9859538321216,1639
1440.0649902618416,1766
1442.1435349064373,1678
1444.2215881068837,1655
1446.2991502032237,1688
1448.37622153457,1745
1450.452802439103,1712
1452.5288932540698,1701
1454.604494315788,1778
1456.6796059596427,1714
1458.7542285200866,1655
1460.8283623306415,1755
1462.902007723897,1718
1464.9751650315106,1772
1467.0478345842089,1715
1469.1200167117868,1725
1471.1917117431062,1687
1473.2629200060992,1758
1475.333641827764,1771
1477.4038775341692,1700
1479.4736274504498,1763
1481.5428919008104,1810
1483.6116712085222,1803
1485.6799656959279,1795
1487.7477756844346,1805
1489.8151014945201,1800
1491.88194344573,1854
1493.9483018566775,1819
1496.0141770450455,1862
1498.0795693275822,1845
1500.1444790201076,1857
1502.2089064375086,1894
1504.2728518937402,1904
1506.3363157018239,1978
1508.3992981738534,1951
1510.4617996209872,1967
1512.5238203534536,1960
1514.5853606805495,1999
1516.6464209106384,2032
1518.7070013511543,2059
1520.7671023085973,2130
1522.8267240885375,2033
1524.885866995612,2125
1526.9445313335268,2150
1529.002717405056,2227
1531.0604255120425,2271
1533.1176559553965,2303
1535.1744090350971,2331
1537.2306850501914,2388
1539.2864842987956,2388
1541.3418070780922,2402
1543.396653684334,2354
1545.4510244128405,2422
1547.5049195580013,2544
1549.5583394132727,2556
1551.61128427118,2548
1553.6637544233158,2556
1555.7157501603415,2732
1557.7672717719888,2702
1559.8183195470538,2801
1561.8688937734037,2778
1563.9189947379737,2894
1565.9686227267657,2882
1568.0177780248514,2892
1570.0664609163696,2821
1572.1146716845292,2805
1574.162410611605,2707
1576.2096779789413,2638
1578.2564740669518,2530
1580.3027991551157,2390
1582.3486535219831,2280
1584.3940374451709,2279
1586.4389512013645,2206
1588.4833950663178,2123
1590.5273693148533,1978
1592.5708742208603,2012
1594.6139100572982,1985
1596.6564770961936,1984
1598.698575608642,1914
1600.7402058648063,1910
1602.7813681339185,1837
1604.8220626842776,1836
1606.8622897832533,1816
1608.9020496972812,1792
1610.9413426918663,1832
1612.9801690315808,1780
1615.018528980066,1821
1617.056422800033,1800
1619.0938507532578,1739
1621.1308131005876,1777
1623.1673101019355,1720
1625.2033420162848,1724
1627.2389091016862,1717
1629.274011615259,1648
1631.3086498131897,1722
1633.3428239507352,1757
1635.376534282219,1679
1637.4097810610324,1649
1639.4425645396364,1705
1641.4748849695593,1694
1643.5067426013989,1647
1645.53813768482,1619
1647.5690704685549,1658
1649.5995412004067,1705
1651.6295501272452,1613
1653.6590974950086,1721
1655.6881835487025,1708
1657.7168085324029,1645
1659.7449726892523,1633
1661.772676261462,1680
1663.7999194903114,1615
1665.8267026161484,1637
1667.8530258783894,1653
1669.8788895155185,1640
1671.9042937650888,1652
1673.9292388637205,1670
1675.953725047103,1638
1677.977752549994,1611
1680.0013216062184,1607
1682.0244324486712,1630
1684.0470853093134,1654
1686.0692804191767,1653
1688.0910180083588,1642
1690.1122983060268,1662
1692.1331215404175,1600
1694.1534879388319,1646
1696.173397727644,1666
1698.1928511322926,1596
1700.211848377286,1669
1702.2303896862018,1666
1704.248475281684,1766
1706.2661053854458,1669
1708.2832802182684,1655
1710.300000000002,1639
1712.3162649495644,1751
1714.3320752849409,1639
1716.3474312231865,1603
1718.362332980424,1626
1720.376780771845,1679
1722.3907748117072,1667
1724.4043153133393,1592
1726.4174024891367,1669
1728.4300365505628,1628
1730.442217708151,1668
1732.4539461715008,1632
1734.465222149282,1677
1736.4760458492306,1640
1738.4864174781524,1665
1740.496337241921,1622
1742.5058053454786,1618
1744.5148219928346,1580
1746.523387387068,1619
1748.531501730325,1609
1750.5391652238209,1662
1752.5463780678388,1607
1754.55314046173,1678
1756.5594526039135,1638
1758.565314691879,1577
1760.5707269221812,1565
1762.5756894904443,1598
1764.580202591363,1652
1766.5842664186966,1636
1768.5878811652751,1632
1770.591047022996,1609
1772.593764182825,1629
1774.5960328347965,1630
1776.5978531680116,1601
1778.5992253706427,1629
1780.6001496299273,1649
1782.6006261321731,1557
1784.6006550627553,1600
1786.6002366061175,1639
1788.5993709457725,1663
1790.5980582642992,1708
1792.5962987433468,1599
1794.5940925636314,1675
1796.5914399049389,1602
1798.5883409461221,1661
1800.584795865102,1576
1802.580804838869,1578
1804.5763680434807,1671
1806.571485654064,1582
1808.566157844813,1679
1810.5603847889902,1670
1812.5541666589274,1628
1814.5475036260236,1620
1816.5403958607467,1546
1818.5328435326323,1631
1820.5248468102845,1585
1822.5164058613755,1624
1824.5075208526468,1623
1826.4981919499064,1603
1828.488419318032,1652
1830.4782031209684,1670
1832.4675435217305,1638
1834.4564406823993,1617
1836.4448947641258,1612
1838.432905927128,1629
1840.4204743306927,1662
1842.4076001331746,1666
1844.3942834919985,1599
1846.380524563654,1591
1848.366323503702,1670
1850.351680466771,1598
1852.3365956065563,1614
1854.3210690758228,1582
1856.3051010264044,1607
1858.2886916092007,1568
1860.271840974182,1617
1862.2545492703862,1579
1864.2368166459191,1735
1866.2186432479543,1616
1868.2000292227349,1694
1870.1809747155717,1653
1872.1614798708429,1660
1874.1415448319963,1688
1876.1211697415474,1603
1878.1003547410805,1590
1880.0790999712472,1683
1882.0574055717675,1699
1884.0352716814305,1657
1886.0126984380927,1656
1887.989685978679,1643
1889.9662344391836,1589
1891.9423439546672,1667
1893.9180146592607,1536
1895.893246686161,1670
1897.868040167636,1629
1899.8423952350195,1633
1901.8163120187137,1611
1903.7897906481917,1621
1905.7628312519923,1528
1907.7354339577219,1656
1909.7075988920578,1703
1911.6793261807447,1631
1913.6506159485943,1670
1915.6214683194871,1693
1917.5918834163726,1645
1919.5618613612687,1685
1921.5314022752605,1589
1923.5005062785012,1579
1925.4691734902144,1650
1927.4374040286893,1687
1929.4051980112845,1735
1931.3725555544274,1673
1933.3394767736136,1605
1935.305961783406,1689
1937.2720106974361,1671
1939.237623628404,1650
1941.2028006880778,1653
1943.167541987295,1707
1945.1318476359588,1683
1947.0957177430432,1640
1949.0591524165898,1676
1951.0221517637078,1631
1952.984715890574,1605
1954.9468449024357,1658
1956.9085389036072,1658
1958.8697979974704,1670
1960.8306222864767,1681
1962.7910118721456,1620
1964.7509668550638,1667
1966.7104873348871,1681
1968.6695734103387,1626
1970.6282251792127,1706
1972.586442738368,1659
1974.5442261837343,1605
1976.501575610307,1601
1978.4584911121533,1696
1980.4149727824056,1667
1982.3710207132658,1649
1984.326634996004,1653
1986.2818157209585,1678
1988.2365629775359,1715
1990.1908768542116,1685
1992.144757438527,1659
1994.0982048170954,1628
1996.0512190755953,1710
1998.0038002987749,1678
1999.95594857045,1721
2001.9076639735054,1640
2003.8589465898945,1635
2005.8097965006368,1651
2007.760213785822,1656
2009.7101985246077,1680
2011.6597507952201,1627
2013.6088706749524,1657
2015.5575582401675,1629
2017.5058135662953,1620
2019.4536367278351,1610
2021.4010277983534,1628
2023.347986850486,1622
2025.2945139559365,1606
2027.2406091854768,1650
2029.1862726089462,1712
2031.1315042952538,1714
2033.0763043123766,1636
2035.0206727273585,1657
2036.964609606313,1682
2038.908115014422,1673
2040.8511890159348,1668
2042.7938316741693,1684
2044.7360430515123,1656
2046.677823209417,1666
2048.6191722084077,1622
2050.5600901080743,1667
2052.5005769670765,1665
2054.440632843142,1612
2056.380257793066,1614
2058.3194518727128,1619
2060.258215137015,1692
2062.1965476399732,1706
2064.1344494346554,1683
2066.0719205732,1638
2068.008961106812,1691
2069.945571085764,1674
2071.8817505593997,1645
2073.817499576128,1580
2075.7528181834273,1658
2077.6877064278447,1621
2079.622164354995,1646
2081.556192009562,1662
2083.4897894352966,1604
2085.4229566750187,1637
2087.355693770616,1653
2089.2880007630456,1599
2091.219877692331,1535
2093.151324597566,1642
2095.0823415169107,1661
2097.012928487595,1608
2098.9430855459173,1670
2100.872812727242,1652
2102.8021100660035,1628
2104.730977595705,1730
2106.659415348917,1625
2108.5874233572777,1655
2110.5150016514945,1683
2112.442150261343,1671
2114.3688692156675,1740
2116.2951585423793,1616
2118.2210182684585,1655
2120.146448419954,1632
2122.0714490219825,1637
2123.9960200987293,1697
2125.920161673447,1692
2127.843873768458,1659
2129.767156405151,1666
2131.690009603985,1603
2133.612433384486,1626
2135.534427765249,1665
2137.4559927639366,1605
2139.37712839728,1621
2141.2978346810783,1617
2143.2181116301995,1635
2145.1379592585795,1593
2147.057377579222,1674
2148.9763666042,1659
2150.894926344655,1666
2152.813056810794,1683
2154.730758011896,1661
2156.648029956306,1661
2158.564872651437,1720
2160.481286103772,1631
2162.397270318861,1593
2164.312825301323,1638
2166.227951054844,1610
2168.14264758218,1594
2170.056914885153,1579
2171.9707529646566,1690
2173.8841618206484,1645
2175.7971414521585,1670
2177.7096918572825,1603
2179.621813033186,1634
2181.5335049761,1681
2183.444767681327,1691
2185.355601143236,1616
2187.2660053552654,1650
2189.1759803099208,1702
2191.085525998777,1647
2192.994642412475,1667
2194.903329540727,1667
2196.811587372312,1617
2198.7194158950765,1699
2200.626815095937,1673
2202.5337849608763,1678
2204.440325474948,1735
2206.346436622271,1680
2208.2521183860345,1668
2210.157370748496,1666
2212.0621936909793,1690
2213.966587193879,1774
2215.8705512366573,1663
2217.774085797842,1678
2219.677190855033,1713
2221.579866384897,1713
2223.4821123631677,1631
2225.3839287646483,1716
2227.2853155632106,1691
2229.186272731794,1624
2231.0868002424063,1668
2232.986898066123,1739
2234.8865661730892,1707
2236.785804532517,1726
2238.6846131126877,1689
2240.5829918809495,1621
2242.4809408037213,1631
2244.3784598464877,1675
2246.275548973803,1682
2248.172208149288,1679
2250.0684373356357,1623
2251.964236494603,1715
2253.859605587017,1658
2255.7545445727733,1689
2257.6490534108357,1672
2259.5431320592356,1695
2261.436780475073,1654
2263.329998614516,1707
2265.222786432802,1725
2267.1151438842344,1696
2269.0070709221877,1663
2270.8985674991022,1681
2272.789633566488,1690
2274.6802690749237,1702
2276.570473974053,1672
2278.4602482125933,1682
2280.3495917383257,1623
2282.238504498101,1731
2284.1269864378387,1708
2286.0150375025264,1680
2287.9026576362203,1712
2289.789846782043,1686
2291.6766048821873,1750
2293.5629318779147,1708
2295.4488277095534,1673
2297.3342923164996,1719
2299.2193256372193,1729
2301.1039276092465,1735
2302.9880981691817,1734
2304.871837252696,1662
2306.755144794528,1742
2308.6380207284838,1666
2310.5204649874386,1805
2312.4024775033354,1680
2314.2840582071854,1669
2316.165207029068,1720
2318.0459238981325,1632
2319.926208742594,1765
2321.8060614897363,1694
2323.6854820659137,1618
2325.5644703965463,1709
2327.443026406124,1749
2329.321150018203,1709
2331.1988411554107,1669
2333.0760997394395,1670
2334.952925691053,1738
2336.829318930082,1649
2338.705279375424,1701
2340.5808069450477,1706
2342.4559015559867,1731
2344.3305631243456,1746
2346.204791565297,1700
2348.07858679308,1633
2349.9519487210027,1700
2351.824877261443,1732
2353.6973723258448,1683
2355.5694338247226,1687
2357.4410616676564,1750
2359.312255763297,1728
2361.1830160193617,1742
2363.053342342637,1687
2364.9232346389776,1724
2366.792692813306,1733
2368.6617167696145,1720
2370.5303064109603,1754
2372.3984616394723,1709
2374.2661823563467,1689
2376.1334684618464,1731
2378.0003198553054,1725
2379.8667364351227,1727
2381.7327180987672,1744
2383.5982647427777,1693
2385.4633762627586,1740
2387.3280525533837,1670
2389.192293508395,1627
2391.0560990206027,1694
2392.919468981885,1748
2394.782403283189,1735
2396.644901814531,1762
2398.5069644649916,1823
2400.3685911227235,1726
2402.2297816749474,1699
2404.0905360079505,1739
2405.950854007089,1780
2407.8107355567886,1794
2409.670180540541,1710
2411.529188840908,1669
2413.387760339518,1747
2415.2458949170705,1717
2417.1035924533294,1710
2418.96085282713,1725
2420.8176759163744,1721
2422.6740615980334,1654
2424.5300097481468,1703
2426.38552024182,1780
2428.24059295323,1736
2430.0952277556207,1804
2431.949424521303,1758
2433.803183121658,1711
2435.6565034271343,1790
2437.5093853072485,1697
2439.361828630585,1757
2441.213833264798,1714
2443.0653990766095,1804
2444.916525931808,1802
2446.7672136952524,1784
2448.6174622308695,1704
2450.4672714016538,1708
2452.3166410696676,1761
2454.165571096043,1741
2456.0140613409794,1669
2457.8621116637432,1743
2459.709721922672,1704
2461.556891975169,1698
2463.403621677707,1674
2465.249910885827,1741
2467.0957594541383,1710
2468.9411672363167,1770
2470.78613408511,1736
2472.630659852331,1764
2474.4747443888614,1691
2476.3183875446516,1734
2478.161589168721,1802
2480.0043491091556,1695
2481.8466672131112,1729
2483.6885433268108,1751
2485.529977295547,1746
2487.370968963678,1757
2489.2115181746335,1791
2491.0516247709097,1734
2492.891288594071,1630
2494.7305094847497,1719
2496.569287282649,1687
2498.407621826537,1727
2500.2455129542523,1678
2502.0829605027,1693
2503.919964307855,1738
2505.7565242047594,1674
2507.5926400275252,1736
2509.42831160933,1740
2511.263538782423,1659
2513.0983213781174,1723
2514.9326592267994,1722
2516.76655215792,1783
2518.5999999999995,1774
2520.4330025806275,1782
2522.2655597264607,1796
2524.0976712632237,1746
2525.9293370157097,1715
2527.760556807782,1750
2529.591330462369,1696
2531.4216578014702,1691
2533.2515386461523,1715
2535.080972816548,1781
2536.9099601318626,1754
2538.738500410366,1732
2540.5665934693993,1725
2542.3942391253695,1759
2544.221437193752,1764
2546.0481874890925,1757
2547.874489825003,1749
2549.700344014164,1824
2551.5257498683245,1805
2553.350707198304,1803
2555.175215813986,1846
2556.9992755243256,1748
2558.8228861373454,1743
2560.646047460134,1713
2562.468759298852,1796
2564.2910214587255,1792
2566.1128337440496,1790
2567.93419595819,1801
2569.7551079035757,1852
2571.5755693817077,1795
2573.395580193155,1805
2575.2151401375536,1798
2577.034249013609,1795
2578.8529066190936,1794
2580.6711127508493,1860
2582.488867204785,1838
2584.3061697758794,1824
2586.1230202581787,1825
2587.939418444797,1864
2589.7553641279183,1815
2591.570857098791,1908
2593.385897147736,1796
2595.200484064141,1780
2597.014617636461,1915
2598.8282976522214,1823
2600.6415238980126,1834
2602.454296159496,1836
2604.266614221401,1842
2606.0784778675243,1928
2607.8898868807305,1885
2609.700841042955,1892
2611.5113401351973,1881
2613.32138393753,1872
2615.13097222909,1849
2616.940104788084,1853
2618.748781391788,1874
2620.557001816543,1901
2622.364765837763,1928
2624.1720732299264,1906
2625.9789237665814,1945
2627.7853172203445,1968
2629.5912533629,1943
2631.396731965001,1960
2633.2017527964676,1896
2635.0063156261904,1844
2636.810420222126,1902
2638.614066351301,1871
2640.417253779809,1855
2642.219982272813,1872
2644.022251594542,1862
2645.8240615082973,1903
2647.625411776444,1817
2649.4263021604183,1859
2651.226732420724,1804
2653.026702316933,1872
2654.8262116076858,1837
2656.625260050691,1870
2658.423847402724,1879
2660.221973419631,1850
2662.0196378563246,1779
2663.8168404667867,1812
2665.613581004068,1868
2667.4098592202854,1820
2669.2056748666246,1776
2671.0010276933417,1784
2672.7959174497596,1764
2674.5903438842674,1710
2676.384306744327,1823
2678.177805776465,1832
2679.9708407262765,1753
2681.7634113384274,1753
2683.555517356648,1778
2685.3471585237403,1768
2687.138334581574,1763
2688.9290452710843,1727
2690.7192903322784,1773
2692.50906950423,1823
2694.2983825250794,1731
2696.087229132039,1751
2697.875609061386,1788
2699.6635220484677,1766
2701.450967827699,1766
2703.237946132564,1717
2705.0244566956126,1773
2706.8104992484664,1755
2708.596073521813,1724
2710.381179245408,1736
2712.1658161480777,1745
2713.949983957714,1809
2715.7336824012773,1787
2717.516911204798,1702
2719.299670093374,1729
2721.0819587911706,1754
2722.8637770214223,1664
2724.6451245064322,1760
2726.426000967571,1752
2728.2064061252763,1739
2729.986339699057,1740
2731.765801407488,1701
2733.5447909682134,1675
2735.323308097945,1692
2737.101352512463,1706
2738.8789239266166,1708
2740.6560220543215,1684
2742.4326466085645,1696
2744.2087973013977,1733
2745.984473843944,1651
2747.7596759463922,1732
2749.534403318001,1747
2751.308655667096,1684
2753.0824327010737,1721
2754.8557341263954,1771
2756.628559648593,1713
2758.4009089722667,1643
2760.172781801083,1699
2761.944177837779,1673
2763.715096784159,1676
2765.4855383410945,1617
2767.2555022085267,1620
2769.024988085465,1680
2770.793995669988,1610
2772.5625246592385,1700
2774.3305747494323,1682
2776.098145635852,1732
2777.865237012847,1704
2779.6318485738357,1676
2781.397980011306,1698
2783.163631016813,1733
2784.928801280979,1714
2786.6934904934974,1649
2788.457698343127,1654
2790.221424517697,1675
2791.9846687041027,1676
2793.74743058831,1719
2795.5097098553515,1706
2797.2715061893286,1764
2799.0328192734105,1656
2800.793648789836,1708
2802.553994419911,1648
2804.3138558440087,1639
2806.073232741573,1708
2807.8321247911135,1758
2809.590531670211,1737
2811.3484530555115,1756
2813.105888622732,1710
2814.8628380466557,1624
2816.6193010011348,1671
2818.3752771590903,1677
2820.13076619251,1741
2821.885767772452,1719
2823.640281569041,1693
2825.3943072514703,1719
2827.147844488002,1710
2828.9008929459665,1725
2830.6534522917614,1647
2832.405522190854,1660
2834.1571023077786,1718
2835.9081923061394,1761
2837.658791848606,1709
2839.40890059692,1703
2841.1585182118874,1753
2842.907644353386,1749
2844.6562786803593,1645
2846.4044208508203,1695
2848.15207052185,1727
2849.899227349598,1731
2851.6458909892804,1720
2853.392061095185,1712
2855.137737320664,1697
2856.882919318142,1641
2858.6276067391063,1649
2860.371799234118,1714
2862.1154964528037,1685
2863.8586980438586,1652
2865.6014036550464,1687
2867.343612933199,1685
2869.0853255242173,1724
2870.826541073068,1710
2872.567259223789,1719
2874.307479619485,1629
2876.0472019023287,1700
2877.7864257135625,1690
2879.525150693495,1690
2881.263376481505,1650
2883.0011027160385,1720
2884.73832903461,1733
2886.4750550738027,1659
2888.2112804692665,1726
2889.9470048557223,1654
2891.682227866956,1701
2893.416949135825,1723
2895.151168294252,1666
2896.88488497323,1674
2898.6180988028204,1734
2900.3508094121503,1700
2902.083016429419,1671
2903.81471948189,1643
2905.5459181958972,1616
2907.276612196844,1706
2909.0068011091994,1684
2910.736484556502,1656
2912.465662161359,1685
2914.194333545445,1669
2915.922498329504,1644
2917.650156133346,1734
2919.377306575852,1723
2921.103949274969,1716
2922.830083847715,1688
2924.555709910173,1654
2926.2808270774967,1669
2928.005434963907,1646
2929.7295331826936,1621
2931.4531213462133,1639
2933.1761990658924,1653
2934.8987659522254,1679
2936.6208216147747,1661
2938.3423656621694,1688
2940.0633977021116,1745
2941.783917341366,1671
2943.503924185768,1663
2945.223417840223,1684
2946.9423979087023,1720
2948.6608639942456,1650
2950.378815698962,1676
2952.096252624029,1638
2953.81317436969,1745
2955.529580535259,1676
2957.2454707191177,1628
2958.9608445187164,1726
2960.6757015305734,1695
2962.3900413502733,1692
2964.103863572472,1736
2965.817167790894,1731
2967.529953598327,1730
2969.2422205866337,1713
2970.953968346739,1720
2972.6651964686407,1700
2974.3759045414035,1701
2976.0860921531585,1717
2977.7957588911067,1692
2979.504904341517,1704
2981.2135280897273,1662
2982.9216297201433,1671
2984.629208816238,1716
2986.336264960554,1729
2988.0427977347017,1694
2989.7488067193594,1685
2991.454291494274,1681
2993.1592516382607,1699
2994.8636867292034,1734
2996.567596344053,1690
2998.2709800588295,1651
2999.973837448621,1723
3001.6761680875857,1712
3003.377971548946,1679
3005.0792474049954,1698
3006.7799952270957,1707
3008.480214585676,1736
3010.1799050502345,1669
3011.8790661893368,1644
3013.5776975706176,1685
3015.2757987607793,1578
3016.973369325592,1654
3018.6704088298966,1582
3020.366916837598,1667
3022.0628929116747,1641
3023.7583366141675,1627
3025.4532475061915,1668
3027.147625147925,1708
3028.841469098617,1641
3030.534778916585,1650
3032.2275541592144,1635
3033.9197943829577,1669
3035.611499143338,1631
3037.302667994943,1632
3038.9933004914333,1666
3040.683396185535,1629
3042.372954629042,1654
3044.061975372817,1664
3045.7504579667934,1639
3047.4384019599684,1662
3049.1258069004116,1669
3050.812672335258,1652
3052.4989978107124,1680
3054.184782872047,1674
3055.870027063603,1676
3057.554729928791,1633
3059.238891010086,1650
3060.9225098490347,1653
3062.6055859862518,1658
3064.2881189614177,1610
3065.970108313285,1714
3067.651553579671,1755
3069.3324542974633,1602
3071.012810002616,1655
3072.6926202301543,1693
3074.3718845141702,1692
3076.050602387822,1611
3077.728773383339,1585
3079.406397032018,1662
3081.083472864223,1638
3082.7600004093874,1561
3084.4359791960137,1678
3086.11140875167,1712
3087.7862886029952,1661
3089.4606182756943,1648
3091.134397294544,1644
3092.807625183385,1692
3094.4803014651284,1697
3096.152425661755,1701
3097.8239972943097,1672
3099.49501588291,1640
3101.165480946741,1703
3102.8353920040518,1644
3104.504748572165,1699
3106.1735501674693,1691
3107.8417963054226,1666
3109.5094865005485,1678
3111.176620266441,1639
3112.8431971157625,1679
3114.5092165602427,1669
3116.1746781106813,1687
3117.839581276943,1666
3119.503925567965,1648
3121.167710491747,1635
3122.830935555364,1706
3124.493600264954,1622
3126.1557041257247,1614
3127.817246641952,1656
3129.478227316982,1668
3131.1386456532273,1712
3132.798501152168,1682
3134.4577933143537,1689
3136.116521639402,1621
3137.7746856259982,1710
3139.4322847718977,1695
3141.0893185739224,1674
3142.745786527962,1675
3144.4016881289754,1729
3146.0570228709903,1624
3147.711790247102,1742
3149.3659897494754,1646
3151.0196208693396,1639
3152.6726830969974,1681
3154.3251759218165,1672
3155.9770988322334,1665
3157.6284513157534,1657
3159.2792328589485,1618
3160.929442947461,1703
3162.579081066002,1633
3164.2281466983477,1624
3165.8766393273454,1639
3167.5245584349086,1679
3169.1719035020224,1616
3170.818674008735,1655
3172.4648694341677,1664
3174.110489256508,1738
3175.7555329530105,1667
3177.4000000000005,1723
3179.0438898728707,1681
3180.6872020460805,1649
3182.32993599316,1673
3183.972091186706,1659
3185.613667098384,1637
3187.254663198927,1649
3188.8950789581386,1630
3190.5349138448873,1670
3192.1741673271126,1600
3193.8128388718224,1590
3195.4509279450886,1648
3197.0884340120574,1678
3198.725356536939,1566
3200.361694983014,1614
3201.997448812629,1612
3203.632617487203,1619
3205.2672004672195,1593
3206.901197212229,1613
3208.5346071808563,1615
3210.167429830789,1683
3211.799664618785,1643
3213.4313110006706,1656
3215.0623684313387,1595
3216.692836364753,1582
3218.3227142539445,1680
3219.9520015510125,1682
3221.5806977071215,1593
3223.2088021725103,1599
3224.8363143964816,1628
3226.4632338274077,1615
3228.089559912728,1612
3229.715292098951,1569
3231.3404298316545,1607
3232.9649725554846,1658
3234.5889197141523,1595
3236.2122707504395,1632
3237.8350251061984,1614
3239.457182222345,1683
3241.0787415388677,1663
3242.6997024948187,1653
3244.3200645283223,1639
3245.9398270765696,1643
3247.558989575821,1626
3249.177551461403,1657
3250.7955121677123,1649
3252.412871128213,1596
3254.029627775437,1653
3255.6457815409867,1582
3257.2613318555286,1586
3258.876278148802,1582
3260.490619849613,1656
3262.1043563858348,1631
3263.717487184408,1544
3265.3300116713453,1627
3266.941929271725,1564
3268.5532394096917,1612
3270.1639415084646,1643
3271.7740349903233,1608
3273.383519276621,1639
3274.9923937877775,1628
3276.6006579432833,1664
3278.2083111616903,1662
3279.815352860627,1589
3281.421782456786,1608
3283.027599365927,1603
3284.632803002881,1633
3286.237392781545,1646
3287.841368114885,1614
3289.4447284149373,1549
3291.047473092801,1595
3292.649601558651,1631
3294.2511132217223,1575
3295.8520074903254,1596
3297.452283771835,1579
3299.051941472695,1677
3300.650979998417,1562
3302.2493987535827,1642
3303.8471971418403,1653
3305.4443745659064,1657
3307.0409304275654,1637
3308.636864127674,1659
3310.2321750661513,1621
3311.8268626419876,1661
3313.420926253242,1642
3315.01436529704,1623
3316.6071791695776,1599
3318.1993672661183,1604
3319.7909289809913,1638
3321.3818637075983,1650
3322.972170838406,1564
3324.561849764951,1594
3326.150899877838,1657
3327.7393205667386,1580
3329.3271112203956,1601
3330.9142712266166,1672
3332.5007999722793,1660
3334.08669684333,1623
3335.6719612247834,1603
3337.2565925007193,1656
3338.840590054291,1661
3340.4239532677157,1641
3342.006681522281,1758
3343.5887741983406,1597
3345.1702306753214,1639
3346.7510503317126,1671
3348.3312325450743,1648
3349.910776692037,1650
3351.4896821482953,1620
3353.0679482886153,1563
3354.645574486829,1615
3356.2225601158398,1630
3357.798904547615,1590
