CollectionTime,4/2/2024 11:17:33 AM
ExposureUsed,3
CalibratedSpectrum
-994.8464149364308,591
-991.9439705588344,595
-989.042830375826,604
-986.1429931109675,669
-983.2444574887519,668
-980.3472222346043,620
-977.4512860748813,610
-974.5566477368716,555
-971.6633059487953,587
-968.7712594398042,598
-965.8805069399822,613
-962.9910471803447,572
-960.1028788928387,587
-957.2160008103432,598
-954.3304116666687,608
-951.4461101965578,608
-948.5630951356844,624
-945.6813652206545,723
-942.8009191890055,707
-939.9217557792067,691
-937.0438737306594,695
-934.167271783696,676
-931.2919486795813,652
-928.4179031605115,599
-925.5451339696144,639
-922.67363985095,719
-919.8034195495097,679
-916.9344718112166,657
-914.0667953829256,643
-911.2003890124234,663
-908.3352514484286,627
-905.471381440591,618
-902.6087777394928,624
-899.7474390966474,646
-896.8873642645002,687
-894.0285519964284,651
-891.1710010467407,606
-888.3147101706776,614
-885.4596781244115,606
-882.6059036650465,565
-879.7533855506183,610
-876.9021225400943,567
-874.0521133933738,624
-871.2033568712878,599
-868.3558517355991,613
-865.509596749002,695
-862.6645906751228,686
-859.8208322785192,738
-856.9783203246812,721
-854.1370535800299,639
-851.2970308119186,585
-848.4582507886321,662
-845.620712279387,679
-842.7844140543316,630
-839.9493548845461,606
-837.1155335420422,584
-834.2829487997635,627
-831.4515994315852,649
-828.6214842123144,720
-825.7926019176898,677
-822.9649513243819,634
-820.138531209993,637
-817.3133403530569,635
-814.4893775330396,688
-811.6666415303382,680
-808.845131126282,645
-806.0248451031321,629
-803.2057822440808,614
-800.3879413332527,619
-797.5713211557038,733
-794.755920497422,739
-791.941738145327,690
-789.1287728872701,700
-786.3170235120342,788
-783.5064888093341,735
-780.6971675698165,614
-777.8890585850597,641
-775.0821606475735,711
-772.2764725507997,668
-769.4719930891118,643
-766.6687210578151,687
-763.8666552531465,799
-761.0657944722747,935
-758.2661375133,829
-755.4676831752547,711
-752.6704302581027,705
-749.8743775627395,648
-747.0795238909925,697
-744.285868045621,654
-741.4934088303156,672
-738.702145049699,692
-735.9120755093254,743
-733.123199015681,858
-730.3355143761836,877
-727.5490203991826,740
-724.7637158939592,695
-721.9795996707265,680
-719.1966705406293,679
-716.4149273157439,701
-713.6343688090786,671
-710.8549938345734,650
-708.0768012070998,689
-705.2997897424614,725
-702.5239582573931,786
-699.7493055695622,757
-696.9758304975669,732
-694.2035318609377,742
-691.4324084801367,692
-688.6624591765578,676
-685.8936827725265,703
-683.1260780913001,725
-680.3596439570675,725
-677.5943791949499,733
-674.8302826309991,679
-672.0673530922,688
-669.3055894064685,671
-666.5449904026519,738
-663.78555491053,758
-661.0272817608139,734
-658.2701697851465,741
-655.5142178161026,790
-652.7594246871884,748
-650.0057892328422,671
-647.2533102884337,745
-644.5019866902646,721
-641.7518172755683,741
-639.0028008825099,767
-636.254936350186,720
-633.5082225186254,756
-630.7626582287882,769
-628.0182423225665,735
-625.2749736427841,690
-622.5328510331965,801
-619.7918733384909,784
-617.0520394042862,774
-614.3133480771331,788
-611.5757982045143,852
-608.8393886348437,906
-606.1041182174672,916
-603.3699858026625,878
-600.6369902416393,860
-597.9051303865383,818
-595.1744050904326,859
-592.4448132073267,897
-589.7163535921568,849
-586.9890251007912,781
-584.2628265900296,734
-581.5377569176036,815
-578.8138149421764,814
-576.090999523343,811
-573.3693095216302,790
-570.6487437984965,811
-567.9293012163321,911
-565.210980638459,943
-562.4937809291307,848
-559.7777009535329,833
-557.0627395777825,812
-554.3488956689287,834
-551.6361680949519,926
-548.9245557247644,961
-546.2140574282107,947
-543.5046720760662,993
-540.7963985400388,944
-538.0892356927677,1078
-535.3831824078238,1117
-532.6782375597103,1157
-529.9744000238613,1201
-527.2716686766433,1312
-524.5700423953542,1535
-521.8695200582238,1421
-519.1701005444136,1288
-516.4717827340166,1400
-513.7745655080581,1599
-511.0784477484944,1833
-508.38342833821423,1850
-505.68950616103757,1758
-502.9966801017163,1678
-500.3049490459341,1722
-497.61431188030633,1520
-494.9247674923801,1341
-492.2363147706342,1167
-489.54895260447927,1143
-486.86267988425755,1098
-484.1774955012431,1205
-481.4933983476417,1253
-478.8103873165908,1178
-476.1284613021596,1086
-473.44761919934945,1024
-470.7678599040928,983
-468.089182313254,1087
-465.4115853246294,1080
-462.735067836947,1143
-460.0596287498663,1188
-457.3852669639789,1001
-454.71198138080774,993
-452.03977090280773,982
-449.3686344333656,962
-446.69857087679964,985
-444.02957913835996,1038
-441.36165812422837,1053
-438.6948067415183,1099
-436.0290238982752,1036
-433.36430850347597,1018
-430.7006594670296,1059
-428.0380756997763,1032
-425.3765561134885,1095
-422.7160996208702,1067
-420.0567051355571,1157
-417.3983715721164,1048
-414.7410978460475,1053
-412.08488287378145,1089
-409.4297255726806,1071
-406.77562486103955,960
-404.1225796580843,998
-401.4705888839728,909
-398.8196514597947,868
-396.1697663075713,925
-393.5209323502555,870
-390.8731485117323,761
-388.22641371681823,858
-385.5807268912615,1024
-382.93608696174226,915
-380.29249285587207,833
-377.64994350219456,741
-375.0084378301849,696
-372.36797477025016,718
-369.7285532537287,760
-367.0901722128914,827
-364.45283058094014,767
-361.8165272920089,896
-359.1812612811634,756
-356.54703148440103,598
-353.9138368386507,671
-351.28167628177346,803
-348.6505487525617,914
-346.02045319074,823
-343.3913885369643,718
-340.76335373282245,760
-338.1363477208339,787
-335.5103694444499,825
-332.8854178480535,889
-330.26149187695944,813
-327.63859047741425,742
-325.016712596596,664
-322.3958571826148,651
-319.77602318451227,752
-317.15720955226186,806
-314.5394152367686,835
-311.9226391898695,770
-309.3068803643333,767
-306.69213771386023,841
-304.0784101930824,1002
-301.4656967575635,999
-298.8539963637994,949
-296.2433079692172,1021
-293.6336305321761,981
-291.02496301196675,813
-288.41730436881176,866
-285.81065356386534,836
-283.2050095592135,918
-280.60037131787396,1270
-277.9967378037961,1550
-275.39410798186134,1193
-272.7924808178824,1109
-270.19185527860407,1146
-267.5922303317028,1105
-264.9936049457866,1258
-262.3959780903955,1110
-259.79934873600087,1175
-257.2037158540064,1186
-254.6090784167469,1154
-252.01543539748934,1253
-249.42278577043237,1107
-246.8311285107061,1020
-244.24046259437262,957
-241.6507869984256,999
-239.0621007007909,1147
-236.4744026803254,1268
-233.88769191681808,1191
-231.30196739098994,1109
-228.7172280844934,1062
-226.13347297991243,1222
-223.550701060763,1198
-220.9689113114929,1091
-218.3881027174814,1071
-215.8082742650397,1210
-213.22942494141068,1390
-210.65155373476898,1728
-208.07465963422078,1722
-205.49874162980439,1700
-202.92379871248932,1800
-200.34982987417743,1808
-197.7768341077018,1463
-195.20481040682762,1213
-192.63375776625162,1246
-190.0636751816021,1315
-187.49456164943945,1387
-184.92641616725564,1630
-182.3592377334743,1606
-179.79302534745102,1527
-177.2277780094729,1686
-174.66349472075865,1547
-172.10017448345923,1594
-169.5378163006569,1659
-166.97641917636565,1664
-164.41598211553162,1831
-161.8565041240322,1958
-159.29798420867678,1791
-156.74042137720642,1847
-154.18381463829382,1890
-151.6281630015436,1563
-149.07346547749228,1387
-146.51972107760753,1320
-143.96692881428908,1564
-141.41508770086864,2014
-138.86419675160937,1967
-136.31425498170609,1768
-133.7652614072856,1724
-131.21721504540642,1810
-128.67011491405844,1942
-126.12396003216395,2433
-123.57874941957618,2979
-121.03448209708074,2624
-118.49115708639465,2569
-115.94877341016684,2545
-113.40733009197788,2647
-110.86682615633993,2628
-108.32726062869733,2808
-105.78863253542556,3538
-103.25094090383243,4510
-100.71418476215695,4603
-98.17836313957025,4078
-95.64347506617503,3091
-93.10951957300585,2651
-90.57649569202886,2955
-88.04440245614194,3356
-85.51323889917478,3647
-82.98300405588896,5293
-80.45369696197747,6742
-77.925316654065,9279
-75.39786216970867,13258
-72.87133254739649,17835
-70.34572682654857,19596
-67.82104404751692,22617
-65.29728325158499,25180
-62.774443480968216,26530
-60.252523778813384,28782
-57.73152318919938,26584
-55.21144075713676,28371
-52.69227552856796,27671
-50.17402655036665,24026
-47.65669287033859,22407
-45.14027353722133,23765
-42.624767600684095,26743
-40.11017411132775,27935
-37.59649212068507,29397
-35.08372068122037,30472
-32.57185884632963,29719
-30.06090567034107,30026
-27.550860208513996,31923
-25.04172151704006,45106
-22.533488653042014,64181
-20.02616067457484,65043
-17.51973664062507,65043
-15.014215611111126,65043
-12.509596646882983,65043
-10.005878809722162,65043
-7.503061162342419,65043
-5.001142768389059,65043
-2.5001226924387083,65043
-3.410605131648481E-13,65043
2.49922624248552,65043
4.997556967646801,65043
7.494993107179766,65043
9.99153559184856,65043
12.487185351485778,65043
14.98194331499235,65043
17.475810410337544,65043
19.96878756455851,65043
22.46087570376085,65043
24.952075753118834,31946
27.442388636874625,9754
29.93181527833849,6402
32.42035659988892,5479
34.90801352297353,9482
37.39478696810693,9593
39.880677854873056,9075
42.36568710192364,8052
44.8498156269784,8368
47.33306434682618,7508
49.815434177322686,7685
52.296926033393675,8385
54.77754082903198,7701
57.25727947729865,8102
59.736142890323435,7922
62.214131979304284,5454
64.6912476545076,4253
67.16749082526735,3603
69.64286239998614,2950
72.11736328613551,3179
74.59099439025431,3532
77.06375661794982,4380
79.53565087389825,4788
82.0066780618431,4108
84.4768390845968,3913
86.94613484403999,3633
89.41456624112152,5042
91.88213417585825,5162
94.34883954733527,3530
96.81468325370679,3210
99.2796661921941,2327
101.74378925908763,2850
104.20705334974559,3289
106.66945935859462,3536
109.1310081791296,3611
111.59170070391383,3908
114.05153782457865,3340
116.5105204318238,2165
118.96864941541708,2628
121.42592566419489,3824
123.88235006606146,4049
126.3379235079899,3054
128.79264687602085,2569
131.2465210552641,2634
133.69954692989631,2337
136.15172538316415,2665
138.60305729738116,2623
141.05354355393,2491
143.50318503326116,2635
145.95198261489327,2742
148.39993717741368,2931
150.84704959847772,3297
153.29332075480897,3322
155.73875152219944,3303
158.18334277550935,3129
160.62709538866693,3060
163.0700102346691,2944
165.51208818558075,3044
167.953330112535,3034
170.39373688573346,2857
172.8333093744459,2770
175.2720484470101,2897
177.70995497083277,2932
180.14702981238815,3225
182.58327383721917,3124
185.01868790993672,3300
187.45327289422062,3310
189.88702965281777,2924
192.31995904754444,2985
194.75206193928489,2995
197.18333918799135,2873
199.61379165268454,2808
202.04342019145315,2875
204.4722256614548,2991
206.90020891891436,3110
209.32737081912592,2916
211.7537122164515,2859
214.17923396432116,2847
216.6039369152336,3050
219.0278219207553,3121
221.45088983152186,3085
223.8731414972358,3042
226.29457776666914,2913
228.71519948766172,2708
231.1350075071216,2967
233.55400267102482,2994
235.97218582441633,3050
238.38955781140908,2963
240.806119475184,2890
243.2218716579905,2946
245.6368152011462,2933
248.05095094503736,2895
250.46427972911806,2860
252.87680239191036,2889
255.28851977100544,3169
257.69943270306203,3271
260.10954202380753,2884
262.5188485680378,2745
264.92735316961557,2897
267.33505666147425,2899
269.7419598756128,2880
272.14806364310084,3069
274.5533687940747,2998
276.95787615773975,2774
279.361586562369,2880
281.7645008353045,2716
284.1666198029559,2722
286.5679442908013,2814
288.96847512338695,2863
291.3682131243279,2861
293.7671591163071,2856
296.1653139210757,2817
298.562678359453,2758
300.9592532513268,2853
303.3550394156532,3006
305.75003767045655,2777
308.14424883282936,2818
310.53767371893196,2719
312.93031314399377,2746
315.3221679223125,2614
317.71323886725304,2595
320.1035267912496,2488
322.49303250580397,2510
324.881756821487,2508
327.2697005479374,2474
329.65686449386135,2479
332.0432494670347,2482
334.4288562743004,2564
336.81368572157066,2469
339.19773861382487,2479
341.58101575511205,2424
343.96351794854786,2492
346.3452459963173,2371
348.72620069967365,2357
351.1063828589379,2367
353.48579327349967,2438
355.8644327418169,2388
358.24230206141533,2377
360.6194020288899,2350
362.99573343990255,2287
365.3712970891845,2250
367.7460937705348,2225
370.12012427682066,2260
372.493389399978,2287
374.86588993101077,2281
377.23762665999084,2155
379.6086003760588,2213
381.9788118674235,2220
384.34826192136165,2186
386.7169513242188,2188
389.08488086140824,2202
391.4520513174118,2252
393.8184634757795,2328
396.1841181191296,2365
398.54901602914856,2421
400.9131579865916,2448
403.2765447712811,2357
405.63917716210926,2401
408.00105593703483,2272
410.36218187308646,2185
412.7225557463596,2258
415.0821783320191,2175
417.4410504042976,2162
419.79917273649585,2151
422.1565461009834,2201
424.5131712691973,2136
426.869049011643,2123
429.22418009789544,2270
431.578565296596,2061
433.9322053754556,2013
436.28510110125285,2135
438.6372532398352,2113
440.98866255611733,1969
443.33932981408293,2013
445.6892557767842,2008
448.0384412063411,2130
450.38688686394175,2181
452.7345935098431,2206
455.0815619033697,2033
457.42779280291506,2151
459.7732869659403,2219
462.1180451489754,2183
464.4620681076178,2165
466.80535659653424,2163
469.1479113694588,2157
471.48973317919445,2255
473.8308227776122,2210
476.17118091565135,2294
478.51080834331924,2250
480.8497058096914,2257
483.1878740629122,2450
485.5253138501944,2460
487.8620259178176,2465
490.1980110111317,2670
492.53326987455307,2874
494.86780325156724,3077
497.201611884728,3324
499.53469651565683,3547
501.8670578850447,3752
504.1986967326493,3971
506.52961379729754,3831
508.85980981688454,3510
511.18928552837315,3257
513.5180416677952,3198
515.8460789702503,3307
518.1733981699067,3781
520.5,4389
522.8258851928354,4840
525.1510544797857,4442
527.4755085912916,3966
529.7992482568625,3393
532.1222742050759,2827
534.4445871635783,2422
536.766187859083,2168
539.0870770173726,2064
541.4072553632982,2122
543.7267236207783,1995
546.0454825128002,1990
548.363532761419,2032
550.6808750877592,2046
552.9975102120118,2063
555.3134388534377,2135
557.6286617303654,2038
559.9431795601911,2011
562.2569930593802,1920
564.570102943466,1991
566.88250992705,2093
569.1942147238021,1970
571.5052180464602,1989
573.8155206068309,2014
576.1251231157885,2046
578.4340262832759,2009
580.7422308183045,1949
583.0497374289534,1962
585.3565468223703,2025
587.6626597047714,2015
589.9680767814409,1919
592.2727987567309,1926
594.5768263340624,1946
596.8801602159238,1969
599.1828011038731,2037
601.4847496985356,1938
603.7860066996047,1898
606.0865728058427,1849
608.3864487150802,1799
610.6856351242152,1860
612.9841327292149,1876
615.2819422251141,1806
617.5790643060163,1900
619.8754996650935,1938
622.1712489945849,1960
624.466312985799,1917
626.7606923291121,1926
629.0543877139692,1955
631.347399828883,2022
633.6397293614343,1949
635.9313769982732,2061
638.2223434251173,1963
640.5126293267522,1982
642.8022353870326,1960
645.0911622888809,1913
647.3794107142876,1947
649.666981344312,2022
651.9538748590815,1978
654.2400919377915,1954
656.525633258706,2004
658.8104994991568,2022
661.0946913355442,2047
663.3782094433375,2021
665.6610544970729,2026
667.9432271703561,2008
670.22472813586,1968
672.5055580653268,2096
674.7857176295659,2088
677.065207498456,1926
679.3440283409432,1979
681.6221808250425,2006
683.899665617837,2021
686.1764833854772,1996
688.4526347931837,1950
690.7281205052436,1948
693.0029411850135,1949
695.2770974949171,2027
697.5505900964474,1977
699.8234196501651,2032
702.0955868156989,1919
704.3670922517472,1967
706.6379366160747,1933
708.9081205655159,1975
711.1776447559728,2012
713.4465098424155,1914
715.714716478883,2009
717.9822653184822,2083
720.2491570133882,2058
722.5153922148452,1929
724.7809715731639,1905
727.0458957377248,1970
729.3101653569763,1917
731.5737810784346,1906
733.8367435486853,1892
736.0990534133803,2015
738.3607113172418,2023
740.6217179040591,2051
742.8820738166899,1985
745.1417796970607,2010
747.4008361861659,2038
749.6592439240678,1993
751.9170035498973,2072
754.1741157018539,2142
756.4305810172048,2080
758.686400132286,1986
760.9415736825013,2022
763.196102302323,2057
765.4499866252911,2127
767.7032272840152,2058
769.9558249101717,2070
772.207780134506,2021
774.4590935868323,2053
776.7097658960313,2150
778.9597976900541,2082
781.2091895959184,2084
783.457942239711,2080
785.7060562465867,2089
787.9535322407687,2129
790.2003708455488,2065
792.4465726832861,2092
794.6921383754088,2061
796.9370685424128,2147
799.1813638038632,2101
801.4250247783918,2198
803.6680520837006,2124
805.9104463365579,2059
808.1522081528019,2130
810.393338147338,2059
812.6338369341406,2135
814.8737051262517,1993
817.1129433357819,1947
819.35155217391,2030
821.5895322508834,2105
823.8268841760168,1981
826.0636085576946,2026
828.2997060033681,2001
830.535177119558,2059
832.7700225118522,1978
835.0042427849078,1963
837.2378385424493,2037
839.4708103872701,2031
841.7031589212318,2029
843.9348847452643,1993
846.1659884593648,2100
848.3964706626004,1995
850.6263319531054,2047
852.8555729280824,2017
855.0841941838025,1939
857.3121963156052,2039
859.5395799178978,2017
861.7663455841566,2016
863.9924939069251,2116
866.2180254778159,2154
868.4429408875103,2047
870.6672407257561,2065
872.890925581371,2113
875.1139960422404,2108
877.336452695318,2017
879.5582961266261,2124
881.7795269212543,2044
884.0001456633613,2087
886.2201529361741,2123
888.4395493219874,2148
890.6583354021648,2221
892.8765117571375,2112
895.094078966405,2142
897.3110376085365,2147
899.5273882611671,2145
901.7431315010019,2069
903.958267903814,2057
906.1727980444443,2050
908.3867224968019,2125
910.6000418338647,2049
912.8127566276792,2071
915.0248674493587,2137
917.2363748690857,2121
919.4472794561113,1993
921.6575817787543,2090
923.867282404402,2000
926.0763818995099,1949
928.2848808296014,1946
930.4927797592693,2014
932.700079252173,2011
934.9067798710416,1998
937.112882177672,2027
939.3183867329287,2038
941.5232940967453,1976
943.727604828124,1972
945.9313194851336,2035
948.1344386249132,2030
950.3369628036685,2001
952.5388925766747,2005
954.7402284982745,1935
956.9409711218789,2008
959.1411209999676,1967
961.3406786840883,1942
963.5396447248565,1920
965.7380196719573,1931
967.9358040741427,2015
970.1329984792335,1930
972.3296034341188,1833
974.5256194847555,1977
976.72104717617,1907
978.9158870524552,1893
981.1101396567742,1934
983.3038055313566,1839
985.4968852175009,1857
987.6893792555747,1941
989.8812881850124,1928
992.072612544318,1879
994.263352871063,1853
996.453509701887,1867
998.6430835724984,1912
1000.832075017674,1806
1003.0204845712583,1772
1005.208312766164,1704
1007.3955601343728,1741
1009.5822272069338,1756
1011.7683145139652,1695
1013.9538225846525,1676
1016.1387519472505,1752
1018.3231031290818,1678
1020.5068766565371,1704
1022.6900730550753,1738
1024.872692849224,1756
1027.054736562579,1683
1029.2362047178037,1626
1031.4170978366305,1681
1033.5974164398597,1691
1035.7771610473603,1695
1037.9563321780693,1664
1040.1349303499917,1653
1042.3129560802006,1640
1044.490409884838,1620
1046.667292279115,1524
1048.8436037773079,1603
1051.0193448927644,1649
1053.1945161378994,1613
1055.3691180241954,1637
1057.5431510622038,1613
1059.7166157615447,1670
1061.8895126309053,1647
1064.0618421780423,1643
1066.2336049097798,1644
1068.4048013320107,1651
1070.5754319496955,1574
1072.745497266863,1589
1074.9149977866118,1620
1077.0839340111065,1576
1079.2523064415818,1620
1081.4201155783398,1615
1083.587361920751,1598
1085.7540459672537,1586
1087.9201682153553,1606
1090.0857291616308,1602
1092.2507293017238,1530
1094.4151691303464,1576
1096.579049141279,1515
1098.7423698273687,1536
1100.9051316805335,1573
1103.0673351917571,1515
1105.2289808510936,1554
1107.3900691476633,1603
1109.550600569657,1527
1111.710575604332,1612
1113.8699947380146,1583
1116.028858456099,1563
1118.1871672430489,1542
1120.344921582394,1517
1122.5021219567334,1621
1124.6587688477362,1551
1126.8148627361365,1527
1128.9704041017399,1557
1131.1253934234173,1530
1133.2798311791098,1488
1135.4337178458263,1485
1137.5870538996437,1515
1139.7398398157075,1504
1141.8920760682313,1484
1144.0437631304972,1612
1146.1949014748543,1624
1148.3454915727225,1598
1150.4955338945874,1444
1152.6450289100044,1477
1154.7939770875969,1547
1156.9423788950558,1551
1159.0902347991405,1523
1161.2375452656802,1507
1163.3843107595703,1511
1165.530531744775,1572
1167.6762086843282,1513
1169.8213420403304,1514
1171.9659322739503,1457
1174.1099798454266,1537
1176.2534852140639,1547
1178.3964488382376,1415
1180.538871175389,1466
1182.680752682029,1503
1184.8220938137365,1500
1186.9628950251595,1442
1189.103156770012,1447
1191.2428795010783,1469
1193.3820636702108,1525
1195.5207097283287,1507
1197.6588181254215,1457
1199.7963893105457,1511
1201.9334237318253,1498
1204.0699218364548,1407
1206.2058840706954,1552
1208.3413108798773,1511
1210.476202708397,1469
1212.6105599997222,1490
1214.7443831963874,1488
1216.877672739995,1404
1219.0104290712165,1509
1221.1426526297905,1520
1223.2743438545253,1530
1225.4055031832972,1509
1227.5361310530493,1534
1229.6662278997946,1551
1231.7957941586142,1525
1233.9248302636565,1436
1236.053336648139,1506
1238.1813137443464,1519
1240.3087619836338,1583
1242.4356817964222,1531
1244.5620736122019,1553
1246.6879378595318,1488
1248.813274966039,1503
1250.938085358418,1473
1253.062369462432,1474
1255.186127702913,1509
1257.3093605037611,1515
1259.4320682879434,1512
1261.554251477498,1504
1263.6759104935277,1552
1265.797045756206,1509
1267.9176576847744,1517
1270.0377466975428,1561
1272.1573132118879,1514
1274.2763576442567,1565
1276.394880410162,1497
1278.5128819241877,1569
1280.6303625999835,1605
1282.7473228502695,1522
1284.8637630868325,1557
1286.9796837205272,1619
1289.0950851612783,1564
1291.209967818078,1579
1293.3243320989864,1502
1295.4381784111324,1598
1297.551507160712,1613
1299.6643187529912,1627
1301.776613592303,1585
1303.888392082049,1572
1305.9996546246998,1598
1308.1104016217923,1589
1310.220633473934,1620
1312.3303505807999,1633
1314.4395533411316,1611
1316.5482421527418,1555
1318.6564174125092,1558
1320.7640795163816,1614
1322.8712288593752,1609
1324.9778658355744,1609
1327.0839908381313,1576
1329.1896042592675,1622
1331.2947064902714,1635
1333.3992979215009,1579
1335.503378942381,1647
1337.6069499414057,1646
1339.7100113061383,1595
1341.8125634232074,1562
1343.9146066783128,1597
1346.0161414562212,1616
1348.1171681407677,1560
1350.2176871148563,1576
1352.3176987604575,1590
1354.4172034586127,1618
1356.5162015894289,1610
1358.6146935320835,1617
1360.7126796648213,1603
1362.8101603649548,1551
1364.9071360088656,1618
1367.0036069720036,1538
1369.099573628886,1522
1371.195036353099,1614
1373.2899955172975,1587
1375.3844514932039,1580
1377.4784046516088,1532
1379.5718553623715,1518
1381.6648039944193,1621
1383.7572509157485,1591
1385.8491964934224,1579
1387.9406410935735,1543
1390.0315850814022,1631
1392.122028821177,1634
1394.2119726762357,1577
1396.3014170089828,1616
1398.3903621808918,1678
1400.4788085525051,1624
1402.566756483432,1568
1404.6542063323514,1588
1406.7411584570095,1550
1408.8276132142219,1581
1410.9135709598704,1634
1412.9990320489078,1604
1415.083996835353,1596
1417.1684656722937,1586
1419.2524389118867,1542
1421.3359169053565,1622
1423.4189000029946,1589
1425.5013885541634,1534
1427.5833829072913,1621
1429.664883409876,1647
1431.7458904084833,1598
1433.8264042487467,1599
1435.9064252753697,1579
1437.9859538321216,1629
1440.0649902618416,1570
1442.1435349064373,1590
1444.2215881068837,1616
1446.2991502032237,1630
1448.37622153457,1617
1450.452802439103,1658
1452.5288932540698,1697
1454.604494315788,1764
1456.6796059596427,1739
1458.7542285200866,1735
1460.8283623306415,1650
1462.902007723897,1639
1464.9751650315106,1719
1467.0478345842089,1699
1469.1200167117868,1701
1471.1917117431062,1769
1473.2629200060992,1718
1475.333641827764,1677
1477.4038775341692,1748
1479.4736274504498,1748
1481.5428919008104,1695
1483.6116712085222,1768
1485.6799656959279,1777
1487.7477756844346,1690
1489.8151014945201,1759
1491.88194344573,1812
1493.9483018566775,1762
1496.0141770450455,1753
1498.0795693275822,1788
1500.1444790201076,1768
1502.2089064375086,1816
1504.2728518937402,1835
1506.3363157018239,1862
1508.3992981738534,1843
1510.4617996209872,1840
1512.5238203534536,1873
1514.5853606805495,1984
1516.6464209106384,1985
1518.7070013511543,2012
1520.7671023085973,1971
1522.8267240885375,2062
1524.885866995612,2091
1526.9445313335268,2114
1529.002717405056,2157
1531.0604255120425,2170
1533.1176559553965,2203
1535.1744090350971,2177
1537.2306850501914,2330
1539.2864842987956,2406
1541.3418070780922,2332
1543.396653684334,2410
1545.4510244128405,2431
1547.5049195580013,2462
1549.5583394132727,2453
1551.61128427118,2536
1553.6637544233158,2592
1555.7157501603415,2535
1557.7672717719888,2681
1559.8183195470538,2694
1561.8688937734037,2671
1563.9189947379737,2923
1565.9686227267657,2706
1568.0177780248514,2758
1570.0664609163696,2781
1572.1146716845292,2677
1574.162410611605,2716
1576.2096779789413,2540
1578.2564740669518,2464
1580.3027991551157,2367
1582.3486535219831,2216
1584.3940374451709,2126
1586.4389512013645,2101
1588.4833950663178,2045
1590.5273693148533,1998
1592.5708742208603,1882
1594.6139100572982,1916
1596.6564770961936,1855
1598.698575608642,1852
1600.7402058648063,1848
1602.7813681339185,1746
1604.8220626842776,1785
1606.8622897832533,1774
1608.9020496972812,1746
1610.9413426918663,1752
1612.9801690315808,1721
1615.018528980066,1737
1617.056422800033,1722
1619.0938507532578,1658
1621.1308131005876,1706
1623.1673101019355,1689
1625.2033420162848,1648
1627.2389091016862,1665
1629.274011615259,1657
1631.3086498131897,1654
1633.3428239507352,1627
1635.376534282219,1652
1637.4097810610324,1567
1639.4425645396364,1630
1641.4748849695593,1596
1643.5067426013989,1632
1645.53813768482,1588
1647.5690704685549,1589
1649.5995412004067,1626
1651.6295501272452,1643
1653.6590974950086,1672
1655.6881835487025,1614
1657.7168085324029,1621
1659.7449726892523,1560
1661.772676261462,1593
1663.7999194903114,1622
1665.8267026161484,1596
1667.8530258783894,1599
1669.8788895155185,1554
1671.9042937650888,1575
1673.9292388637205,1553
1675.953725047103,1557
1677.977752549994,1594
1680.0013216062184,1525
1682.0244324486712,1593
1684.0470853093134,1598
1686.0692804191767,1596
1688.0910180083588,1617
1690.1122983060268,1557
1692.1331215404175,1552
1694.1534879388319,1590
1696.173397727644,1611
1698.1928511322926,1617
1700.211848377286,1599
1702.2303896862018,1631
1704.248475281684,1647
1706.2661053854458,1663
1708.2832802182684,1642
1710.300000000002,1674
1712.3162649495644,1650
1714.3320752849409,1531
1716.3474312231865,1617
1718.362332980424,1619
1720.376780771845,1626
1722.3907748117072,1565
1724.4043153133393,1591
1726.4174024891367,1607
1728.4300365505628,1593
1730.442217708151,1604
1732.4539461715008,1603
1734.465222149282,1554
1736.4760458492306,1584
1738.4864174781524,1534
1740.496337241921,1550
1742.5058053454786,1611
1744.5148219928346,1626
1746.523387387068,1551
1748.531501730325,1521
1750.5391652238209,1525
1752.5463780678388,1559
1754.55314046173,1633
1756.5594526039135,1577
1758.565314691879,1577
1760.5707269221812,1604
1762.5756894904443,1589
1764.580202591363,1535
1766.5842664186966,1527
1768.5878811652751,1597
1770.591047022996,1522
1772.593764182825,1617
1774.5960328347965,1538
1776.5978531680116,1504
1778.5992253706427,1536
1780.6001496299273,1556
1782.6006261321731,1557
1784.6006550627553,1586
1786.6002366061175,1578
1788.5993709457725,1563
1790.5980582642992,1605
1792.5962987433468,1535
1794.5940925636314,1554
1796.5914399049389,1536
1798.5883409461221,1537
1800.584795865102,1526
1802.580804838869,1590
1804.5763680434807,1618
1806.571485654064,1546
1808.566157844813,1551
1810.5603847889902,1567
1812.5541666589274,1570
1814.5475036260236,1536
1816.5403958607467,1574
1818.5328435326323,1599
1820.5248468102845,1565
1822.5164058613755,1556
1824.5075208526468,1547
1826.4981919499064,1554
1828.488419318032,1464
1830.4782031209684,1512
1832.4675435217305,1550
1834.4564406823993,1606
1836.4448947641258,1517
1838.432905927128,1593
1840.4204743306927,1478
1842.4076001331746,1539
1844.3942834919985,1591
1846.380524563654,1595
1848.366323503702,1579
1850.351680466771,1538
1852.3365956065563,1569
1854.3210690758228,1586
1856.3051010264044,1557
1858.2886916092007,1564
1860.271840974182,1510
1862.2545492703862,1524
1864.2368166459191,1594
1866.2186432479543,1534
1868.2000292227349,1555
1870.1809747155717,1591
1872.1614798708429,1634
1874.1415448319963,1588
1876.1211697415474,1537
1878.1003547410805,1553
1880.0790999712472,1621
1882.0574055717675,1541
1884.0352716814305,1551
1886.0126984380927,1586
1887.989685978679,1585
1889.9662344391836,1582
1891.9423439546672,1575
1893.9180146592607,1518
1895.893246686161,1567
1897.868040167636,1567
1899.8423952350195,1604
1901.8163120187137,1629
1903.7897906481917,1602
1905.7628312519923,1546
1907.7354339577219,1618
1909.7075988920578,1588
1911.6793261807447,1576
1913.6506159485943,1634
1915.6214683194871,1588
1917.5918834163726,1565
1919.5618613612687,1550
1921.5314022752605,1561
1923.5005062785012,1542
1925.4691734902144,1559
1927.4374040286893,1578
1929.4051980112845,1632
1931.3725555544274,1581
1933.3394767736136,1548
1935.305961783406,1584
1937.2720106974361,1533
1939.237623628404,1578
1941.2028006880778,1592
1943.167541987295,1585
1945.1318476359588,1571
1947.0957177430432,1625
1949.0591524165898,1630
1951.0221517637078,1599
1952.984715890574,1616
1954.9468449024357,1592
1956.9085389036072,1574
1958.8697979974704,1613
1960.8306222864767,1583
1962.7910118721456,1595
1964.7509668550638,1524
1966.7104873348871,1613
1968.6695734103387,1552
1970.6282251792127,1571
1972.586442738368,1612
1974.5442261837343,1585
1976.501575610307,1595
1978.4584911121533,1619
1980.4149727824056,1604
1982.3710207132658,1591
1984.326634996004,1561
1986.2818157209585,1567
1988.2365629775359,1618
1990.1908768542116,1600
1992.144757438527,1639
1994.0982048170954,1564
1996.0512190755953,1622
1998.0038002987749,1539
1999.95594857045,1615
2001.9076639735054,1619
2003.8589465898945,1580
2005.8097965006368,1508
2007.760213785822,1580
2009.7101985246077,1508
2011.6597507952201,1626
2013.6088706749524,1575
2015.5575582401675,1591
2017.5058135662953,1570
2019.4536367278351,1588
2021.4010277983534,1591
2023.347986850486,1612
2025.2945139559365,1578
2027.2406091854768,1579
2029.1862726089462,1598
2031.1315042952538,1557
2033.0763043123766,1593
2035.0206727273585,1579
2036.964609606313,1621
2038.908115014422,1569
2040.8511890159348,1609
2042.7938316741693,1610
2044.7360430515123,1526
2046.677823209417,1570
2048.6191722084077,1568
2050.5600901080743,1566
2052.5005769670765,1660
2054.440632843142,1629
2056.380257793066,1601
2058.3194518727128,1538
2060.258215137015,1595
2062.1965476399732,1624
2064.1344494346554,1531
2066.0719205732,1555
2068.008961106812,1606
2069.945571085764,1658
2071.8817505593997,1562
2073.817499576128,1551
2075.7528181834273,1525
2077.6877064278447,1547
2079.622164354995,1553
2081.556192009562,1577
2083.4897894352966,1535
2085.4229566750187,1595
2087.355693770616,1574
2089.2880007630456,1547
2091.219877692331,1561
2093.151324597566,1601
2095.0823415169107,1593
2097.012928487595,1550
2098.9430855459173,1497
2100.872812727242,1626
2102.8021100660035,1621
2104.730977595705,1593
2106.659415348917,1597
2108.5874233572777,1647
2110.5150016514945,1657
2112.442150261343,1615
2114.3688692156675,1564
2116.2951585423793,1547
2118.2210182684585,1569
2120.146448419954,1561
2122.0714490219825,1551
2123.9960200987293,1534
2125.920161673447,1628
2127.843873768458,1624
2129.767156405151,1617
2131.690009603985,1542
2133.612433384486,1580
2135.534427765249,1597
2137.4559927639366,1596
2139.37712839728,1590
2141.2978346810783,1562
2143.2181116301995,1615
2145.1379592585795,1595
2147.057377579222,1595
2148.9763666042,1569
2150.894926344655,1551
2152.813056810794,1536
2154.730758011896,1558
2156.648029956306,1570
2158.564872651437,1547
2160.481286103772,1657
2162.397270318861,1536
2164.312825301323,1590
2166.227951054844,1572
2168.14264758218,1542
2170.056914885153,1537
2171.9707529646566,1600
2173.8841618206484,1583
2175.7971414521585,1561
2177.7096918572825,1585
2179.621813033186,1574
2181.5335049761,1566
2183.444767681327,1539
2185.355601143236,1591
2187.2660053552654,1598
2189.1759803099208,1606
2191.085525998777,1627
2192.994642412475,1547
2194.903329540727,1618
2196.811587372312,1556
2198.7194158950765,1618
2200.626815095937,1587
2202.5337849608763,1567
2204.440325474948,1561
2206.346436622271,1559
2208.2521183860345,1633
2210.157370748496,1643
2212.0621936909793,1537
2213.966587193879,1507
2215.8705512366573,1541
2217.774085797842,1625
2219.677190855033,1619
2221.579866384897,1551
2223.4821123631677,1659
2225.3839287646483,1579
2227.2853155632106,1583
2229.186272731794,1550
2231.0868002424063,1558
2232.986898066123,1665
2234.8865661730892,1555
2236.785804532517,1595
2238.6846131126877,1565
2240.5829918809495,1617
2242.4809408037213,1555
2244.3784598464877,1612
2246.275548973803,1601
2248.172208149288,1623
2250.0684373356357,1606
2251.964236494603,1611
2253.859605587017,1569
2255.7545445727733,1587
2257.6490534108357,1589
2259.5431320592356,1581
2261.436780475073,1554
2263.329998614516,1595
2265.222786432802,1622
2267.1151438842344,1595
2269.0070709221877,1585
2270.8985674991022,1567
2272.789633566488,1605
2274.6802690749237,1593
2276.570473974053,1547
2278.4602482125933,1597
2280.3495917383257,1552
2282.238504498101,1639
2284.1269864378387,1532
2286.0150375025264,1613
2287.9026576362203,1629
2289.789846782043,1594
2291.6766048821873,1620
2293.5629318779147,1606
2295.4488277095534,1607
2297.3342923164996,1590
2299.2193256372193,1620
2301.1039276092465,1595
2302.9880981691817,1660
2304.871837252696,1580
2306.755144794528,1671
2308.6380207284838,1617
2310.5204649874386,1606
2312.4024775033354,1606
2314.2840582071854,1596
2316.165207029068,1575
2318.0459238981325,1556
2319.926208742594,1612
2321.8060614897363,1521
2323.6854820659137,1601
2325.5644703965463,1598
2327.443026406124,1658
2329.321150018203,1616
2331.1988411554107,1594
2333.0760997394395,1608
2334.952925691053,1558
2336.829318930082,1590
2338.705279375424,1577
2340.5808069450477,1573
2342.4559015559867,1541
2344.3305631243456,1626
2346.204791565297,1591
2348.07858679308,1615
2349.9519487210027,1608
2351.824877261443,1626
2353.6973723258448,1566
2355.5694338247226,1582
2357.4410616676564,1627
2359.312255763297,1638
2361.1830160193617,1649
2363.053342342637,1614
2364.9232346389776,1579
2366.792692813306,1591
2368.6617167696145,1659
2370.5303064109603,1625
2372.3984616394723,1645
2374.2661823563467,1670
2376.1334684618464,1596
2378.0003198553054,1572
2379.8667364351227,1627
2381.7327180987672,1640
2383.5982647427777,1629
2385.4633762627586,1602
2387.3280525533837,1632
2389.192293508395,1585
2391.0560990206027,1633
2392.919468981885,1545
2394.782403283189,1652
2396.644901814531,1688
2398.5069644649916,1650
2400.3685911227235,1607
2402.2297816749474,1628
2404.0905360079505,1643
2405.950854007089,1643
2407.8107355567886,1704
2409.670180540541,1634
2411.529188840908,1588
2413.387760339518,1584
2415.2458949170705,1578
2417.1035924533294,1626
2418.96085282713,1626
2420.8176759163744,1602
2422.6740615980334,1652
2424.5300097481468,1659
2426.38552024182,1630
2428.24059295323,1636
2430.0952277556207,1616
2431.949424521303,1704
2433.803183121658,1692
2435.6565034271343,1731
2437.5093853072485,1659
2439.361828630585,1660
2441.213833264798,1731
2443.0653990766095,1655
2444.916525931808,1656
2446.7672136952524,1651
2448.6174622308695,1615
2450.4672714016538,1652
2452.3166410696676,1678
2454.165571096043,1605
2456.0140613409794,1637
2457.8621116637432,1706
2459.709721922672,1671
2461.556891975169,1590
2463.403621677707,1581
2465.249910885827,1661
2467.0957594541383,1682
2468.9411672363167,1645
2470.78613408511,1570
2472.630659852331,1657
2474.4747443888614,1671
2476.3183875446516,1595
2478.161589168721,1555
2480.0043491091556,1606
2481.8466672131112,1653
2483.6885433268108,1612
2485.529977295547,1697
2487.370968963678,1601
2489.2115181746335,1628
2491.0516247709097,1613
2492.891288594071,1611
2494.7305094847497,1666
2496.569287282649,1645
2498.407621826537,1672
2500.2455129542523,1679
2502.0829605027,1683
2503.919964307855,1680
2505.7565242047594,1627
2507.5926400275252,1666
2509.42831160933,1617
2511.263538782423,1607
2513.0983213781174,1708
2514.9326592267994,1634
2516.76655215792,1625
2518.5999999999995,1656
2520.4330025806275,1644
2522.2655597264607,1601
2524.0976712632237,1589
2525.9293370157097,1644
2527.760556807782,1597
2529.591330462369,1632
2531.4216578014702,1633
2533.2515386461523,1698
2535.080972816548,1639
2536.9099601318626,1646
2538.738500410366,1692
2540.5665934693993,1631
2542.3942391253695,1661
2544.221437193752,1637
2546.0481874890925,1650
2547.874489825003,1663
2549.700344014164,1684
2551.5257498683245,1643
2553.350707198304,1678
2555.175215813986,1736
2556.9992755243256,1639
2558.8228861373454,1660
2560.646047460134,1718
2562.468759298852,1689
2564.2910214587255,1730
2566.1128337440496,1659
2567.93419595819,1649
2569.7551079035757,1726
2571.5755693817077,1712
2573.395580193155,1679
2575.2151401375536,1721
2577.034249013609,1692
2578.8529066190936,1705
2580.6711127508493,1695
2582.488867204785,1718
2584.3061697758794,1771
2586.1230202581787,1707
2587.939418444797,1712
2589.7553641279183,1771
2591.570857098791,1744
2593.385897147736,1740
2595.200484064141,1759
2597.014617636461,1790
2598.8282976522214,1762
2600.6415238980126,1772
2602.454296159496,1763
2604.266614221401,1764
2606.0784778675243,1778
2607.8898868807305,1821
2609.700841042955,1769
2611.5113401351973,1815
2613.32138393753,1733
2615.13097222909,1817
2616.940104788084,1830
2618.748781391788,1862
2620.557001816543,1812
2622.364765837763,1830
2624.1720732299264,1879
2625.9789237665814,1821
2627.7853172203445,1792
2629.5912533629,1803
2631.396731965001,1812
2633.2017527964676,1764
2635.0063156261904,1732
2636.810420222126,1733
2638.614066351301,1817
2640.417253779809,1823
2642.219982272813,1707
2644.022251594542,1772
2645.8240615082973,1735
2647.625411776444,1728
2649.4263021604183,1768
2651.226732420724,1747
2653.026702316933,1797
2654.8262116076858,1776
2656.625260050691,1775
2658.423847402724,1698
2660.221973419631,1762
2662.0196378563246,1743
2663.8168404667867,1722
2665.613581004068,1742
2667.4098592202854,1710
2669.2056748666246,1676
2671.0010276933417,1685
2672.7959174497596,1711
2674.5903438842674,1689
2676.384306744327,1660
2678.177805776465,1713
2679.9708407262765,1681
2681.7634113384274,1661
2683.555517356648,1710
2685.3471585237403,1652
2687.138334581574,1669
2688.9290452710843,1638
2690.7192903322784,1672
2692.50906950423,1654
2694.2983825250794,1748
2696.087229132039,1731
2697.875609061386,1723
2699.6635220484677,1715
2701.450967827699,1708
2703.237946132564,1709
2705.0244566956126,1717
2706.8104992484664,1654
2708.596073521813,1710
2710.381179245408,1718
2712.1658161480777,1607
2713.949983957714,1693
2715.7336824012773,1610
2717.516911204798,1679
2719.299670093374,1589
2721.0819587911706,1612
2722.8637770214223,1596
2724.6451245064322,1624
2726.426000967571,1617
2728.2064061252763,1658
2729.986339699057,1582
2731.765801407488,1682
2733.5447909682134,1616
2735.323308097945,1627
2737.101352512463,1589
2738.8789239266166,1572
2740.6560220543215,1614
2742.4326466085645,1643
2744.2087973013977,1654
2745.984473843944,1503
2747.7596759463922,1582
2749.534403318001,1649
2751.308655667096,1625
2753.0824327010737,1623
2754.8557341263954,1618
2756.628559648593,1620
2758.4009089722667,1669
2760.172781801083,1592
2761.944177837779,1653
2763.715096784159,1608
2765.4855383410945,1556
2767.2555022085267,1600
2769.024988085465,1600
2770.793995669988,1572
2772.5625246592385,1653
2774.3305747494323,1636
2776.098145635852,1656
2777.865237012847,1611
2779.6318485738357,1612
2781.397980011306,1643
2783.163631016813,1596
2784.928801280979,1646
2786.6934904934974,1606
2788.457698343127,1610
2790.221424517697,1628
2791.9846687041027,1519
2793.74743058831,1601
2795.5097098553515,1637
2797.2715061893286,1653
2799.0328192734105,1618
2800.793648789836,1620
2802.553994419911,1608
2804.3138558440087,1627
2806.073232741573,1615
2807.8321247911135,1628
2809.590531670211,1586
2811.3484530555115,1633
2813.105888622732,1568
2814.8628380466557,1627
2816.6193010011348,1585
2818.3752771590903,1564
2820.13076619251,1593
2821.885767772452,1629
2823.640281569041,1647
2825.3943072514703,1553
2827.147844488002,1570
2828.9008929459665,1630
2830.6534522917614,1614
2832.405522190854,1627
2834.1571023077786,1618
2835.9081923061394,1594
2837.658791848606,1609
2839.40890059692,1586
2841.1585182118874,1605
2842.907644353386,1599
2844.6562786803593,1659
2846.4044208508203,1625
2848.15207052185,1612
2849.899227349598,1582
2851.6458909892804,1614
2853.392061095185,1535
2855.137737320664,1608
2856.882919318142,1691
2858.6276067391063,1660
2860.371799234118,1598
2862.1154964528037,1567
2863.8586980438586,1656
2865.6014036550464,1586
2867.343612933199,1519
2869.0853255242173,1618
2870.826541073068,1600
2872.567259223789,1649
2874.307479619485,1629
2876.0472019023287,1612
2877.7864257135625,1565
2879.525150693495,1559
2881.263376481505,1593
2883.0011027160385,1612
2884.73832903461,1633
2886.4750550738027,1577
2888.2112804692665,1615
2889.9470048557223,1602
2891.682227866956,1615
2893.416949135825,1591
2895.151168294252,1606
2896.88488497323,1592
2898.6180988028204,1663
2900.3508094121503,1562
2902.083016429419,1660
2903.81471948189,1611
2905.5459181958972,1643
2907.276612196844,1609
2909.0068011091994,1646
2910.736484556502,1622
2912.465662161359,1627
2914.194333545445,1586
2915.922498329504,1610
2917.650156133346,1638
2919.377306575852,1575
2921.103949274969,1643
2922.830083847715,1650
2924.555709910173,1592
2926.2808270774967,1634
2928.005434963907,1596
2929.7295331826936,1626
2931.4531213462133,1600
2933.1761990658924,1600
2934.8987659522254,1566
2936.6208216147747,1611
2938.3423656621694,1598
2940.0633977021116,1573
2941.783917341366,1611
2943.503924185768,1621
2945.223417840223,1595
2946.9423979087023,1640
2948.6608639942456,1614
2950.378815698962,1568
2952.096252624029,1596
2953.81317436969,1611
2955.529580535259,1584
2957.2454707191177,1621
2958.9608445187164,1653
2960.6757015305734,1739
2962.3900413502733,1619
2964.103863572472,1633
2965.817167790894,1653
2967.529953598327,1579
2969.2422205866337,1617
2970.953968346739,1630
2972.6651964686407,1614
2974.3759045414035,1644
2976.0860921531585,1630
2977.7957588911067,1672
2979.504904341517,1670
2981.2135280897273,1632
2982.9216297201433,1684
2984.629208816238,1646
2986.336264960554,1666
2988.0427977347017,1576
2989.7488067193594,1561
2991.454291494274,1621
2993.1592516382607,1608
2994.8636867292034,1624
2996.567596344053,1558
2998.2709800588295,1668
2999.973837448621,1621
3001.6761680875857,1650
3003.377971548946,1638
3005.0792474049954,1631
3006.7799952270957,1633
3008.480214585676,1671
3010.1799050502345,1582
3011.8790661893368,1690
3013.5776975706176,1631
3015.2757987607793,1614
3016.973369325592,1611
3018.6704088298966,1546
3020.366916837598,1643
3022.0628929116747,1628
3023.7583366141675,1623
3025.4532475061915,1600
3027.147625147925,1556
3028.841469098617,1617
3030.534778916585,1607
3032.2275541592144,1702
3033.9197943829577,1610
3035.611499143338,1637
3037.302667994943,1565
3038.9933004914333,1593
3040.683396185535,1606
3042.372954629042,1663
3044.061975372817,1685
3045.7504579667934,1656
3047.4384019599684,1609
3049.1258069004116,1581
3050.812672335258,1563
3052.4989978107124,1594
3054.184782872047,1681
3055.870027063603,1570
3057.554729928791,1589
3059.238891010086,1647
3060.9225098490347,1587
3062.6055859862518,1672
3064.2881189614177,1590
3065.970108313285,1657
3067.651553579671,1572
3069.3324542974633,1647
3071.012810002616,1590
3072.6926202301543,1611
3074.3718845141702,1591
3076.050602387822,1630
3077.728773383339,1562
3079.406397032018,1593
3081.083472864223,1605
3082.7600004093874,1663
3084.4359791960137,1607
3086.11140875167,1614
3087.7862886029952,1651
3089.4606182756943,1563
3091.134397294544,1579
3092.807625183385,1595
3094.4803014651284,1596
3096.152425661755,1604
3097.8239972943097,1644
3099.49501588291,1581
3101.165480946741,1553
3102.8353920040518,1552
3104.504748572165,1599
3106.1735501674693,1659
3107.8417963054226,1615
3109.5094865005485,1643
3111.176620266441,1607
3112.8431971157625,1604
3114.5092165602427,1639
3116.1746781106813,1637
3117.839581276943,1640
3119.503925567965,1666
3121.167710491747,1656
3122.830935555364,1627
3124.493600264954,1587
3126.1557041257247,1629
3127.817246641952,1690
3129.478227316982,1702
3131.1386456532273,1651
3132.798501152168,1622
3134.4577933143537,1593
3136.116521639402,1643
3137.7746856259982,1630
3139.4322847718977,1696
3141.0893185739224,1670
3142.745786527962,1632
3144.4016881289754,1687
3146.0570228709903,1606
3147.711790247102,1668
3149.3659897494754,1680
3151.0196208693396,1654
3152.6726830969974,1652
3154.3251759218165,1590
3155.9770988322334,1612
3157.6284513157534,1551
3159.2792328589485,1578
3160.929442947461,1623
3162.579081066002,1597
3164.2281466983477,1560
3165.8766393273454,1615
3167.5245584349086,1646
3169.1719035020224,1636
3170.818674008735,1636
3172.4648694341677,1691
3174.110489256508,1649
3175.7555329530105,1633
3177.4000000000005,1618
3179.0438898728707,1590
3180.6872020460805,1703
3182.32993599316,1643
3183.972091186706,1671
3185.613667098384,1546
3187.254663198927,1579
3188.8950789581386,1608
3190.5349138448873,1615
3192.1741673271126,1615
3193.8128388718224,1621
3195.4509279450886,1602
3197.0884340120574,1621
3198.725356536939,1640
3200.361694983014,1551
3201.997448812629,1627
3203.632617487203,1559
3205.2672004672195,1613
3206.901197212229,1587
3208.5346071808563,1596
3210.167429830789,1638
3211.799664618785,1585
3213.4313110006706,1603
3215.0623684313387,1541
3216.692836364753,1501
3218.3227142539445,1563
3219.9520015510125,1610
3221.5806977071215,1606
3223.2088021725103,1592
3224.8363143964816,1546
3226.4632338274077,1650
3228.089559912728,1558
3229.715292098951,1627
3231.3404298316545,1570
3232.9649725554846,1621
3234.5889197141523,1593
3236.2122707504395,1541
3237.8350251061984,1597
3239.457182222345,1601
3241.0787415388677,1684
3242.6997024948187,1585
3244.3200645283223,1603
3245.9398270765696,1614
3247.558989575821,1615
3249.177551461403,1601
3250.7955121677123,1624
3252.412871128213,1618
3254.029627775437,1609
3255.6457815409867,1636
3257.2613318555286,1620
3258.876278148802,1571
3260.490619849613,1592
3262.1043563858348,1564
3263.717487184408,1598
3265.3300116713453,1545
3266.941929271725,1522
3268.5532394096917,1579
3270.1639415084646,1612
3271.7740349903233,1603
3273.383519276621,1587
3274.9923937877775,1639
3276.6006579432833,1618
3278.2083111616903,1534
3279.815352860627,1642
3281.421782456786,1647
3283.027599365927,1597
3284.632803002881,1619
3286.237392781545,1612
3287.841368114885,1611
3289.4447284149373,1578
3291.047473092801,1587
3292.649601558651,1588
3294.2511132217223,1608
3295.8520074903254,1543
3297.452283771835,1539
3299.051941472695,1631
3300.650979998417,1633
3302.2493987535827,1622
3303.8471971418403,1636
3305.4443745659064,1597
3307.0409304275654,1627
3308.636864127674,1607
3310.2321750661513,1609
3311.8268626419876,1664
3313.420926253242,1655
3315.01436529704,1567
3316.6071791695776,1602
3318.1993672661183,1635
3319.7909289809913,1614
3321.3818637075983,1551
3322.972170838406,1590
3324.561849764951,1523
3326.150899877838,1600
3327.7393205667386,1615
3329.3271112203956,1602
3330.9142712266166,1619
3332.5007999722793,1556
3334.08669684333,1530
3335.6719612247834,1685
3337.2565925007193,1595
3338.840590054291,1527
3340.4239532677157,1636
3342.006681522281,1618
3343.5887741983406,1625
3345.1702306753214,1551
3346.7510503317126,1654
3348.3312325450743,1581
3349.910776692037,1589
3351.4896821482953,1625
3353.0679482886153,1622
3354.645574486829,1605
3356.2225601158398,1622
3357.798904547615,1584
