CollectionTime,4/2/2024 11:20:05 AM
ExposureUsed,3
CalibratedSpectrum
-994.8464149364308,614
-991.9439705588344,681
-989.042830375826,645
-986.1429931109675,648
-983.2444574887519,707
-980.3472222346043,737
-977.4512860748813,634
-974.5566477368716,619
-971.6633059487953,627
-968.7712594398042,662
-965.8805069399822,673
-962.9910471803447,649
-960.1028788928387,601
-957.2160008103432,650
-954.3304116666687,623
-951.4461101965578,641
-948.5630951356844,659
-945.6813652206545,750
-942.8009191890055,787
-939.9217557792067,692
-937.0438737306594,655
-934.167271783696,632
-931.2919486795813,658
-928.4179031605115,630
-925.5451339696144,666
-922.67363985095,713
-919.8034195495097,708
-916.9344718112166,677
-914.0667953829256,721
-911.2003890124234,710
-908.3352514484286,698
-905.471381440591,713
-902.6087777394928,677
-899.7474390966474,730
-896.8873642645002,749
-894.0285519964284,692
-891.1710010467407,675
-888.3147101706776,652
-885.4596781244115,641
-882.6059036650465,616
-879.7533855506183,601
-876.9021225400943,646
-874.0521133933738,650
-871.2033568712878,632
-868.3558517355991,683
-865.509596749002,780
-862.6645906751228,801
-859.8208322785192,791
-856.9783203246812,741
-854.1370535800299,658
-851.2970308119186,695
-848.4582507886321,675
-845.620712279387,724
-842.7844140543316,702
-839.9493548845461,680
-837.1155335420422,698
-834.2829487997635,679
-831.4515994315852,712
-828.6214842123144,724
-825.7926019176898,712
-822.9649513243819,716
-820.138531209993,742
-817.3133403530569,736
-814.4893775330396,707
-811.6666415303382,727
-808.845131126282,688
-806.0248451031321,696
-803.2057822440808,670
-800.3879413332527,668
-797.5713211557038,765
-794.755920497422,800
-791.941738145327,749
-789.1287728872701,749
-786.3170235120342,770
-783.5064888093341,717
-780.6971675698165,678
-777.8890585850597,718
-775.0821606475735,795
-772.2764725507997,746
-769.4719930891118,681
-766.6687210578151,705
-763.8666552531465,847
-761.0657944722747,959
-758.2661375133,901
-755.4676831752547,822
-752.6704302581027,715
-749.8743775627395,723
-747.0795238909925,725
-744.285868045621,741
-741.4934088303156,699
-738.702145049699,705
-735.9120755093254,782
-733.123199015681,952
-730.3355143761836,938
-727.5490203991826,836
-724.7637158939592,778
-721.9795996707265,784
-719.1966705406293,695
-716.4149273157439,709
-713.6343688090786,705
-710.8549938345734,700
-708.0768012070998,684
-705.2997897424614,728
-702.5239582573931,765
-699.7493055695622,710
-696.9758304975669,725
-694.2035318609377,759
-691.4324084801367,769
-688.6624591765578,735
-685.8936827725265,755
-683.1260780913001,780
-680.3596439570675,815
-677.5943791949499,784
-674.8302826309991,751
-672.0673530922,723
-669.3055894064685,779
-666.5449904026519,835
-663.78555491053,804
-661.0272817608139,756
-658.2701697851465,782
-655.5142178161026,803
-652.7594246871884,783
-650.0057892328422,763
-647.2533102884337,764
-644.5019866902646,768
-641.7518172755683,778
-639.0028008825099,783
-636.254936350186,819
-633.5082225186254,796
-630.7626582287882,830
-628.0182423225665,757
-625.2749736427841,715
-622.5328510331965,853
-619.7918733384909,876
-617.0520394042862,890
-614.3133480771331,842
-611.5757982045143,858
-608.8393886348437,988
-606.1041182174672,1034
-603.3699858026625,948
-600.6369902416393,901
-597.9051303865383,876
-595.1744050904326,985
-592.4448132073267,986
-589.7163535921568,998
-586.9890251007912,907
-584.2628265900296,846
-581.5377569176036,863
-578.8138149421764,933
-576.090999523343,920
-573.3693095216302,900
-570.6487437984965,879
-567.9293012163321,928
-565.210980638459,993
-562.4937809291307,976
-559.7777009535329,925
-557.0627395777825,990
-554.3488956689287,895
-551.6361680949519,989
-548.9245557247644,1027
-546.2140574282107,1014
-543.5046720760662,1053
-540.7963985400388,1064
-538.0892356927677,1093
-535.3831824078238,1184
-532.6782375597103,1190
-529.9744000238613,1260
-527.2716686766433,1327
-524.5700423953542,1608
-521.8695200582238,1450
-519.1701005444136,1388
-516.4717827340166,1464
-513.7745655080581,1672
-511.0784477484944,1892
-508.38342833821423,1827
-505.68950616103757,1766
-502.9966801017163,1733
-500.3049490459341,1798
-497.61431188030633,1620
-494.9247674923801,1380
-492.2363147706342,1203
-489.54895260447927,1194
-486.86267988425755,1143
-484.1774955012431,1202
-481.4933983476417,1286
-478.8103873165908,1168
-476.1284613021596,1111
-473.44761919934945,1114
-470.7678599040928,1079
-468.089182313254,1167
-465.4115853246294,1142
-462.735067836947,1275
-460.0596287498663,1287
-457.3852669639789,1063
-454.71198138080774,1013
-452.03977090280773,1068
-449.3686344333656,1036
-446.69857087679964,1120
-444.02957913835996,1173
-441.36165812422837,1135
-438.6948067415183,1143
-436.0290238982752,1105
-433.36430850347597,1131
-430.7006594670296,1166
-428.0380756997763,1175
-425.3765561134885,1222
-422.7160996208702,1192
-420.0567051355571,1222
-417.3983715721164,1142
-414.7410978460475,1160
-412.08488287378145,1187
-409.4297255726806,1188
-406.77562486103955,1090
-404.1225796580843,1056
-401.4705888839728,971
-398.8196514597947,890
-396.1697663075713,928
-393.5209323502555,967
-390.8731485117323,840
-388.22641371681823,806
-385.5807268912615,923
-382.93608696174226,951
-380.29249285587207,823
-377.64994350219456,727
-375.0084378301849,743
-372.36797477025016,787
-369.7285532537287,815
-367.0901722128914,788
-364.45283058094014,756
-361.8165272920089,782
-359.1812612811634,725
-356.54703148440103,646
-353.9138368386507,664
-351.28167628177346,790
-348.6505487525617,923
-346.02045319074,818
-343.3913885369643,797
-340.76335373282245,807
-338.1363477208339,788
-335.5103694444499,850
-332.8854178480535,815
-330.26149187695944,781
-327.63859047741425,763
-325.016712596596,678
-322.3958571826148,647
-319.77602318451227,767
-317.15720955226186,741
-314.5394152367686,750
-311.9226391898695,762
-309.3068803643333,763
-306.69213771386023,818
-304.0784101930824,983
-301.4656967575635,1088
-298.8539963637994,930
-296.2433079692172,964
-293.6336305321761,1006
-291.02496301196675,908
-288.41730436881176,1048
-285.81065356386534,936
-283.2050095592135,879
-280.60037131787396,1147
-277.9967378037961,1421
-275.39410798186134,1123
-272.7924808178824,1197
-270.19185527860407,1211
-267.5922303317028,1086
-264.9936049457866,1193
-262.3959780903955,1103
-259.79934873600087,1154
-257.2037158540064,1260
-254.6090784167469,1246
-252.01543539748934,1314
-249.42278577043237,1174
-246.8311285107061,1040
-244.24046259437262,976
-241.6507869984256,1078
-239.0621007007909,1119
-236.4744026803254,1149
-233.88769191681808,1250
-231.30196739098994,1160
-228.7172280844934,1111
-226.13347297991243,1226
-223.550701060763,1311
-220.9689113114929,1176
-218.3881027174814,1114
-215.8082742650397,1166
-213.22942494141068,1565
-210.65155373476898,2039
-208.07465963422078,1921
-205.49874162980439,1834
-202.92379871248932,1820
-200.34982987417743,1622
-197.7768341077018,1407
-195.20481040682762,1260
-192.63375776625162,1135
-190.0636751816021,1243
-187.49456164943945,1336
-184.92641616725564,1515
-182.3592377334743,1499
-179.79302534745102,1445
-177.2277780094729,1671
-174.66349472075865,1698
-172.10017448345923,1782
-169.5378163006569,1566
-166.97641917636565,1411
-164.41598211553162,1652
-161.8565041240322,2005
-159.29798420867678,1965
-156.74042137720642,1741
-154.18381463829382,1706
-151.6281630015436,1664
-149.07346547749228,1515
-146.51972107760753,1260
-143.96692881428908,1365
-141.41508770086864,1820
-138.86419675160937,1845
-136.31425498170609,1710
-133.7652614072856,1791
-131.21721504540642,1924
-128.67011491405844,2114
-126.12396003216395,2630
-123.57874941957618,3012
-121.03448209708074,2654
-118.49115708639465,2509
-115.94877341016684,2570
-113.40733009197788,2691
-110.86682615633993,2816
-108.32726062869733,2817
-105.78863253542556,3433
-103.25094090383243,4777
-100.71418476215695,4387
-98.17836313957025,3942
-95.64347506617503,2919
-93.10951957300585,2895
-90.57649569202886,3255
-88.04440245614194,3555
-85.51323889917478,3913
-82.98300405588896,5095
-80.45369696197747,6561
-77.925316654065,9785
-75.39786216970867,13418
-72.87133254739649,17170
-70.34572682654857,19678
-67.82104404751692,23468
-65.29728325158499,25907
-62.774443480968216,28125
-60.252523778813384,28747
-57.73152318919938,26668
-55.21144075713676,28939
-52.69227552856796,26562
-50.17402655036665,24487
-47.65669287033859,23186
-45.14027353722133,21970
-42.624767600684095,22643
-40.11017411132775,22170
-37.59649212068507,23947
-35.08372068122037,25479
-32.57185884632963,25434
-30.06090567034107,30820
-27.550860208513996,33681
-25.04172151704006,43061
-22.533488653042014,63506
-20.02616067457484,65042
-17.51973664062507,65042
-15.014215611111126,65042
-12.509596646882983,65042
-10.005878809722162,65042
-7.503061162342419,65042
-5.001142768389059,65042
-2.5001226924387083,65042
-3.410605131648481E-13,65042
2.49922624248552,65042
4.997556967646801,65042
7.494993107179766,65042
9.99153559184856,65042
12.487185351485778,65042
14.98194331499235,65042
17.475810410337544,65042
19.96878756455851,65042
22.46087570376085,65042
24.952075753118834,31812
27.442388636874625,8613
29.93181527833849,7054
32.42035659988892,7738
34.90801352297353,11740
37.39478696810693,11686
39.880677854873056,9596
42.36568710192364,7334
44.8498156269784,8113
47.33306434682618,7184
49.815434177322686,6820
52.296926033393675,6967
54.77754082903198,7370
57.25727947729865,8859
59.736142890323435,8396
62.214131979304284,5137
64.6912476545076,3639
67.16749082526735,3253
69.64286239998614,2872
72.11736328613551,3842
74.59099439025431,4559
77.06375661794982,5305
79.53565087389825,4180
82.0066780618431,3511
84.4768390845968,3451
86.94613484403999,3620
89.41456624112152,5362
91.88213417585825,4898
94.34883954733527,3191
96.81468325370679,3098
99.2796661921941,2213
101.74378925908763,2604
104.20705334974559,2846
106.66945935859462,3255
109.1310081791296,3588
111.59170070391383,4012
114.05153782457865,3825
116.5105204318238,2644
118.96864941541708,2775
121.42592566419489,3610
123.88235006606146,3772
126.3379235079899,3042
128.79264687602085,2601
131.2465210552641,2774
133.69954692989631,2776
136.15172538316415,2854
138.60305729738116,2612
141.05354355393,2446
143.50318503326116,2432
145.95198261489327,2671
148.39993717741368,2712
150.84704959847772,3230
153.29332075480897,3319
155.73875152219944,3329
158.18334277550935,3500
160.62709538866693,3218
163.0700102346691,2930
165.51208818558075,2923
167.953330112535,2933
170.39373688573346,2653
172.8333093744459,2833
175.2720484470101,3162
177.70995497083277,3373
180.14702981238815,3618
182.58327383721917,3365
185.01868790993672,3233
187.45327289422062,3191
189.88702965281777,3068
192.31995904754444,2991
194.75206193928489,3150
197.18333918799135,3096
199.61379165268454,2981
202.04342019145315,2938
204.4722256614548,2985
206.90020891891436,3155
209.32737081912592,3077
211.7537122164515,3023
214.17923396432116,2905
216.6039369152336,3098
219.0278219207553,3031
221.45088983152186,2979
223.8731414972358,3139
226.29457776666914,2952
228.71519948766172,2881
231.1350075071216,2968
233.55400267102482,3063
235.97218582441633,3100
238.38955781140908,2977
240.806119475184,3083
243.2218716579905,3197
245.6368152011462,3158
248.05095094503736,3059
250.46427972911806,3123
252.87680239191036,3124
255.28851977100544,3203
257.69943270306203,3301
260.10954202380753,2977
262.5188485680378,2955
264.92735316961557,3170
267.33505666147425,3151
269.7419598756128,3010
272.14806364310084,3113
274.5533687940747,3005
276.95787615773975,2942
279.361586562369,2844
281.7645008353045,2855
284.1666198029559,2726
286.5679442908013,2825
288.96847512338695,2898
291.3682131243279,2944
293.7671591163071,2868
296.1653139210757,3007
298.562678359453,2939
300.9592532513268,2915
303.3550394156532,3001
305.75003767045655,2845
308.14424883282936,2879
310.53767371893196,2899
312.93031314399377,2802
315.3221679223125,2681
317.71323886725304,2568
320.1035267912496,2648
322.49303250580397,2637
324.881756821487,2580
327.2697005479374,2560
329.65686449386135,2582
332.0432494670347,2571
334.4288562743004,2559
336.81368572157066,2506
339.19773861382487,2494
341.58101575511205,2463
343.96351794854786,2617
346.3452459963173,2447
348.72620069967365,2418
351.1063828589379,2472
353.48579327349967,2633
355.8644327418169,2533
358.24230206141533,2421
360.6194020288899,2422
362.99573343990255,2459
365.3712970891845,2360
367.7460937705348,2342
370.12012427682066,2346
372.493389399978,2412
374.86588993101077,2339
377.23762665999084,2298
379.6086003760588,2319
381.9788118674235,2296
384.34826192136165,2314
386.7169513242188,2259
389.08488086140824,2149
391.4520513174118,2266
393.8184634757795,2382
396.1841181191296,2417
398.54901602914856,2407
400.9131579865916,2448
403.2765447712811,2325
405.63917716210926,2330
408.00105593703483,2449
410.36218187308646,2267
412.7225557463596,2258
415.0821783320191,2208
417.4410504042976,2291
419.79917273649585,2218
422.1565461009834,2308
424.5131712691973,2344
426.869049011643,2252
429.22418009789544,2269
431.578565296596,2195
433.9322053754556,2152
436.28510110125285,2088
438.6372532398352,2160
440.98866255611733,2153
443.33932981408293,2197
445.6892557767842,2131
448.0384412063411,2091
450.38688686394175,2221
452.7345935098431,2263
455.0815619033697,2171
457.42779280291506,2202
459.7732869659403,2264
462.1180451489754,2249
464.4620681076178,2210
466.80535659653424,2089
469.1479113694588,2192
471.48973317919445,2242
473.8308227776122,2265
476.17118091565135,2308
478.51080834331924,2397
480.8497058096914,2404
483.1878740629122,2527
485.5253138501944,2540
487.8620259178176,2455
490.1980110111317,2806
492.53326987455307,2942
494.86780325156724,3108
497.201611884728,3312
499.53469651565683,3528
501.8670578850447,3812
504.1986967326493,3895
506.52961379729754,3838
508.85980981688454,3613
511.18928552837315,3407
513.5180416677952,3207
515.8460789702503,3179
518.1733981699067,3644
520.5,4515
522.8258851928354,4628
525.1510544797857,4444
527.4755085912916,3820
529.7992482568625,3324
532.1222742050759,2816
534.4445871635783,2420
536.766187859083,2195
539.0870770173726,2078
541.4072553632982,2030
543.7267236207783,2011
546.0454825128002,2125
548.363532761419,2091
550.6808750877592,2213
552.9975102120118,2130
555.3134388534377,2189
557.6286617303654,2021
559.9431795601911,2146
562.2569930593802,2056
564.570102943466,2214
566.88250992705,2138
569.1942147238021,2084
571.5052180464602,2030
573.8155206068309,2093
576.1251231157885,2214
578.4340262832759,2045
580.7422308183045,2065
583.0497374289534,2013
585.3565468223703,1979
587.6626597047714,2058
589.9680767814409,1975
592.2727987567309,2001
594.5768263340624,2041
596.8801602159238,1974
599.1828011038731,2034
601.4847496985356,2047
603.7860066996047,2089
606.0865728058427,1939
608.3864487150802,1928
610.6856351242152,1912
612.9841327292149,1943
615.2819422251141,1977
617.5790643060163,1963
619.8754996650935,1916
622.1712489945849,1985
624.466312985799,1957
626.7606923291121,1970
629.0543877139692,2106
631.347399828883,2063
633.6397293614343,1981
635.9313769982732,2050
638.2223434251173,2062
640.5126293267522,2027
642.8022353870326,1992
645.0911622888809,2002
647.3794107142876,1932
649.666981344312,1966
651.9538748590815,2106
654.2400919377915,2027
656.525633258706,2121
658.8104994991568,2028
661.0946913355442,2097
663.3782094433375,2091
665.6610544970729,2084
667.9432271703561,2123
670.22472813586,2106
672.5055580653268,2038
674.7857176295659,2163
677.065207498456,1998
679.3440283409432,1976
681.6221808250425,2043
683.899665617837,1981
686.1764833854772,1948
688.4526347931837,2023
690.7281205052436,1984
693.0029411850135,2011
695.2770974949171,2021
697.5505900964474,2125
699.8234196501651,2036
702.0955868156989,1997
704.3670922517472,1980
706.6379366160747,2044
708.9081205655159,2072
711.1776447559728,2014
713.4465098424155,2061
715.714716478883,2113
717.9822653184822,1967
720.2491570133882,2027
722.5153922148452,2078
724.7809715731639,2008
727.0458957377248,2060
729.3101653569763,1935
731.5737810784346,2037
733.8367435486853,2023
736.0990534133803,2040
738.3607113172418,2059
740.6217179040591,1964
742.8820738166899,2021
745.1417796970607,2028
747.4008361861659,2004
749.6592439240678,2003
751.9170035498973,2053
754.1741157018539,2170
756.4305810172048,2111
758.686400132286,2040
760.9415736825013,2061
763.196102302323,2015
765.4499866252911,2070
767.7032272840152,2186
769.9558249101717,2162
772.207780134506,2139
774.4590935868323,2158
776.7097658960313,2208
778.9597976900541,2142
781.2091895959184,2072
783.457942239711,2004
785.7060562465867,2143
787.9535322407687,2160
790.2003708455488,2158
792.4465726832861,2075
794.6921383754088,2155
796.9370685424128,2197
799.1813638038632,2170
801.4250247783918,2209
803.6680520837006,2104
805.9104463365579,2042
808.1522081528019,2146
810.393338147338,2114
812.6338369341406,2088
814.8737051262517,2119
817.1129433357819,2113
819.35155217391,2098
821.5895322508834,2083
823.8268841760168,2013
826.0636085576946,2143
828.2997060033681,2051
830.535177119558,2088
832.7700225118522,2059
835.0042427849078,2004
837.2378385424493,1980
839.4708103872701,2098
841.7031589212318,2033
843.9348847452643,2106
846.1659884593648,2084
848.3964706626004,2106
850.6263319531054,2109
852.8555729280824,2042
855.0841941838025,2004
857.3121963156052,2094
859.5395799178978,2094
861.7663455841566,2128
863.9924939069251,2101
866.2180254778159,2220
868.4429408875103,2129
870.6672407257561,2109
872.890925581371,2199
875.1139960422404,2042
877.336452695318,2063
879.5582961266261,2142
881.7795269212543,2094
884.0001456633613,2061
886.2201529361741,2174
888.4395493219874,2171
890.6583354021648,2315
892.8765117571375,2185
895.094078966405,2112
897.3110376085365,2180
899.5273882611671,2088
901.7431315010019,2063
903.958267903814,2194
906.1727980444443,2209
908.3867224968019,2047
910.6000418338647,2033
912.8127566276792,2100
915.0248674493587,2101
917.2363748690857,2079
919.4472794561113,2054
921.6575817787543,2113
923.867282404402,1979
926.0763818995099,2003
928.2848808296014,2033
930.4927797592693,2012
932.700079252173,2039
934.9067798710416,2075
937.112882177672,2051
939.3183867329287,1987
941.5232940967453,1994
943.727604828124,2009
945.9313194851336,1987
948.1344386249132,2042
950.3369628036685,2010
952.5388925766747,2037
954.7402284982745,1967
956.9409711218789,1948
959.1411209999676,1950
961.3406786840883,1911
963.5396447248565,1926
965.7380196719573,1933
967.9358040741427,2019
970.1329984792335,1906
972.3296034341188,1968
974.5256194847555,1897
976.72104717617,1886
978.9158870524552,1856
981.1101396567742,1934
983.3038055313566,1907
985.4968852175009,1872
987.6893792555747,1939
989.8812881850124,1822
992.072612544318,1892
994.263352871063,1881
996.453509701887,1945
998.6430835724984,1952
1000.832075017674,1809
1003.0204845712583,1783
1005.208312766164,1815
1007.3955601343728,1833
1009.5822272069338,1740
1011.7683145139652,1742
1013.9538225846525,1770
1016.1387519472505,1744
1018.3231031290818,1749
1020.5068766565371,1686
1022.6900730550753,1894
1024.872692849224,1842
1027.054736562579,1737
1029.2362047178037,1689
1031.4170978366305,1719
1033.5974164398597,1722
1035.7771610473603,1673
1037.9563321780693,1680
1040.1349303499917,1616
1042.3129560802006,1612
1044.490409884838,1629
1046.667292279115,1614
1048.8436037773079,1610
1051.0193448927644,1660
1053.1945161378994,1694
1055.3691180241954,1613
1057.5431510622038,1656
1059.7166157615447,1707
1061.8895126309053,1637
1064.0618421780423,1741
1066.2336049097798,1693
1068.4048013320107,1670
1070.5754319496955,1659
1072.745497266863,1590
1074.9149977866118,1707
1077.0839340111065,1607
1079.2523064415818,1618
1081.4201155783398,1609
1083.587361920751,1587
1085.7540459672537,1567
1087.9201682153553,1605
1090.0857291616308,1571
1092.2507293017238,1573
1094.4151691303464,1560
1096.579049141279,1540
1098.7423698273687,1559
1100.9051316805335,1579
1103.0673351917571,1537
1105.2289808510936,1608
1107.3900691476633,1509
1109.550600569657,1533
1111.710575604332,1603
1113.8699947380146,1542
1116.028858456099,1556
1118.1871672430489,1614
1120.344921582394,1564
1122.5021219567334,1554
1124.6587688477362,1577
1126.8148627361365,1609
1128.9704041017399,1589
1131.1253934234173,1594
1133.2798311791098,1539
1135.4337178458263,1602
1137.5870538996437,1525
1139.7398398157075,1530
1141.8920760682313,1537
1144.0437631304972,1589
1146.1949014748543,1582
1148.3454915727225,1573
1150.4955338945874,1558
1152.6450289100044,1540
1154.7939770875969,1561
1156.9423788950558,1566
1159.0902347991405,1535
1161.2375452656802,1551
1163.3843107595703,1585
1165.530531744775,1591
1167.6762086843282,1580
1169.8213420403304,1518
1171.9659322739503,1586
1174.1099798454266,1499
1176.2534852140639,1516
1178.3964488382376,1525
1180.538871175389,1506
1182.680752682029,1538
1184.8220938137365,1527
1186.9628950251595,1517
1189.103156770012,1516
1191.2428795010783,1559
1193.3820636702108,1474
1195.5207097283287,1516
1197.6588181254215,1509
1199.7963893105457,1546
1201.9334237318253,1498
1204.0699218364548,1514
1206.2058840706954,1598
1208.3413108798773,1494
1210.476202708397,1543
1212.6105599997222,1538
1214.7443831963874,1565
1216.877672739995,1518
1219.0104290712165,1554
1221.1426526297905,1580
1223.2743438545253,1645
1225.4055031832972,1491
1227.5361310530493,1542
1229.6662278997946,1533
1231.7957941586142,1545
1233.9248302636565,1511
1236.053336648139,1478
1238.1813137443464,1581
1240.3087619836338,1548
1242.4356817964222,1501
1244.5620736122019,1552
1246.6879378595318,1462
1248.813274966039,1507
1250.938085358418,1536
1253.062369462432,1492
1255.186127702913,1544
1257.3093605037611,1522
1259.4320682879434,1558
1261.554251477498,1553
1263.6759104935277,1567
1265.797045756206,1590
1267.9176576847744,1557
1270.0377466975428,1535
1272.1573132118879,1491
1274.2763576442567,1537
1276.394880410162,1612
1278.5128819241877,1643
1280.6303625999835,1565
1282.7473228502695,1536
1284.8637630868325,1605
1286.9796837205272,1625
1289.0950851612783,1589
1291.209967818078,1699
1293.3243320989864,1624
1295.4381784111324,1686
1297.551507160712,1626
1299.6643187529912,1623
1301.776613592303,1624
1303.888392082049,1703
1305.9996546246998,1679
1308.1104016217923,1669
1310.220633473934,1640
1312.3303505807999,1729
1314.4395533411316,1786
1316.5482421527418,1690
1318.6564174125092,1618
1320.7640795163816,1642
1322.8712288593752,1583
1324.9778658355744,1701
1327.0839908381313,1657
1329.1896042592675,1625
1331.2947064902714,1660
1333.3992979215009,1650
1335.503378942381,1679
1337.6069499414057,1650
1339.7100113061383,1653
1341.8125634232074,1623
1343.9146066783128,1628
1346.0161414562212,1648
1348.1171681407677,1611
1350.2176871148563,1678
1352.3176987604575,1651
1354.4172034586127,1629
1356.5162015894289,1652
1358.6146935320835,1704
1360.7126796648213,1687
1362.8101603649548,1702
1364.9071360088656,1622
1367.0036069720036,1642
1369.099573628886,1530
1371.195036353099,1617
1373.2899955172975,1631
1375.3844514932039,1673
1377.4784046516088,1606
1379.5718553623715,1668
1381.6648039944193,1646
1383.7572509157485,1614
1385.8491964934224,1617
1387.9406410935735,1672
1390.0315850814022,1685
1392.122028821177,1648
1394.2119726762357,1685
1396.3014170089828,1618
1398.3903621808918,1614
1400.4788085525051,1670
1402.566756483432,1660
1404.6542063323514,1642
1406.7411584570095,1604
1408.8276132142219,1680
1410.9135709598704,1670
1412.9990320489078,1674
1415.083996835353,1672
1417.1684656722937,1644
1419.2524389118867,1635
1421.3359169053565,1627
1423.4189000029946,1653
1425.5013885541634,1715
1427.5833829072913,1638
1429.664883409876,1621
1431.7458904084833,1644
1433.8264042487467,1647
1435.9064252753697,1667
1437.9859538321216,1631
1440.0649902618416,1644
1442.1435349064373,1642
1444.2215881068837,1749
1446.2991502032237,1660
1448.37622153457,1704
1450.452802439103,1711
1452.5288932540698,1724
1454.604494315788,1732
1456.6796059596427,1754
1458.7542285200866,1697
1460.8283623306415,1739
1462.902007723897,1730
1464.9751650315106,1739
1467.0478345842089,1753
1469.1200167117868,1749
1471.1917117431062,1719
1473.2629200060992,1741
1475.333641827764,1713
1477.4038775341692,1717
1479.4736274504498,1852
1481.5428919008104,1842
1483.6116712085222,1769
1485.6799656959279,1851
1487.7477756844346,1817
1489.8151014945201,1794
1491.88194344573,1843
1493.9483018566775,1861
1496.0141770450455,1894
1498.0795693275822,1809
1500.1444790201076,1860
1502.2089064375086,1847
1504.2728518937402,1896
1506.3363157018239,1980
1508.3992981738534,1908
1510.4617996209872,1954
1512.5238203534536,1953
1514.5853606805495,2061
1516.6464209106384,2034
1518.7070013511543,2078
1520.7671023085973,2087
1522.8267240885375,2096
1524.885866995612,2200
1526.9445313335268,2119
1529.002717405056,2227
1531.0604255120425,2308
1533.1176559553965,2347
1535.1744090350971,2328
1537.2306850501914,2402
1539.2864842987956,2356
1541.3418070780922,2396
1543.396653684334,2398
1545.4510244128405,2485
1547.5049195580013,2529
1549.5583394132727,2496
1551.61128427118,2616
1553.6637544233158,2635
1555.7157501603415,2673
1557.7672717719888,2685
1559.8183195470538,2824
1561.8688937734037,2781
1563.9189947379737,2807
1565.9686227267657,2799
1568.0177780248514,2794
1570.0664609163696,2815
1572.1146716845292,2800
1574.162410611605,2741
1576.2096779789413,2654
1578.2564740669518,2504
1580.3027991551157,2440
1582.3486535219831,2374
1584.3940374451709,2247
1586.4389512013645,2099
1588.4833950663178,2073
1590.5273693148533,2008
1592.5708742208603,2046
1594.6139100572982,2087
1596.6564770961936,2045
1598.698575608642,1967
1600.7402058648063,1925
1602.7813681339185,1836
1604.8220626842776,1792
1606.8622897832533,1837
1608.9020496972812,1836
1610.9413426918663,1822
1612.9801690315808,1794
1615.018528980066,1780
1617.056422800033,1753
1619.0938507532578,1682
1621.1308131005876,1656
1623.1673101019355,1709
1625.2033420162848,1705
1627.2389091016862,1702
1629.274011615259,1758
1631.3086498131897,1666
1633.3428239507352,1727
1635.376534282219,1693
1637.4097810610324,1687
1639.4425645396364,1703
1641.4748849695593,1745
1643.5067426013989,1677
1645.53813768482,1648
1647.5690704685549,1727
1649.5995412004067,1689
1651.6295501272452,1691
1653.6590974950086,1730
1655.6881835487025,1653
1657.7168085324029,1665
1659.7449726892523,1679
1661.772676261462,1652
1663.7999194903114,1637
1665.8267026161484,1703
1667.8530258783894,1657
1669.8788895155185,1686
1671.9042937650888,1648
1673.9292388637205,1643
1675.953725047103,1614
1677.977752549994,1669
1680.0013216062184,1621
1682.0244324486712,1693
1684.0470853093134,1726
1686.0692804191767,1696
1688.0910180083588,1653
1690.1122983060268,1626
1692.1331215404175,1589
1694.1534879388319,1667
1696.173397727644,1681
1698.1928511322926,1654
1700.211848377286,1650
1702.2303896862018,1735
1704.248475281684,1757
1706.2661053854458,1760
1708.2832802182684,1758
1710.300000000002,1621
1712.3162649495644,1722
1714.3320752849409,1676
1716.3474312231865,1655
1718.362332980424,1626
1720.376780771845,1600
1722.3907748117072,1691
1724.4043153133393,1650
1726.4174024891367,1633
1728.4300365505628,1605
1730.442217708151,1627
1732.4539461715008,1679
1734.465222149282,1652
1736.4760458492306,1653
1738.4864174781524,1629
1740.496337241921,1646
1742.5058053454786,1685
1744.5148219928346,1609
1746.523387387068,1594
1748.531501730325,1644
1750.5391652238209,1624
1752.5463780678388,1615
1754.55314046173,1552
1756.5594526039135,1605
1758.565314691879,1704
1760.5707269221812,1568
1762.5756894904443,1658
1764.580202591363,1666
1766.5842664186966,1636
1768.5878811652751,1706
1770.591047022996,1617
1772.593764182825,1583
1774.5960328347965,1676
1776.5978531680116,1597
1778.5992253706427,1713
1780.6001496299273,1627
1782.6006261321731,1729
1784.6006550627553,1626
1786.6002366061175,1679
1788.5993709457725,1640
1790.5980582642992,1689
1792.5962987433468,1645
1794.5940925636314,1611
1796.5914399049389,1600
1798.5883409461221,1589
1800.584795865102,1606
1802.580804838869,1599
1804.5763680434807,1599
1806.571485654064,1637
1808.566157844813,1677
1810.5603847889902,1663
1812.5541666589274,1654
1814.5475036260236,1626
1816.5403958607467,1587
1818.5328435326323,1639
1820.5248468102845,1583
1822.5164058613755,1589
1824.5075208526468,1622
1826.4981919499064,1651
1828.488419318032,1665
1830.4782031209684,1646
1832.4675435217305,1634
1834.4564406823993,1595
1836.4448947641258,1591
1838.432905927128,1652
1840.4204743306927,1642
1842.4076001331746,1687
1844.3942834919985,1644
1846.380524563654,1603
1848.366323503702,1645
1850.351680466771,1565
1852.3365956065563,1613
1854.3210690758228,1630
1856.3051010264044,1598
1858.2886916092007,1617
1860.271840974182,1670
1862.2545492703862,1590
1864.2368166459191,1633
1866.2186432479543,1681
1868.2000292227349,1712
1870.1809747155717,1632
1872.1614798708429,1619
1874.1415448319963,1642
1876.1211697415474,1662
1878.1003547410805,1618
1880.0790999712472,1620
1882.0574055717675,1670
1884.0352716814305,1685
1886.0126984380927,1633
1887.989685978679,1649
1889.9662344391836,1643
1891.9423439546672,1639
1893.9180146592607,1616
1895.893246686161,1680
1897.868040167636,1712
1899.8423952350195,1663
1901.8163120187137,1688
1903.7897906481917,1661
1905.7628312519923,1662
1907.7354339577219,1610
1909.7075988920578,1627
1911.6793261807447,1632
1913.6506159485943,1676
1915.6214683194871,1657
1917.5918834163726,1689
1919.5618613612687,1645
1921.5314022752605,1597
1923.5005062785012,1630
1925.4691734902144,1642
1927.4374040286893,1719
1929.4051980112845,1679
1931.3725555544274,1640
1933.3394767736136,1683
1935.305961783406,1656
1937.2720106974361,1653
1939.237623628404,1613
1941.2028006880778,1688
1943.167541987295,1711
1945.1318476359588,1735
1947.0957177430432,1686
1949.0591524165898,1640
1951.0221517637078,1681
1952.984715890574,1677
1954.9468449024357,1698
1956.9085389036072,1677
1958.8697979974704,1660
1960.8306222864767,1615
1962.7910118721456,1645
1964.7509668550638,1650
1966.7104873348871,1644
1968.6695734103387,1625
1970.6282251792127,1598
1972.586442738368,1598
1974.5442261837343,1662
1976.501575610307,1687
1978.4584911121533,1677
1980.4149727824056,1686
1982.3710207132658,1705
1984.326634996004,1659
1986.2818157209585,1670
1988.2365629775359,1674
1990.1908768542116,1692
1992.144757438527,1650
1994.0982048170954,1652
1996.0512190755953,1637
1998.0038002987749,1695
1999.95594857045,1666
2001.9076639735054,1666
2003.8589465898945,1626
2005.8097965006368,1658
2007.760213785822,1653
2009.7101985246077,1641
2011.6597507952201,1611
2013.6088706749524,1617
2015.5575582401675,1573
2017.5058135662953,1650
2019.4536367278351,1616
2021.4010277983534,1632
2023.347986850486,1565
2025.2945139559365,1682
2027.2406091854768,1659
2029.1862726089462,1654
2031.1315042952538,1661
2033.0763043123766,1681
2035.0206727273585,1681
2036.964609606313,1608
2038.908115014422,1657
2040.8511890159348,1646
2042.7938316741693,1638
2044.7360430515123,1623
2046.677823209417,1677
2048.6191722084077,1692
2050.5600901080743,1643
2052.5005769670765,1680
2054.440632843142,1588
2056.380257793066,1657
2058.3194518727128,1606
2060.258215137015,1643
2062.1965476399732,1638
2064.1344494346554,1624
2066.0719205732,1648
2068.008961106812,1598
2069.945571085764,1640
2071.8817505593997,1647
2073.817499576128,1669
2075.7528181834273,1624
2077.6877064278447,1660
2079.622164354995,1617
2081.556192009562,1632
2083.4897894352966,1575
2085.4229566750187,1664
2087.355693770616,1636
2089.2880007630456,1646
2091.219877692331,1593
2093.151324597566,1701
2095.0823415169107,1682
2097.012928487595,1644
2098.9430855459173,1646
2100.872812727242,1688
2102.8021100660035,1651
2104.730977595705,1664
2106.659415348917,1658
2108.5874233572777,1706
2110.5150016514945,1639
2112.442150261343,1686
2114.3688692156675,1661
2116.2951585423793,1663
2118.2210182684585,1655
2120.146448419954,1624
2122.0714490219825,1597
2123.9960200987293,1627
2125.920161673447,1632
2127.843873768458,1605
2129.767156405151,1629
2131.690009603985,1662
2133.612433384486,1686
2135.534427765249,1653
2137.4559927639366,1678
2139.37712839728,1606
2141.2978346810783,1631
2143.2181116301995,1497
2145.1379592585795,1630
2147.057377579222,1667
2148.9763666042,1673
2150.894926344655,1641
2152.813056810794,1671
2154.730758011896,1665
2156.648029956306,1605
2158.564872651437,1599
2160.481286103772,1683
2162.397270318861,1645
2164.312825301323,1628
2166.227951054844,1702
2168.14264758218,1659
2170.056914885153,1615
2171.9707529646566,1708
2173.8841618206484,1646
2175.7971414521585,1711
2177.7096918572825,1660
2179.621813033186,1629
2181.5335049761,1618
2183.444767681327,1705
2185.355601143236,1698
2187.2660053552654,1644
2189.1759803099208,1727
2191.085525998777,1689
2192.994642412475,1663
2194.903329540727,1675
2196.811587372312,1618
2198.7194158950765,1621
2200.626815095937,1598
2202.5337849608763,1662
2204.440325474948,1653
2206.346436622271,1631
2208.2521183860345,1660
2210.157370748496,1637
2212.0621936909793,1666
2213.966587193879,1659
2215.8705512366573,1616
2217.774085797842,1616
2219.677190855033,1654
2221.579866384897,1722
2223.4821123631677,1678
2225.3839287646483,1631
2227.2853155632106,1675
2229.186272731794,1674
2231.0868002424063,1672
2232.986898066123,1621
2234.8865661730892,1602
2236.785804532517,1623
2238.6846131126877,1677
2240.5829918809495,1620
2242.4809408037213,1625
2244.3784598464877,1616
2246.275548973803,1682
2248.172208149288,1671
2250.0684373356357,1589
2251.964236494603,1634
2253.859605587017,1669
2255.7545445727733,1685
2257.6490534108357,1660
2259.5431320592356,1641
2261.436780475073,1634
2263.329998614516,1694
2265.222786432802,1679
2267.1151438842344,1648
2269.0070709221877,1631
2270.8985674991022,1675
2272.789633566488,1642
2274.6802690749237,1631
2276.570473974053,1617
2278.4602482125933,1626
2280.3495917383257,1661
2282.238504498101,1570
2284.1269864378387,1643
2286.0150375025264,1669
2287.9026576362203,1666
2289.789846782043,1613
2291.6766048821873,1618
2293.5629318779147,1704
2295.4488277095534,1635
2297.3342923164996,1661
2299.2193256372193,1678
2301.1039276092465,1629
2302.9880981691817,1660
2304.871837252696,1630
2306.755144794528,1669
2308.6380207284838,1766
2310.5204649874386,1639
2312.4024775033354,1665
2314.2840582071854,1709
2316.165207029068,1734
2318.0459238981325,1688
2319.926208742594,1718
2321.8060614897363,1693
2323.6854820659137,1634
2325.5644703965463,1634
2327.443026406124,1716
2329.321150018203,1700
2331.1988411554107,1715
2333.0760997394395,1652
2334.952925691053,1680
2336.829318930082,1655
2338.705279375424,1615
2340.5808069450477,1604
2342.4559015559867,1639
2344.3305631243456,1660
2346.204791565297,1698
2348.07858679308,1622
2349.9519487210027,1647
2351.824877261443,1701
2353.6973723258448,1693
2355.5694338247226,1645
2357.4410616676564,1706
2359.312255763297,1673
2361.1830160193617,1652
2363.053342342637,1642
2364.9232346389776,1673
2366.792692813306,1670
2368.6617167696145,1692
2370.5303064109603,1719
2372.3984616394723,1676
2374.2661823563467,1604
2376.1334684618464,1707
2378.0003198553054,1713
2379.8667364351227,1697
2381.7327180987672,1668
2383.5982647427777,1702
2385.4633762627586,1635
2387.3280525533837,1681
2389.192293508395,1607
2391.0560990206027,1671
2392.919468981885,1697
2394.782403283189,1719
2396.644901814531,1735
2398.5069644649916,1692
2400.3685911227235,1632
2402.2297816749474,1680
2404.0905360079505,1653
2405.950854007089,1641
2407.8107355567886,1677
2409.670180540541,1608
2411.529188840908,1726
2413.387760339518,1724
2415.2458949170705,1680
2417.1035924533294,1702
2418.96085282713,1697
2420.8176759163744,1679
2422.6740615980334,1684
2424.5300097481468,1653
2426.38552024182,1725
2428.24059295323,1716
2430.0952277556207,1697
2431.949424521303,1693
2433.803183121658,1712
2435.6565034271343,1700
2437.5093853072485,1579
2439.361828630585,1671
2441.213833264798,1714
2443.0653990766095,1726
2444.916525931808,1640
2446.7672136952524,1678
2448.6174622308695,1712
2450.4672714016538,1769
2452.3166410696676,1700
2454.165571096043,1634
2456.0140613409794,1720
2457.8621116637432,1628
2459.709721922672,1689
2461.556891975169,1638
2463.403621677707,1682
2465.249910885827,1714
2467.0957594541383,1665
2468.9411672363167,1682
2470.78613408511,1628
2472.630659852331,1700
2474.4747443888614,1621
2476.3183875446516,1627
2478.161589168721,1669
2480.0043491091556,1742
2481.8466672131112,1724
2483.6885433268108,1680
2485.529977295547,1703
2487.370968963678,1722
2489.2115181746335,1586
2491.0516247709097,1678
2492.891288594071,1676
2494.7305094847497,1631
2496.569287282649,1678
2498.407621826537,1697
2500.2455129542523,1689
2502.0829605027,1681
2503.919964307855,1653
2505.7565242047594,1661
2507.5926400275252,1665
2509.42831160933,1667
2511.263538782423,1695
2513.0983213781174,1656
2514.9326592267994,1644
2516.76655215792,1646
2518.5999999999995,1777
2520.4330025806275,1705
2522.2655597264607,1633
2524.0976712632237,1677
2525.9293370157097,1639
2527.760556807782,1692
2529.591330462369,1692
2531.4216578014702,1767
2533.2515386461523,1721
2535.080972816548,1719
2536.9099601318626,1697
2538.738500410366,1689
2540.5665934693993,1741
2542.3942391253695,1737
2544.221437193752,1734
2546.0481874890925,1699
2547.874489825003,1719
2549.700344014164,1706
2551.5257498683245,1710
2553.350707198304,1681
2555.175215813986,1734
2556.9992755243256,1737
2558.8228861373454,1670
2560.646047460134,1743
2562.468759298852,1755
2564.2910214587255,1705
2566.1128337440496,1777
2567.93419595819,1784
2569.7551079035757,1673
2571.5755693817077,1712
2573.395580193155,1813
2575.2151401375536,1743
2577.034249013609,1733
2578.8529066190936,1738
2580.6711127508493,1814
2582.488867204785,1797
2584.3061697758794,1778
2586.1230202581787,1720
2587.939418444797,1676
2589.7553641279183,1744
2591.570857098791,1723
2593.385897147736,1802
2595.200484064141,1719
2597.014617636461,1773
2598.8282976522214,1793
2600.6415238980126,1761
2602.454296159496,1832
2604.266614221401,1837
2606.0784778675243,1801
2607.8898868807305,1882
2609.700841042955,1838
2611.5113401351973,1746
2613.32138393753,1871
2615.13097222909,1827
2616.940104788084,1816
2618.748781391788,1895
2620.557001816543,1801
2622.364765837763,1900
2624.1720732299264,1873
2625.9789237665814,1859
2627.7853172203445,1856
2629.5912533629,1891
2631.396731965001,1857
2633.2017527964676,1756
2635.0063156261904,1825
2636.810420222126,1823
2638.614066351301,1845
2640.417253779809,1846
2642.219982272813,1831
2644.022251594542,1765
2645.8240615082973,1777
2647.625411776444,1813
2649.4263021604183,1731
2651.226732420724,1767
2653.026702316933,1761
2654.8262116076858,1820
2656.625260050691,1769
2658.423847402724,1757
2660.221973419631,1769
2662.0196378563246,1765
2663.8168404667867,1722
2665.613581004068,1751
2667.4098592202854,1733
2669.2056748666246,1720
2671.0010276933417,1786
2672.7959174497596,1744
2674.5903438842674,1678
2676.384306744327,1662
2678.177805776465,1725
2679.9708407262765,1722
2681.7634113384274,1745
2683.555517356648,1658
2685.3471585237403,1683
2687.138334581574,1744
2688.9290452710843,1719
2690.7192903322784,1696
2692.50906950423,1715
2694.2983825250794,1712
2696.087229132039,1694
2697.875609061386,1713
2699.6635220484677,1644
2701.450967827699,1653
2703.237946132564,1714
2705.0244566956126,1646
2706.8104992484664,1721
2708.596073521813,1682
2710.381179245408,1768
2712.1658161480777,1738
2713.949983957714,1692
2715.7336824012773,1715
2717.516911204798,1697
2719.299670093374,1674
2721.0819587911706,1626
2722.8637770214223,1699
2724.6451245064322,1640
2726.426000967571,1557
2728.2064061252763,1621
2729.986339699057,1638
2731.765801407488,1706
2733.5447909682134,1601
2735.323308097945,1593
2737.101352512463,1616
2738.8789239266166,1604
2740.6560220543215,1623
2742.4326466085645,1682
2744.2087973013977,1641
2745.984473843944,1613
2747.7596759463922,1649
2749.534403318001,1625
2751.308655667096,1588
2753.0824327010737,1618
2754.8557341263954,1637
2756.628559648593,1691
2758.4009089722667,1597
2760.172781801083,1675
2761.944177837779,1605
2763.715096784159,1645
2765.4855383410945,1680
2767.2555022085267,1622
2769.024988085465,1575
2770.793995669988,1702
2772.5625246592385,1632
2774.3305747494323,1583
2776.098145635852,1670
2777.865237012847,1656
2779.6318485738357,1609
2781.397980011306,1614
2783.163631016813,1639
2784.928801280979,1633
2786.6934904934974,1625
2788.457698343127,1617
2790.221424517697,1677
2791.9846687041027,1679
2793.74743058831,1640
2795.5097098553515,1635
2797.2715061893286,1577
2799.0328192734105,1634
2800.793648789836,1689
2802.553994419911,1606
2804.3138558440087,1630
2806.073232741573,1631
2807.8321247911135,1608
2809.590531670211,1601
2811.3484530555115,1682
2813.105888622732,1597
2814.8628380466557,1637
2816.6193010011348,1708
2818.3752771590903,1678
2820.13076619251,1692
2821.885767772452,1619
2823.640281569041,1679
2825.3943072514703,1673
2827.147844488002,1671
2828.9008929459665,1663
2830.6534522917614,1580
2832.405522190854,1626
2834.1571023077786,1638
2835.9081923061394,1669
2837.658791848606,1618
2839.40890059692,1670
2841.1585182118874,1675
2842.907644353386,1604
2844.6562786803593,1624
2846.4044208508203,1646
2848.15207052185,1659
2849.899227349598,1651
2851.6458909892804,1654
2853.392061095185,1625
2855.137737320664,1640
2856.882919318142,1712
2858.6276067391063,1668
2860.371799234118,1601
2862.1154964528037,1598
2863.8586980438586,1632
2865.6014036550464,1602
2867.343612933199,1609
2869.0853255242173,1631
2870.826541073068,1586
2872.567259223789,1659
2874.307479619485,1588
2876.0472019023287,1649
2877.7864257135625,1612
2879.525150693495,1630
2881.263376481505,1664
2883.0011027160385,1631
2884.73832903461,1631
2886.4750550738027,1644
2888.2112804692665,1608
2889.9470048557223,1630
2891.682227866956,1651
2893.416949135825,1629
2895.151168294252,1690
2896.88488497323,1607
2898.6180988028204,1673
2900.3508094121503,1672
2902.083016429419,1651
2903.81471948189,1652
2905.5459181958972,1690
2907.276612196844,1645
2909.0068011091994,1622
2910.736484556502,1691
2912.465662161359,1619
2914.194333545445,1628
2915.922498329504,1655
2917.650156133346,1587
2919.377306575852,1653
2921.103949274969,1635
2922.830083847715,1599
2924.555709910173,1635
2926.2808270774967,1646
2928.005434963907,1604
2929.7295331826936,1571
2931.4531213462133,1623
2933.1761990658924,1590
2934.8987659522254,1667
2936.6208216147747,1614
2938.3423656621694,1628
2940.0633977021116,1644
2941.783917341366,1705
2943.503924185768,1644
2945.223417840223,1616
2946.9423979087023,1649
2948.6608639942456,1696
2950.378815698962,1672
2952.096252624029,1643
2953.81317436969,1616
2955.529580535259,1625
2957.2454707191177,1563
2958.9608445187164,1681
2960.6757015305734,1700
2962.3900413502733,1635
2964.103863572472,1669
2965.817167790894,1626
2967.529953598327,1637
2969.2422205866337,1565
2970.953968346739,1604
2972.6651964686407,1613
2974.3759045414035,1638
2976.0860921531585,1656
2977.7957588911067,1662
2979.504904341517,1663
2981.2135280897273,1678
2982.9216297201433,1663
2984.629208816238,1605
2986.336264960554,1684
2988.0427977347017,1584
2989.7488067193594,1623
2991.454291494274,1580
2993.1592516382607,1672
2994.8636867292034,1658
2996.567596344053,1600
2998.2709800588295,1628
2999.973837448621,1657
3001.6761680875857,1672
3003.377971548946,1675
3005.0792474049954,1621
3006.7799952270957,1662
3008.480214585676,1598
3010.1799050502345,1595
3011.8790661893368,1625
3013.5776975706176,1556
3015.2757987607793,1571
3016.973369325592,1615
3018.6704088298966,1600
3020.366916837598,1540
3022.0628929116747,1606
3023.7583366141675,1621
3025.4532475061915,1565
3027.147625147925,1585
3028.841469098617,1587
3030.534778916585,1600
3032.2275541592144,1675
3033.9197943829577,1618
3035.611499143338,1692
3037.302667994943,1657
3038.9933004914333,1579
3040.683396185535,1605
3042.372954629042,1674
3044.061975372817,1676
3045.7504579667934,1635
3047.4384019599684,1650
3049.1258069004116,1598
3050.812672335258,1658
3052.4989978107124,1599
3054.184782872047,1590
3055.870027063603,1609
3057.554729928791,1639
3059.238891010086,1559
3060.9225098490347,1610
3062.6055859862518,1635
3064.2881189614177,1588
3065.970108313285,1624
3067.651553579671,1635
3069.3324542974633,1667
3071.012810002616,1622
3072.6926202301543,1566
3074.3718845141702,1601
3076.050602387822,1674
3077.728773383339,1618
3079.406397032018,1607
3081.083472864223,1583
3082.7600004093874,1579
3084.4359791960137,1606
3086.11140875167,1607
3087.7862886029952,1566
3089.4606182756943,1580
3091.134397294544,1606
3092.807625183385,1619
3094.4803014651284,1594
3096.152425661755,1590
3097.8239972943097,1638
3099.49501588291,1639
3101.165480946741,1599
3102.8353920040518,1583
3104.504748572165,1610
3106.1735501674693,1662
3107.8417963054226,1623
3109.5094865005485,1699
3111.176620266441,1687
3112.8431971157625,1707
3114.5092165602427,1694
3116.1746781106813,1592
3117.839581276943,1653
3119.503925567965,1674
3121.167710491747,1661
3122.830935555364,1692
3124.493600264954,1639
3126.1557041257247,1655
3127.817246641952,1658
3129.478227316982,1667
3131.1386456532273,1686
3132.798501152168,1649
3134.4577933143537,1660
3136.116521639402,1690
3137.7746856259982,1702
3139.4322847718977,1652
3141.0893185739224,1648
3142.745786527962,1726
3144.4016881289754,1686
3146.0570228709903,1593
3147.711790247102,1612
3149.3659897494754,1630
3151.0196208693396,1709
3152.6726830969974,1577
3154.3251759218165,1641
3155.9770988322334,1636
3157.6284513157534,1566
3159.2792328589485,1635
3160.929442947461,1596
3162.579081066002,1578
3164.2281466983477,1632
3165.8766393273454,1654
3167.5245584349086,1660
3169.1719035020224,1604
3170.818674008735,1598
3172.4648694341677,1642
3174.110489256508,1614
3175.7555329530105,1606
3177.4000000000005,1606
3179.0438898728707,1653
3180.6872020460805,1667
3182.32993599316,1739
3183.972091186706,1642
3185.613667098384,1675
3187.254663198927,1635
3188.8950789581386,1679
3190.5349138448873,1613
3192.1741673271126,1668
3193.8128388718224,1651
3195.4509279450886,1636
3197.0884340120574,1628
3198.725356536939,1633
3200.361694983014,1639
3201.997448812629,1636
3203.632617487203,1624
3205.2672004672195,1565
3206.901197212229,1595
3208.5346071808563,1544
3210.167429830789,1627
3211.799664618785,1608
3213.4313110006706,1580
3215.0623684313387,1632
3216.692836364753,1602
3218.3227142539445,1586
3219.9520015510125,1625
3221.5806977071215,1586
3223.2088021725103,1617
3224.8363143964816,1705
3226.4632338274077,1657
3228.089559912728,1582
3229.715292098951,1599
3231.3404298316545,1591
3232.9649725554846,1600
3234.5889197141523,1657
3236.2122707504395,1653
3237.8350251061984,1669
3239.457182222345,1667
3241.0787415388677,1656
3242.6997024948187,1674
3244.3200645283223,1601
3245.9398270765696,1605
3247.558989575821,1607
3249.177551461403,1637
3250.7955121677123,1636
3252.412871128213,1626
3254.029627775437,1638
3255.6457815409867,1580
3257.2613318555286,1618
3258.876278148802,1642
3260.490619849613,1623
3262.1043563858348,1648
3263.717487184408,1574
3265.3300116713453,1579
3266.941929271725,1594
3268.5532394096917,1539
3270.1639415084646,1594
3271.7740349903233,1592
3273.383519276621,1595
3274.9923937877775,1575
3276.6006579432833,1638
3278.2083111616903,1633
3279.815352860627,1626
3281.421782456786,1626
3283.027599365927,1676
3284.632803002881,1639
3286.237392781545,1580
3287.841368114885,1603
3289.4447284149373,1615
3291.047473092801,1630
3292.649601558651,1664
3294.2511132217223,1569
3295.8520074903254,1627
3297.452283771835,1553
3299.051941472695,1632
3300.650979998417,1577
3302.2493987535827,1728
3303.8471971418403,1624
3305.4443745659064,1670
3307.0409304275654,1589
3308.636864127674,1677
3310.2321750661513,1644
3311.8268626419876,1694
3313.420926253242,1610
3315.01436529704,1637
3316.6071791695776,1617
3318.1993672661183,1646
3319.7909289809913,1586
3321.3818637075983,1654
3322.972170838406,1583
3324.561849764951,1618
3326.150899877838,1568
3327.7393205667386,1647
3329.3271112203956,1649
3330.9142712266166,1601
3332.5007999722793,1620
3334.08669684333,1611
3335.6719612247834,1646
3337.2565925007193,1637
3338.840590054291,1664
3340.4239532677157,1683
3342.006681522281,1607
3343.5887741983406,1675
3345.1702306753214,1634
3346.7510503317126,1626
3348.3312325450743,1632
3349.910776692037,1602
3351.4896821482953,1639
3353.0679482886153,1635
3354.645574486829,1613
3356.2225601158398,1673
3357.798904547615,1563
