CollectionTime,7/9/2024 12:38:33 PM
ExposureUsed,3
CalibratedSpectrum
-962.7078968117929,535
-959.9714848408522,562
-957.2358232597828,567
-954.5009119013725,561
-951.7667505983302,565
-949.0333391832855,583
-946.3006774887896,607
-943.5687653473143,601
-940.837602591253,609
-938.1071890529199,618
-935.3775245645503,608
-932.6486089583007,577
-929.9204420662485,627
-927.1930237203925,584
-924.4663537526524,570
-921.7404319948689,575
-919.0152582788041,590
-916.2908324361409,638
-913.5671542984834,609
-910.8442236973568,590
-908.1220404642074,570
-905.4006044304027,579
-902.679915427231,586
-899.959973285902,587
-897.2407778375464,589
-894.5223289132158,604
-891.8046263438832,584
-889.0876699604426,558
-886.3714595937089,597
-883.6559950744183,595
-880.9412762332282,563
-878.2273029007168,557
-875.5140749073835,582
-872.8015920836489,571
-870.0898542598545,567
-867.3788612662631,578
-864.6686129330585,569
-861.9591090903457,559
-859.2503495681506,600
-856.5423341964203,602
-853.8350628050229,565
-851.1285352237478,568
-848.4227512823054,584
-845.7177108103272,552
-843.0134136373656,579
-840.3098595928943,601
-837.6070485063082,636
-834.9049802069229,617
-832.2036545239757,580
-829.5030712866244,597
-826.8032303239481,576
-824.1041314649472,554
-821.4057745385428,594
-818.7081593735775,551
-816.0112857988148,553
-813.3151536429393,570
-810.6197627345566,583
-807.9251129021936,573
-805.2312039742981,582
-802.5380357792392,601
-799.8456081453069,597
-797.1539209007124,602
-794.462973873588,603
-791.772766891987,623
-789.083299783884,600
-786.3945723771743,621
-783.7065844996748,591
-781.0193359791231,557
-778.3328266431781,615
-775.6470563194197,582
-772.9620248353489,594
-770.2777320183878,629
-767.5941776958798,596
-764.9113616950891,595
-762.2292838432011,625
-759.5479439673222,587
-756.8673418944801,605
-754.1874774516235,602
-751.5083504656222,599
-748.8299607632671,617
-746.15230817127,611
-743.475392516264,597
-740.7992136248035,619
-738.1237713233636,631
-735.4490654383407,622
-732.7750957960521,645
-730.1018622227365,619
-727.4293645445534,645
-724.7576025875837,643
-722.0865761778291,640
-719.4162851412126,640
-716.7467293035781,607
-714.0779084906909,660
-711.409822528237,651
-708.7424712418238,632
-706.0758544569796,655
-703.4099719991541,680
-700.7448236937178,680
-698.0804093659622,638
-695.4167288411002,668
-692.7537819442656,702
-690.0915685005134,683
-687.4300883348199,694
-684.7693412720819,646
-682.1093271371178,610
-679.4500457546669,651
-676.7914969493897,668
-674.1336805458676,687
-671.4765963686034,639
-668.8202442420206,679
-666.1646239904642,682
-663.5097354382001,667
-660.8555784094151,690
-658.2021527282176,729
-655.5494582186366,741
-652.8974947046223,693
-650.2462620100463,712
-647.5957599587009,675
-644.9459883742998,709
-642.2969470804776,699
-639.6486359007902,688
-637.0010546587141,722
-634.3542031776476,685
-631.7080812809096,681
-629.0626887917401,676
-626.4180255333008,680
-623.7740913286734,678
-621.1308860008619,667
-618.4884093727904,727
-615.8466612673046,726
-613.2056415071715,715
-610.5653499150785,692
-607.9257863136347,689
-605.28695052537,716
-602.6488423727357,716
-600.0114616781036,723
-597.3748082637674,678
-594.7388819519412,727
-592.1036825647604,775
-589.4692099242818,742
-586.8354638524829,751
-584.2024441712624,688
-581.5701507024403,710
-578.9385832677575,757
-576.3077416888759,716
-573.6776257873787,702
-571.0482353847704,710
-568.4195703024757,740
-565.7916303618415,730
-563.164415384135,688
-560.5379251905453,704
-557.9121596021815,742
-555.2871184400748,726
-552.6628015251767,723
-550.0392086783606,745
-547.4163397204204,734
-544.794194472071,741
-542.1727727539491,783
-539.5520743866118,782
-536.9320991905377,753
-534.3128469861261,795
-531.6943175936979,831
-529.0765108334947,810
-526.4594265256793,822
-523.8430644903358,970
-521.2274245474689,1122
-518.612506517005,1103
-515.9983102187913,1135
-513.3848354725959,1137
-510.77208209810846,1096
-508.16004991493924,1257
-505.5487387426199,1392
-502.9381484006032,1494
-500.3282787082628,1466
-497.71912948489364,1443
-495.1107005497117,1311
-492.5029917218539,1204
-489.8960028203786,1094
-487.28973366426493,1002
-484.68418407241325,970
-482.07935386364494,943
-479.47524285670266,882
-476.87185087025,874
-474.2691777228715,903
-471.66722323307334,968
-469.0659872192821,921
-466.4654694998459,919
-463.86566989303384,913
-461.26658821703614,900
-458.66822428996414,901
-456.07057792985,899
-453.4736489546475,908
-450.877437182231,878
-448.28194243039627,884
-445.68716451686,909
-443.09310325926003,895
-440.49975847515555,907
-437.9071299820263,933
-435.31521759727354,894
-432.72402113821954,928
-430.13354042210767,950
-427.5437752661022,888
-424.95472548728867,878
-422.36639090267386,890
-419.7787713291855,928
-417.1918665836721,1013
-414.60567648290385,984
-412.0202008435715,959
-409.4354394822874,904
-406.8513922155845,953
-404.26805885991723,988
-401.685439231661,989
-399.103533147112,993
-396.522340422488,980
-393.9418608739278,955
-391.3620943174908,973
-388.7830405691583,932
-386.2046994448317,860
-383.6270707603344,846
-381.05015433141045,795
-378.473949973725,800
-375.8984575028645,742
-373.32367673433623,708
-370.74960748356875,653
-368.1762495659117,615
-365.60360279663576,559
-363.03166699093265,515
-360.4604419639154,512
-357.8899275306178,477
-355.32012350599507,500
-352.7510297049233,465
-350.1826459421999,448
-347.61497203254316,439
-345.04800779059235,467
-342.4817530309082,464
-339.91620756797226,463
-337.35137121618743,443
-334.7872437898774,450
-332.22382510328725,461
-329.66111497058273,445
-327.09911320585127,456
-324.53781962310075,445
-321.9772340362607,491
-319.4173562591816,463
-316.8581861056348,472
-314.2997233893127,445
-311.7419679238294,449
-309.1849195227194,437
-306.62857799943856,457
-304.0729431673641,495
-301.51801483979375,529
-298.963792829947,529
-296.41027695096386,510
-293.85746701590574,483
-291.3053628377552,504
-288.7539642294155,500
-286.2032710037115,521
-283.65328297338897,463
-281.1039999511146,504
-278.5554217494762,507
-276.007548180983,496
-273.4603790580651,518
-270.9139141930734,493
-268.3681533982807,480
-265.8230964858798,511
-263.27874326798565,520
-260.7350935566336,526
-258.1921471637804,527
-255.6499039013039,524
-253.10836358100266,535
-250.56752601459698,522
-248.02739101372765,550
-245.48795838995704,570
-242.94922795476816,556
-240.41119951956557,521
-237.8738728956746,595
-235.33724789434166,599
-232.80132432673452,581
-230.2661020039418,551
-227.73158073697357,547
-225.19776033676033,611
-222.66464061415422,615
-220.1322213799284,574
-217.60050244477725,612
-215.06948361931552,586
-212.53916471408013,596
-210.00954553952818,572
-207.48062590603843,624
-204.9524056239104,632
-202.4248845033651,667
-199.8980623545441,624
-197.37193898751036,620
-194.84651421224817,681
-192.32178783866232,727
-189.79775967657952,763
-187.27442953574644,718
-184.7517972258321,669
-182.2298625564256,694
-179.7086253370378,683
-177.18808537710026,650
-174.66824248596583,661
-172.14909647290835,708
-169.6306471471229,735
-167.11289431772548,743
-164.59583779375328,760
-162.07947738416453,691
-159.5638128978386,724
-157.04884414357605,776
-154.53457093009854,847
-152.02099306604828,870
-149.50811035998936,721
-146.99592262040665,678
-144.48442965570587,699
-141.97363127421409,771
-139.46352728417958,901
-136.95411749377126,972
-134.44540171107985,905
-131.93737974411636,759
-129.43005140081357,798
-126.92341648902493,957
-124.41747481652521,1190
-121.91222619101006,1330
-119.40767042009657,1501
-116.90380731132257,1644
-114.40063667214702,1769
-111.8981583099503,1583
-109.3963720320337,1293
-106.89527764561933,1196
-104.39487495785067,1408
-101.89516377579241,1803
-99.39614390642998,2406
-96.89781515667039,2805
-94.40017733334128,2975
-91.90323024319173,3277
-89.40697369289148,3323
-86.91140748903172,3560
-84.41653143812482,3730
-81.92234534660395,3454
-79.42884902082358,2697
-76.93604226705907,2735
-74.4439248915071,4028
-71.95249670028534,6423
-69.46175749943245,8226
-66.97170709490854,9839
-64.48234529259423,10027
-61.99367189829195,10075
-59.50568671772464,9637
-57.01838955653636,8822
-54.53178022029283,8623
-52.045858514480074,9345
-49.560624244506016,8986
-47.07607721569923,9595
-44.59221723330904,9835
-42.10904410250669,9272
-39.62655762838392,8225
-37.14475761595372,6667
-34.66364387015028,6735
-32.18321619582866,5594
-29.70347439776515,5843
-27.224418280657005,7337
-24.74604764912317,8538
-22.26836230770266,11244
-19.7913620608565,18845
-17.315046712966478,30354
-14.83941606833514,39648
-12.36446993118659,53763
-9.89020810566592,65038
-7.416630395839093,65038
-4.94373660569363,65038
-2.471526539137585,65038
-6.821210263296962E-13,65038
2.47084320796705,65038
4.941003281093458,65038
7.410480415786196,65038
9.879274808531363,65038
12.347386655893956,65038
14.814816154518212,65038
17.28156350112681,65038
19.74762889252179,65038
22.21301252558385,21559
24.67771459727237,4257
27.141735304626195,2537
29.605074844762612,1953
32.06773341487792,1706
34.52971121224755,1610
36.99100843422559,1612
39.45162527824516,1734
41.91156194181792,1575
44.370818622535126,1301
46.82939551806646,1187
49.287292826160524,1231
51.74451074464503,1434
54.201049471426245,1226
56.65690920448981,1195
59.112090141899785,1109
61.56659248179983,956
64.02041642241159,1028
66.4735621620365,917
68.92602989905402,938
71.37781983192338,1006
73.82893215918205,955
76.27936707944684,1039
78.72912479141326,1231
81.17820549385567,1118
83.62660938562783,993
86.07433666566146,1092
88.5213875329681,922
90.96776218663751,863
93.41346082583925,827
95.85848364982041,760
98.30283085790859,830
100.7465026495089,907
103.18949922410604,1000
105.63182078126385,920
108.07346752062438,1039
110.51443964190923,938
112.95473734491827,836
115.39436082953114,831
117.83331029570547,823
120.27158594347827,857
122.7091879729652,847
125.1461165843615,872
127.58237197794062,928
130.01795435405518,808
132.4528639131364,793
134.88710085569494,823
137.32066538231982,808
139.75355769367923,751
142.1857779905207,724
144.61732647366978,747
147.04820334403132,798
149.47840880258934,771
151.90794305040674,868
154.33680628862487,962
156.76499871846443,1098
159.19252054122433,1224
161.61937195828352,1424
164.04555317109896,1485
166.47106438120693,1624
168.89590579022217,1965
171.320077599839,1979
173.7435800118302,2069
176.16641322804742,2030
178.58857745042144,2279
181.01007288096173,2434
183.43089972175687,2439
185.85105817497413,2421
188.27054844285988,2404
190.6893707277394,2354
193.10752523201643,2482
195.5250121581745,2471
197.9418317087751,2470
200.3579840864594,2545
202.7734694939469,2580
205.18828813403627,2670
207.6024402096051,2689
210.01592592360964,2782
212.42874547908548,2828
214.84089907914665,2664
217.2523869269868,2693
219.66320922587727,2645
222.0733661791695,2705
224.48285799029293,2675
226.8916848627572,2746
229.29984700014882,2827
231.7073446061355,2910
234.11417788446204,2747
236.520347038953,2817
238.92585227351185,3018
241.33069379212054,3067
243.73487179884035,3010
246.1383864978112,3138
248.541238093252,3163
250.9434267894609,3162
253.34495279081432,3172
255.74581630176783,3220
258.1460175268563,3223
260.54555667069314,3172
262.9444339379703,3265
265.3426495334594,3212
267.7402036620107,3195
270.1370965285529,3041
272.53332833809407,2919
274.9288992957214,2753
277.32380960660055,2650
279.718059475976,2571
282.1116491091717,2591
284.5045787115897,2551
286.89684848871195,2572
289.2884586460981,2504
291.67940938938807,2554
294.0697009242996,2548
296.4593334566299,2554
298.84830719225477,2547
301.23662233712923,2588
303.6242790972866,2520
306.01127767884,2428
308.39761828798066,2493
310.78330113097934,2425
313.16832641418534,2392
315.5526943440269,2295
317.9364051270112,2345
320.3194589697242,2342
322.70185607883093,2277
325.0835966610754,2345
327.4646809232805,2298
329.8451090723478,2261
332.2248813152577,2194
334.6039978590701,2165
336.9824589109231,2206
339.36026467803447,2182
341.7374153677,2211
344.113911187295,2117
346.48975234427337,2199
348.8649390461686,2153
351.2394715005918,2228
353.61334991523415,2083
355.9865744978655,2211
358.35914545633375,2101
360.73106299856715,2070
363.10232733257146,2100
365.47293866643247,2131
367.84289720831396,2081
370.2122031664593,2109
372.5808567491905,2090
374.9488581649083,2080
377.31620762209275,2014
379.6829053293021,2007
382.0489514951745,2020
384.4143463284262,2032
386.7790900378528,1997
389.14318283232853,2005
391.50662492080653,1985
393.86941651231916,2034
396.23155781597745,2076
398.5930490409713,2031
400.9538903965696,1984
403.3140820921202,2051
405.6736243370498,2029
408.03251734086336,1925
410.3907613131465,1963
412.74835646356166,1944
415.10530300185144,2008
417.4616011378372,1925
419.81725108141893,1963
422.1722530425758,1993
424.5266072313656,1951
426.880313857925,1961
429.2333731324701,2026
431.58578526529516,1947
433.9375504667738,1932
436.2886689473588,1898
438.63914091758113,1939
440.9889665880513,1983
443.33814616945835,1943
445.68667987257015,1913
448.03456790823395,1893
450.3818104873759,1932
452.72840782100013,1869
455.07436012019105,1878
457.41966759611057,1945
459.7643304600007,1978
462.10834892318155,1958
464.4517231970525,1955
466.79445349309174,1948
469.1365400228566,1941
471.4779829979826,2033
473.81878263018564,2014
476.15893913125876,1990
478.4984527130747,1900
480.8373235875855,2068
483.17555196682144,2127
485.5131380628919,2101
487.8500820879857,2120
490.1863842543697,2205
492.52204477439034,2399
494.8570638604725,2497
497.1914417251204,2779
499.52517858091653,3090
501.85827464052306,3253
504.19073011668036,3271
506.5225452222086,3375
508.85372017000566,3201
511.18425517304956,3263
513.514150444396,3250
515.8434061971808,3853
518.1720226446176,4799
520.4999999999999,5089
522.8273384766991,4852
525.1540382881666,4381
527.480099647932,3797
529.8055227696037,3225
532.1303078668694,2591
534.454455153496,2266
536.777964843328,2189
539.1008371502907,2164
541.4230722883866,2085
543.744670471698,2045
546.0656319143858,2166
548.3859568306899,1992
550.7056454349294,2034
553.0246979415016,2049
555.3431145648834,2016
557.6608955196306,1960
559.978041020377,2022
562.2945512818363,1966
564.6104265188006,1989
566.9256669461412,2011
569.2402727788082,2131
571.5542442318302,2047
573.8675815203156,2114
576.1802848594508,2029
578.4923544645015,2077
580.8037905508126,2071
583.114593333807,2046
585.4247630289875,2041
587.7342998519354,2078
590.0432040183106,2029
592.3514757438526,1955
594.6591152443794,2112
596.9661227357875,2094
599.2724984340531,1996
601.578242555231,2052
603.8833553154542,2093
606.1878369309362,2124
608.4916876179676,2121
610.7949075929192,1989
613.0974970722403,2032
615.3994562724587,2043
617.7007854101818,2020
620.0014847020951,2117
622.3015543649641,2032
624.6009946156324,2129
626.8998056710224,2049
629.1979877481361,2030
631.4955410640538,2045
633.7924658359349,2021
636.0887622810175,2050
638.3844306166192,2029
640.6794710601358,2069
642.9738838290426,2080
645.2676691408932,2126
647.5608272133207,2126
649.853358264037,2143
652.1452625108324,2120
654.4365401715764,2089
656.7271914642178,2161
659.0172166067838,2109
661.3066158173809,2026
663.5953893141935,2066
665.8835373154867,2089
668.1710600396028,2186
670.4579577049639,2111
672.7442305300709,2077
675.0298787335033,2078
677.3149025339197,2041
679.599302150058,2062
681.8830778007342,2136
684.1662297048437,2100
686.4487580813608,2115
688.7306631493387,2064
691.0119451279091,2095
693.2926042362834,2104
695.5726406937516,2109
697.8520547196814,2141
700.1308465335215,2039
702.4090163547982,2033
704.6865644031171,2057
706.9634908981619,2089
709.2397960596965,2083
711.5154801075631,2134
713.7905432616823,2045
716.0649857420548,2097
718.3388077687592,2116
720.612009561953,2019
722.8845913418733,2092
725.1565533288352,2055
727.427895743234,2138
729.6986188055427,2085
731.9687227363137,2012
734.238207756178,2083
736.5070740858458,2036
738.7753219461066,2034
741.0429515578281,2081
743.3099631419569,2062
745.5763569195191,2087
747.8421331116193,2020
750.1072919394409,2073
752.3718336242467,2052
754.6357583873777,2027
756.8990664502545,1956
759.1617580343765,1999
761.423833361321,2032
763.6852926527457,2033
765.9461361303862,2117
768.206364016058,2094
770.4659765316536,2062
772.7249738991469,2096
774.9833563405886,2075
777.2411240781092,2006
779.4982773339183,2017
781.7548163303044,2098
784.010741289634,2098
786.2660524343538,2182
788.5207499869881,2056
790.7748341701416,2055
793.0283052064964,2064
795.2811633188143,2056
797.5334087299362,2053
799.7850416627813,2088
802.0360623403484,2108
804.2864709857143,2091
806.5362678220353,2139
808.7854530725468,2116
811.0340269605625,2046
813.2819897094754,2146
815.5293415427581,2139
817.77608268396,2158
820.0222133567116,2070
822.2677337847211,2130
824.5126441917765,2069
826.7569448017433,2123
829.0006358385675,2083
831.2437175262731,2077
833.4861900889629,2082
835.7280537508192,2095
837.9693087361026,2136
840.2099552691533,2119
842.4499935743896,2094
844.689423876309,2074
846.9282463994886,2077
849.1664613685833,2011
851.4040690083276,2111
853.6410695435349,2110
855.877463199097,2136
858.1132501999847,2051
860.3484307712487,2045
862.5830051380175,2080
864.8169735254988,2122
867.0503361589791,2134
869.2830932638243,2155
871.5152450654786,2089
873.7467917894654,2124
875.9777336613873,2119
878.2080709069252,2084
880.4378037518389,2103
882.666932421968,2089
884.8954571432301,2155
887.1233781416219,2220
889.3506956432192,2138
891.5774098741766,2104
893.803521060728,2135
896.0290294291852,2191
898.2539352059397,2215
900.4782386174619,2150
902.7019398903011,2166
904.925039251085,2091
907.147536926521,2149
909.3694331433943,2128
911.59072812857,2154
913.8114221089921,2180
916.0315153116827,2114
918.2510079637437,2207
920.4699002923547,2143
922.6881925247761,2112
924.905884888345,2179
927.1229776104793,2169
929.3394709186747,2157
931.555365040506,2141
933.7706602036275,2132
935.9853566357709,2098
938.1994545647489,2176
940.4129542184515,2073
942.6258558248488,2057
944.8381596119883,2124
947.0498658079974,2084
949.2609746410825,2116
951.4714863395287,2017
953.6814011316998,2052
955.8907192460387,2114
958.0994409110671,2018
960.3075663553858,2095
962.5150958076741,2146
964.7220294966913,2101
966.928367651274,2142
969.1341105003388,2105
971.3392582728806,2097
973.5438111979742,2071
975.747769504772,2063
977.9511334225061,2028
980.153903180487,2013
982.3560790081052,1969
984.5576611348289,2028
986.7586497902058,1947
988.9590452038618,1915
991.158847605503,1919
993.3580572249133,1900
995.5566742919558,1869
997.7546990365728,1869
999.952131688785,1853
1002.1489724786926,1811
1004.3452216364743,1850
1006.5408793923874,1851
1008.7359459767691,1797
1010.9304216200343,1789
1013.1243065526781,1781
1015.3176010052733,1809
1017.510305208472,1743
1019.7024193930064,1753
1021.8939437896848,1739
1024.0848786293977,1748
1026.2752241431122,1738
1028.4649805618747,1792
1030.6541481168115,1693
1032.842727039127,1721
1035.0307175601051,1697
1037.2181199111074,1736
1039.4049343235752,1690
1041.591161029029,1700
1043.7768002590683,1706
1045.9618522453698,1686
1048.1463172196918,1650
1050.3301954138697,1629
1052.513487059818,1720
1054.69619238953,1767
1056.8783116350783,1687
1059.0598450286152,1699
1061.2407928023704,1703
1063.4211551886528,1653
1065.6009324198508,1703
1067.780124728432,1696
1069.9587323469414,1697
1072.1367555080046,1633
1074.314194444325,1722
1076.4910493886855,1674
1078.667320573947,1639
1080.843008233051,1688
1083.0181125990161,1665
1085.1926339049414,1605
1087.3665723840027,1640
1089.5399282694575,1660
1091.7127017946405,1674
1093.8848931929647,1552
1096.0565026979243,1598
1098.2275305430899,1586
1100.3979769621128,1624
1102.567842188722,1542
1104.737126456726,1594
1106.9058300000124,1552
1109.0739530525475,1586
1111.2414958483764,1618
1113.4084586216231,1615
1115.5748416064907,1587
1117.7406450372605,1610
1119.9058691482942,1625
1122.0705141740304,1687
1124.2345803489884,1619
1126.3980679077658,1595
1128.5609770850388,1614
1130.7233081155623,1508
1132.8850612341707,1526
1135.0462366757774,1593
1137.2068346753745,1622
1139.3668554680326,1591
1141.526299288901,1579
1143.68516637321,1534
1145.8434569562655,1598
1148.001171273455,1517
1150.158309560244,1545
1152.3148720521767,1556
1154.470858984876,1566
1156.626270594044,1575
1158.7811071154629,1608
1160.9353687849912,1612
1163.089055838569,1558
1165.242168512213,1513
1167.3947070420209,1536
1169.5466716641677,1551
1171.6980626149075,1546
1173.8488801305748,1555
1175.9991244475814,1506
1178.1487958024186,1520
1180.2978944316555,1480
1182.4464205719428,1557
1184.5943744600072,1533
1186.7417563326567,1533
1188.8885664267755,1530
1191.0348049793297,1612
1193.1804722273619,1538
1195.325568407995,1577
1197.4700937584303,1601
1199.614048515948,1557
1201.7574329179074,1588
1203.900247201746,1503
1206.042491604982,1604
1208.1841663652099,1557
1210.3252717201053,1605
1212.465807907422,1635
1214.6057751649923,1572
1216.7451737307279,1506
1218.8840038426192,1630
1221.0222657387353,1576
1223.1599596572241,1604
1225.2970858363137,1603
1227.4336445143094,1578
1229.5696359295966,1580
1231.705060320639,1615
1233.8399179259786,1587
1235.9742089842384,1591
1238.107933734118,1585
1240.2410924143974,1568
1242.373685263935,1604
1244.5057125216676,1523
1246.6371744266116,1612
1248.7680712178621,1640
1250.898403134593,1593
1253.028170416058,1643
1255.1573733015875,1581
1257.2860120305932,1571
1259.4140868425648,1645
1261.54159797707,1566
1263.6685456737569,1627
1265.7949301723515,1708
1267.9207517126597,1636
1270.046010534565,1640
1272.1707068780306,1683
1274.2948409830983,1626
1276.4184130898889,1676
1278.541423438603,1589
1280.6638722695184,1665
1282.785759822993,1715
1284.9070863394636,1701
1287.0278520594447,1691
1289.1480572235314,1691
1291.2677020723963,1626
1293.3867868467923,1694
1295.5053117875495,1737
1297.623277135579,1697
1299.740683131868,1701
1301.8575300174857,1728
1303.973818033578,1771
1306.0895474213703,1766
1308.2047184221678,1731
1310.3193312773528,1748
1312.4333862283888,1723
1314.5468835168163,1757
1316.659823384255,1772
1318.7722060724045,1761
1320.8840318230418,1784
1322.9953008780249,1706
1325.1060134792888,1694
1327.2161698688478,1722
1329.3257702887959,1809
1331.4348149813054,1742
1333.5433041886276,1781
1335.6512381530933,1715
1337.7586171171101,1723
1339.8654413231675,1751
1341.9717110138317,1728
1344.0774264317488,1757
1346.1825878196432,1694
1348.2871954203192,1700
1350.3912494766587,1734
1352.4947502316231,1706
1354.5976979282532,1799
1356.7000928096686,1723
1358.8019351190665,1788
1360.9032250997243,1714
1363.0039629949988,1765
1365.1041490483235,1740
1367.2037835032133,1735
1369.3028666032606,1804
1371.401398592137,1817
1373.4993797135926,1769
1375.5968102114575,1814
1377.6936903296396,1738
1379.7900203121262,1718
1381.8858004029835,1765
1383.9810308463561,1777
1386.075711886469,1790
1388.1698437676241,1720
1390.2634267342032,1779
1392.356461030667,1796
1394.4489469015557,1827
1396.5408845914872,1845
1398.6322743451592,1833
1400.7231164073469,1797
1402.813411022907,1899
1404.903158436773,1823
1406.9923588939578,1885
1409.0810126395531,1968
1411.1691199187303,1905
1413.2566809767386,1887
1415.343696058907,1882
1417.4301654106425,1944
1419.5160892774315,1914
1421.6014679048399,2007
1423.6863015385125,1976
1425.7705904241707,1933
1427.8543348076178,1932
1429.9375349347342,1917
1432.0201910514802,1977
1434.102303403894,1989
1436.1838722380944,2081
1438.2648978002767,2048
1440.3453803367174,2007
1442.4253200937692,2028
1444.5047173178677,2065
1446.5835722555234,2258
1448.6618851533285,2235
1450.739656257952,2160
1452.8168858161434,2238
1454.8935740747306,2312
1456.96972128062,2290
1459.045327680797,2293
1461.120393522327,2363
1463.1949190523528,2408
1465.2689045180973,2503
1467.3423501668608,2464
1469.415256246024,2508
1471.4876230030463,2602
1473.559450685465,2668
1475.6307395408976,2627
1477.7014898170391,2749
1479.771701761665,2626
1481.8413756226287,2753
1483.9105116478618,2890
1485.9791100853772,2852
1488.0471711832643,2923
1490.1146951896926,3019
1492.1816823529098,2927
1494.2481329212433,3015
1496.3140471430984,3036
1498.3794252669609,3042
1500.4442675413939,3105
1502.5085742150404,3115
1504.572345536622,3196
1506.6355817549388,3079
1508.6982831188702,3178
1510.7604498773744,3073
1512.8220822794883,3104
1514.8831805743293,3257
1516.9437450110909,3303
1519.003775839048,3173
1521.0632733075522,3352
1523.1222376660367,3296
1525.1806691640113,3312
1527.2385680510652,3319
1529.2959345768668,3391
1531.3527689911643,3378
1533.4090715437833,3407
1535.4648424846291,3432
1537.5200820636855,3568
1539.5747905310159,3583
1541.6289681367616,3665
1543.6826151311434,3703
1545.7357317644614,3628
1547.7883182870937,3675
1549.8403749494987,3738
1551.8919020022113,3849
1553.9428996958477,3922
1555.9933682811015,3968
1558.0433080087469,3995
1560.0927191296346,4071
1562.1416018946961,4110
1564.1899565549415,4111
1566.2377833614592,4081
1568.2850825654164,4122
1570.3318544180606,3978
1572.3780991707158,3911
1574.423817074788,3786
1576.4690083817595,3772
1578.5136733431923,3441
1580.5578122107272,3290
1582.601425236085,3257
1584.6445126710646,3008
1586.6870747675434,2891
1588.7291117774776,2854
1590.7706239529034,2714
1592.8116115459347,2604
1594.8520748087658,2484
1596.8920139936686,2456
1598.9314293529933,2324
1600.9703211391711,2293
1603.008689604711,2229
1605.0465350022005,2149
1607.0838575843068,2169
1609.1206576037753,2034
1611.1569353134305,2083
1613.1926909661765,2014
1615.2279248149953,2010
1617.2626371129481,2055
1619.2968281131757,1897
1621.3304980688963,1898
1623.3636472334088,1840
1625.39627586009,1823
1627.428384202396,1834
1629.459972513861,1821
1631.4910410480993,1760
1633.5215900588028,1775
1635.551619799744,1761
1637.5811305247717,1766
1639.6101224878166,1697
1641.6385959428862,1735
1643.6665511440683,1623
1645.693988345528,1757
1647.7209078015112,1694
1649.7473097663405,1635
1651.7731944944203,1663
1653.7985622402307,1700
1655.823413258333,1602
1657.847747803366,1605
1659.8715661300494,1678
1661.8948684931793,1660
1663.9176551476316,1682
1665.9399263483624,1624
1667.9616823504057,1678
1669.982923408873,1724
1672.0036497789574,1695
1674.0238617159293,1658
1676.043559475138,1657
1678.0627433120121,1666
1680.081413482059,1645
1682.0995702408654,1630
1684.117213844096,1666
1686.134344547495,1615
1688.1509626068864,1600
1690.1670682781705,1666
1692.182661817329,1579
1694.1977434804217,1627
1696.2123135235875,1635
1698.226372203043,1624
1700.2399197750851,1636
1702.2529564960905,1600
1704.2654826225112,1613
1706.277498410882,1634
1708.2890041178139,1606
1710.2999999999988,1629
1712.3104863142066,1583
1714.3204633172854,1558
1716.329931266163,1596
1718.3388904178469,1571
1720.3473410294214,1569
1722.3552833580516,1550
1724.3627176609807,1547
1726.3696441955308,1546
1728.3760632191033,1563
1730.3819749891782,1557
1732.3873797633146,1587
1734.3922777991502,1534
1736.3966693544012,1556
1738.4005546868639,1584
1740.4039340544127,1506
1742.406807715001,1528
1744.4091759266616,1598
1746.4110389475054,1518
1748.4123970357223,1508
1750.413250449582,1521
1752.4135994474318,1571
1754.4134442876993,1481
1756.4127852288902,1499
1758.4116225295893,1493
1760.4099564484595,1484
1762.407787244244,1476
1764.405115175764,1523
1766.4019405019203,1518
1768.3982634816916,1518
1770.3940843741357,1483
1772.3894034383907,1469
1774.3842209336717,1509
1776.378537119274,1422
1778.372352254571,1491
1780.3656665990156,1489
1782.3584804121397,1424
1784.3507939535534,1499
1786.3426074829463,1426
1788.3339212600863,1512
1790.3247355448211,1441
1792.3150505970766,1444
1794.3048666768573,1430
1796.2941840442477,1455
1798.2830029594106,1415
1800.2713236825884,1484
1802.2591464741004,1441
1804.2464715943465,1432
1806.2332993038058,1408
1808.2196298630352,1450
1810.2054635326708,1409
1812.190800573428,1459
1814.175641246101,1462
1816.1599858115628,1475
1818.1438345307652,1430
1820.127187664738,1422
1822.1100454745924,1425
1824.092408221516,1396
1826.0742761667766,1397
1828.055649571721,1401
1830.0365286977735,1504
1832.0169138064398,1424
1833.9968051593014,1417
1835.9762030180214,1467
1837.9551076443408,1463
1839.9335193000788,1431
1841.9114382471344,1492
1843.888864747485,1406
1845.8657990631878,1470
1847.842241456378,1435
1849.8181921892697,1421
1851.7936515241558,1448
1853.7686197234098,1409
1855.7430970494815,1402
1857.7170837649014,1471
1859.6905801322787,1414
1861.6635864143004,1383
1863.6361028737338,1462
1865.608129773424,1414
1867.5796673762961,1442
1869.5507159453537,1439
1871.521275743678,1371
1873.4913470344313,1446
1875.4609300808534,1403
1877.4300251462632,1486
1879.3986324940588,1433
1881.366752387717,1479
1883.3343850907936,1536
1885.3015308669228,1440
1887.268189979819,1443
1889.2343626932739,1425
1891.2000492711595,1452
1893.1652499774254,1458
1895.1299650761011,1494
1897.0941948312952,1465
1899.0579395071945,1496
1901.0211993680641,1455
1902.98397467825,1487
1904.9462657021745,1456
1906.9080727043415,1473
1908.869395949332,1464
1910.8302357018065,1464
1912.790592226504,1462
1914.7504657882428,1510
1916.7098566519212,1476
1918.6687650825133,1434
1920.6271913450764,1487
1922.5851357047422,1424
1924.5425984267245,1492
1926.499579776314,1491
1928.4560800188833,1458
1930.4120994198802,1480
1932.367638244833,1473
1934.32269675935,1427
1936.2772752291175,1473
1938.231373919899,1516
1940.1849930975404,1450
1942.1381330279637,1515
1944.0907939771696,1441
1946.0429762112412,1451
1947.9946799963363,1409
1949.9459055986945,1453
1951.896653284633,1421
1953.8469233205478,1436
1955.7967159729142,1448
1957.7460315082863,1432
1959.6948701932974,1446
1961.6432322946594,1410
1963.5911180791632,1422
1965.5385278136787,1450
1967.4854617651545,1420
1969.4319202006182,1403
1971.377903387176,1432
1973.3234115920136,1454
1975.268445082395,1451
1977.2130041256642,1444
1979.1570889892423,1519
1981.1006999406304,1459
1983.04383724741,1420
1984.986501177238,1418
1986.928691997853,1454
1988.8704099770712,1397
1990.811655382789,1468
1992.7524284829801,1423
1994.692729545698,1366
1996.6325588390755,1451
1998.5719166313224,1482
2000.5108031907307,1394
2002.4492187856677,1459
2004.387163684583,1369
2006.3246381560011,1370
2008.2616424685298,1395
2010.1981768908527,1401
2012.1342416917332,1407
2014.069837140014,1378
2016.0049635046162,1413
2017.9396210545406,1407
2019.8738100588666,1431
2021.8075307867502,1441
2023.740783507431,1397
2025.6735684902228,1402
2027.6058860045214,1395
2029.5377363198004,1368
2031.4691197056118,1399
2033.4000364315875,1420
2035.3304867674374,1376
2037.260470982952,1396
2039.189989347998,1372
2041.1190421325232,1409
2043.047629606554,1363
2044.9757520401945,1367
2046.9034097036288,1425
2048.8306028671195,1377
2050.7573318010086,1359
2052.683596775716,1382
2054.609398061742,1370
2056.5347359296647,1349
2058.4596106501403,1423
2060.384022493906,1392
2062.3079717317764,1386
2064.231458634646,1410
2066.1544834734873,1329
2068.077046519352,1371
2069.99914804337,1382
2071.9207883167524,1385
2073.8419676107865,1349
2075.7626861968406,1361
2077.6829443463607,1356
2079.6027423308715,1420
2081.522080421977,1357
2083.440958891362,1406
2085.359378010786,1402
2087.2773380520907,1374
2089.194839287196,1430
2091.111881988101,1476
2093.0284664268825,1404
2094.9445928756973,1421
2096.86026160678,1444
2098.775472892446,1369
2100.690227005088,1435
2102.604524217178,1410
2104.5183648012676,1394
2106.431749029985,1402
2108.34467717604,1368
2110.2571495122206,1417
2112.169166311393,1395
2114.080727846503,1402
2115.9918343905747,1373
2117.902486216711,1431
2119.8126835980956,1420
2121.722426807987,1392
2123.6317161197285,1427
2125.5405518067364,1419
2127.448934142509,1439
2129.356863400624,1431
2131.264339854737,1435
2133.1713637785815,1365
2135.077935445972,1379
2136.9840551308002,1395
2138.889723107037,1419
2140.7949396487334,1425
2142.699705030018,1409
2144.6040195250994,1374
2146.507883408264,1418
2148.4112969538774,1407
2150.3142604363848,1478
2152.2167741303097,1487
2154.1188383102535,1423
2156.0204532508997,1467
2157.9216192270064,1470
2159.822336513414,1413
2161.7226053850413,1439
2163.622426116884,1412
2165.5217989840185,1445
2167.4207242616,1442
2169.319202224862,1405
2171.2172331491165,1489
2173.1148173097563,1457
2175.0119549822507,1469
2176.90864644215,1483
2178.8048919650823,1457
2180.7006918267534,1464
2182.596046302952,1436
2184.4909556695407,1492
2186.3854202024645,1391
2188.279440177746,1448
2190.173015871487,1500
2192.066147559868,1463
2193.958835519149,1438
2195.851080025667,1447
2197.7428813558417,1456
2199.6342397861667,1470
2201.5251555932186,1470
2203.415629053651,1450
2205.3056604441986,1442
2207.19525004167,1476
2209.084398122958,1482
2210.9731049650327,1483
2212.861370844941,1524
2214.749196039812,1491
2216.636580826851,1518
2218.523525483344,1505
2220.410030286655,1503
2222.296095514226,1474
2224.1817214435805,1508
2226.066908352319,1489
2227.951656518121,1548
2229.835966218746,1543
2231.71983773203,1519
2233.6032713358913,1511
2235.486267308324,1542
2237.3688259274036,1550
2239.2509474712824,1487
2241.132632218193,1550
2243.013880446447,1483
2244.8946924344323,1495
2246.7750684606203,1551
2248.6550088035574,1494
2250.534513741871,1527
2252.413583554265,1569
2254.292218519526,1498
2256.170418916517,1466
2258.0481850241786,1423
2259.925517121534,1498
2261.8024154876825,1478
2263.678880401803,1479
2265.5549121431536,1536
2267.430510991071,1523
2269.305677224971,1524
2271.180411124348,1498
2273.0547129687766,1492
2274.9285830379076,1423
2276.8020216114737,1455
2278.6750289692845,1563
2280.5476053912294,1496
2282.4197511572766,1536
2284.2914665474727,1501
2286.162751841943,1512
2288.0336073208937,1577
2289.904033264608,1478
2291.774029953448,1526
2293.6435976678554,1513
2295.5127366883517,1446
2297.381447295534,1488
2299.2497297700825,1432
2301.1175843927526,1382
2302.9850114443825,1444
2304.852011205885,1395
2306.7185839582553,1355
2308.5847299825664,1320
2310.4504495599676,1329
2312.3157429716925,1300
2314.1806104990483,1306
2316.0450524234247,1338
2317.9090690262888,1239
2319.772660589186,1359
2321.635827393742,1311
2323.498569721661,1377
2325.3608878547248,1287
2327.2227820747967,1314
2329.0842526638157,1287
2330.945299903803,1324
2332.805924076857,1260
2334.6661254651535,1322
2336.525904350951,1282
2338.3852610165827,1286
2340.244195744464,1326
2342.102708817088,1317
2343.9608005170253,1322
2345.8184711269287,1300
2347.675720929526,1326
2349.532550207628,1292
2351.38895924412,1297
2353.24494832197,1367
2355.100517724223,1372
2356.955667734004,1321
2358.810398634514,1397
2360.664710709037,1311
2362.5186042409337,1309
2364.3720795136437,1346
2366.225136810686,1383
2368.0777764156583,1344
2369.929998612237,1291
2371.7818036841777,1319
2373.633191915315,1360
2375.484163589562,1344
2377.3347189909114,1343
2379.184858403434,1323
2381.03458211128,1339
2382.8838903986775,1296
2384.732783549936,1351
2386.5812618494406,1352
2388.4293255816588,1372
2390.2769750311327,1306
2392.1242104824883,1313
2393.971032220427,1405
2395.8174405297295,1341
2397.6634356952563,1352
2399.509018001947,1371
2401.3541877348193,1328
2403.1989451789705,1396
2405.043290619576,1358
2406.8872243418905,1374
2408.730746631247,1391
2410.5738577730594,1343
2412.4165580528183,1376
2414.258847756095,1354
2416.100727168537,1331
2417.9421965758734,1345
2419.783256263912,1423
2421.623906518538,1400
2423.4641476257157,1421
2425.303979871491,1392
2427.143403541984,1365
2428.9824189233977,1373
2430.821026302012,1372
2432.6592259641866,1349
2434.497018196361,1412
2436.33440328505,1412
2438.171381516851,1381
2440.00795317844,1352
2441.844118556569,1413
2443.6798779380724,1363
2445.5152316098606,1362
2447.3501798589255,1357
2449.1847229723357,1375
2451.0188612372403,1416
2452.8525949408663,1398
2454.6859243705203,1407
2456.518849813587,1427
2458.3513715575314,1416
2460.183489889895,1422
2462.015205098301,1438
2463.8465174704493,1379
2465.67742729412,1394
2467.5079348571717,1375
2469.338040447542,1402
2471.1677443532476,1410
2472.9970468623833,1378
2474.825948263123,1400
2476.6544488437207,1350
2478.482548892508,1395
2480.310248697896,1428
2482.137548548374,1331
2483.9644487325118,1447
2485.790949538956,1394
2487.617051256433,1467
2489.44275417375,1401
2491.26805857979,1443
2493.0929647635157,1411
2494.917473013971,1466
2496.741583620276,1431
2498.5652968716304,1409
2500.3886130573137,1418
2502.2115324666834,1452
2504.0340553891765,1447
2505.856182114308,1464
2507.6779129316733,1451
2509.499248130945,1437
2511.3201880018764,1489
2513.140732834298,1460
2514.9608829181198,1436
2516.780638543331,1474
2518.6,1508
2520.418967578273,1463
2522.237541568376,1494
2524.0557222606144,1526
2525.8735099453706,1528
2527.6909049131086,1492
2529.507907454368,1418
2531.32451785977,1534
2533.140736420014,1590
2534.9565634258774,1562
2536.771999168218,1541
2538.5870439379714,1540
2540.4016980261526,1553
2542.2159617238544,1585
2544.02983532225,1673
2545.8433191125914,1546
2547.656413386209,1541
2549.4691184345115,1531
2551.2814345489874,1608
2553.093362021204,1664
2554.904901142808,1622
2556.716052205523,1581
2558.526815501153,1702
2560.3371913215824,1634
2562.147179958771,1720
2563.956781704761,1693
2565.7659968516705,1701
2567.5748256916986,1681
2569.3832685171224,1625
2571.1913256202984,1676
2572.9989972936614,1736
2574.806283829725,1703
2576.613185521084,1746
2578.4197026604074,1810
2580.2258355404483,1786
2582.031584454035,1742
2583.836949694077,1779
2585.6419315535613,1776
2587.4465303255533,1834
2589.2507463032002,1758
2591.0545797797245,1804
2592.8580310484303,1781
2594.6611004026995,1732
2596.463788135992,1737
2598.266094541849,1775
2600.0680199138874,1799
2601.869564545807,1836
2603.670728731383,1781
2605.4715127644704,1812
2607.2719169390048,1804
2609.071941548998,1773
2610.8715868885433,1809
2612.670853251811,1810
2614.469740933052,1721
2616.268250226594,1750
2618.0663814268455,1818
2619.864134828292,1750
2621.6615107255006,1722
2623.458509413115,1791
2625.2551311858597,1752
2627.0513763385347,1777
2628.8472451660223,1803
2630.6427379632833,1757
2632.4378550253564,1655
2634.232596647359,1679
2636.026963124488,1688
2637.8209547520187,1670
2639.6145718253065,1638
2641.407814639785,1676
2643.200683490966,1602
2644.9931786744414,1641
2646.7853004858807,1559
2648.577049221034,1594
2650.3684251757277,1610
2652.1594286458712,1568
2653.9500599274484,1596
2655.740319316525,1632
2657.5302071092437,1589
2659.3197236018286,1598
2661.10886909058,1567
2662.8976438718782,1491
2664.686048242183,1528
2666.4740824980327,1517
2668.2617469360443,1477
2670.0490418529134,1445
2671.8359675454153,1421
2673.622524310403,1455
2675.408712444811,1474
2677.1945322456495,1449
2678.979984010009,1405
2680.76506803506,1472
2682.5497846180497,1415
2684.334134056306,1428
2686.1181166472343,1421
2687.9017326883213,1493
2689.6849824771293,1346
2691.4678663113013,1415
2693.2503844885596,1394
2695.032537306705,1439
2696.8143250636167,1413
2698.5957480572542,1416
2700.3768065856534,1404
2702.1575009469316,1375
2703.937831439283,1365
2705.717798360982,1366
2707.4974020103837,1386
2709.276642685917,1363
2711.055520686095,1387
2712.834036309506,1347
2714.612189854819,1283
2716.389981620782,1302
2718.1674119062204,1288
2719.944481010041,1319
2721.721189231226,1289
2723.4975368688415,1364
2725.273524222027,1307
2727.0491515900053,1340
2728.824419272075,1336
2730.5993275676146,1312
2732.3738767760838,1350
2734.148067197016,1341
2735.921899130031,1348
2737.6953728748194,1288
2739.468488731156,1296
2741.2412469988926,1319
2743.0136479779617,1355
2744.785691968372,1312
2746.5573792702116,1309
2748.3287101836504,1295
2750.099685008934,1295
2751.870304046388,1301
2753.640567596418,1303
2755.4104759595057,1305
2757.1800294362156,1271
2758.949228327187,1332
2760.7180729331412,1325
2762.486563554877,1332
2764.254700493272,1304
2766.022484049284,1317
2767.789914523947,1307
2769.5569922183786,1289
2771.3237174337705,1264
2773.090090471394,1297
2774.8561116326036,1338
2776.6217812188274,1316
2778.3870995315756,1306
2780.1520668724356,1282
2781.9166835430747,1277
2783.6809498452394,1268
2785.444866080754,1286
2787.2084325515225,1324
2788.971649559527,1313
2790.73451740683,1323
2792.4970363955713,1304
2794.2592068279705,1271
2796.0210290063264,1260
2797.7825032330147,1308
2799.543629810493,1256
2801.304409041296,1309
2803.0648412280366,1275
2804.8249266734088,1251
2806.5846656801846,1328
2808.344058551212,1317
2810.1031055894246,1318
2811.8618070978273,1264
2813.6201633795085,1282
2815.378174737636,1305
2817.1358414754536,1224
2818.893163896285,1279
2820.6501423035334,1313
2822.4067770006814,1316
2824.1630682912883,1321
2825.9190164789957,1293
2827.6746218675207,1307
2829.429884760661,1306
2831.184805462294,1268
2832.9393842763743,1277
2834.693621506936,1298
2836.4475174580916,1340
2838.201072434034,1300
2839.954286739034,1286
2841.707160677441,1299
2843.459694553685,1291
2845.2118886722724,1266
2846.96374333779,1263
2848.7152588549034,1249
2850.4664355283567,1222
2852.217273662973,1297
2853.9677735636546,1324
2855.7179355353833,1313
2857.4677598832186,1334
2859.217246912299,1325
2860.9663969278427,1299
2862.715210235146,1254
2864.4636871395846,1239
2866.211827946614,1283
2867.9596329617652,1262
2869.7071024906536,1269
2871.4542368389684,1245
2873.20103631248,1291
2874.947501217038,1213
2876.6936318585695,1272
2878.4394285430812,1284
2880.1848915766604,1323
2881.9300212654707,1236
2883.6748179157553,1291
2885.4192818338374,1308
2887.1634133261173,1270
2888.907212699077,1309
2890.6506802592744,1258
2892.393816313348,1348
2894.1366211680142,1252
2895.8790951300693,1246
2897.621238506388,1257
2899.363051603925,1319
2901.1045347297118,1237
2902.8456881908596,1295
2904.58651229456,1238
2906.327007348081,1309
2908.067173658772,1267
2909.8070115340597,1269
2911.5465212814497,1324
2913.285703208527,1286
2915.0245576229563,1304
2916.7630848324807,1274
2918.5012851449196,1255
2920.2391588681758,1316
2921.976706310227,1250
2923.7139277791334,1274
2925.4508235830313,1250
2927.187394030137,1289
2928.923639428745,1272
2930.6595600872306,1275
2932.395156314046,1279
2934.1304284177218,1267
2935.8653767068713,1275
2937.6000014901815,1238
2939.3343030764227,1297
2941.068281774442,1272
2942.8019378931644,1231
2944.5352717415976,1270
2946.2682836288236,1303
2948.0009738640065,1286
2949.7333427563885,1364
2951.465390615289,1322
2953.1971177501086,1279
2954.9285244703265,1273
2956.6596110855,1270
2958.3903779052657,1246
2960.1208252393385,1364
2961.8509533975125,1300
2963.5807626896617,1332
2965.3102534257378,1270
2967.0394259157715,1268
2968.768280469873,1278
2970.496817398232,1322
2972.2250370111146,1312
2973.952939618869,1307
2975.6805255319196,1308
2977.4077950607707,1326
2979.134748516006,1290
2980.861386208289,1290
2982.587708448359,1262
2984.313715547037,1311
2986.039407815222,1274
2987.764785563891,1267
2989.489849104102,1307
2991.2145987469908,1257
2992.9390348037705,1278
2994.6631575857346,1319
2996.3869674042576,1202
2998.1104645707887,1289
2999.83364939686,1325
3001.5565221940783,1281
3003.2790832741334,1258
3005.0013329487924,1330
3006.7232715298996,1242
3008.4448993293804,1280
3010.166216659239,1297
3011.887223831558,1331
3013.607921158498,1245
3015.3283089522993,1194
3017.0483875252826,1251
3018.7681571898443,1262
3020.4876182584626,1247
3022.2067710436927,1268
3023.9256158581707,1272
3025.644153014609,1296
3027.362382825801,1271
3029.0803056046193,1290
3030.797921664012,1257
3032.5152313170106,1266
3034.2322348767225,1263
3035.9489326563353,1284
3037.665324969115,1291
3039.3814121284063,1287
3041.097194447633,1279
3042.812672240299,1260
3044.5278458199855,1290
3046.2427155003525,1283
3047.9572815951406,1331
3049.671544418167,1260
3051.38550428333,1267
3053.0991615046073,1252
3054.812516396051,1256
3056.5255692717974,1250
3058.2383204460575,1269
3059.9507702331257,1250
3061.662918947372,1268
3063.3747669032446,1233
3065.0863144152736,1322
3066.7975617980674,1273
3068.508509366309,1281
3070.219157434767,1242
3071.9295063182844,1242
3073.639556331785,1274
3075.3493077902704,1297
3077.058761008821,1261
3078.7679163025964,1270
3080.476773986837,1230
3082.1853343768594,1269
3083.89359778806,1298
3085.6015645359153,1259
3087.3092349359786,1276
3089.016609303884,1329
3090.7236879553434,1271
3092.4304712061476,1254
3094.136959372166,1298
3095.843152769349,1214
3097.5490517137237,1289
3099.2546565213966,1255
3100.959967508554,1289
3102.66498499146,1233
3104.3697092864577,1277
3106.0741407099695,1258
3107.778279578498,1227
3109.482126208622,1287
3111.1856809170004,1302
3112.8889440203716,1276
3114.5919158355528,1256
3116.294596679439,1289
3117.996986869006,1268
3119.6990867213062,1274
3121.4008965534726,1273
3123.102416682717,1271
3124.803647426329,1230
3126.5045891016784,1304
3128.205242026213,1308
3129.90560651746,1324
3131.605682893025,1281
3133.3054714705922,1242
3135.0049725679282,1275
3136.7041865028714,1307
3138.4031135933465,1261
3140.101754157353,1253
3141.800108512971,1290
3143.498176978357,1270
3145.1959598717494,1262
3146.8934575114636,1351
3148.5906702158954,1302
3150.2875983035183,1254
3151.9842420928853,1262
3153.680601902627,1305
3155.376678051456,1292
3157.07247085816,1288
3158.767980641609,1281
3160.463207720748,1265
3162.158152414606,1275
3163.8528150422862,1298
3165.5471959229726,1257
3167.2412953759303,1314
3168.9351137204976,1235
3170.628651276098,1241
3172.3219083622307,1297
3174.014885298474,1258
3175.707582404485,1301
3177.4000000000005,1296
3179.092138404835,1269
3180.7839979388846,1220
3182.47557892212,1286
3184.166881674594,1259
3185.8579065164386,1280
3187.5486537678626,1292
3189.2391237491547,1305
3190.9293167806827,1288
3192.6192331828934,1311
3194.3088732763117,1262
3195.998237381542,1253
3197.687325819268,1280
3199.376138910251,1254
3201.064676975334,1232
3202.7529403354347,1247
3204.4409293115523,1280
3206.1286442247647,1243
3207.816085396229,1236
3209.5032531471825,1281
3211.190147798936,1236
3212.8767696728846,1306
3214.5631190905015,1251
3216.2491963733373,1284
3217.9350018430214,1221
3219.6205358212637,1215
3221.305798629851,1206
3222.990790590651,1236
3224.6755120256103,1256
3226.359963256751,1213
3228.0441446061795,1254
3229.7280563960758,1166
3231.411698948703,1214
3233.0950725863995,1193
3234.778177631587,1218
3236.461014406761,1302
3238.1435832345005,1250
3239.8258844374595,1231
3241.507918338374,1291
3243.1896852600576,1203
3244.8711855254023,1282
3246.552419457381,1236
3248.233387379042,1245
3249.914089613516,1186
3251.59452648401,1261
3253.274698313813,1252
3254.95460542629,1229
3256.6342481448855,1191
3258.313626793125,1268
3259.9927416946084,1274
3261.6715931730196,1198
3263.3501815521176,1251
3265.0285071557437,1204
3266.706570307815,1216
3268.3843713323286,1219
3270.0619105533615,1229
3271.739188295068,1225
3273.4162048816834,1274
3275.0929606375184,1223
3276.769455886966,1210
3278.445690954498,1220
3280.1216661646613,1237
3281.797381842087,1234
3283.4728383114807,1306
3285.1480358976296,1274
3286.8229749253996,1234
3288.4976557197333,1233
3290.172078605655,1241
3291.846243908266,1204
3293.5201519527463,1240
3295.193803064357,1216
3296.8671975684374,1255
3298.5403357904024,1211
3300.21321805575,1193
3301.8858446900567,1258
3303.558216018975,1233
3305.23033236824,1209
3306.9021940636603,1227
3308.57380143113,1230
3310.2451547966184,1226
3311.916254486174,1275
3313.5871008259246,1242
3315.2576941420766,1250
3316.9280347609147,1222
3318.5981230088046,1202
3320.2679592121895,1197
3321.9375436975924,1214
3323.606876791612,1226
3325.27595882093,1177
3326.944790112305,1194
3328.6133709925753,1226
3330.2817017886573,1221
3331.949782827547,1221
3333.617614436319,1266
3335.2851969421245,1242
3336.952530672199,1248
3338.619615953853,1272
3340.286453114475,1193
3341.9530424815357,1234
3343.619384382583,1266
3345.2854791452437,1245
3346.951327097224,1276
3348.6169285663073,1283
3350.2822838803577,1258
3351.947393367319,1336
3353.61225735521,1261
3355.2768761721345,1192
3356.9412501462693,1251
3358.605379605873,1170
3360.2692648792827,1258
3361.9329062949146,1260
3363.596304181263,1245
