CollectionTime,7/9/2024 12:39:02 PM
ExposureUsed,3
CalibratedSpectrum
-962.7078968117929,564
-959.9714848408522,596
-957.2358232597828,594
-954.5009119013725,605
-951.7667505983302,639
-949.0333391832855,607
-946.3006774887896,636
-943.5687653473143,624
-940.837602591253,615
-938.1071890529199,595
-935.3775245645503,609
-932.6486089583007,637
-929.9204420662485,632
-927.1930237203925,640
-924.4663537526524,581
-921.7404319948689,663
-919.0152582788041,633
-916.2908324361409,605
-913.5671542984834,610
-910.8442236973568,604
-908.1220404642074,633
-905.4006044304027,624
-902.679915427231,602
-899.959973285902,615
-897.2407778375464,592
-894.5223289132158,632
-891.8046263438832,616
-889.0876699604426,596
-886.3714595937089,607
-883.6559950744183,578
-880.9412762332282,611
-878.2273029007168,625
-875.5140749073835,599
-872.8015920836489,624
-870.0898542598545,606
-867.3788612662631,595
-864.6686129330585,606
-861.9591090903457,606
-859.2503495681506,618
-856.5423341964203,590
-853.8350628050229,571
-851.1285352237478,581
-848.4227512823054,588
-845.7177108103272,627
-843.0134136373656,602
-840.3098595928943,600
-837.6070485063082,616
-834.9049802069229,629
-832.2036545239757,628
-829.5030712866244,618
-826.8032303239481,618
-824.1041314649472,625
-821.4057745385428,621
-818.7081593735775,624
-816.0112857988148,625
-813.3151536429393,623
-810.6197627345566,633
-807.9251129021936,640
-805.2312039742981,606
-802.5380357792392,645
-799.8456081453069,664
-797.1539209007124,626
-794.462973873588,658
-791.772766891987,604
-789.083299783884,649
-786.3945723771743,654
-783.7065844996748,636
-781.0193359791231,638
-778.3328266431781,624
-775.6470563194197,670
-772.9620248353489,641
-770.2777320183878,647
-767.5941776958798,663
-764.9113616950891,651
-762.2292838432011,644
-759.5479439673222,632
-756.8673418944801,641
-754.1874774516235,655
-751.5083504656222,629
-748.8299607632671,649
-746.15230817127,684
-743.475392516264,686
-740.7992136248035,648
-738.1237713233636,687
-735.4490654383407,692
-732.7750957960521,666
-730.1018622227365,663
-727.4293645445534,692
-724.7576025875837,682
-722.0865761778291,674
-719.4162851412126,685
-716.7467293035781,677
-714.0779084906909,677
-711.409822528237,724
-708.7424712418238,670
-706.0758544569796,691
-703.4099719991541,674
-700.7448236937178,693
-698.0804093659622,714
-695.4167288411002,696
-692.7537819442656,719
-690.0915685005134,693
-687.4300883348199,744
-684.7693412720819,734
-682.1093271371178,754
-679.4500457546669,741
-676.7914969493897,730
-674.1336805458676,730
-671.4765963686034,725
-668.8202442420206,734
-666.1646239904642,751
-663.5097354382001,743
-660.8555784094151,771
-658.2021527282176,754
-655.5494582186366,723
-652.8974947046223,753
-650.2462620100463,715
-647.5957599587009,713
-644.9459883742998,783
-642.2969470804776,797
-639.6486359007902,748
-637.0010546587141,778
-634.3542031776476,748
-631.7080812809096,747
-629.0626887917401,755
-626.4180255333008,741
-623.7740913286734,722
-621.1308860008619,811
-618.4884093727904,745
-615.8466612673046,734
-613.2056415071715,771
-610.5653499150785,760
-607.9257863136347,779
-605.28695052537,767
-602.6488423727357,725
-600.0114616781036,758
-597.3748082637674,730
-594.7388819519412,732
-592.1036825647604,781
-589.4692099242818,793
-586.8354638524829,780
-584.2024441712624,778
-581.5701507024403,739
-578.9385832677575,785
-576.3077416888759,782
-573.6776257873787,788
-571.0482353847704,790
-568.4195703024757,804
-565.7916303618415,780
-563.164415384135,786
-560.5379251905453,791
-557.9121596021815,744
-555.2871184400748,780
-552.6628015251767,790
-550.0392086783606,810
-547.4163397204204,760
-544.794194472071,794
-542.1727727539491,796
-539.5520743866118,844
-536.9320991905377,820
-534.3128469861261,831
-531.6943175936979,834
-529.0765108334947,896
-526.4594265256793,915
-523.8430644903358,1001
-521.2274245474689,1112
-518.612506517005,1155
-515.9983102187913,1161
-513.3848354725959,1153
-510.77208209810846,1182
-508.16004991493924,1186
-505.5487387426199,1372
-502.9381484006032,1529
-500.3282787082628,1473
-497.71912948489364,1422
-495.1107005497117,1314
-492.5029917218539,1236
-489.8960028203786,1125
-487.28973366426493,1077
-484.68418407241325,973
-482.07935386364494,964
-479.47524285670266,934
-476.87185087025,952
-474.2691777228715,965
-471.66722323307334,987
-469.0659872192821,968
-466.4654694998459,960
-463.86566989303384,932
-461.26658821703614,934
-458.66822428996414,928
-456.07057792985,951
-453.4736489546475,974
-450.877437182231,985
-448.28194243039627,936
-445.68716451686,894
-443.09310325926003,905
-440.49975847515555,934
-437.9071299820263,1016
-435.31521759727354,952
-432.72402113821954,967
-430.13354042210767,976
-427.5437752661022,982
-424.95472548728867,1007
-422.36639090267386,1002
-419.7787713291855,1008
-417.1918665836721,1045
-414.60567648290385,964
-412.0202008435715,985
-409.4354394822874,1009
-406.8513922155845,1031
-404.26805885991723,978
-401.685439231661,1000
-399.103533147112,1034
-396.522340422488,1031
-393.9418608739278,1013
-391.3620943174908,1035
-388.7830405691583,944
-386.2046994448317,951
-383.6270707603344,911
-381.05015433141045,868
-378.473949973725,813
-375.8984575028645,792
-373.32367673433623,735
-370.74960748356875,664
-368.1762495659117,619
-365.60360279663576,588
-363.03166699093265,529
-360.4604419639154,506
-357.8899275306178,474
-355.32012350599507,482
-352.7510297049233,457
-350.1826459421999,447
-347.61497203254316,480
-345.04800779059235,477
-342.4817530309082,449
-339.91620756797226,465
-337.35137121618743,452
-334.7872437898774,468
-332.22382510328725,463
-329.66111497058273,448
-327.09911320585127,452
-324.53781962310075,464
-321.9772340362607,456
-319.4173562591816,460
-316.8581861056348,454
-314.2997233893127,463
-311.7419679238294,447
-309.1849195227194,451
-306.62857799943856,451
-304.0729431673641,461
-301.51801483979375,475
-298.963792829947,486
-296.41027695096386,498
-293.85746701590574,463
-291.3053628377552,491
-288.7539642294155,510
-286.2032710037115,465
-283.65328297338897,472
-281.1039999511146,543
-278.5554217494762,551
-276.007548180983,524
-273.4603790580651,565
-270.9139141930734,527
-268.3681533982807,508
-265.8230964858798,502
-263.27874326798565,516
-260.7350935566336,492
-258.1921471637804,565
-255.6499039013039,544
-253.10836358100266,539
-250.56752601459698,524
-248.02739101372765,559
-245.48795838995704,548
-242.94922795476816,540
-240.41119951956557,519
-237.8738728956746,537
-235.33724789434166,606
-232.80132432673452,608
-230.2661020039418,575
-227.73158073697357,578
-225.19776033676033,630
-222.66464061415422,669
-220.1322213799284,629
-217.60050244477725,600
-215.06948361931552,582
-212.53916471408013,590
-210.00954553952818,646
-207.48062590603843,593
-204.9524056239104,639
-202.4248845033651,690
-199.8980623545441,655
-197.37193898751036,645
-194.84651421224817,636
-192.32178783866232,650
-189.79775967657952,672
-187.27442953574644,690
-184.7517972258321,707
-182.2298625564256,737
-179.7086253370378,717
-177.18808537710026,670
-174.66824248596583,657
-172.14909647290835,673
-169.6306471471229,743
-167.11289431772548,722
-164.59583779375328,679
-162.07947738416453,709
-159.5638128978386,763
-157.04884414357605,792
-154.53457093009854,866
-152.02099306604828,893
-149.50811035998936,763
-146.99592262040665,744
-144.48442965570587,735
-141.97363127421409,772
-139.46352728417958,864
-136.95411749377126,955
-134.44540171107985,846
-131.93737974411636,843
-129.43005140081357,844
-126.92341648902493,1103
-124.41747481652521,1428
-121.91222619101006,1398
-119.40767042009657,1362
-116.90380731132257,1399
-114.40063667214702,1586
-111.8981583099503,1521
-109.3963720320337,1271
-106.89527764561933,1179
-104.39487495785067,1218
-101.89516377579241,1414
-99.39614390642998,1712
-96.89781515667039,1982
-94.40017733334128,2363
-91.90323024319173,2792
-89.40697369289148,3079
-86.91140748903172,3175
-84.41653143812482,2889
-81.92234534660395,2425
-79.42884902082358,2332
-76.93604226705907,3321
-74.4439248915071,5379
-71.95249670028534,8217
-69.46175749943245,9825
-66.97170709490854,10815
-64.48234529259423,10748
-61.99367189829195,10274
-59.50568671772464,9286
-57.01838955653636,8171
-54.53178022029283,8234
-52.045858514480074,9565
-49.560624244506016,10086
-47.07607721569923,11489
-44.59221723330904,11887
-42.10904410250669,11631
-39.62655762838392,9811
-37.14475761595372,7961
-34.66364387015028,7591
-32.18321619582866,7282
-29.70347439776515,7193
-27.224418280657005,8005
-24.74604764912317,8678
-22.26836230770266,11494
-19.7913620608565,20194
-17.315046712966478,35412
-14.83941606833514,48830
-12.36446993118659,65040
-9.89020810566592,65040
-7.416630395839093,65040
-4.94373660569363,65040
-2.471526539137585,65040
-6.821210263296962E-13,65040
2.47084320796705,65040
4.941003281093458,65040
7.410480415786196,65040
9.879274808531363,65040
12.347386655893956,65040
14.814816154518212,65040
17.28156350112681,65040
19.74762889252179,65040
22.21301252558385,22001
24.67771459727237,4297
27.141735304626195,2490
29.605074844762612,1873
32.06773341487792,1570
34.52971121224755,1609
36.99100843422559,1768
39.45162527824516,1742
41.91156194181792,1455
44.370818622535126,1300
46.82939551806646,1137
49.287292826160524,1110
51.74451074464503,1302
54.201049471426245,1151
56.65690920448981,1086
59.112090141899785,1026
61.56659248179983,944
64.02041642241159,901
66.4735621620365,882
68.92602989905402,911
71.37781983192338,920
73.82893215918205,890
76.27936707944684,938
78.72912479141326,985
81.17820549385567,946
83.62660938562783,847
86.07433666566146,860
88.5213875329681,841
90.96776218663751,877
93.41346082583925,843
95.85848364982041,792
98.30283085790859,871
100.7465026495089,813
103.18949922410604,796
105.63182078126385,878
108.07346752062438,904
110.51443964190923,883
112.95473734491827,797
115.39436082953114,828
117.83331029570547,741
120.27158594347827,724
122.7091879729652,760
125.1461165843615,848
127.58237197794062,767
130.01795435405518,728
132.4528639131364,791
134.88710085569494,830
137.32066538231982,728
139.75355769367923,699
142.1857779905207,725
144.61732647366978,726
147.04820334403132,719
149.47840880258934,816
151.90794305040674,847
154.33680628862487,966
156.76499871846443,1114
159.19252054122433,1296
161.61937195828352,1380
164.04555317109896,1522
166.47106438120693,1727
168.89590579022217,1886
171.320077599839,2103
173.7435800118302,2112
176.16641322804742,2157
178.58857745042144,2424
181.01007288096173,2485
183.43089972175687,2483
185.85105817497413,2504
188.27054844285988,2494
190.6893707277394,2549
193.10752523201643,2444
195.5250121581745,2548
197.9418317087751,2700
200.3579840864594,2699
202.7734694939469,2702
205.18828813403627,2796
207.6024402096051,2835
210.01592592360964,2868
212.42874547908548,2901
214.84089907914665,2827
217.2523869269868,2774
219.66320922587727,2853
222.0733661791695,2849
224.48285799029293,2841
226.8916848627572,2857
229.29984700014882,2865
231.7073446061355,2861
234.11417788446204,2916
236.520347038953,2978
238.92585227351185,3115
241.33069379212054,3093
243.73487179884035,3137
246.1383864978112,3146
248.541238093252,3176
250.9434267894609,3174
253.34495279081432,3182
255.74581630176783,3281
258.1460175268563,3246
260.54555667069314,3285
262.9444339379703,3248
265.3426495334594,3250
267.7402036620107,3073
270.1370965285529,3109
272.53332833809407,2839
274.9288992957214,2729
277.32380960660055,2805
279.718059475976,2721
282.1116491091717,2621
284.5045787115897,2608
286.89684848871195,2643
289.2884586460981,2623
291.67940938938807,2718
294.0697009242996,2629
296.4593334566299,2601
298.84830719225477,2672
301.23662233712923,2589
303.6242790972866,2532
306.01127767884,2613
308.39761828798066,2599
310.78330113097934,2426
313.16832641418534,2480
315.5526943440269,2480
317.9364051270112,2369
320.3194589697242,2379
322.70185607883093,2469
325.0835966610754,2341
327.4646809232805,2294
329.8451090723478,2369
332.2248813152577,2277
334.6039978590701,2296
336.9824589109231,2397
339.36026467803447,2295
341.7374153677,2319
344.113911187295,2295
346.48975234427337,2320
348.8649390461686,2304
351.2394715005918,2305
353.61334991523415,2209
355.9865744978655,2208
358.35914545633375,2256
360.73106299856715,2290
363.10232733257146,2239
365.47293866643247,2219
367.84289720831396,2201
370.2122031664593,2158
372.5808567491905,2224
374.9488581649083,2123
377.31620762209275,2185
379.6829053293021,2145
382.0489514951745,2164
384.4143463284262,2092
386.7790900378528,2094
389.14318283232853,2136
391.50662492080653,2090
393.86941651231916,2122
396.23155781597745,2069
398.5930490409713,2144
400.9538903965696,2068
403.3140820921202,2091
405.6736243370498,2108
408.03251734086336,2121
410.3907613131465,2147
412.74835646356166,2098
415.10530300185144,2119
417.4616011378372,2139
419.81725108141893,2040
422.1722530425758,2106
424.5266072313656,2101
426.880313857925,2112
429.2333731324701,2027
431.58578526529516,2076
433.9375504667738,2031
436.2886689473588,2066
438.63914091758113,2079
440.9889665880513,2036
443.33814616945835,2054
445.68667987257015,2002
448.03456790823395,2046
450.3818104873759,2027
452.72840782100013,2026
455.07436012019105,1988
457.41966759611057,2044
459.7643304600007,2050
462.10834892318155,1994
464.4517231970525,2000
466.79445349309174,1974
469.1365400228566,2063
471.4779829979826,2025
473.81878263018564,2105
476.15893913125876,2012
478.4984527130747,2114
480.8373235875855,2074
483.17555196682144,2206
485.5131380628919,2163
487.8500820879857,2234
490.1863842543697,2423
492.52204477439034,2364
494.8570638604725,2548
497.1914417251204,2898
499.52517858091653,3115
501.85827464052306,3282
504.19073011668036,3565
506.5225452222086,3473
508.85372017000566,3432
511.18425517304956,3387
513.514150444396,3426
515.8434061971808,4088
518.1720226446176,4805
520.4999999999999,5078
522.8273384766991,4817
525.1540382881666,4397
527.480099647932,3829
529.8055227696037,3322
532.1303078668694,2692
534.454455153496,2440
536.777964843328,2295
539.1008371502907,2123
541.4230722883866,2131
543.744670471698,2140
546.0656319143858,2074
548.3859568306899,2111
550.7056454349294,2147
553.0246979415016,2079
555.3431145648834,2049
557.6608955196306,2132
559.978041020377,2023
562.2945512818363,2036
564.6104265188006,2045
566.9256669461412,2079
569.2402727788082,2046
571.5542442318302,2079
573.8675815203156,2183
576.1802848594508,2025
578.4923544645015,2098
580.8037905508126,2167
583.114593333807,2077
585.4247630289875,2116
587.7342998519354,2060
590.0432040183106,2130
592.3514757438526,2066
594.6591152443794,2077
596.9661227357875,2136
599.2724984340531,2140
601.578242555231,2073
603.8833553154542,2057
606.1878369309362,2012
608.4916876179676,2065
610.7949075929192,2069
613.0974970722403,2100
615.3994562724587,2106
617.7007854101818,2076
620.0014847020951,2076
622.3015543649641,2058
624.6009946156324,2118
626.8998056710224,2057
629.1979877481361,2077
631.4955410640538,2115
633.7924658359349,2151
636.0887622810175,2075
638.3844306166192,2104
640.6794710601358,2090
642.9738838290426,2116
645.2676691408932,2108
647.5608272133207,2160
649.853358264037,2215
652.1452625108324,2160
654.4365401715764,2284
656.7271914642178,2253
659.0172166067838,2211
661.3066158173809,2169
663.5953893141935,2154
665.8835373154867,2234
668.1710600396028,2235
670.4579577049639,2110
672.7442305300709,2226
675.0298787335033,2190
677.3149025339197,2207
679.599302150058,2134
681.8830778007342,2180
684.1662297048437,2206
686.4487580813608,2192
688.7306631493387,2192
691.0119451279091,2215
693.2926042362834,2175
695.5726406937516,2140
697.8520547196814,2141
700.1308465335215,2087
702.4090163547982,2178
704.6865644031171,2160
706.9634908981619,2146
709.2397960596965,2163
711.5154801075631,2146
713.7905432616823,2219
716.0649857420548,2199
718.3388077687592,2149
720.612009561953,2175
722.8845913418733,2232
725.1565533288352,2150
727.427895743234,2114
729.6986188055427,2173
731.9687227363137,2148
734.238207756178,2204
736.5070740858458,2135
738.7753219461066,2165
741.0429515578281,2212
743.3099631419569,2181
745.5763569195191,2108
747.8421331116193,2117
750.1072919394409,2129
752.3718336242467,2128
754.6357583873777,2120
756.8990664502545,2136
759.1617580343765,2193
761.423833361321,2132
763.6852926527457,2104
765.9461361303862,2092
768.206364016058,2136
770.4659765316536,2098
772.7249738991469,2139
774.9833563405886,2187
777.2411240781092,2151
779.4982773339183,2180
781.7548163303044,2128
784.010741289634,2137
786.2660524343538,2225
788.5207499869881,2118
790.7748341701416,2219
793.0283052064964,2196
795.2811633188143,2224
797.5334087299362,2182
799.7850416627813,2202
802.0360623403484,2205
804.2864709857143,2224
806.5362678220353,2208
808.7854530725468,2195
811.0340269605625,2263
813.2819897094754,2194
815.5293415427581,2193
817.77608268396,2142
820.0222133567116,2177
822.2677337847211,2194
824.5126441917765,2212
826.7569448017433,2164
829.0006358385675,2128
831.2437175262731,2240
833.4861900889629,2230
835.7280537508192,2230
837.9693087361026,2198
840.2099552691533,2180
842.4499935743896,2124
844.689423876309,2140
846.9282463994886,2101
849.1664613685833,2235
851.4040690083276,2169
853.6410695435349,2174
855.877463199097,2311
858.1132501999847,2257
860.3484307712487,2232
862.5830051380175,2125
864.8169735254988,2223
867.0503361589791,2182
869.2830932638243,2191
871.5152450654786,2289
873.7467917894654,2235
875.9777336613873,2265
878.2080709069252,2332
880.4378037518389,2277
882.666932421968,2195
884.8954571432301,2277
887.1233781416219,2322
889.3506956432192,2304
891.5774098741766,2341
893.803521060728,2320
896.0290294291852,2266
898.2539352059397,2265
900.4782386174619,2223
902.7019398903011,2300
904.925039251085,2242
907.147536926521,2254
909.3694331433943,2294
911.59072812857,2301
913.8114221089921,2280
916.0315153116827,2234
918.2510079637437,2256
920.4699002923547,2330
922.6881925247761,2246
924.905884888345,2251
927.1229776104793,2273
929.3394709186747,2240
931.555365040506,2240
933.7706602036275,2263
935.9853566357709,2197
938.1994545647489,2294
940.4129542184515,2259
942.6258558248488,2211
944.8381596119883,2314
947.0498658079974,2311
949.2609746410825,2225
951.4714863395287,2217
953.6814011316998,2209
955.8907192460387,2197
958.0994409110671,2248
960.3075663553858,2204
962.5150958076741,2225
964.7220294966913,2225
966.928367651274,2266
969.1341105003388,2230
971.3392582728806,2249
973.5438111979742,2245
975.747769504772,2146
977.9511334225061,2216
980.153903180487,2110
982.3560790081052,2136
984.5576611348289,2163
986.7586497902058,2168
988.9590452038618,2108
991.158847605503,2086
993.3580572249133,2054
995.5566742919558,2057
997.7546990365728,2060
999.952131688785,1997
1002.1489724786926,2001
1004.3452216364743,1969
1006.5408793923874,1965
1008.7359459767691,1985
1010.9304216200343,1932
1013.1243065526781,1938
1015.3176010052733,1948
1017.510305208472,1938
1019.7024193930064,1950
1021.8939437896848,1897
1024.0848786293977,1835
1026.2752241431122,1913
1028.4649805618747,1908
1030.6541481168115,1893
1032.842727039127,1918
1035.0307175601051,1852
1037.2181199111074,1937
1039.4049343235752,1872
1041.591161029029,1927
1043.7768002590683,1929
1045.9618522453698,1913
1048.1463172196918,1896
1050.3301954138697,1854
1052.513487059818,1936
1054.69619238953,1899
1056.8783116350783,1910
1059.0598450286152,1885
1061.2407928023704,1869
1063.4211551886528,1859
1065.6009324198508,1850
1067.780124728432,1853
1069.9587323469414,1889
1072.1367555080046,1927
1074.314194444325,1892
1076.4910493886855,1859
1078.667320573947,1860
1080.843008233051,1815
1083.0181125990161,1845
1085.1926339049414,1885
1087.3665723840027,1881
1089.5399282694575,1775
1091.7127017946405,1874
1093.8848931929647,1880
1096.0565026979243,1795
1098.2275305430899,1782
1100.3979769621128,1801
1102.567842188722,1795
1104.737126456726,1807
1106.9058300000124,1755
1109.0739530525475,1762
1111.2414958483764,1815
1113.4084586216231,1755
1115.5748416064907,1763
1117.7406450372605,1777
1119.9058691482942,1758
1122.0705141740304,1784
1124.2345803489884,1831
1126.3980679077658,1766
1128.5609770850388,1748
1130.7233081155623,1745
1132.8850612341707,1756
1135.0462366757774,1740
1137.2068346753745,1815
1139.3668554680326,1770
1141.526299288901,1773
1143.68516637321,1803
1145.8434569562655,1767
1148.001171273455,1781
1150.158309560244,1828
1152.3148720521767,1773
1154.470858984876,1783
1156.626270594044,1730
1158.7811071154629,1763
1160.9353687849912,1732
1163.089055838569,1779
1165.242168512213,1684
1167.3947070420209,1671
1169.5466716641677,1752
1171.6980626149075,1753
1173.8488801305748,1721
1175.9991244475814,1736
1178.1487958024186,1647
1180.2978944316555,1700
1182.4464205719428,1786
1184.5943744600072,1712
1186.7417563326567,1749
1188.8885664267755,1728
1191.0348049793297,1729
1193.1804722273619,1670
1195.325568407995,1773
1197.4700937584303,1806
1199.614048515948,1736
1201.7574329179074,1717
1203.900247201746,1728
1206.042491604982,1800
1208.1841663652099,1736
1210.3252717201053,1809
1212.465807907422,1753
1214.6057751649923,1742
1216.7451737307279,1731
1218.8840038426192,1758
1221.0222657387353,1715
1223.1599596572241,1743
1225.2970858363137,1729
1227.4336445143094,1789
1229.5696359295966,1747
1231.705060320639,1819
1233.8399179259786,1818
1235.9742089842384,1766
1238.107933734118,1795
1240.2410924143974,1825
1242.373685263935,1752
1244.5057125216676,1722
1246.6371744266116,1765
1248.7680712178621,1863
1250.898403134593,1823
1253.028170416058,1777
1255.1573733015875,1756
1257.2860120305932,1936
1259.4140868425648,1850
1261.54159797707,1860
1263.6685456737569,1892
1265.7949301723515,1909
1267.9207517126597,1827
1270.046010534565,1773
1272.1707068780306,1850
1274.2948409830983,1830
1276.4184130898889,1873
1278.541423438603,1911
1280.6638722695184,1932
1282.785759822993,1897
1284.9070863394636,1908
1287.0278520594447,1882
1289.1480572235314,1857
1291.2677020723963,1888
1293.3867868467923,1921
1295.5053117875495,1910
1297.623277135579,2029
1299.740683131868,1946
1301.8575300174857,1934
1303.973818033578,1974
1306.0895474213703,1970
1308.2047184221678,1936
1310.3193312773528,1949
1312.4333862283888,1979
1314.5468835168163,1938
1316.659823384255,2010
1318.7722060724045,1876
1320.8840318230418,1912
1322.9953008780249,2029
1325.1060134792888,1969
1327.2161698688478,1974
1329.3257702887959,2000
1331.4348149813054,1962
1333.5433041886276,1948
1335.6512381530933,1931
1337.7586171171101,2007
1339.8654413231675,1948
1341.9717110138317,1963
1344.0774264317488,1945
1346.1825878196432,1975
1348.2871954203192,1983
1350.3912494766587,1951
1352.4947502316231,1977
1354.5976979282532,1892
1356.7000928096686,1916
1358.8019351190665,1979
1360.9032250997243,1986
1363.0039629949988,1943
1365.1041490483235,1926
1367.2037835032133,1983
1369.3028666032606,1908
1371.401398592137,1931
1373.4993797135926,2028
1375.5968102114575,1982
1377.6936903296396,1969
1379.7900203121262,2003
1381.8858004029835,1981
1383.9810308463561,1995
1386.075711886469,1983
1388.1698437676241,1948
1390.2634267342032,1971
1392.356461030667,1978
1394.4489469015557,2015
1396.5408845914872,1983
1398.6322743451592,2021
1400.7231164073469,2052
1402.813411022907,2077
1404.903158436773,2059
1406.9923588939578,2012
1409.0810126395531,2077
1411.1691199187303,2111
1413.2566809767386,2079
1415.343696058907,2121
1417.4301654106425,2091
1419.5160892774315,2177
1421.6014679048399,2147
1423.6863015385125,2098
1425.7705904241707,2148
1427.8543348076178,2219
1429.9375349347342,2211
1432.0201910514802,2170
1434.102303403894,2236
1436.1838722380944,2243
1438.2648978002767,2281
1440.3453803367174,2301
1442.4253200937692,2287
1444.5047173178677,2314
1446.5835722555234,2367
1448.6618851533285,2415
1450.739656257952,2461
1452.8168858161434,2486
1454.8935740747306,2466
1456.96972128062,2505
1459.045327680797,2475
1461.120393522327,2600
1463.1949190523528,2640
1465.2689045180973,2657
1467.3423501668608,2706
1469.415256246024,2749
1471.4876230030463,2823
1473.559450685465,2812
1475.6307395408976,2886
1477.7014898170391,2894
1479.771701761665,2959
1481.8413756226287,2987
1483.9105116478618,3042
1485.9791100853772,3089
1488.0471711832643,3212
1490.1146951896926,3218
1492.1816823529098,3299
1494.2481329212433,3233
1496.3140471430984,3281
1498.3794252669609,3332
1500.4442675413939,3267
1502.5085742150404,3264
1504.572345536622,3237
1506.6355817549388,3392
1508.6982831188702,3423
1510.7604498773744,3378
1512.8220822794883,3483
1514.8831805743293,3417
1516.9437450110909,3551
1519.003775839048,3485
1521.0632733075522,3585
1523.1222376660367,3542
1525.1806691640113,3647
1527.2385680510652,3650
1529.2959345768668,3633
1531.3527689911643,3639
1533.4090715437833,3669
1535.4648424846291,3684
1537.5200820636855,3771
1539.5747905310159,3744
1541.6289681367616,3849
1543.6826151311434,3895
1545.7357317644614,3950
1547.7883182870937,4047
1549.8403749494987,3935
1551.8919020022113,4047
1553.9428996958477,4168
1555.9933682811015,4280
1558.0433080087469,4283
1560.0927191296346,4358
1562.1416018946961,4387
1564.1899565549415,4379
1566.2377833614592,4415
1568.2850825654164,4287
1570.3318544180606,4356
1572.3780991707158,4114
1574.423817074788,4080
1576.4690083817595,3805
1578.5136733431923,3719
1580.5578122107272,3587
1582.601425236085,3475
1584.6445126710646,3282
1586.6870747675434,3087
1588.7291117774776,3032
1590.7706239529034,2909
1592.8116115459347,2902
1594.8520748087658,2727
1596.8920139936686,2655
1598.9314293529933,2586
1600.9703211391711,2555
1603.008689604711,2518
1605.0465350022005,2439
1607.0838575843068,2386
1609.1206576037753,2372
1611.1569353134305,2278
1613.1926909661765,2209
1615.2279248149953,2203
1617.2626371129481,2162
1619.2968281131757,2136
1621.3304980688963,2076
1623.3636472334088,2051
1625.39627586009,2062
1627.428384202396,2095
1629.459972513861,2056
1631.4910410480993,1966
1633.5215900588028,2009
1635.551619799744,2043
1637.5811305247717,1937
1639.6101224878166,2011
1641.6385959428862,2000
1643.6665511440683,1981
1645.693988345528,1975
1647.7209078015112,1897
1649.7473097663405,1918
1651.7731944944203,1946
1653.7985622402307,1913
1655.823413258333,1922
1657.847747803366,1869
1659.8715661300494,1891
1661.8948684931793,1932
1663.9176551476316,1919
1665.9399263483624,1947
1667.9616823504057,1852
1669.982923408873,1875
1672.0036497789574,1904
1674.0238617159293,1940
1676.043559475138,1913
1678.0627433120121,1928
1680.081413482059,1894
1682.0995702408654,1846
1684.117213844096,1943
1686.134344547495,1856
1688.1509626068864,1930
1690.1670682781705,1865
1692.182661817329,1899
1694.1977434804217,1851
1696.2123135235875,1874
1698.226372203043,1870
1700.2399197750851,1875
1702.2529564960905,1894
1704.2654826225112,1843
1706.277498410882,1833
1708.2890041178139,1786
1710.2999999999988,1809
1712.3104863142066,1826
1714.3204633172854,1773
1716.329931266163,1821
1718.3388904178469,1875
1720.3473410294214,1820
1722.3552833580516,1842
1724.3627176609807,1850
1726.3696441955308,1799
1728.3760632191033,1866
1730.3819749891782,1769
1732.3873797633146,1815
1734.3922777991502,1712
1736.3966693544012,1820
1738.4005546868639,1789
1740.4039340544127,1812
1742.406807715001,1803
1744.4091759266616,1762
1746.4110389475054,1786
1748.4123970357223,1758
1750.413250449582,1797
1752.4135994474318,1721
1754.4134442876993,1790
1756.4127852288902,1738
1758.4116225295893,1766
1760.4099564484595,1688
1762.407787244244,1720
1764.405115175764,1763
1766.4019405019203,1809
1768.3982634816916,1756
1770.3940843741357,1768
1772.3894034383907,1744
1774.3842209336717,1735
1776.378537119274,1738
1778.372352254571,1774
1780.3656665990156,1713
1782.3584804121397,1714
1784.3507939535534,1717
1786.3426074829463,1744
1788.3339212600863,1682
1790.3247355448211,1764
1792.3150505970766,1737
1794.3048666768573,1724
1796.2941840442477,1775
1798.2830029594106,1724
1800.2713236825884,1675
1802.2591464741004,1678
1804.2464715943465,1717
1806.2332993038058,1678
1808.2196298630352,1654
1810.2054635326708,1661
1812.190800573428,1742
1814.175641246101,1704
1816.1599858115628,1717
1818.1438345307652,1672
1820.127187664738,1697
1822.1100454745924,1643
1824.092408221516,1665
1826.0742761667766,1673
1828.055649571721,1670
1830.0365286977735,1674
1832.0169138064398,1684
1833.9968051593014,1720
1835.9762030180214,1733
1837.9551076443408,1685
1839.9335193000788,1697
1841.9114382471344,1698
1843.888864747485,1674
1845.8657990631878,1697
1847.842241456378,1651
1849.8181921892697,1715
1851.7936515241558,1642
1853.7686197234098,1741
1855.7430970494815,1727
1857.7170837649014,1678
1859.6905801322787,1688
1861.6635864143004,1637
1863.6361028737338,1685
1865.608129773424,1697
1867.5796673762961,1618
1869.5507159453537,1713
1871.521275743678,1704
1873.4913470344313,1714
1875.4609300808534,1713
1877.4300251462632,1659
1879.3986324940588,1701
1881.366752387717,1681
1883.3343850907936,1652
1885.3015308669228,1668
1887.268189979819,1675
1889.2343626932739,1733
1891.2000492711595,1721
1893.1652499774254,1722
1895.1299650761011,1745
1897.0941948312952,1763
1899.0579395071945,1706
1901.0211993680641,1683
1902.98397467825,1741
1904.9462657021745,1685
1906.9080727043415,1692
1908.869395949332,1707
1910.8302357018065,1707
1912.790592226504,1705
1914.7504657882428,1715
1916.7098566519212,1621
1918.6687650825133,1656
1920.6271913450764,1704
1922.5851357047422,1668
1924.5425984267245,1671
1926.499579776314,1688
1928.4560800188833,1704
1930.4120994198802,1703
1932.367638244833,1673
1934.32269675935,1698
1936.2772752291175,1776
1938.231373919899,1759
1940.1849930975404,1718
1942.1381330279637,1696
1944.0907939771696,1745
1946.0429762112412,1691
1947.9946799963363,1688
1949.9459055986945,1734
1951.896653284633,1695
1953.8469233205478,1678
1955.7967159729142,1729
1957.7460315082863,1638
1959.6948701932974,1710
1961.6432322946594,1738
1963.5911180791632,1659
1965.5385278136787,1692
1967.4854617651545,1675
1969.4319202006182,1697
1971.377903387176,1751
1973.3234115920136,1652
1975.268445082395,1692
1977.2130041256642,1656
1979.1570889892423,1704
1981.1006999406304,1592
1983.04383724741,1684
1984.986501177238,1657
1986.928691997853,1680
1988.8704099770712,1644
1990.811655382789,1688
1992.7524284829801,1701
1994.692729545698,1653
1996.6325588390755,1635
1998.5719166313224,1692
2000.5108031907307,1681
2002.4492187856677,1650
2004.387163684583,1636
2006.3246381560011,1636
2008.2616424685298,1680
2010.1981768908527,1657
2012.1342416917332,1628
2014.069837140014,1639
2016.0049635046162,1639
2017.9396210545406,1624
2019.8738100588666,1594
2021.8075307867502,1649
2023.740783507431,1674
2025.6735684902228,1649
2027.6058860045214,1652
2029.5377363198004,1574
2031.4691197056118,1654
2033.4000364315875,1586
2035.3304867674374,1622
2037.260470982952,1617
2039.189989347998,1648
2041.1190421325232,1682
2043.047629606554,1579
2044.9757520401945,1593
2046.9034097036288,1639
2048.8306028671195,1617
2050.7573318010086,1580
2052.683596775716,1625
2054.609398061742,1593
2056.5347359296647,1556
2058.4596106501403,1659
2060.384022493906,1643
2062.3079717317764,1648
2064.231458634646,1630
2066.1544834734873,1637
2068.077046519352,1577
2069.99914804337,1625
2071.9207883167524,1614
2073.8419676107865,1585
2075.7626861968406,1606
2077.6829443463607,1585
2079.6027423308715,1569
2081.522080421977,1638
2083.440958891362,1597
2085.359378010786,1620
2087.2773380520907,1592
2089.194839287196,1649
2091.111881988101,1617
2093.0284664268825,1584
2094.9445928756973,1640
2096.86026160678,1642
2098.775472892446,1552
2100.690227005088,1695
2102.604524217178,1682
2104.5183648012676,1646
2106.431749029985,1591
2108.34467717604,1600
2110.2571495122206,1609
2112.169166311393,1706
2114.080727846503,1681
2115.9918343905747,1582
2117.902486216711,1596
2119.8126835980956,1654
2121.722426807987,1666
2123.6317161197285,1674
2125.5405518067364,1641
2127.448934142509,1608
2129.356863400624,1654
2131.264339854737,1716
2133.1713637785815,1714
2135.077935445972,1647
2136.9840551308002,1656
2138.889723107037,1682
2140.7949396487334,1661
2142.699705030018,1681
2144.6040195250994,1681
2146.507883408264,1721
2148.4112969538774,1665
2150.3142604363848,1688
2152.2167741303097,1720
2154.1188383102535,1723
2156.0204532508997,1658
2157.9216192270064,1651
2159.822336513414,1715
2161.7226053850413,1711
2163.622426116884,1694
2165.5217989840185,1642
2167.4207242616,1615
2169.319202224862,1656
2171.2172331491165,1743
2173.1148173097563,1714
2175.0119549822507,1762
2176.90864644215,1704
2178.8048919650823,1687
2180.7006918267534,1677
2182.596046302952,1740
2184.4909556695407,1662
2186.3854202024645,1748
2188.279440177746,1708
2190.173015871487,1711
2192.066147559868,1752
2193.958835519149,1647
2195.851080025667,1684
2197.7428813558417,1685
2199.6342397861667,1700
2201.5251555932186,1641
2203.415629053651,1733
2205.3056604441986,1770
2207.19525004167,1777
2209.084398122958,1776
2210.9731049650327,1721
2212.861370844941,1749
2214.749196039812,1717
2216.636580826851,1745
2218.523525483344,1690
2220.410030286655,1780
2222.296095514226,1745
2224.1817214435805,1737
2226.066908352319,1734
2227.951656518121,1741
2229.835966218746,1743
2231.71983773203,1777
2233.6032713358913,1750
2235.486267308324,1783
2237.3688259274036,1743
2239.2509474712824,1757
2241.132632218193,1768
2243.013880446447,1757
2244.8946924344323,1747
2246.7750684606203,1772
2248.6550088035574,1805
2250.534513741871,1795
2252.413583554265,1788
2254.292218519526,1684
2256.170418916517,1723
2258.0481850241786,1744
2259.925517121534,1770
2261.8024154876825,1730
2263.678880401803,1707
2265.5549121431536,1729
2267.430510991071,1753
2269.305677224971,1722
2271.180411124348,1736
2273.0547129687766,1696
2274.9285830379076,1692
2276.8020216114737,1661
2278.6750289692845,1698
2280.5476053912294,1677
2282.4197511572766,1725
2284.2914665474727,1788
2286.162751841943,1829
2288.0336073208937,1748
2289.904033264608,1784
2291.774029953448,1744
2293.6435976678554,1792
2295.5127366883517,1727
2297.381447295534,1765
2299.2497297700825,1653
2301.1175843927526,1698
2302.9850114443825,1670
2304.852011205885,1693
2306.7185839582553,1671
2308.5847299825664,1591
2310.4504495599676,1602
2312.3157429716925,1608
2314.1806104990483,1570
2316.0450524234247,1570
2317.9090690262888,1589
2319.772660589186,1571
2321.635827393742,1616
2323.498569721661,1583
2325.3608878547248,1528
2327.2227820747967,1612
2329.0842526638157,1516
2330.945299903803,1559
2332.805924076857,1548
2334.6661254651535,1589
2336.525904350951,1555
2338.3852610165827,1548
2340.244195744464,1570
2342.102708817088,1519
2343.9608005170253,1568
2345.8184711269287,1590
2347.675720929526,1601
2349.532550207628,1600
2351.38895924412,1602
2353.24494832197,1594
2355.100517724223,1601
2356.955667734004,1612
2358.810398634514,1587
2360.664710709037,1596
2362.5186042409337,1610
2364.3720795136437,1572
2366.225136810686,1596
2368.0777764156583,1649
2369.929998612237,1658
2371.7818036841777,1630
2373.633191915315,1565
2375.484163589562,1649
2377.3347189909114,1635
2379.184858403434,1631
2381.03458211128,1608
2382.8838903986775,1556
2384.732783549936,1613
2386.5812618494406,1614
2388.4293255816588,1591
2390.2769750311327,1654
2392.1242104824883,1647
2393.971032220427,1640
2395.8174405297295,1642
2397.6634356952563,1624
2399.509018001947,1598
2401.3541877348193,1639
2403.1989451789705,1629
2405.043290619576,1606
2406.8872243418905,1664
2408.730746631247,1572
2410.5738577730594,1601
2412.4165580528183,1687
2414.258847756095,1614
2416.100727168537,1621
2417.9421965758734,1613
2419.783256263912,1660
2421.623906518538,1662
2423.4641476257157,1665
2425.303979871491,1635
2427.143403541984,1617
2428.9824189233977,1647
2430.821026302012,1603
2432.6592259641866,1610
2434.497018196361,1647
2436.33440328505,1679
2438.171381516851,1636
2440.00795317844,1597
2441.844118556569,1633
2443.6798779380724,1649
2445.5152316098606,1655
2447.3501798589255,1623
2449.1847229723357,1588
2451.0188612372403,1684
2452.8525949408663,1675
2454.6859243705203,1640
2456.518849813587,1643
2458.3513715575314,1688
2460.183489889895,1646
2462.015205098301,1677
2463.8465174704493,1687
2465.67742729412,1704
2467.5079348571717,1660
2469.338040447542,1679
2471.1677443532476,1665
2472.9970468623833,1748
2474.825948263123,1693
2476.6544488437207,1609
2478.482548892508,1695
2480.310248697896,1635
2482.137548548374,1659
2483.9644487325118,1688
2485.790949538956,1623
2487.617051256433,1690
2489.44275417375,1635
2491.26805857979,1697
2493.0929647635157,1726
2494.917473013971,1687
2496.741583620276,1716
2498.5652968716304,1762
2500.3886130573137,1689
2502.2115324666834,1676
2504.0340553891765,1688
2505.856182114308,1708
2507.6779129316733,1711
2509.499248130945,1715
2511.3201880018764,1720
2513.140732834298,1666
2514.9608829181198,1737
2516.780638543331,1737
2518.6,1736
2520.418967578273,1739
2522.237541568376,1736
2524.0557222606144,1748
2525.8735099453706,1731
2527.6909049131086,1723
2529.507907454368,1752
2531.32451785977,1813
2533.140736420014,1793
2534.9565634258774,1810
2536.771999168218,1868
2538.5870439379714,1827
2540.4016980261526,1880
2542.2159617238544,1915
2544.02983532225,1902
2545.8433191125914,1901
2547.656413386209,1839
2549.4691184345115,1919
2551.2814345489874,1923
2553.093362021204,1881
2554.904901142808,1871
2556.716052205523,1902
2558.526815501153,1895
2560.3371913215824,1919
2562.147179958771,1894
2563.956781704761,1900
2565.7659968516705,1909
2567.5748256916986,1993
2569.3832685171224,1969
2571.1913256202984,2012
2572.9989972936614,1972
2574.806283829725,1983
2576.613185521084,2004
2578.4197026604074,1995
2580.2258355404483,1992
2582.031584454035,2112
2583.836949694077,2024
2585.6419315535613,2040
2587.4465303255533,2050
2589.2507463032002,2029
2591.0545797797245,1997
2592.8580310484303,2026
2594.6611004026995,2079
2596.463788135992,2134
2598.266094541849,2004
2600.0680199138874,2067
2601.869564545807,2108
2603.670728731383,2054
2605.4715127644704,2123
2607.2719169390048,2025
2609.071941548998,2080
2610.8715868885433,1983
2612.670853251811,2049
2614.469740933052,2066
2616.268250226594,2107
2618.0663814268455,2088
2619.864134828292,2029
2621.6615107255006,2006
2623.458509413115,2018
2625.2551311858597,2052
2627.0513763385347,1954
2628.8472451660223,2032
2630.6427379632833,2029
2632.4378550253564,1975
2634.232596647359,1968
2636.026963124488,2029
2637.8209547520187,2026
2639.6145718253065,1862
2641.407814639785,1940
2643.200683490966,1967
2644.9931786744414,1928
2646.7853004858807,1869
2648.577049221034,1893
2650.3684251757277,1916
2652.1594286458712,1884
2653.9500599274484,1823
2655.740319316525,1811
2657.5302071092437,1842
2659.3197236018286,1775
2661.10886909058,1886
2662.8976438718782,1763
2664.686048242183,1766
2666.4740824980327,1816
2668.2617469360443,1867
2670.0490418529134,1703
2671.8359675454153,1711
2673.622524310403,1696
2675.408712444811,1798
2677.1945322456495,1745
2678.979984010009,1765
2680.76506803506,1738
2682.5497846180497,1715
2684.334134056306,1703
2686.1181166472343,1697
2687.9017326883213,1669
2689.6849824771293,1691
2691.4678663113013,1713
2693.2503844885596,1714
2695.032537306705,1712
2696.8143250636167,1687
2698.5957480572542,1597
2700.3768065856534,1708
2702.1575009469316,1688
2703.937831439283,1681
2705.717798360982,1659
2707.4974020103837,1681
2709.276642685917,1673
2711.055520686095,1624
2712.834036309506,1659
2714.612189854819,1662
2716.389981620782,1551
2718.1674119062204,1693
2719.944481010041,1662
2721.721189231226,1667
2723.4975368688415,1637
2725.273524222027,1588
2727.0491515900053,1573
2728.824419272075,1595
2730.5993275676146,1563
2732.3738767760838,1596
2734.148067197016,1635
2735.921899130031,1608
2737.6953728748194,1587
2739.468488731156,1596
2741.2412469988926,1584
2743.0136479779617,1572
2744.785691968372,1611
2746.5573792702116,1596
2748.3287101836504,1594
2750.099685008934,1555
2751.870304046388,1581
2753.640567596418,1565
2755.4104759595057,1564
2757.1800294362156,1585
2758.949228327187,1640
2760.7180729331412,1616
2762.486563554877,1544
2764.254700493272,1628
2766.022484049284,1626
2767.789914523947,1608
2769.5569922183786,1623
2771.3237174337705,1617
2773.090090471394,1539
2774.8561116326036,1551
2776.6217812188274,1542
2778.3870995315756,1603
2780.1520668724356,1576
2781.9166835430747,1584
2783.6809498452394,1567
2785.444866080754,1620
2787.2084325515225,1606
2788.971649559527,1581
2790.73451740683,1575
2792.4970363955713,1532
2794.2592068279705,1614
2796.0210290063264,1579
2797.7825032330147,1512
2799.543629810493,1607
2801.304409041296,1622
2803.0648412280366,1587
2804.8249266734088,1612
2806.5846656801846,1524
2808.344058551212,1596
2810.1031055894246,1606
2811.8618070978273,1617
2813.6201633795085,1598
2815.378174737636,1561
2817.1358414754536,1606
2818.893163896285,1538
2820.6501423035334,1527
2822.4067770006814,1539
2824.1630682912883,1593
2825.9190164789957,1563
2827.6746218675207,1610
2829.429884760661,1616
2831.184805462294,1624
2832.9393842763743,1641
2834.693621506936,1623
2836.4475174580916,1592
2838.201072434034,1554
2839.954286739034,1528
2841.707160677441,1565
2843.459694553685,1594
2845.2118886722724,1524
2846.96374333779,1504
2848.7152588549034,1644
2850.4664355283567,1609
2852.217273662973,1566
2853.9677735636546,1546
2855.7179355353833,1603
2857.4677598832186,1599
2859.217246912299,1594
2860.9663969278427,1563
2862.715210235146,1523
2864.4636871395846,1630
2866.211827946614,1537
2867.9596329617652,1587
2869.7071024906536,1551
2871.4542368389684,1549
2873.20103631248,1625
2874.947501217038,1592
2876.6936318585695,1604
2878.4394285430812,1576
2880.1848915766604,1588
2881.9300212654707,1537
2883.6748179157553,1562
2885.4192818338374,1631
2887.1634133261173,1572
2888.907212699077,1566
2890.6506802592744,1590
2892.393816313348,1586
2894.1366211680142,1524
2895.8790951300693,1616
2897.621238506388,1621
2899.363051603925,1604
2901.1045347297118,1580
2902.8456881908596,1633
2904.58651229456,1568
2906.327007348081,1600
2908.067173658772,1550
2909.8070115340597,1521
2911.5465212814497,1519
2913.285703208527,1565
2915.0245576229563,1598
2916.7630848324807,1571
2918.5012851449196,1534
2920.2391588681758,1560
2921.976706310227,1555
2923.7139277791334,1526
2925.4508235830313,1491
2927.187394030137,1591
2928.923639428745,1549
2930.6595600872306,1560
2932.395156314046,1510
2934.1304284177218,1569
2935.8653767068713,1657
2937.6000014901815,1528
2939.3343030764227,1553
2941.068281774442,1522
2942.8019378931644,1584
2944.5352717415976,1589
2946.2682836288236,1565
2948.0009738640065,1557
2949.7333427563885,1592
2951.465390615289,1599
2953.1971177501086,1573
2954.9285244703265,1578
2956.6596110855,1608
2958.3903779052657,1612
2960.1208252393385,1589
2961.8509533975125,1561
2963.5807626896617,1557
2965.3102534257378,1564
2967.0394259157715,1605
2968.768280469873,1572
2970.496817398232,1552
2972.2250370111146,1551
2973.952939618869,1602
2975.6805255319196,1583
2977.4077950607707,1630
2979.134748516006,1606
2980.861386208289,1616
2982.587708448359,1557
2984.313715547037,1625
2986.039407815222,1572
2987.764785563891,1601
2989.489849104102,1567
2991.2145987469908,1611
2992.9390348037705,1605
2994.6631575857346,1555
2996.3869674042576,1524
2998.1104645707887,1530
2999.83364939686,1605
3001.5565221940783,1580
3003.2790832741334,1624
3005.0013329487924,1611
3006.7232715298996,1644
3008.4448993293804,1563
3010.166216659239,1568
3011.887223831558,1526
3013.607921158498,1537
3015.3283089522993,1575
3017.0483875252826,1603
3018.7681571898443,1590
3020.4876182584626,1592
3022.2067710436927,1593
3023.9256158581707,1607
3025.644153014609,1512
3027.362382825801,1577
3029.0803056046193,1535
3030.797921664012,1580
3032.5152313170106,1599
3034.2322348767225,1556
3035.9489326563353,1583
3037.665324969115,1592
3039.3814121284063,1603
3041.097194447633,1584
3042.812672240299,1585
3044.5278458199855,1577
3046.2427155003525,1561
3047.9572815951406,1589
3049.671544418167,1628
3051.38550428333,1600
3053.0991615046073,1613
3054.812516396051,1618
3056.5255692717974,1589
3058.2383204460575,1647
3059.9507702331257,1608
3061.662918947372,1589
3063.3747669032446,1551
3065.0863144152736,1621
3066.7975617980674,1578
3068.508509366309,1596
3070.219157434767,1597
3071.9295063182844,1601
3073.639556331785,1544
3075.3493077902704,1578
3077.058761008821,1579
3078.7679163025964,1662
3080.476773986837,1574
3082.1853343768594,1553
3083.89359778806,1654
3085.6015645359153,1565
3087.3092349359786,1580
3089.016609303884,1559
3090.7236879553434,1602
3092.4304712061476,1601
3094.136959372166,1630
3095.843152769349,1578
3097.5490517137237,1578
3099.2546565213966,1552
3100.959967508554,1579
3102.66498499146,1591
3104.3697092864577,1603
3106.0741407099695,1593
3107.778279578498,1637
3109.482126208622,1558
3111.1856809170004,1607
3112.8889440203716,1556
3114.5919158355528,1581
3116.294596679439,1639
3117.996986869006,1598
3119.6990867213062,1627
3121.4008965534726,1594
3123.102416682717,1595
3124.803647426329,1587
3126.5045891016784,1584
3128.205242026213,1602
3129.90560651746,1604
3131.605682893025,1570
3133.3054714705922,1588
3135.0049725679282,1607
3136.7041865028714,1599
3138.4031135933465,1575
3140.101754157353,1620
3141.800108512971,1642
3143.498176978357,1576
3145.1959598717494,1620
3146.8934575114636,1553
3148.5906702158954,1577
3150.2875983035183,1517
3151.9842420928853,1598
3153.680601902627,1575
3155.376678051456,1561
3157.07247085816,1579
3158.767980641609,1556
3160.463207720748,1602
3162.158152414606,1553
3163.8528150422862,1553
3165.5471959229726,1607
3167.2412953759303,1655
3168.9351137204976,1602
3170.628651276098,1520
3172.3219083622307,1566
3174.014885298474,1573
3175.707582404485,1552
3177.4000000000005,1599
3179.092138404835,1610
3180.7839979388846,1574
3182.47557892212,1621
3184.166881674594,1591
3185.8579065164386,1608
3187.5486537678626,1581
3189.2391237491547,1599
3190.9293167806827,1650
3192.6192331828934,1570
3194.3088732763117,1544
3195.998237381542,1595
3197.687325819268,1543
3199.376138910251,1584
3201.064676975334,1577
3202.7529403354347,1578
3204.4409293115523,1520
3206.1286442247647,1554
3207.816085396229,1519
3209.5032531471825,1599
3211.190147798936,1589
3212.8767696728846,1504
3214.5631190905015,1526
3216.2491963733373,1496
3217.9350018430214,1556
3219.6205358212637,1601
3221.305798629851,1557
3222.990790590651,1545
3224.6755120256103,1531
3226.359963256751,1522
3228.0441446061795,1593
3229.7280563960758,1519
3231.411698948703,1541
3233.0950725863995,1579
3234.778177631587,1530
3236.461014406761,1590
3238.1435832345005,1541
3239.8258844374595,1568
3241.507918338374,1583
3243.1896852600576,1567
3244.8711855254023,1512
3246.552419457381,1541
3248.233387379042,1552
3249.914089613516,1560
3251.59452648401,1579
3253.274698313813,1529
3254.95460542629,1598
3256.6342481448855,1530
3258.313626793125,1617
3259.9927416946084,1631
3261.6715931730196,1560
3263.3501815521176,1501
3265.0285071557437,1573
3266.706570307815,1568
3268.3843713323286,1531
3270.0619105533615,1594
3271.739188295068,1557
3273.4162048816834,1523
3275.0929606375184,1589
3276.769455886966,1567
3278.445690954498,1548
3280.1216661646613,1599
3281.797381842087,1622
3283.4728383114807,1541
3285.1480358976296,1649
3286.8229749253996,1560
3288.4976557197333,1567
3290.172078605655,1533
3291.846243908266,1536
3293.5201519527463,1521
3295.193803064357,1596
3296.8671975684374,1507
3298.5403357904024,1561
3300.21321805575,1559
3301.8858446900567,1572
3303.558216018975,1607
3305.23033236824,1549
3306.9021940636603,1534
3308.57380143113,1562
3310.2451547966184,1604
3311.916254486174,1622
3313.5871008259246,1592
3315.2576941420766,1568
3316.9280347609147,1634
3318.5981230088046,1555
3320.2679592121895,1603
3321.9375436975924,1501
3323.606876791612,1503
3325.27595882093,1596
3326.944790112305,1572
3328.6133709925753,1524
3330.2817017886573,1509
3331.949782827547,1592
3333.617614436319,1508
3335.2851969421245,1499
3336.952530672199,1530
3338.619615953853,1558
3340.286453114475,1612
3341.9530424815357,1597
3343.619384382583,1604
3345.2854791452437,1524
3346.951327097224,1530
3348.6169285663073,1594
3350.2822838803577,1593
3351.947393367319,1611
3353.61225735521,1564
3355.2768761721345,1585
3356.9412501462693,1533
3358.605379605873,1598
3360.2692648792827,1509
3361.9329062949146,1549
3363.596304181263,1541
