CollectionTime,7/9/2024 12:39:06 PM
ExposureUsed,3
CalibratedSpectrum
-962.7078968117929,552
-959.9714848408522,578
-957.2358232597828,594
-954.5009119013725,583
-951.7667505983302,591
-949.0333391832855,604
-946.3006774887896,582
-943.5687653473143,606
-940.837602591253,593
-938.1071890529199,567
-935.3775245645503,591
-932.6486089583007,577
-929.9204420662485,614
-927.1930237203925,628
-924.4663537526524,589
-921.7404319948689,606
-919.0152582788041,587
-916.2908324361409,653
-913.5671542984834,615
-910.8442236973568,592
-908.1220404642074,616
-905.4006044304027,631
-902.679915427231,603
-899.959973285902,598
-897.2407778375464,629
-894.5223289132158,605
-891.8046263438832,590
-889.0876699604426,602
-886.3714595937089,571
-883.6559950744183,582
-880.9412762332282,590
-878.2273029007168,577
-875.5140749073835,582
-872.8015920836489,587
-870.0898542598545,593
-867.3788612662631,602
-864.6686129330585,558
-861.9591090903457,603
-859.2503495681506,616
-856.5423341964203,574
-853.8350628050229,601
-851.1285352237478,585
-848.4227512823054,595
-845.7177108103272,620
-843.0134136373656,622
-840.3098595928943,628
-837.6070485063082,587
-834.9049802069229,596
-832.2036545239757,638
-829.5030712866244,600
-826.8032303239481,617
-824.1041314649472,601
-821.4057745385428,593
-818.7081593735775,630
-816.0112857988148,615
-813.3151536429393,635
-810.6197627345566,609
-807.9251129021936,589
-805.2312039742981,602
-802.5380357792392,626
-799.8456081453069,638
-797.1539209007124,646
-794.462973873588,629
-791.772766891987,634
-789.083299783884,620
-786.3945723771743,631
-783.7065844996748,614
-781.0193359791231,621
-778.3328266431781,640
-775.6470563194197,623
-772.9620248353489,618
-770.2777320183878,647
-767.5941776958798,628
-764.9113616950891,644
-762.2292838432011,610
-759.5479439673222,639
-756.8673418944801,650
-754.1874774516235,634
-751.5083504656222,646
-748.8299607632671,625
-746.15230817127,657
-743.475392516264,669
-740.7992136248035,667
-738.1237713233636,638
-735.4490654383407,657
-732.7750957960521,636
-730.1018622227365,635
-727.4293645445534,642
-724.7576025875837,658
-722.0865761778291,658
-719.4162851412126,663
-716.7467293035781,634
-714.0779084906909,645
-711.409822528237,671
-708.7424712418238,688
-706.0758544569796,660
-703.4099719991541,711
-700.7448236937178,711
-698.0804093659622,721
-695.4167288411002,693
-692.7537819442656,685
-690.0915685005134,690
-687.4300883348199,668
-684.7693412720819,672
-682.1093271371178,704
-679.4500457546669,682
-676.7914969493897,732
-674.1336805458676,723
-671.4765963686034,703
-668.8202442420206,721
-666.1646239904642,718
-663.5097354382001,715
-660.8555784094151,710
-658.2021527282176,707
-655.5494582186366,701
-652.8974947046223,721
-650.2462620100463,743
-647.5957599587009,705
-644.9459883742998,770
-642.2969470804776,710
-639.6486359007902,704
-637.0010546587141,722
-634.3542031776476,764
-631.7080812809096,723
-629.0626887917401,708
-626.4180255333008,751
-623.7740913286734,716
-621.1308860008619,757
-618.4884093727904,756
-615.8466612673046,712
-613.2056415071715,690
-610.5653499150785,745
-607.9257863136347,748
-605.28695052537,747
-602.6488423727357,728
-600.0114616781036,738
-597.3748082637674,747
-594.7388819519412,712
-592.1036825647604,774
-589.4692099242818,765
-586.8354638524829,746
-584.2024441712624,754
-581.5701507024403,720
-578.9385832677575,741
-576.3077416888759,783
-573.6776257873787,769
-571.0482353847704,769
-568.4195703024757,769
-565.7916303618415,755
-563.164415384135,771
-560.5379251905453,765
-557.9121596021815,735
-555.2871184400748,756
-552.6628015251767,740
-550.0392086783606,795
-547.4163397204204,776
-544.794194472071,791
-542.1727727539491,778
-539.5520743866118,801
-536.9320991905377,808
-534.3128469861261,768
-531.6943175936979,817
-529.0765108334947,840
-526.4594265256793,931
-523.8430644903358,1002
-521.2274245474689,1097
-518.612506517005,1139
-515.9983102187913,1097
-513.3848354725959,1167
-510.77208209810846,1175
-508.16004991493924,1235
-505.5487387426199,1326
-502.9381484006032,1452
-500.3282787082628,1471
-497.71912948489364,1429
-495.1107005497117,1348
-492.5029917218539,1221
-489.8960028203786,1103
-487.28973366426493,1022
-484.68418407241325,1007
-482.07935386364494,998
-479.47524285670266,942
-476.87185087025,940
-474.2691777228715,926
-471.66722323307334,964
-469.0659872192821,887
-466.4654694998459,951
-463.86566989303384,976
-461.26658821703614,920
-458.66822428996414,942
-456.07057792985,973
-453.4736489546475,937
-450.877437182231,903
-448.28194243039627,950
-445.68716451686,911
-443.09310325926003,921
-440.49975847515555,944
-437.9071299820263,983
-435.31521759727354,925
-432.72402113821954,970
-430.13354042210767,997
-427.5437752661022,972
-424.95472548728867,962
-422.36639090267386,970
-419.7787713291855,918
-417.1918665836721,1013
-414.60567648290385,972
-412.0202008435715,988
-409.4354394822874,980
-406.8513922155845,1062
-404.26805885991723,1017
-401.685439231661,1046
-399.103533147112,1031
-396.522340422488,1009
-393.9418608739278,1046
-391.3620943174908,985
-388.7830405691583,923
-386.2046994448317,922
-383.6270707603344,897
-381.05015433141045,860
-378.473949973725,782
-375.8984575028645,798
-373.32367673433623,667
-370.74960748356875,653
-368.1762495659117,621
-365.60360279663576,585
-363.03166699093265,548
-360.4604419639154,517
-357.8899275306178,471
-355.32012350599507,485
-352.7510297049233,467
-350.1826459421999,455
-347.61497203254316,471
-345.04800779059235,472
-342.4817530309082,483
-339.91620756797226,466
-337.35137121618743,451
-334.7872437898774,460
-332.22382510328725,453
-329.66111497058273,449
-327.09911320585127,436
-324.53781962310075,454
-321.9772340362607,445
-319.4173562591816,442
-316.8581861056348,443
-314.2997233893127,457
-311.7419679238294,451
-309.1849195227194,457
-306.62857799943856,483
-304.0729431673641,449
-301.51801483979375,469
-298.963792829947,489
-296.41027695096386,487
-293.85746701590574,488
-291.3053628377552,527
-288.7539642294155,516
-286.2032710037115,490
-283.65328297338897,504
-281.1039999511146,535
-278.5554217494762,531
-276.007548180983,526
-273.4603790580651,517
-270.9139141930734,545
-268.3681533982807,533
-265.8230964858798,513
-263.27874326798565,524
-260.7350935566336,521
-258.1921471637804,561
-255.6499039013039,548
-253.10836358100266,538
-250.56752601459698,533
-248.02739101372765,554
-245.48795838995704,549
-242.94922795476816,528
-240.41119951956557,540
-237.8738728956746,565
-235.33724789434166,599
-232.80132432673452,602
-230.2661020039418,561
-227.73158073697357,555
-225.19776033676033,644
-222.66464061415422,654
-220.1322213799284,602
-217.60050244477725,606
-215.06948361931552,574
-212.53916471408013,610
-210.00954553952818,637
-207.48062590603843,623
-204.9524056239104,646
-202.4248845033651,687
-199.8980623545441,684
-197.37193898751036,640
-194.84651421224817,638
-192.32178783866232,659
-189.79775967657952,672
-187.27442953574644,705
-184.7517972258321,764
-182.2298625564256,728
-179.7086253370378,690
-177.18808537710026,658
-174.66824248596583,644
-172.14909647290835,705
-169.6306471471229,747
-167.11289431772548,709
-164.59583779375328,663
-162.07947738416453,694
-159.5638128978386,822
-157.04884414357605,858
-154.53457093009854,856
-152.02099306604828,875
-149.50811035998936,813
-146.99592262040665,758
-144.48442965570587,770
-141.97363127421409,797
-139.46352728417958,890
-136.95411749377126,964
-134.44540171107985,915
-131.93737974411636,825
-129.43005140081357,876
-126.92341648902493,1185
-124.41747481652521,1451
-121.91222619101006,1509
-119.40767042009657,1507
-116.90380731132257,1501
-114.40063667214702,1610
-111.8981583099503,1612
-109.3963720320337,1351
-106.89527764561933,1216
-104.39487495785067,1194
-101.89516377579241,1457
-99.39614390642998,1750
-96.89781515667039,2107
-94.40017733334128,2511
-91.90323024319173,2995
-89.40697369289148,3201
-86.91140748903172,3053
-84.41653143812482,2720
-81.92234534660395,2352
-79.42884902082358,2238
-76.93604226705907,3188
-74.4439248915071,5103
-71.95249670028534,7592
-69.46175749943245,9118
-66.97170709490854,10108
-64.48234529259423,10233
-61.99367189829195,9967
-59.50568671772464,9109
-57.01838955653636,8072
-54.53178022029283,8053
-52.045858514480074,9511
-49.560624244506016,10012
-47.07607721569923,11619
-44.59221723330904,11562
-42.10904410250669,11534
-39.62655762838392,9572
-37.14475761595372,7546
-34.66364387015028,7434
-32.18321619582866,7070
-29.70347439776515,7006
-27.224418280657005,7897
-24.74604764912317,8670
-22.26836230770266,11674
-19.7913620608565,21014
-17.315046712966478,36997
-14.83941606833514,50143
-12.36446993118659,65040
-9.89020810566592,65040
-7.416630395839093,65040
-4.94373660569363,65040
-2.471526539137585,65040
-6.821210263296962E-13,65040
2.47084320796705,65040
4.941003281093458,65040
7.410480415786196,65040
9.879274808531363,65040
12.347386655893956,65040
14.814816154518212,65040
17.28156350112681,65040
19.74762889252179,65040
22.21301252558385,21785
24.67771459727237,4297
27.141735304626195,2427
29.605074844762612,1812
32.06773341487792,1610
34.52971121224755,1598
36.99100843422559,1643
39.45162527824516,1670
41.91156194181792,1494
44.370818622535126,1245
46.82939551806646,1168
49.287292826160524,1160
51.74451074464503,1255
54.201049471426245,1158
56.65690920448981,1044
59.112090141899785,1043
61.56659248179983,945
64.02041642241159,931
66.4735621620365,864
68.92602989905402,882
71.37781983192338,913
73.82893215918205,889
76.27936707944684,891
78.72912479141326,995
81.17820549385567,898
83.62660938562783,848
86.07433666566146,925
88.5213875329681,788
90.96776218663751,838
93.41346082583925,798
95.85848364982041,796
98.30283085790859,797
100.7465026495089,831
103.18949922410604,848
105.63182078126385,851
108.07346752062438,953
110.51443964190923,902
112.95473734491827,812
115.39436082953114,866
117.83331029570547,763
120.27158594347827,722
122.7091879729652,732
125.1461165843615,782
127.58237197794062,737
130.01795435405518,749
132.4528639131364,820
134.88710085569494,802
137.32066538231982,704
139.75355769367923,670
142.1857779905207,705
144.61732647366978,683
147.04820334403132,735
149.47840880258934,796
151.90794305040674,877
154.33680628862487,972
156.76499871846443,1083
159.19252054122433,1274
161.61937195828352,1356
164.04555317109896,1560
166.47106438120693,1711
168.89590579022217,1851
171.320077599839,2061
173.7435800118302,2106
176.16641322804742,2141
178.58857745042144,2337
181.01007288096173,2457
183.43089972175687,2507
185.85105817497413,2513
188.27054844285988,2479
190.6893707277394,2428
193.10752523201643,2531
195.5250121581745,2439
197.9418317087751,2640
200.3579840864594,2616
202.7734694939469,2653
205.18828813403627,2735
207.6024402096051,2783
210.01592592360964,2770
212.42874547908548,2861
214.84089907914665,2904
217.2523869269868,2715
219.66320922587727,2847
222.0733661791695,2822
224.48285799029293,2867
226.8916848627572,2835
229.29984700014882,2772
231.7073446061355,2888
234.11417788446204,2924
236.520347038953,2937
238.92585227351185,3019
241.33069379212054,2903
243.73487179884035,3032
246.1383864978112,3122
248.541238093252,3193
250.9434267894609,3211
253.34495279081432,3206
255.74581630176783,3282
258.1460175268563,3176
260.54555667069314,3325
262.9444339379703,3293
265.3426495334594,3252
267.7402036620107,3133
270.1370965285529,3054
272.53332833809407,2967
274.9288992957214,2743
277.32380960660055,2775
279.718059475976,2714
282.1116491091717,2670
284.5045787115897,2634
286.89684848871195,2658
289.2884586460981,2559
291.67940938938807,2633
294.0697009242996,2603
296.4593334566299,2728
298.84830719225477,2660
301.23662233712923,2624
303.6242790972866,2590
306.01127767884,2579
308.39761828798066,2546
310.78330113097934,2502
313.16832641418534,2484
315.5526943440269,2455
317.9364051270112,2402
320.3194589697242,2315
322.70185607883093,2362
325.0835966610754,2385
327.4646809232805,2402
329.8451090723478,2312
332.2248813152577,2279
334.6039978590701,2346
336.9824589109231,2294
339.36026467803447,2266
341.7374153677,2269
344.113911187295,2204
346.48975234427337,2234
348.8649390461686,2271
351.2394715005918,2245
353.61334991523415,2183
355.9865744978655,2200
358.35914545633375,2270
360.73106299856715,2183
363.10232733257146,2157
365.47293866643247,2232
367.84289720831396,2127
370.2122031664593,2188
372.5808567491905,2106
374.9488581649083,2059
377.31620762209275,2084
379.6829053293021,2041
382.0489514951745,2118
384.4143463284262,2028
386.7790900378528,2061
389.14318283232853,2085
391.50662492080653,2087
393.86941651231916,2053
396.23155781597745,2109
398.5930490409713,2085
400.9538903965696,2035
403.3140820921202,2055
405.6736243370498,2082
408.03251734086336,2086
410.3907613131465,2010
412.74835646356166,2038
415.10530300185144,2067
417.4616011378372,2009
419.81725108141893,2148
422.1722530425758,2022
424.5266072313656,2026
426.880313857925,2100
429.2333731324701,2004
431.58578526529516,2113
433.9375504667738,2005
436.2886689473588,2002
438.63914091758113,2061
440.9889665880513,1991
443.33814616945835,2040
445.68667987257015,1996
448.03456790823395,1985
450.3818104873759,1930
452.72840782100013,2025
455.07436012019105,2010
457.41966759611057,1968
459.7643304600007,2017
462.10834892318155,1954
464.4517231970525,1916
466.79445349309174,1989
469.1365400228566,1958
471.4779829979826,2013
473.81878263018564,2016
476.15893913125876,2050
478.4984527130747,1977
480.8373235875855,2086
483.17555196682144,2068
485.5131380628919,2184
487.8500820879857,2228
490.1863842543697,2289
492.52204477439034,2411
494.8570638604725,2547
497.1914417251204,2887
499.52517858091653,3098
501.85827464052306,3275
504.19073011668036,3452
506.5225452222086,3407
508.85372017000566,3308
511.18425517304956,3231
513.514150444396,3369
515.8434061971808,3993
518.1720226446176,4691
520.4999999999999,5080
522.8273384766991,4673
525.1540382881666,4314
527.480099647932,3832
529.8055227696037,3166
532.1303078668694,2626
534.454455153496,2375
536.777964843328,2181
539.1008371502907,2056
541.4230722883866,2115
543.744670471698,2102
546.0656319143858,2037
548.3859568306899,2072
550.7056454349294,2022
553.0246979415016,2020
555.3431145648834,1997
557.6608955196306,1959
559.978041020377,2001
562.2945512818363,2033
564.6104265188006,1998
566.9256669461412,2074
569.2402727788082,2089
571.5542442318302,2067
573.8675815203156,2013
576.1802848594508,2112
578.4923544645015,2100
580.8037905508126,2060
583.114593333807,1989
585.4247630289875,2005
587.7342998519354,2056
590.0432040183106,1956
592.3514757438526,2093
594.6591152443794,2139
596.9661227357875,2125
599.2724984340531,2075
601.578242555231,1960
603.8833553154542,2089
606.1878369309362,2083
608.4916876179676,1997
610.7949075929192,2091
613.0974970722403,2046
615.3994562724587,2056
617.7007854101818,1996
620.0014847020951,2011
622.3015543649641,2048
624.6009946156324,2116
626.8998056710224,2116
629.1979877481361,2009
631.4955410640538,2073
633.7924658359349,2103
636.0887622810175,2094
638.3844306166192,2028
640.6794710601358,2106
642.9738838290426,2159
645.2676691408932,2092
647.5608272133207,2070
649.853358264037,2082
652.1452625108324,2098
654.4365401715764,2148
656.7271914642178,2182
659.0172166067838,2123
661.3066158173809,2110
663.5953893141935,2091
665.8835373154867,2107
668.1710600396028,2208
670.4579577049639,2127
672.7442305300709,2116
675.0298787335033,2131
677.3149025339197,2145
679.599302150058,2117
681.8830778007342,2126
684.1662297048437,2103
686.4487580813608,2142
688.7306631493387,2130
691.0119451279091,2098
693.2926042362834,2075
695.5726406937516,2209
697.8520547196814,2189
700.1308465335215,2134
702.4090163547982,2089
704.6865644031171,2131
706.9634908981619,2113
709.2397960596965,2137
711.5154801075631,2104
713.7905432616823,2149
716.0649857420548,2187
718.3388077687592,2181
720.612009561953,2122
722.8845913418733,2104
725.1565533288352,2125
727.427895743234,2152
729.6986188055427,2178
731.9687227363137,2141
734.238207756178,2044
736.5070740858458,2127
738.7753219461066,2063
741.0429515578281,2147
743.3099631419569,2140
745.5763569195191,2105
747.8421331116193,2127
750.1072919394409,2064
752.3718336242467,2182
754.6357583873777,2012
756.8990664502545,2123
759.1617580343765,2058
761.423833361321,2143
763.6852926527457,2135
765.9461361303862,2103
768.206364016058,2152
770.4659765316536,2056
772.7249738991469,2184
774.9833563405886,2090
777.2411240781092,2089
779.4982773339183,2169
781.7548163303044,2153
784.010741289634,2125
786.2660524343538,2256
788.5207499869881,2266
790.7748341701416,2134
793.0283052064964,2175
795.2811633188143,2191
797.5334087299362,2162
799.7850416627813,2143
802.0360623403484,2101
804.2864709857143,2206
806.5362678220353,2129
808.7854530725468,2141
811.0340269605625,2159
813.2819897094754,2141
815.5293415427581,2185
817.77608268396,2193
820.0222133567116,2216
822.2677337847211,2188
824.5126441917765,2139
826.7569448017433,2231
829.0006358385675,2227
831.2437175262731,2141
833.4861900889629,2157
835.7280537508192,2110
837.9693087361026,2146
840.2099552691533,2118
842.4499935743896,2163
844.689423876309,2136
846.9282463994886,2141
849.1664613685833,2211
851.4040690083276,2150
853.6410695435349,2174
855.877463199097,2200
858.1132501999847,2197
860.3484307712487,2143
862.5830051380175,2244
864.8169735254988,2185
867.0503361589791,2222
869.2830932638243,2253
871.5152450654786,2167
873.7467917894654,2164
875.9777336613873,2303
878.2080709069252,2203
880.4378037518389,2224
882.666932421968,2260
884.8954571432301,2238
887.1233781416219,2280
889.3506956432192,2235
891.5774098741766,2308
893.803521060728,2233
896.0290294291852,2199
898.2539352059397,2195
900.4782386174619,2179
902.7019398903011,2258
904.925039251085,2281
907.147536926521,2229
909.3694331433943,2208
911.59072812857,2234
913.8114221089921,2151
916.0315153116827,2216
918.2510079637437,2140
920.4699002923547,2208
922.6881925247761,2176
924.905884888345,2158
927.1229776104793,2208
929.3394709186747,2155
931.555365040506,2262
933.7706602036275,2245
935.9853566357709,2167
938.1994545647489,2265
940.4129542184515,2207
942.6258558248488,2235
944.8381596119883,2176
947.0498658079974,2214
949.2609746410825,2223
951.4714863395287,2200
953.6814011316998,2151
955.8907192460387,2249
958.0994409110671,2152
960.3075663553858,2191
962.5150958076741,2191
964.7220294966913,2183
966.928367651274,2106
969.1341105003388,2096
971.3392582728806,2129
973.5438111979742,2079
975.747769504772,2113
977.9511334225061,2112
980.153903180487,2081
982.3560790081052,2052
984.5576611348289,2069
986.7586497902058,2054
988.9590452038618,2070
991.158847605503,2040
993.3580572249133,1997
995.5566742919558,2036
997.7546990365728,1995
999.952131688785,1992
1002.1489724786926,1878
1004.3452216364743,1891
1006.5408793923874,1884
1008.7359459767691,1877
1010.9304216200343,1810
1013.1243065526781,1915
1015.3176010052733,1904
1017.510305208472,1931
1019.7024193930064,1811
1021.8939437896848,1867
1024.0848786293977,1848
1026.2752241431122,1863
1028.4649805618747,1865
1030.6541481168115,1878
1032.842727039127,1918
1035.0307175601051,1871
1037.2181199111074,1825
1039.4049343235752,1843
1041.591161029029,1809
1043.7768002590683,1859
1045.9618522453698,1808
1048.1463172196918,1828
1050.3301954138697,1844
1052.513487059818,1806
1054.69619238953,1830
1056.8783116350783,1858
1059.0598450286152,1896
1061.2407928023704,1779
1063.4211551886528,1818
1065.6009324198508,1891
1067.780124728432,1824
1069.9587323469414,1805
1072.1367555080046,1844
1074.314194444325,1908
1076.4910493886855,1812
1078.667320573947,1842
1080.843008233051,1736
1083.0181125990161,1789
1085.1926339049414,1738
1087.3665723840027,1730
1089.5399282694575,1815
1091.7127017946405,1716
1093.8848931929647,1728
1096.0565026979243,1739
1098.2275305430899,1769
1100.3979769621128,1759
1102.567842188722,1667
1104.737126456726,1704
1106.9058300000124,1772
1109.0739530525475,1717
1111.2414958483764,1765
1113.4084586216231,1725
1115.5748416064907,1732
1117.7406450372605,1784
1119.9058691482942,1738
1122.0705141740304,1734
1124.2345803489884,1705
1126.3980679077658,1784
1128.5609770850388,1726
1130.7233081155623,1657
1132.8850612341707,1677
1135.0462366757774,1720
1137.2068346753745,1696
1139.3668554680326,1700
1141.526299288901,1731
1143.68516637321,1694
1145.8434569562655,1657
1148.001171273455,1715
1150.158309560244,1723
1152.3148720521767,1719
1154.470858984876,1656
1156.626270594044,1688
1158.7811071154629,1663
1160.9353687849912,1659
1163.089055838569,1691
1165.242168512213,1696
1167.3947070420209,1677
1169.5466716641677,1676
1171.6980626149075,1709
1173.8488801305748,1650
1175.9991244475814,1662
1178.1487958024186,1702
1180.2978944316555,1688
1182.4464205719428,1679
1184.5943744600072,1663
1186.7417563326567,1643
1188.8885664267755,1659
1191.0348049793297,1708
1193.1804722273619,1703
1195.325568407995,1695
1197.4700937584303,1696
1199.614048515948,1721
1201.7574329179074,1660
1203.900247201746,1625
1206.042491604982,1747
1208.1841663652099,1726
1210.3252717201053,1773
1212.465807907422,1758
1214.6057751649923,1699
1216.7451737307279,1764
1218.8840038426192,1642
1221.0222657387353,1719
1223.1599596572241,1755
1225.2970858363137,1691
1227.4336445143094,1736
1229.5696359295966,1707
1231.705060320639,1780
1233.8399179259786,1742
1235.9742089842384,1745
1238.107933734118,1749
1240.2410924143974,1691
1242.373685263935,1740
1244.5057125216676,1672
1246.6371744266116,1770
1248.7680712178621,1785
1250.898403134593,1716
1253.028170416058,1746
1255.1573733015875,1817
1257.2860120305932,1802
1259.4140868425648,1761
1261.54159797707,1792
1263.6685456737569,1654
1265.7949301723515,1780
1267.9207517126597,1797
1270.046010534565,1792
1272.1707068780306,1821
1274.2948409830983,1771
1276.4184130898889,1816
1278.541423438603,1810
1280.6638722695184,1791
1282.785759822993,1819
1284.9070863394636,1818
1287.0278520594447,1799
1289.1480572235314,1820
1291.2677020723963,1861
1293.3867868467923,1876
1295.5053117875495,1889
1297.623277135579,1878
1299.740683131868,1908
1301.8575300174857,1954
1303.973818033578,1843
1306.0895474213703,1914
1308.2047184221678,1921
1310.3193312773528,1935
1312.4333862283888,1923
1314.5468835168163,1981
1316.659823384255,1922
1318.7722060724045,1946
1320.8840318230418,1913
1322.9953008780249,1961
1325.1060134792888,1967
1327.2161698688478,1898
1329.3257702887959,2009
1331.4348149813054,1949
1333.5433041886276,1879
1335.6512381530933,1964
1337.7586171171101,1956
1339.8654413231675,1964
1341.9717110138317,1978
1344.0774264317488,1939
1346.1825878196432,1897
1348.2871954203192,1955
1350.3912494766587,1924
1352.4947502316231,1792
1354.5976979282532,1885
1356.7000928096686,1855
1358.8019351190665,1935
1360.9032250997243,1848
1363.0039629949988,1903
1365.1041490483235,1925
1367.2037835032133,1825
1369.3028666032606,1894
1371.401398592137,1941
1373.4993797135926,1904
1375.5968102114575,1975
1377.6936903296396,1908
1379.7900203121262,1865
1381.8858004029835,1971
1383.9810308463561,1998
1386.075711886469,1952
1388.1698437676241,1922
1390.2634267342032,1878
1392.356461030667,2006
1394.4489469015557,1984
1396.5408845914872,1969
1398.6322743451592,1992
1400.7231164073469,2006
1402.813411022907,1995
1404.903158436773,2084
1406.9923588939578,2047
1409.0810126395531,2031
1411.1691199187303,1986
1413.2566809767386,1979
1415.343696058907,2080
1417.4301654106425,2054
1419.5160892774315,2034
1421.6014679048399,2078
1423.6863015385125,2045
1425.7705904241707,2095
1427.8543348076178,2137
1429.9375349347342,2151
1432.0201910514802,2171
1434.102303403894,2091
1436.1838722380944,2190
1438.2648978002767,2232
1440.3453803367174,2155
1442.4253200937692,2281
1444.5047173178677,2338
1446.5835722555234,2239
1448.6618851533285,2457
1450.739656257952,2385
1452.8168858161434,2418
1454.8935740747306,2397
1456.96972128062,2530
1459.045327680797,2456
1461.120393522327,2462
1463.1949190523528,2551
1465.2689045180973,2550
1467.3423501668608,2626
1469.415256246024,2731
1471.4876230030463,2696
1473.559450685465,2767
1475.6307395408976,2854
1477.7014898170391,2816
1479.771701761665,2858
1481.8413756226287,2884
1483.9105116478618,2943
1485.9791100853772,3066
1488.0471711832643,3087
1490.1146951896926,3135
1492.1816823529098,3116
1494.2481329212433,3251
1496.3140471430984,3144
1498.3794252669609,3182
1500.4442675413939,3203
1502.5085742150404,3234
1504.572345536622,3258
1506.6355817549388,3277
1508.6982831188702,3308
1510.7604498773744,3265
1512.8220822794883,3353
1514.8831805743293,3328
1516.9437450110909,3339
1519.003775839048,3492
1521.0632733075522,3444
1523.1222376660367,3512
1525.1806691640113,3537
1527.2385680510652,3596
1529.2959345768668,3648
1531.3527689911643,3624
1533.4090715437833,3621
1535.4648424846291,3747
1537.5200820636855,3709
1539.5747905310159,3726
1541.6289681367616,3784
1543.6826151311434,3816
1545.7357317644614,3826
1547.7883182870937,3853
1549.8403749494987,4023
1551.8919020022113,3998
1553.9428996958477,4075
1555.9933682811015,4281
1558.0433080087469,4149
1560.0927191296346,4239
1562.1416018946961,4306
1564.1899565549415,4287
1566.2377833614592,4340
1568.2850825654164,4328
1570.3318544180606,4105
1572.3780991707158,4151
1574.423817074788,3983
1576.4690083817595,3902
1578.5136733431923,3675
1580.5578122107272,3388
1582.601425236085,3415
1584.6445126710646,3262
1586.6870747675434,3179
1588.7291117774776,2966
1590.7706239529034,2949
1592.8116115459347,2818
1594.8520748087658,2691
1596.8920139936686,2645
1598.9314293529933,2537
1600.9703211391711,2393
1603.008689604711,2443
1605.0465350022005,2402
1607.0838575843068,2327
1609.1206576037753,2238
1611.1569353134305,2210
1613.1926909661765,2163
1615.2279248149953,2257
1617.2626371129481,2104
1619.2968281131757,2080
1621.3304980688963,2098
1623.3636472334088,2017
1625.39627586009,2024
1627.428384202396,2029
1629.459972513861,1982
1631.4910410480993,2026
1633.5215900588028,1929
1635.551619799744,1863
1637.5811305247717,1944
1639.6101224878166,1833
1641.6385959428862,1932
1643.6665511440683,1826
1645.693988345528,1875
1647.7209078015112,1848
1649.7473097663405,1824
1651.7731944944203,1878
1653.7985622402307,1834
1655.823413258333,1878
1657.847747803366,1824
1659.8715661300494,1782
1661.8948684931793,1837
1663.9176551476316,1892
1665.9399263483624,1887
1667.9616823504057,1818
1669.982923408873,1838
1672.0036497789574,1835
1674.0238617159293,1765
1676.043559475138,1841
1678.0627433120121,1797
1680.081413482059,1862
1682.0995702408654,1820
1684.117213844096,1775
1686.134344547495,1778
1688.1509626068864,1791
1690.1670682781705,1797
1692.182661817329,1865
1694.1977434804217,1809
1696.2123135235875,1792
1698.226372203043,1814
1700.2399197750851,1802
1702.2529564960905,1762
1704.2654826225112,1755
1706.277498410882,1746
1708.2890041178139,1712
1710.2999999999988,1741
1712.3104863142066,1708
1714.3204633172854,1771
1716.329931266163,1772
1718.3388904178469,1747
1720.3473410294214,1764
1722.3552833580516,1709
1724.3627176609807,1778
1726.3696441955308,1799
1728.3760632191033,1809
1730.3819749891782,1733
1732.3873797633146,1735
1734.3922777991502,1711
1736.3966693544012,1706
1738.4005546868639,1683
1740.4039340544127,1739
1742.406807715001,1710
1744.4091759266616,1680
1746.4110389475054,1757
1748.4123970357223,1679
1750.413250449582,1759
1752.4135994474318,1750
1754.4134442876993,1756
1756.4127852288902,1728
1758.4116225295893,1695
1760.4099564484595,1681
1762.407787244244,1712
1764.405115175764,1652
1766.4019405019203,1674
1768.3982634816916,1624
1770.3940843741357,1681
1772.3894034383907,1643
1774.3842209336717,1650
1776.378537119274,1677
1778.372352254571,1720
1780.3656665990156,1669
1782.3584804121397,1654
1784.3507939535534,1592
1786.3426074829463,1662
1788.3339212600863,1640
1790.3247355448211,1619
1792.3150505970766,1583
1794.3048666768573,1618
1796.2941840442477,1698
1798.2830029594106,1647
1800.2713236825884,1627
1802.2591464741004,1609
1804.2464715943465,1644
1806.2332993038058,1670
1808.2196298630352,1649
1810.2054635326708,1650
1812.190800573428,1629
1814.175641246101,1708
1816.1599858115628,1587
1818.1438345307652,1636
1820.127187664738,1656
1822.1100454745924,1665
1824.092408221516,1625
1826.0742761667766,1630
1828.055649571721,1617
1830.0365286977735,1645
1832.0169138064398,1597
1833.9968051593014,1563
1835.9762030180214,1642
1837.9551076443408,1640
1839.9335193000788,1642
1841.9114382471344,1639
1843.888864747485,1639
1845.8657990631878,1609
1847.842241456378,1605
1849.8181921892697,1652
1851.7936515241558,1617
1853.7686197234098,1577
1855.7430970494815,1581
1857.7170837649014,1594
1859.6905801322787,1652
1861.6635864143004,1627
1863.6361028737338,1639
1865.608129773424,1640
1867.5796673762961,1608
1869.5507159453537,1670
1871.521275743678,1669
1873.4913470344313,1632
1875.4609300808534,1612
1877.4300251462632,1595
1879.3986324940588,1681
1881.366752387717,1705
1883.3343850907936,1620
1885.3015308669228,1691
1887.268189979819,1669
1889.2343626932739,1643
1891.2000492711595,1706
1893.1652499774254,1664
1895.1299650761011,1640
1897.0941948312952,1666
1899.0579395071945,1635
1901.0211993680641,1623
1902.98397467825,1694
1904.9462657021745,1742
1906.9080727043415,1706
1908.869395949332,1696
1910.8302357018065,1668
1912.790592226504,1674
1914.7504657882428,1650
1916.7098566519212,1640
1918.6687650825133,1666
1920.6271913450764,1703
1922.5851357047422,1677
1924.5425984267245,1662
1926.499579776314,1704
1928.4560800188833,1644
1930.4120994198802,1650
1932.367638244833,1620
1934.32269675935,1625
1936.2772752291175,1664
1938.231373919899,1633
1940.1849930975404,1662
1942.1381330279637,1659
1944.0907939771696,1625
1946.0429762112412,1602
1947.9946799963363,1620
1949.9459055986945,1643
1951.896653284633,1609
1953.8469233205478,1664
1955.7967159729142,1595
1957.7460315082863,1637
1959.6948701932974,1607
1961.6432322946594,1657
1963.5911180791632,1623
1965.5385278136787,1549
1967.4854617651545,1576
1969.4319202006182,1543
1971.377903387176,1617
1973.3234115920136,1644
1975.268445082395,1614
1977.2130041256642,1590
1979.1570889892423,1600
1981.1006999406304,1567
1983.04383724741,1541
1984.986501177238,1615
1986.928691997853,1636
1988.8704099770712,1649
1990.811655382789,1601
1992.7524284829801,1602
1994.692729545698,1605
1996.6325588390755,1653
1998.5719166313224,1659
2000.5108031907307,1653
2002.4492187856677,1589
2004.387163684583,1610
2006.3246381560011,1614
2008.2616424685298,1634
2010.1981768908527,1574
2012.1342416917332,1542
2014.069837140014,1524
2016.0049635046162,1526
2017.9396210545406,1612
2019.8738100588666,1555
2021.8075307867502,1513
2023.740783507431,1555
2025.6735684902228,1544
2027.6058860045214,1573
2029.5377363198004,1570
2031.4691197056118,1578
2033.4000364315875,1539
2035.3304867674374,1578
2037.260470982952,1533
2039.189989347998,1598
2041.1190421325232,1509
2043.047629606554,1584
2044.9757520401945,1586
2046.9034097036288,1601
2048.8306028671195,1560
2050.7573318010086,1511
2052.683596775716,1602
2054.609398061742,1636
2056.5347359296647,1601
2058.4596106501403,1553
2060.384022493906,1582
2062.3079717317764,1608
2064.231458634646,1553
2066.1544834734873,1604
2068.077046519352,1604
2069.99914804337,1541
2071.9207883167524,1558
2073.8419676107865,1534
2075.7626861968406,1581
2077.6829443463607,1535
2079.6027423308715,1512
2081.522080421977,1567
2083.440958891362,1551
2085.359378010786,1592
2087.2773380520907,1591
2089.194839287196,1619
2091.111881988101,1620
2093.0284664268825,1633
2094.9445928756973,1571
2096.86026160678,1568
2098.775472892446,1619
2100.690227005088,1549
2102.604524217178,1576
2104.5183648012676,1577
2106.431749029985,1546
2108.34467717604,1589
2110.2571495122206,1557
2112.169166311393,1611
2114.080727846503,1519
2115.9918343905747,1541
2117.902486216711,1603
2119.8126835980956,1552
2121.722426807987,1509
2123.6317161197285,1588
2125.5405518067364,1556
2127.448934142509,1634
2129.356863400624,1636
2131.264339854737,1613
2133.1713637785815,1569
2135.077935445972,1589
2136.9840551308002,1615
2138.889723107037,1636
2140.7949396487334,1615
2142.699705030018,1577
2144.6040195250994,1554
2146.507883408264,1587
2148.4112969538774,1623
2150.3142604363848,1613
2152.2167741303097,1622
2154.1188383102535,1623
2156.0204532508997,1619
2157.9216192270064,1584
2159.822336513414,1560
2161.7226053850413,1621
2163.622426116884,1573
2165.5217989840185,1645
2167.4207242616,1593
2169.319202224862,1676
2171.2172331491165,1657
2173.1148173097563,1601
2175.0119549822507,1622
2176.90864644215,1635
2178.8048919650823,1606
2180.7006918267534,1657
2182.596046302952,1610
2184.4909556695407,1656
2186.3854202024645,1664
2188.279440177746,1653
2190.173015871487,1733
2192.066147559868,1658
2193.958835519149,1737
2195.851080025667,1655
2197.7428813558417,1668
2199.6342397861667,1652
2201.5251555932186,1678
2203.415629053651,1654
2205.3056604441986,1676
2207.19525004167,1735
2209.084398122958,1669
2210.9731049650327,1659
2212.861370844941,1682
2214.749196039812,1688
2216.636580826851,1685
2218.523525483344,1622
2220.410030286655,1754
2222.296095514226,1675
2224.1817214435805,1704
2226.066908352319,1691
2227.951656518121,1655
2229.835966218746,1694
2231.71983773203,1672
2233.6032713358913,1663
2235.486267308324,1671
2237.3688259274036,1638
2239.2509474712824,1696
2241.132632218193,1658
2243.013880446447,1715
2244.8946924344323,1682
2246.7750684606203,1705
2248.6550088035574,1735
2250.534513741871,1653
2252.413583554265,1685
2254.292218519526,1647
2256.170418916517,1604
2258.0481850241786,1640
2259.925517121534,1655
2261.8024154876825,1710
2263.678880401803,1656
2265.5549121431536,1689
2267.430510991071,1622
2269.305677224971,1636
2271.180411124348,1667
2273.0547129687766,1633
2274.9285830379076,1638
2276.8020216114737,1576
2278.6750289692845,1609
2280.5476053912294,1626
2282.4197511572766,1667
2284.2914665474727,1713
2286.162751841943,1633
2288.0336073208937,1666
2289.904033264608,1758
2291.774029953448,1704
2293.6435976678554,1713
2295.5127366883517,1638
2297.381447295534,1597
2299.2497297700825,1723
2301.1175843927526,1566
2302.9850114443825,1569
2304.852011205885,1500
2306.7185839582553,1542
2308.5847299825664,1553
2310.4504495599676,1579
2312.3157429716925,1531
2314.1806104990483,1545
2316.0450524234247,1518
2317.9090690262888,1524
2319.772660589186,1505
2321.635827393742,1562
2323.498569721661,1541
2325.3608878547248,1572
2327.2227820747967,1546
2329.0842526638157,1486
2330.945299903803,1516
2332.805924076857,1545
2334.6661254651535,1521
2336.525904350951,1516
2338.3852610165827,1499
2340.244195744464,1515
2342.102708817088,1516
2343.9608005170253,1509
2345.8184711269287,1513
2347.675720929526,1517
2349.532550207628,1510
2351.38895924412,1531
2353.24494832197,1550
2355.100517724223,1513
2356.955667734004,1471
2358.810398634514,1532
2360.664710709037,1500
2362.5186042409337,1525
2364.3720795136437,1543
2366.225136810686,1484
2368.0777764156583,1520
2369.929998612237,1567
2371.7818036841777,1508
2373.633191915315,1491
2375.484163589562,1518
2377.3347189909114,1541
2379.184858403434,1552
2381.03458211128,1505
2382.8838903986775,1580
2384.732783549936,1547
2386.5812618494406,1522
2388.4293255816588,1488
2390.2769750311327,1565
2392.1242104824883,1585
2393.971032220427,1597
2395.8174405297295,1601
2397.6634356952563,1583
2399.509018001947,1651
2401.3541877348193,1564
2403.1989451789705,1532
2405.043290619576,1564
2406.8872243418905,1574
2408.730746631247,1618
2410.5738577730594,1589
2412.4165580528183,1621
2414.258847756095,1539
2416.100727168537,1550
2417.9421965758734,1551
2419.783256263912,1616
2421.623906518538,1605
2423.4641476257157,1568
2425.303979871491,1580
2427.143403541984,1543
2428.9824189233977,1589
2430.821026302012,1615
2432.6592259641866,1636
2434.497018196361,1623
2436.33440328505,1570
2438.171381516851,1624
2440.00795317844,1600
2441.844118556569,1608
2443.6798779380724,1537
2445.5152316098606,1596
2447.3501798589255,1575
2449.1847229723357,1549
2451.0188612372403,1667
2452.8525949408663,1605
2454.6859243705203,1564
2456.518849813587,1622
2458.3513715575314,1612
2460.183489889895,1580
2462.015205098301,1592
2463.8465174704493,1564
2465.67742729412,1598
2467.5079348571717,1598
2469.338040447542,1607
2471.1677443532476,1619
2472.9970468623833,1510
2474.825948263123,1590
2476.6544488437207,1545
2478.482548892508,1639
2480.310248697896,1560
2482.137548548374,1646
2483.9644487325118,1585
2485.790949538956,1672
2487.617051256433,1593
2489.44275417375,1591
2491.26805857979,1654
2493.0929647635157,1595
2494.917473013971,1612
2496.741583620276,1652
2498.5652968716304,1610
2500.3886130573137,1647
2502.2115324666834,1663
2504.0340553891765,1694
2505.856182114308,1693
2507.6779129316733,1644
2509.499248130945,1691
2511.3201880018764,1667
2513.140732834298,1665
2514.9608829181198,1648
2516.780638543331,1641
2518.6,1648
2520.418967578273,1692
2522.237541568376,1630
2524.0557222606144,1665
2525.8735099453706,1660
2527.6909049131086,1750
2529.507907454368,1735
2531.32451785977,1749
2533.140736420014,1694
2534.9565634258774,1696
2536.771999168218,1711
2538.5870439379714,1757
2540.4016980261526,1731
2542.2159617238544,1801
2544.02983532225,1763
2545.8433191125914,1822
2547.656413386209,1819
2549.4691184345115,1808
2551.2814345489874,1777
2553.093362021204,1791
2554.904901142808,1836
2556.716052205523,1865
2558.526815501153,1854
2560.3371913215824,1830
2562.147179958771,1835
2563.956781704761,1869
2565.7659968516705,1897
2567.5748256916986,1930
2569.3832685171224,1903
2571.1913256202984,1924
2572.9989972936614,1937
2574.806283829725,1916
2576.613185521084,1958
2578.4197026604074,2072
2580.2258355404483,1978
2582.031584454035,2008
2583.836949694077,1924
2585.6419315535613,2042
2587.4465303255533,1966
2589.2507463032002,1991
2591.0545797797245,2011
2592.8580310484303,2009
2594.6611004026995,2053
2596.463788135992,2015
2598.266094541849,1977
2600.0680199138874,1985
2601.869564545807,2015
2603.670728731383,2016
2605.4715127644704,2014
2607.2719169390048,1979
2609.071941548998,1990
2610.8715868885433,1933
2612.670853251811,1967
2614.469740933052,2062
2616.268250226594,2018
2618.0663814268455,2007
2619.864134828292,2011
2621.6615107255006,1953
2623.458509413115,1982
2625.2551311858597,1905
2627.0513763385347,1955
2628.8472451660223,1967
2630.6427379632833,1969
2632.4378550253564,1911
2634.232596647359,1923
2636.026963124488,1944
2637.8209547520187,1826
2639.6145718253065,1822
2641.407814639785,1805
2643.200683490966,1830
2644.9931786744414,1816
2646.7853004858807,1848
2648.577049221034,1777
2650.3684251757277,1769
2652.1594286458712,1822
2653.9500599274484,1803
2655.740319316525,1804
2657.5302071092437,1805
2659.3197236018286,1781
2661.10886909058,1736
2662.8976438718782,1700
2664.686048242183,1770
2666.4740824980327,1736
2668.2617469360443,1725
2670.0490418529134,1667
2671.8359675454153,1745
2673.622524310403,1696
2675.408712444811,1671
2677.1945322456495,1674
2678.979984010009,1641
2680.76506803506,1639
2682.5497846180497,1671
2684.334134056306,1682
2686.1181166472343,1675
2687.9017326883213,1587
2689.6849824771293,1635
2691.4678663113013,1714
2693.2503844885596,1693
2695.032537306705,1662
2696.8143250636167,1565
2698.5957480572542,1626
2700.3768065856534,1598
2702.1575009469316,1574
2703.937831439283,1585
2705.717798360982,1540
2707.4974020103837,1596
2709.276642685917,1589
2711.055520686095,1619
2712.834036309506,1554
2714.612189854819,1557
2716.389981620782,1550
2718.1674119062204,1633
2719.944481010041,1521
2721.721189231226,1589
2723.4975368688415,1561
2725.273524222027,1540
2727.0491515900053,1562
2728.824419272075,1576
2730.5993275676146,1503
2732.3738767760838,1498
2734.148067197016,1586
2735.921899130031,1538
2737.6953728748194,1556
2739.468488731156,1519
2741.2412469988926,1510
2743.0136479779617,1521
2744.785691968372,1535
2746.5573792702116,1553
2748.3287101836504,1551
2750.099685008934,1569
2751.870304046388,1489
2753.640567596418,1545
2755.4104759595057,1581
2757.1800294362156,1502
2758.949228327187,1515
2760.7180729331412,1476
2762.486563554877,1514
2764.254700493272,1535
2766.022484049284,1538
2767.789914523947,1560
2769.5569922183786,1544
2771.3237174337705,1501
2773.090090471394,1611
2774.8561116326036,1449
2776.6217812188274,1511
2778.3870995315756,1508
2780.1520668724356,1534
2781.9166835430747,1547
2783.6809498452394,1516
2785.444866080754,1560
2787.2084325515225,1508
2788.971649559527,1509
2790.73451740683,1513
2792.4970363955713,1517
2794.2592068279705,1533
2796.0210290063264,1482
2797.7825032330147,1495
2799.543629810493,1496
2801.304409041296,1478
2803.0648412280366,1538
2804.8249266734088,1474
2806.5846656801846,1481
2808.344058551212,1556
2810.1031055894246,1531
2811.8618070978273,1499
2813.6201633795085,1480
2815.378174737636,1515
2817.1358414754536,1557
2818.893163896285,1460
2820.6501423035334,1441
2822.4067770006814,1524
2824.1630682912883,1564
2825.9190164789957,1438
2827.6746218675207,1485
2829.429884760661,1547
2831.184805462294,1529
2832.9393842763743,1510
2834.693621506936,1511
2836.4475174580916,1495
2838.201072434034,1532
2839.954286739034,1550
2841.707160677441,1535
2843.459694553685,1498
2845.2118886722724,1488
2846.96374333779,1560
2848.7152588549034,1498
2850.4664355283567,1524
2852.217273662973,1515
2853.9677735636546,1497
2855.7179355353833,1513
2857.4677598832186,1393
2859.217246912299,1554
2860.9663969278427,1525
2862.715210235146,1590
2864.4636871395846,1513
2866.211827946614,1491
2867.9596329617652,1559
2869.7071024906536,1528
2871.4542368389684,1518
2873.20103631248,1470
2874.947501217038,1498
2876.6936318585695,1427
2878.4394285430812,1474
2880.1848915766604,1562
2881.9300212654707,1528
2883.6748179157553,1547
2885.4192818338374,1546
2887.1634133261173,1520
2888.907212699077,1529
2890.6506802592744,1497
2892.393816313348,1582
2894.1366211680142,1491
2895.8790951300693,1526
2897.621238506388,1523
2899.363051603925,1503
2901.1045347297118,1524
2902.8456881908596,1501
2904.58651229456,1531
2906.327007348081,1486
2908.067173658772,1552
2909.8070115340597,1531
2911.5465212814497,1536
2913.285703208527,1514
2915.0245576229563,1494
2916.7630848324807,1436
2918.5012851449196,1477
2920.2391588681758,1502
2921.976706310227,1471
2923.7139277791334,1509
2925.4508235830313,1488
2927.187394030137,1492
2928.923639428745,1521
2930.6595600872306,1544
2932.395156314046,1496
2934.1304284177218,1531
2935.8653767068713,1470
2937.6000014901815,1519
2939.3343030764227,1474
2941.068281774442,1517
2942.8019378931644,1484
2944.5352717415976,1478
2946.2682836288236,1567
2948.0009738640065,1493
2949.7333427563885,1505
2951.465390615289,1561
2953.1971177501086,1500
2954.9285244703265,1498
2956.6596110855,1466
2958.3903779052657,1469
2960.1208252393385,1511
2961.8509533975125,1522
2963.5807626896617,1444
2965.3102534257378,1492
2967.0394259157715,1499
2968.768280469873,1493
2970.496817398232,1516
2972.2250370111146,1514
2973.952939618869,1566
2975.6805255319196,1545
2977.4077950607707,1507
2979.134748516006,1558
2980.861386208289,1520
2982.587708448359,1551
2984.313715547037,1548
2986.039407815222,1569
2987.764785563891,1567
2989.489849104102,1559
2991.2145987469908,1458
2992.9390348037705,1464
2994.6631575857346,1537
2996.3869674042576,1484
2998.1104645707887,1497
2999.83364939686,1507
3001.5565221940783,1448
3003.2790832741334,1543
3005.0013329487924,1534
3006.7232715298996,1516
3008.4448993293804,1468
3010.166216659239,1508
3011.887223831558,1530
3013.607921158498,1524
3015.3283089522993,1514
3017.0483875252826,1478
3018.7681571898443,1469
3020.4876182584626,1498
3022.2067710436927,1510
3023.9256158581707,1512
3025.644153014609,1490
3027.362382825801,1486
3029.0803056046193,1510
3030.797921664012,1520
3032.5152313170106,1514
3034.2322348767225,1476
3035.9489326563353,1502
3037.665324969115,1503
3039.3814121284063,1486
3041.097194447633,1566
3042.812672240299,1447
3044.5278458199855,1483
3046.2427155003525,1536
3047.9572815951406,1462
3049.671544418167,1505
3051.38550428333,1497
3053.0991615046073,1485
3054.812516396051,1503
3056.5255692717974,1557
3058.2383204460575,1503
3059.9507702331257,1507
3061.662918947372,1546
3063.3747669032446,1495
3065.0863144152736,1530
3066.7975617980674,1494
3068.508509366309,1506
3070.219157434767,1474
3071.9295063182844,1537
3073.639556331785,1504
3075.3493077902704,1493
3077.058761008821,1491
3078.7679163025964,1539
3080.476773986837,1552
3082.1853343768594,1498
3083.89359778806,1489
3085.6015645359153,1519
3087.3092349359786,1503
3089.016609303884,1560
3090.7236879553434,1490
3092.4304712061476,1567
3094.136959372166,1488
3095.843152769349,1516
3097.5490517137237,1551
3099.2546565213966,1569
3100.959967508554,1536
3102.66498499146,1513
3104.3697092864577,1477
3106.0741407099695,1498
3107.778279578498,1477
3109.482126208622,1487
3111.1856809170004,1525
3112.8889440203716,1529
3114.5919158355528,1514
3116.294596679439,1527
3117.996986869006,1540
3119.6990867213062,1492
3121.4008965534726,1514
3123.102416682717,1474
3124.803647426329,1538
3126.5045891016784,1557
3128.205242026213,1521
3129.90560651746,1594
3131.605682893025,1561
3133.3054714705922,1527
3135.0049725679282,1579
3136.7041865028714,1489
3138.4031135933465,1594
3140.101754157353,1556
3141.800108512971,1489
3143.498176978357,1516
3145.1959598717494,1590
3146.8934575114636,1523
3148.5906702158954,1493
3150.2875983035183,1496
3151.9842420928853,1465
3153.680601902627,1505
3155.376678051456,1462
3157.07247085816,1539
3158.767980641609,1492
3160.463207720748,1515
3162.158152414606,1520
3163.8528150422862,1533
3165.5471959229726,1592
3167.2412953759303,1448
3168.9351137204976,1488
3170.628651276098,1505
3172.3219083622307,1534
3174.014885298474,1495
3175.707582404485,1483
3177.4000000000005,1486
3179.092138404835,1468
3180.7839979388846,1499
3182.47557892212,1584
3184.166881674594,1563
3185.8579065164386,1545
3187.5486537678626,1524
3189.2391237491547,1455
3190.9293167806827,1481
3192.6192331828934,1524
3194.3088732763117,1462
3195.998237381542,1575
3197.687325819268,1473
3199.376138910251,1484
3201.064676975334,1517
3202.7529403354347,1435
3204.4409293115523,1504
3206.1286442247647,1424
3207.816085396229,1437
3209.5032531471825,1474
3211.190147798936,1476
3212.8767696728846,1512
3214.5631190905015,1530
3216.2491963733373,1448
3217.9350018430214,1488
3219.6205358212637,1527
3221.305798629851,1461
3222.990790590651,1461
3224.6755120256103,1474
3226.359963256751,1472
3228.0441446061795,1465
3229.7280563960758,1508
3231.411698948703,1435
3233.0950725863995,1504
3234.778177631587,1480
3236.461014406761,1574
3238.1435832345005,1491
3239.8258844374595,1506
3241.507918338374,1520
3243.1896852600576,1535
3244.8711855254023,1487
3246.552419457381,1549
3248.233387379042,1453
3249.914089613516,1517
3251.59452648401,1514
3253.274698313813,1548
3254.95460542629,1484
3256.6342481448855,1457
3258.313626793125,1509
3259.9927416946084,1432
3261.6715931730196,1516
3263.3501815521176,1462
3265.0285071557437,1557
3266.706570307815,1505
3268.3843713323286,1532
3270.0619105533615,1473
3271.739188295068,1460
3273.4162048816834,1482
3275.0929606375184,1537
3276.769455886966,1540
3278.445690954498,1533
3280.1216661646613,1498
3281.797381842087,1530
3283.4728383114807,1557
3285.1480358976296,1527
3286.8229749253996,1519
3288.4976557197333,1491
3290.172078605655,1479
3291.846243908266,1469
3293.5201519527463,1476
3295.193803064357,1522
3296.8671975684374,1528
3298.5403357904024,1481
3300.21321805575,1459
3301.8858446900567,1479
3303.558216018975,1502
3305.23033236824,1498
3306.9021940636603,1489
3308.57380143113,1475
3310.2451547966184,1549
3311.916254486174,1499
3313.5871008259246,1476
3315.2576941420766,1495
3316.9280347609147,1484
3318.5981230088046,1498
3320.2679592121895,1523
3321.9375436975924,1480
3323.606876791612,1467
3325.27595882093,1422
3326.944790112305,1466
3328.6133709925753,1508
3330.2817017886573,1435
3331.949782827547,1470
3333.617614436319,1489
3335.2851969421245,1474
3336.952530672199,1494
3338.619615953853,1524
3340.286453114475,1442
3341.9530424815357,1525
3343.619384382583,1500
3345.2854791452437,1440
3346.951327097224,1482
3348.6169285663073,1490
3350.2822838803577,1532
3351.947393367319,1468
3353.61225735521,1505
3355.2768761721345,1474
3356.9412501462693,1533
3358.605379605873,1539
3360.2692648792827,1492
3361.9329062949146,1479
3363.596304181263,1480
