CollectionTime,7/9/2024 4:43:22 PM
ExposureUsed,3
CalibratedSpectrum
-962.7078968117929,496
-959.9714848408522,471
-957.2358232597828,510
-954.5009119013725,497
-951.7667505983302,496
-949.0333391832855,479
-946.3006774887896,500
-943.5687653473143,482
-940.837602591253,521
-938.1071890529199,466
-935.3775245645503,512
-932.6486089583007,502
-929.9204420662485,483
-927.1930237203925,482
-924.4663537526524,532
-921.7404319948689,514
-919.0152582788041,494
-916.2908324361409,535
-913.5671542984834,522
-910.8442236973568,483
-908.1220404642074,468
-905.4006044304027,523
-902.679915427231,492
-899.959973285902,506
-897.2407778375464,472
-894.5223289132158,518
-891.8046263438832,501
-889.0876699604426,498
-886.3714595937089,483
-883.6559950744183,492
-880.9412762332282,500
-878.2273029007168,484
-875.5140749073835,500
-872.8015920836489,485
-870.0898542598545,512
-867.3788612662631,487
-864.6686129330585,488
-861.9591090903457,512
-859.2503495681506,503
-856.5423341964203,499
-853.8350628050229,497
-851.1285352237478,456
-848.4227512823054,493
-845.7177108103272,507
-843.0134136373656,474
-840.3098595928943,488
-837.6070485063082,517
-834.9049802069229,536
-832.2036545239757,509
-829.5030712866244,518
-826.8032303239481,520
-824.1041314649472,510
-821.4057745385428,511
-818.7081593735775,513
-816.0112857988148,501
-813.3151536429393,528
-810.6197627345566,507
-807.9251129021936,507
-805.2312039742981,490
-802.5380357792392,500
-799.8456081453069,502
-797.1539209007124,507
-794.462973873588,507
-791.772766891987,504
-789.083299783884,521
-786.3945723771743,498
-783.7065844996748,506
-781.0193359791231,505
-778.3328266431781,516
-775.6470563194197,511
-772.9620248353489,519
-770.2777320183878,517
-767.5941776958798,531
-764.9113616950891,499
-762.2292838432011,523
-759.5479439673222,501
-756.8673418944801,556
-754.1874774516235,547
-751.5083504656222,513
-748.8299607632671,495
-746.15230817127,501
-743.475392516264,516
-740.7992136248035,536
-738.1237713233636,546
-735.4490654383407,540
-732.7750957960521,560
-730.1018622227365,514
-727.4293645445534,516
-724.7576025875837,520
-722.0865761778291,543
-719.4162851412126,518
-716.7467293035781,540
-714.0779084906909,553
-711.409822528237,554
-708.7424712418238,574
-706.0758544569796,569
-703.4099719991541,573
-700.7448236937178,554
-698.0804093659622,555
-695.4167288411002,549
-692.7537819442656,555
-690.0915685005134,570
-687.4300883348199,556
-684.7693412720819,537
-682.1093271371178,535
-679.4500457546669,543
-676.7914969493897,556
-674.1336805458676,579
-671.4765963686034,571
-668.8202442420206,583
-666.1646239904642,605
-663.5097354382001,542
-660.8555784094151,556
-658.2021527282176,561
-655.5494582186366,544
-652.8974947046223,541
-650.2462620100463,571
-647.5957599587009,564
-644.9459883742998,582
-642.2969470804776,585
-639.6486359007902,601
-637.0010546587141,600
-634.3542031776476,577
-631.7080812809096,584
-629.0626887917401,591
-626.4180255333008,605
-623.7740913286734,591
-621.1308860008619,587
-618.4884093727904,601
-615.8466612673046,580
-613.2056415071715,598
-610.5653499150785,604
-607.9257863136347,600
-605.28695052537,599
-602.6488423727357,585
-600.0114616781036,558
-597.3748082637674,616
-594.7388819519412,602
-592.1036825647604,614
-589.4692099242818,636
-586.8354638524829,647
-584.2024441712624,649
-581.5701507024403,610
-578.9385832677575,622
-576.3077416888759,609
-573.6776257873787,640
-571.0482353847704,594
-568.4195703024757,637
-565.7916303618415,598
-563.164415384135,592
-560.5379251905453,612
-557.9121596021815,625
-555.2871184400748,648
-552.6628015251767,634
-550.0392086783606,612
-547.4163397204204,616
-544.794194472071,627
-542.1727727539491,600
-539.5520743866118,692
-536.9320991905377,710
-534.3128469861261,695
-531.6943175936979,698
-529.0765108334947,702
-526.4594265256793,765
-523.8430644903358,827
-521.2274245474689,898
-518.612506517005,1008
-515.9983102187913,980
-513.3848354725959,957
-510.77208209810846,1076
-508.16004991493924,1134
-505.5487387426199,1247
-502.9381484006032,1316
-500.3282787082628,1334
-497.71912948489364,1307
-495.1107005497117,1128
-492.5029917218539,1061
-489.8960028203786,924
-487.28973366426493,878
-484.68418407241325,833
-482.07935386364494,786
-479.47524285670266,748
-476.87185087025,759
-474.2691777228715,792
-471.66722323307334,779
-469.0659872192821,803
-466.4654694998459,752
-463.86566989303384,770
-461.26658821703614,767
-458.66822428996414,785
-456.07057792985,800
-453.4736489546475,774
-450.877437182231,764
-448.28194243039627,787
-445.68716451686,708
-443.09310325926003,746
-440.49975847515555,757
-437.9071299820263,747
-435.31521759727354,723
-432.72402113821954,779
-430.13354042210767,810
-427.5437752661022,830
-424.95472548728867,741
-422.36639090267386,816
-419.7787713291855,773
-417.1918665836721,861
-414.60567648290385,818
-412.0202008435715,800
-409.4354394822874,794
-406.8513922155845,841
-404.26805885991723,880
-401.685439231661,822
-399.103533147112,829
-396.522340422488,842
-393.9418608739278,815
-391.3620943174908,796
-388.7830405691583,809
-386.2046994448317,798
-383.6270707603344,731
-381.05015433141045,714
-378.473949973725,702
-375.8984575028645,705
-373.32367673433623,629
-370.74960748356875,611
-368.1762495659117,601
-365.60360279663576,570
-363.03166699093265,509
-360.4604419639154,483
-357.8899275306178,492
-355.32012350599507,472
-352.7510297049233,462
-350.1826459421999,449
-347.61497203254316,414
-345.04800779059235,418
-342.4817530309082,445
-339.91620756797226,458
-337.35137121618743,437
-334.7872437898774,443
-332.22382510328725,451
-329.66111497058273,445
-327.09911320585127,453
-324.53781962310075,474
-321.9772340362607,491
-319.4173562591816,481
-316.8581861056348,443
-314.2997233893127,437
-311.7419679238294,449
-309.1849195227194,461
-306.62857799943856,436
-304.0729431673641,468
-301.51801483979375,502
-298.963792829947,477
-296.41027695096386,487
-293.85746701590574,505
-291.3053628377552,483
-288.7539642294155,537
-286.2032710037115,503
-283.65328297338897,473
-281.1039999511146,491
-278.5554217494762,519
-276.007548180983,486
-273.4603790580651,514
-270.9139141930734,480
-268.3681533982807,467
-265.8230964858798,529
-263.27874326798565,500
-260.7350935566336,516
-258.1921471637804,501
-255.6499039013039,478
-253.10836358100266,530
-250.56752601459698,484
-248.02739101372765,521
-245.48795838995704,565
-242.94922795476816,555
-240.41119951956557,538
-237.8738728956746,551
-235.33724789434166,594
-232.80132432673452,557
-230.2661020039418,526
-227.73158073697357,578
-225.19776033676033,614
-222.66464061415422,651
-220.1322213799284,580
-217.60050244477725,587
-215.06948361931552,591
-212.53916471408013,614
-210.00954553952818,593
-207.48062590603843,579
-204.9524056239104,567
-202.4248845033651,648
-199.8980623545441,655
-197.37193898751036,648
-194.84651421224817,657
-192.32178783866232,689
-189.79775967657952,686
-187.27442953574644,705
-184.7517972258321,663
-182.2298625564256,686
-179.7086253370378,659
-177.18808537710026,656
-174.66824248596583,664
-172.14909647290835,694
-169.6306471471229,754
-167.11289431772548,729
-164.59583779375328,703
-162.07947738416453,688
-159.5638128978386,713
-157.04884414357605,801
-154.53457093009854,881
-152.02099306604828,813
-149.50811035998936,707
-146.99592262040665,683
-144.48442965570587,708
-141.97363127421409,729
-139.46352728417958,830
-136.95411749377126,880
-134.44540171107985,882
-131.93737974411636,754
-129.43005140081357,705
-126.92341648902493,893
-124.41747481652521,1038
-121.91222619101006,1213
-119.40767042009657,1466
-116.90380731132257,1751
-114.40063667214702,1801
-111.8981583099503,1428
-109.3963720320337,1299
-106.89527764561933,1311
-104.39487495785067,1199
-101.89516377579241,1618
-99.39614390642998,1860
-96.89781515667039,1981
-94.40017733334128,2001
-91.90323024319173,2218
-89.40697369289148,2833
-86.91140748903172,3940
-84.41653143812482,4800
-81.92234534660395,4053
-79.42884902082358,2945
-76.93604226705907,3747
-74.4439248915071,6937
-71.95249670028534,10358
-69.46175749943245,12252
-66.97170709490854,12172
-64.48234529259423,10651
-61.99367189829195,8661
-59.50568671772464,6717
-57.01838955653636,6024
-54.53178022029283,5971
-52.045858514480074,5298
-49.560624244506016,5538
-47.07607721569923,6413
-44.59221723330904,6910
-42.10904410250669,6409
-39.62655762838392,6674
-37.14475761595372,7152
-34.66364387015028,7320
-32.18321619582866,7384
-29.70347439776515,7766
-27.224418280657005,7640
-24.74604764912317,8191
-22.26836230770266,10563
-19.7913620608565,17642
-17.315046712966478,30556
-14.83941606833514,44050
-12.36446993118659,61433
-9.89020810566592,65038
-7.416630395839093,65038
-4.94373660569363,65038
-2.471526539137585,65038
-6.821210263296962E-13,65038
2.47084320796705,65038
4.941003281093458,65038
7.410480415786196,65038
9.879274808531363,65038
12.347386655893956,65038
14.814816154518212,65038
17.28156350112681,65038
19.74762889252179,65038
22.21301252558385,65038
24.67771459727237,20110
27.141735304626195,3483
29.605074844762612,2042
32.06773341487792,1675
34.52971121224755,1466
36.99100843422559,1597
39.45162527824516,1451
41.91156194181792,1288
44.370818622535126,1233
46.82939551806646,1066
49.287292826160524,1114
51.74451074464503,1078
54.201049471426245,1013
56.65690920448981,1027
59.112090141899785,992
61.56659248179983,920
64.02041642241159,900
66.4735621620365,839
68.92602989905402,902
71.37781983192338,884
73.82893215918205,888
76.27936707944684,899
78.72912479141326,971
81.17820549385567,1013
83.62660938562783,982
86.07433666566146,1099
88.5213875329681,877
90.96776218663751,822
93.41346082583925,821
95.85848364982041,833
98.30283085790859,877
100.7465026495089,913
103.18949922410604,861
105.63182078126385,821
108.07346752062438,888
110.51443964190923,786
112.95473734491827,760
115.39436082953114,758
117.83331029570547,762
120.27158594347827,805
122.7091879729652,826
125.1461165843615,770
127.58237197794062,783
130.01795435405518,715
132.4528639131364,732
134.88710085569494,761
137.32066538231982,734
139.75355769367923,707
142.1857779905207,702
144.61732647366978,696
147.04820334403132,744
149.47840880258934,823
151.90794305040674,803
154.33680628862487,845
156.76499871846443,949
159.19252054122433,1090
161.61937195828352,1180
164.04555317109896,1310
166.47106438120693,1458
168.89590579022217,1671
171.320077599839,1717
173.7435800118302,1659
176.16641322804742,1775
178.58857745042144,1903
181.01007288096173,1944
183.43089972175687,1996
185.85105817497413,1958
188.27054844285988,1994
190.6893707277394,1979
193.10752523201643,2050
195.5250121581745,2125
197.9418317087751,2130
200.3579840864594,2142
202.7734694939469,2143
205.18828813403627,2259
207.6024402096051,2240
210.01592592360964,2277
212.42874547908548,2310
214.84089907914665,2279
217.2523869269868,2262
219.66320922587727,2219
222.0733661791695,2234
224.48285799029293,2143
226.8916848627572,2255
229.29984700014882,2266
231.7073446061355,2405
234.11417788446204,2247
236.520347038953,2282
238.92585227351185,2320
241.33069379212054,2285
243.73487179884035,2288
246.1383864978112,2349
248.541238093252,2364
250.9434267894609,2445
253.34495279081432,2453
255.74581630176783,2435
258.1460175268563,2392
260.54555667069314,2416
262.9444339379703,2429
265.3426495334594,2400
267.7402036620107,2359
270.1370965285529,2309
272.53332833809407,2312
274.9288992957214,2304
277.32380960660055,2211
279.718059475976,2255
282.1116491091717,2192
284.5045787115897,2249
286.89684848871195,2107
289.2884586460981,2151
291.67940938938807,2158
294.0697009242996,2216
296.4593334566299,2226
298.84830719225477,2232
301.23662233712923,2223
303.6242790972866,2210
306.01127767884,2133
308.39761828798066,2127
310.78330113097934,2184
313.16832641418534,2098
315.5526943440269,2097
317.9364051270112,2041
320.3194589697242,2040
322.70185607883093,1984
325.0835966610754,2042
327.4646809232805,2069
329.8451090723478,1923
332.2248813152577,1992
334.6039978590701,2056
336.9824589109231,1955
339.36026467803447,1993
341.7374153677,1954
344.113911187295,1916
346.48975234427337,1908
348.8649390461686,1925
351.2394715005918,1891
353.61334991523415,1880
355.9865744978655,1901
358.35914545633375,1823
360.73106299856715,1864
363.10232733257146,1890
365.47293866643247,1854
367.84289720831396,1911
370.2122031664593,1839
372.5808567491905,1783
374.9488581649083,1847
377.31620762209275,1833
379.6829053293021,1805
382.0489514951745,1815
384.4143463284262,1802
386.7790900378528,1769
389.14318283232853,1854
391.50662492080653,1804
393.86941651231916,1723
396.23155781597745,1842
398.5930490409713,1830
400.9538903965696,1845
403.3140820921202,1828
405.6736243370498,1789
408.03251734086336,1766
410.3907613131465,1761
412.74835646356166,1820
415.10530300185144,1794
417.4616011378372,1729
419.81725108141893,1693
422.1722530425758,1768
424.5266072313656,1798
426.880313857925,1732
429.2333731324701,1817
431.58578526529516,1734
433.9375504667738,1717
436.2886689473588,1739
438.63914091758113,1773
440.9889665880513,1757
443.33814616945835,1816
445.68667987257015,1687
448.03456790823395,1706
450.3818104873759,1748
452.72840782100013,1731
455.07436012019105,1656
457.41966759611057,1692
459.7643304600007,1689
462.10834892318155,1711
464.4517231970525,1725
466.79445349309174,1769
469.1365400228566,1742
471.4779829979826,1715
473.81878263018564,1670
476.15893913125876,1726
478.4984527130747,1718
480.8373235875855,1781
483.17555196682144,1859
485.5131380628919,1920
487.8500820879857,1945
490.1863842543697,1991
492.52204477439034,2159
494.8570638604725,2208
497.1914417251204,2565
499.52517858091653,2702
501.85827464052306,2944
504.19073011668036,3163
506.5225452222086,3160
508.85372017000566,3165
511.18425517304956,3039
513.514150444396,3166
515.8434061971808,3816
518.1720226446176,4658
520.4999999999999,4896
522.8273384766991,4576
525.1540382881666,4112
527.480099647932,3538
529.8055227696037,2938
532.1303078668694,2353
534.454455153496,2049
536.777964843328,1891
539.1008371502907,1895
541.4230722883866,1842
543.744670471698,1835
546.0656319143858,1830
548.3859568306899,1801
550.7056454349294,1836
553.0246979415016,1725
555.3431145648834,1708
557.6608955196306,1709
559.978041020377,1710
562.2945512818363,1716
564.6104265188006,1761
566.9256669461412,1800
569.2402727788082,1728
571.5542442318302,1763
573.8675815203156,1754
576.1802848594508,1713
578.4923544645015,1798
580.8037905508126,1814
583.114593333807,1757
585.4247630289875,1810
587.7342998519354,1820
590.0432040183106,1818
592.3514757438526,1792
594.6591152443794,1800
596.9661227357875,1790
599.2724984340531,1789
601.578242555231,1766
603.8833553154542,1813
606.1878369309362,1793
608.4916876179676,1821
610.7949075929192,1825
613.0974970722403,1711
615.3994562724587,1768
617.7007854101818,1781
620.0014847020951,1761
622.3015543649641,1740
624.6009946156324,1810
626.8998056710224,1817
629.1979877481361,1796
631.4955410640538,1775
633.7924658359349,1778
636.0887622810175,1798
638.3844306166192,1810
640.6794710601358,1812
642.9738838290426,1799
645.2676691408932,1829
647.5608272133207,1753
649.853358264037,1829
652.1452625108324,1816
654.4365401715764,1828
656.7271914642178,1812
659.0172166067838,1873
661.3066158173809,1766
663.5953893141935,1805
665.8835373154867,1902
668.1710600396028,1750
670.4579577049639,1758
672.7442305300709,1802
675.0298787335033,1757
677.3149025339197,1797
679.599302150058,1790
681.8830778007342,1860
684.1662297048437,1783
686.4487580813608,1870
688.7306631493387,1869
691.0119451279091,1850
693.2926042362834,1835
695.5726406937516,1830
697.8520547196814,1741
700.1308465335215,1785
702.4090163547982,1751
704.6865644031171,1774
706.9634908981619,1737
709.2397960596965,1767
711.5154801075631,1839
713.7905432616823,1789
716.0649857420548,1791
718.3388077687592,1762
720.612009561953,1783
722.8845913418733,1834
725.1565533288352,1834
727.427895743234,1818
729.6986188055427,1792
731.9687227363137,1798
734.238207756178,1786
736.5070740858458,1764
738.7753219461066,1746
741.0429515578281,1755
743.3099631419569,1787
745.5763569195191,1823
747.8421331116193,1799
750.1072919394409,1817
752.3718336242467,1815
754.6357583873777,1846
756.8990664502545,1784
759.1617580343765,1753
761.423833361321,1767
763.6852926527457,1758
765.9461361303862,1832
768.206364016058,1795
770.4659765316536,1813
772.7249738991469,1794
774.9833563405886,1804
777.2411240781092,1780
779.4982773339183,1783
781.7548163303044,1861
784.010741289634,1853
786.2660524343538,1866
788.5207499869881,1825
790.7748341701416,1837
793.0283052064964,1804
795.2811633188143,1840
797.5334087299362,1904
799.7850416627813,1823
802.0360623403484,1850
804.2864709857143,1861
806.5362678220353,1842
808.7854530725468,1777
811.0340269605625,1900
813.2819897094754,1867
815.5293415427581,1809
817.77608268396,1842
820.0222133567116,1848
822.2677337847211,1793
824.5126441917765,1781
826.7569448017433,1840
829.0006358385675,1801
831.2437175262731,1779
833.4861900889629,1811
835.7280537508192,1898
837.9693087361026,1795
840.2099552691533,1837
842.4499935743896,1797
844.689423876309,1877
846.9282463994886,1892
849.1664613685833,1785
851.4040690083276,1815
853.6410695435349,1839
855.877463199097,1893
858.1132501999847,1814
860.3484307712487,1843
862.5830051380175,1841
864.8169735254988,1814
867.0503361589791,1850
869.2830932638243,1840
871.5152450654786,1884
873.7467917894654,1794
875.9777336613873,1874
878.2080709069252,1833
880.4378037518389,1876
882.666932421968,1896
884.8954571432301,1909
887.1233781416219,1885
889.3506956432192,1852
891.5774098741766,1907
893.803521060728,1852
896.0290294291852,1882
898.2539352059397,1844
900.4782386174619,1835
902.7019398903011,1894
904.925039251085,1882
907.147536926521,1937
909.3694331433943,1910
911.59072812857,1874
913.8114221089921,1849
916.0315153116827,1838
918.2510079637437,1810
920.4699002923547,1784
922.6881925247761,1810
924.905884888345,1781
927.1229776104793,1842
929.3394709186747,1823
931.555365040506,1846
933.7706602036275,1900
935.9853566357709,1859
938.1994545647489,1805
940.4129542184515,1846
942.6258558248488,1860
944.8381596119883,1929
947.0498658079974,1845
949.2609746410825,1798
951.4714863395287,1832
953.6814011316998,1846
955.8907192460387,1912
958.0994409110671,1747
960.3075663553858,1822
962.5150958076741,1806
964.7220294966913,1790
966.928367651274,1787
969.1341105003388,1754
971.3392582728806,1819
973.5438111979742,1751
975.747769504772,1762
977.9511334225061,1724
980.153903180487,1720
982.3560790081052,1728
984.5576611348289,1713
986.7586497902058,1681
988.9590452038618,1711
991.158847605503,1641
993.3580572249133,1672
995.5566742919558,1682
997.7546990365728,1653
999.952131688785,1596
1002.1489724786926,1628
1004.3452216364743,1589
1006.5408793923874,1526
1008.7359459767691,1560
1010.9304216200343,1592
1013.1243065526781,1580
1015.3176010052733,1561
1017.510305208472,1570
1019.7024193930064,1475
1021.8939437896848,1512
1024.0848786293977,1524
1026.2752241431122,1494
1028.4649805618747,1507
1030.6541481168115,1448
1032.842727039127,1451
1035.0307175601051,1473
1037.2181199111074,1441
1039.4049343235752,1484
1041.591161029029,1477
1043.7768002590683,1456
1045.9618522453698,1450
1048.1463172196918,1525
1050.3301954138697,1441
1052.513487059818,1415
1054.69619238953,1514
1056.8783116350783,1509
1059.0598450286152,1454
1061.2407928023704,1494
1063.4211551886528,1453
1065.6009324198508,1456
1067.780124728432,1451
1069.9587323469414,1457
1072.1367555080046,1430
1074.314194444325,1440
1076.4910493886855,1493
1078.667320573947,1394
1080.843008233051,1467
1083.0181125990161,1496
1085.1926339049414,1425
1087.3665723840027,1422
1089.5399282694575,1427
1091.7127017946405,1414
1093.8848931929647,1405
1096.0565026979243,1345
1098.2275305430899,1406
1100.3979769621128,1423
1102.567842188722,1398
1104.737126456726,1429
1106.9058300000124,1381
1109.0739530525475,1393
1111.2414958483764,1387
1113.4084586216231,1345
1115.5748416064907,1393
1117.7406450372605,1368
1119.9058691482942,1354
1122.0705141740304,1402
1124.2345803489884,1355
1126.3980679077658,1376
1128.5609770850388,1385
1130.7233081155623,1372
1132.8850612341707,1349
1135.0462366757774,1401
1137.2068346753745,1352
1139.3668554680326,1375
1141.526299288901,1373
1143.68516637321,1389
1145.8434569562655,1401
1148.001171273455,1298
1150.158309560244,1300
1152.3148720521767,1290
1154.470858984876,1290
1156.626270594044,1316
1158.7811071154629,1362
1160.9353687849912,1340
1163.089055838569,1341
1165.242168512213,1325
1167.3947070420209,1301
1169.5466716641677,1340
1171.6980626149075,1324
1173.8488801305748,1306
1175.9991244475814,1318
1178.1487958024186,1366
1180.2978944316555,1311
1182.4464205719428,1322
1184.5943744600072,1294
1186.7417563326567,1328
1188.8885664267755,1339
1191.0348049793297,1308
1193.1804722273619,1348
1195.325568407995,1354
1197.4700937584303,1290
1199.614048515948,1309
1201.7574329179074,1388
1203.900247201746,1326
1206.042491604982,1313
1208.1841663652099,1300
1210.3252717201053,1345
1212.465807907422,1318
1214.6057751649923,1373
1216.7451737307279,1325
1218.8840038426192,1358
1221.0222657387353,1341
1223.1599596572241,1312
1225.2970858363137,1385
1227.4336445143094,1311
1229.5696359295966,1345
1231.705060320639,1380
1233.8399179259786,1366
1235.9742089842384,1351
1238.107933734118,1357
1240.2410924143974,1375
1242.373685263935,1383
1244.5057125216676,1418
1246.6371744266116,1368
1248.7680712178621,1393
1250.898403134593,1361
1253.028170416058,1357
1255.1573733015875,1335
1257.2860120305932,1387
1259.4140868425648,1374
1261.54159797707,1390
1263.6685456737569,1434
1265.7949301723515,1390
1267.9207517126597,1458
1270.046010534565,1369
1272.1707068780306,1427
1274.2948409830983,1396
1276.4184130898889,1458
1278.541423438603,1438
1280.6638722695184,1387
1282.785759822993,1386
1284.9070863394636,1446
1287.0278520594447,1432
1289.1480572235314,1410
1291.2677020723963,1499
1293.3867868467923,1452
1295.5053117875495,1414
1297.623277135579,1404
1299.740683131868,1464
1301.8575300174857,1443
1303.973818033578,1491
1306.0895474213703,1480
1308.2047184221678,1471
1310.3193312773528,1594
1312.4333862283888,1569
1314.5468835168163,1488
1316.659823384255,1517
1318.7722060724045,1502
1320.8840318230418,1473
1322.9953008780249,1560
1325.1060134792888,1504
1327.2161698688478,1502
1329.3257702887959,1521
1331.4348149813054,1526
1333.5433041886276,1484
1335.6512381530933,1509
1337.7586171171101,1488
1339.8654413231675,1564
1341.9717110138317,1481
1344.0774264317488,1462
1346.1825878196432,1497
1348.2871954203192,1487
1350.3912494766587,1457
1352.4947502316231,1467
1354.5976979282532,1487
1356.7000928096686,1460
1358.8019351190665,1486
1360.9032250997243,1380
1363.0039629949988,1429
1365.1041490483235,1477
1367.2037835032133,1537
1369.3028666032606,1480
1371.401398592137,1430
1373.4993797135926,1465
1375.5968102114575,1480
1377.6936903296396,1501
1379.7900203121262,1493
1381.8858004029835,1434
1383.9810308463561,1463
1386.075711886469,1496
1388.1698437676241,1473
1390.2634267342032,1436
1392.356461030667,1490
1394.4489469015557,1503
1396.5408845914872,1514
1398.6322743451592,1502
1400.7231164073469,1527
1402.813411022907,1491
1404.903158436773,1526
1406.9923588939578,1524
1409.0810126395531,1419
1411.1691199187303,1569
1413.2566809767386,1521
1415.343696058907,1518
1417.4301654106425,1542
1419.5160892774315,1509
1421.6014679048399,1544
1423.6863015385125,1572
1425.7705904241707,1505
1427.8543348076178,1526
1429.9375349347342,1585
1432.0201910514802,1532
1434.102303403894,1501
1436.1838722380944,1562
1438.2648978002767,1623
1440.3453803367174,1589
1442.4253200937692,1640
1444.5047173178677,1597
1446.5835722555234,1585
1448.6618851533285,1637
1450.739656257952,1611
1452.8168858161434,1640
1454.8935740747306,1637
1456.96972128062,1651
1459.045327680797,1657
1461.120393522327,1664
1463.1949190523528,1675
1465.2689045180973,1708
1467.3423501668608,1710
1469.415256246024,1779
1471.4876230030463,1681
1473.559450685465,1727
1475.6307395408976,1735
1477.7014898170391,1795
1479.771701761665,1866
1481.8413756226287,1882
1483.9105116478618,1855
1485.9791100853772,1903
1488.0471711832643,1873
1490.1146951896926,1868
1492.1816823529098,1900
1494.2481329212433,1886
1496.3140471430984,1934
1498.3794252669609,1982
1500.4442675413939,1984
1502.5085742150404,1989
1504.572345536622,1992
1506.6355817549388,2006
1508.6982831188702,1862
1510.7604498773744,1971
1512.8220822794883,2068
1514.8831805743293,2033
1516.9437450110909,2037
1519.003775839048,2055
1521.0632733075522,2043
1523.1222376660367,1997
1525.1806691640113,2062
1527.2385680510652,2064
1529.2959345768668,2056
1531.3527689911643,2125
1533.4090715437833,2104
1535.4648424846291,2096
1537.5200820636855,2192
1539.5747905310159,2164
1541.6289681367616,2266
1543.6826151311434,2249
1545.7357317644614,2274
1547.7883182870937,2316
1549.8403749494987,2332
1551.8919020022113,2325
1553.9428996958477,2271
1555.9933682811015,2370
1558.0433080087469,2396
1560.0927191296346,2455
1562.1416018946961,2505
1564.1899565549415,2459
1566.2377833614592,2518
1568.2850825654164,2524
1570.3318544180606,2412
1572.3780991707158,2420
1574.423817074788,2462
1576.4690083817595,2327
1578.5136733431923,2238
1580.5578122107272,2174
1582.601425236085,2155
1584.6445126710646,2098
1586.6870747675434,2052
1588.7291117774776,1911
1590.7706239529034,1981
1592.8116115459347,1839
1594.8520748087658,1859
1596.8920139936686,1783
1598.9314293529933,1810
1600.9703211391711,1695
1603.008689604711,1764
1605.0465350022005,1703
1607.0838575843068,1655
1609.1206576037753,1586
1611.1569353134305,1622
1613.1926909661765,1569
1615.2279248149953,1509
1617.2626371129481,1514
1619.2968281131757,1552
1621.3304980688963,1512
1623.3636472334088,1523
1625.39627586009,1488
1627.428384202396,1394
1629.459972513861,1434
1631.4910410480993,1442
1633.5215900588028,1405
1635.551619799744,1438
1637.5811305247717,1486
1639.6101224878166,1435
1641.6385959428862,1437
1643.6665511440683,1433
1645.693988345528,1443
1647.7209078015112,1401
1649.7473097663405,1410
1651.7731944944203,1345
1653.7985622402307,1402
1655.823413258333,1412
1657.847747803366,1391
1659.8715661300494,1411
1661.8948684931793,1362
1663.9176551476316,1379
1665.9399263483624,1402
1667.9616823504057,1370
1669.982923408873,1359
1672.0036497789574,1422
1674.0238617159293,1408
1676.043559475138,1358
1678.0627433120121,1413
1680.081413482059,1389
1682.0995702408654,1325
1684.117213844096,1328
1686.134344547495,1381
1688.1509626068864,1382
1690.1670682781705,1381
1692.182661817329,1346
1694.1977434804217,1379
1696.2123135235875,1373
1698.226372203043,1350
1700.2399197750851,1388
1702.2529564960905,1400
1704.2654826225112,1392
1706.277498410882,1372
1708.2890041178139,1345
1710.2999999999988,1363
1712.3104863142066,1310
1714.3204633172854,1358
1716.329931266163,1344
1718.3388904178469,1373
1720.3473410294214,1370
1722.3552833580516,1368
1724.3627176609807,1351
1726.3696441955308,1333
1728.3760632191033,1382
1730.3819749891782,1342
1732.3873797633146,1395
1734.3922777991502,1355
1736.3966693544012,1270
1738.4005546868639,1354
1740.4039340544127,1330
1742.406807715001,1348
1744.4091759266616,1303
1746.4110389475054,1372
1748.4123970357223,1332
1750.413250449582,1287
1752.4135994474318,1276
1754.4134442876993,1274
1756.4127852288902,1300
1758.4116225295893,1329
1760.4099564484595,1308
1762.407787244244,1357
1764.405115175764,1297
1766.4019405019203,1346
1768.3982634816916,1286
1770.3940843741357,1302
1772.3894034383907,1293
1774.3842209336717,1312
1776.378537119274,1267
1778.372352254571,1300
1780.3656665990156,1259
1782.3584804121397,1253
1784.3507939535534,1317
1786.3426074829463,1288
1788.3339212600863,1304
1790.3247355448211,1308
1792.3150505970766,1347
1794.3048666768573,1359
1796.2941840442477,1315
1798.2830029594106,1260
1800.2713236825884,1266
1802.2591464741004,1327
1804.2464715943465,1307
1806.2332993038058,1302
1808.2196298630352,1336
1810.2054635326708,1373
1812.190800573428,1327
1814.175641246101,1283
1816.1599858115628,1337
1818.1438345307652,1322
1820.127187664738,1317
1822.1100454745924,1330
1824.092408221516,1288
1826.0742761667766,1307
1828.055649571721,1319
1830.0365286977735,1307
1832.0169138064398,1311
1833.9968051593014,1304
1835.9762030180214,1324
1837.9551076443408,1303
1839.9335193000788,1247
1841.9114382471344,1272
1843.888864747485,1294
1845.8657990631878,1274
1847.842241456378,1253
1849.8181921892697,1265
1851.7936515241558,1332
1853.7686197234098,1279
1855.7430970494815,1337
1857.7170837649014,1278
1859.6905801322787,1285
1861.6635864143004,1279
1863.6361028737338,1307
1865.608129773424,1377
1867.5796673762961,1295
1869.5507159453537,1305
1871.521275743678,1296
1873.4913470344313,1331
1875.4609300808534,1346
1877.4300251462632,1296
1879.3986324940588,1271
1881.366752387717,1300
1883.3343850907936,1343
1885.3015308669228,1330
1887.268189979819,1364
1889.2343626932739,1352
1891.2000492711595,1277
1893.1652499774254,1347
1895.1299650761011,1309
1897.0941948312952,1307
1899.0579395071945,1303
1901.0211993680641,1313
1902.98397467825,1319
1904.9462657021745,1316
1906.9080727043415,1316
1908.869395949332,1301
1910.8302357018065,1314
1912.790592226504,1362
1914.7504657882428,1295
1916.7098566519212,1305
1918.6687650825133,1301
1920.6271913450764,1351
1922.5851357047422,1300
1924.5425984267245,1250
1926.499579776314,1307
1928.4560800188833,1289
1930.4120994198802,1270
1932.367638244833,1343
1934.32269675935,1336
1936.2772752291175,1310
1938.231373919899,1337
1940.1849930975404,1337
1942.1381330279637,1294
1944.0907939771696,1284
1946.0429762112412,1343
1947.9946799963363,1299
1949.9459055986945,1326
1951.896653284633,1352
1953.8469233205478,1343
1955.7967159729142,1277
1957.7460315082863,1282
1959.6948701932974,1293
1961.6432322946594,1314
1963.5911180791632,1240
1965.5385278136787,1266
1967.4854617651545,1316
1969.4319202006182,1326
1971.377903387176,1300
1973.3234115920136,1292
1975.268445082395,1290
1977.2130041256642,1333
1979.1570889892423,1261
1981.1006999406304,1285
1983.04383724741,1307
1984.986501177238,1304
1986.928691997853,1363
1988.8704099770712,1261
1990.811655382789,1286
1992.7524284829801,1296
1994.692729545698,1267
1996.6325588390755,1310
1998.5719166313224,1313
2000.5108031907307,1284
2002.4492187856677,1325
2004.387163684583,1317
2006.3246381560011,1292
2008.2616424685298,1284
2010.1981768908527,1311
2012.1342416917332,1277
2014.069837140014,1316
2016.0049635046162,1276
2017.9396210545406,1310
2019.8738100588666,1283
2021.8075307867502,1266
2023.740783507431,1273
2025.6735684902228,1282
2027.6058860045214,1319
2029.5377363198004,1221
2031.4691197056118,1273
2033.4000364315875,1278
2035.3304867674374,1241
2037.260470982952,1263
2039.189989347998,1232
2041.1190421325232,1275
2043.047629606554,1333
2044.9757520401945,1289
2046.9034097036288,1309
2048.8306028671195,1267
2050.7573318010086,1208
2052.683596775716,1256
2054.609398061742,1327
2056.5347359296647,1237
2058.4596106501403,1316
2060.384022493906,1247
2062.3079717317764,1248
2064.231458634646,1255
2066.1544834734873,1274
2068.077046519352,1253
2069.99914804337,1293
2071.9207883167524,1264
2073.8419676107865,1266
2075.7626861968406,1278
2077.6829443463607,1290
2079.6027423308715,1278
2081.522080421977,1276
2083.440958891362,1270
2085.359378010786,1287
2087.2773380520907,1343
2089.194839287196,1271
2091.111881988101,1302
2093.0284664268825,1253
2094.9445928756973,1324
2096.86026160678,1307
2098.775472892446,1327
2100.690227005088,1263
2102.604524217178,1293
2104.5183648012676,1362
2106.431749029985,1363
2108.34467717604,1278
2110.2571495122206,1327
2112.169166311393,1268
2114.080727846503,1343
2115.9918343905747,1301
2117.902486216711,1296
2119.8126835980956,1325
2121.722426807987,1328
2123.6317161197285,1315
2125.5405518067364,1321
2127.448934142509,1263
2129.356863400624,1356
2131.264339854737,1272
2133.1713637785815,1301
2135.077935445972,1310
2136.9840551308002,1350
2138.889723107037,1327
2140.7949396487334,1309
2142.699705030018,1301
2144.6040195250994,1327
2146.507883408264,1345
2148.4112969538774,1274
2150.3142604363848,1284
2152.2167741303097,1371
2154.1188383102535,1311
2156.0204532508997,1341
2157.9216192270064,1328
2159.822336513414,1334
2161.7226053850413,1332
2163.622426116884,1353
2165.5217989840185,1338
2167.4207242616,1358
2169.319202224862,1327
2171.2172331491165,1323
2173.1148173097563,1300
2175.0119549822507,1306
2176.90864644215,1406
2178.8048919650823,1364
2180.7006918267534,1318
2182.596046302952,1340
2184.4909556695407,1335
2186.3854202024645,1370
2188.279440177746,1331
2190.173015871487,1357
2192.066147559868,1321
2193.958835519149,1350
2195.851080025667,1316
2197.7428813558417,1383
2199.6342397861667,1354
2201.5251555932186,1327
2203.415629053651,1399
2205.3056604441986,1361
2207.19525004167,1378
2209.084398122958,1376
2210.9731049650327,1329
2212.861370844941,1341
2214.749196039812,1405
2216.636580826851,1371
2218.523525483344,1336
2220.410030286655,1414
2222.296095514226,1443
2224.1817214435805,1418
2226.066908352319,1432
2227.951656518121,1380
2229.835966218746,1362
2231.71983773203,1383
2233.6032713358913,1409
2235.486267308324,1421
2237.3688259274036,1378
2239.2509474712824,1334
2241.132632218193,1364
2243.013880446447,1372
2244.8946924344323,1370
2246.7750684606203,1418
2248.6550088035574,1441
2250.534513741871,1397
2252.413583554265,1413
2254.292218519526,1388
2256.170418916517,1342
2258.0481850241786,1364
2259.925517121534,1429
2261.8024154876825,1322
2263.678880401803,1434
2265.5549121431536,1378
2267.430510991071,1390
2269.305677224971,1383
2271.180411124348,1392
2273.0547129687766,1359
2274.9285830379076,1378
2276.8020216114737,1369
2278.6750289692845,1364
2280.5476053912294,1314
2282.4197511572766,1429
2284.2914665474727,1406
2286.162751841943,1403
2288.0336073208937,1450
2289.904033264608,1401
2291.774029953448,1432
2293.6435976678554,1411
2295.5127366883517,1376
2297.381447295534,1349
2299.2497297700825,1300
2301.1175843927526,1324
2302.9850114443825,1290
2304.852011205885,1279
2306.7185839582553,1266
2308.5847299825664,1194
2310.4504495599676,1202
2312.3157429716925,1226
2314.1806104990483,1219
2316.0450524234247,1192
2317.9090690262888,1229
2319.772660589186,1216
2321.635827393742,1213
2323.498569721661,1198
2325.3608878547248,1170
2327.2227820747967,1204
2329.0842526638157,1207
2330.945299903803,1219
2332.805924076857,1173
2334.6661254651535,1217
2336.525904350951,1238
2338.3852610165827,1222
2340.244195744464,1191
2342.102708817088,1206
2343.9608005170253,1177
2345.8184711269287,1179
2347.675720929526,1191
2349.532550207628,1174
2351.38895924412,1209
2353.24494832197,1209
2355.100517724223,1217
2356.955667734004,1141
2358.810398634514,1209
2360.664710709037,1210
2362.5186042409337,1264
2364.3720795136437,1205
2366.225136810686,1246
2368.0777764156583,1229
2369.929998612237,1210
2371.7818036841777,1229
2373.633191915315,1196
2375.484163589562,1237
2377.3347189909114,1191
2379.184858403434,1176
2381.03458211128,1165
2382.8838903986775,1226
2384.732783549936,1189
2386.5812618494406,1232
2388.4293255816588,1248
2390.2769750311327,1191
2392.1242104824883,1208
2393.971032220427,1243
2395.8174405297295,1198
2397.6634356952563,1227
2399.509018001947,1223
2401.3541877348193,1223
2403.1989451789705,1189
2405.043290619576,1215
2406.8872243418905,1211
2408.730746631247,1240
2410.5738577730594,1198
2412.4165580528183,1172
2414.258847756095,1230
2416.100727168537,1224
2417.9421965758734,1211
2419.783256263912,1178
2421.623906518538,1209
2423.4641476257157,1231
2425.303979871491,1251
2427.143403541984,1229
2428.9824189233977,1262
2430.821026302012,1224
2432.6592259641866,1210
2434.497018196361,1273
2436.33440328505,1264
2438.171381516851,1254
2440.00795317844,1226
2441.844118556569,1174
2443.6798779380724,1243
2445.5152316098606,1278
2447.3501798589255,1257
2449.1847229723357,1201
2451.0188612372403,1274
2452.8525949408663,1267
2454.6859243705203,1222
2456.518849813587,1207
2458.3513715575314,1234
2460.183489889895,1209
2462.015205098301,1204
2463.8465174704493,1231
2465.67742729412,1222
2467.5079348571717,1169
2469.338040447542,1240
2471.1677443532476,1231
2472.9970468623833,1229
2474.825948263123,1242
2476.6544488437207,1234
2478.482548892508,1266
2480.310248697896,1236
2482.137548548374,1212
2483.9644487325118,1273
2485.790949538956,1234
2487.617051256433,1266
2489.44275417375,1201
2491.26805857979,1228
2493.0929647635157,1234
2494.917473013971,1322
2496.741583620276,1280
2498.5652968716304,1246
2500.3886130573137,1272
2502.2115324666834,1267
2504.0340553891765,1254
2505.856182114308,1236
2507.6779129316733,1235
2509.499248130945,1301
2511.3201880018764,1245
2513.140732834298,1208
2514.9608829181198,1249
2516.780638543331,1216
2518.6,1256
2520.418967578273,1225
2522.237541568376,1313
2524.0557222606144,1218
2525.8735099453706,1312
2527.6909049131086,1230
2529.507907454368,1288
2531.32451785977,1276
2533.140736420014,1238
2534.9565634258774,1289
2536.771999168218,1282
2538.5870439379714,1243
2540.4016980261526,1288
2542.2159617238544,1296
2544.02983532225,1290
2545.8433191125914,1309
2547.656413386209,1311
2549.4691184345115,1320
2551.2814345489874,1346
2553.093362021204,1320
2554.904901142808,1257
2556.716052205523,1334
2558.526815501153,1338
2560.3371913215824,1331
2562.147179958771,1384
2563.956781704761,1340
2565.7659968516705,1363
2567.5748256916986,1310
2569.3832685171224,1382
2571.1913256202984,1379
2572.9989972936614,1315
2574.806283829725,1384
2576.613185521084,1350
2578.4197026604074,1362
2580.2258355404483,1378
2582.031584454035,1370
2583.836949694077,1411
2585.6419315535613,1382
2587.4465303255533,1374
2589.2507463032002,1389
2591.0545797797245,1353
2592.8580310484303,1434
2594.6611004026995,1399
2596.463788135992,1397
2598.266094541849,1331
2600.0680199138874,1372
2601.869564545807,1411
2603.670728731383,1419
2605.4715127644704,1419
2607.2719169390048,1432
2609.071941548998,1390
2610.8715868885433,1413
2612.670853251811,1428
2614.469740933052,1434
2616.268250226594,1463
2618.0663814268455,1397
2619.864134828292,1387
2621.6615107255006,1482
2623.458509413115,1417
2625.2551311858597,1378
2627.0513763385347,1332
2628.8472451660223,1364
2630.6427379632833,1338
2632.4378550253564,1391
2634.232596647359,1444
2636.026963124488,1345
2637.8209547520187,1353
2639.6145718253065,1354
2641.407814639785,1366
2643.200683490966,1408
2644.9931786744414,1361
2646.7853004858807,1347
2648.577049221034,1343
2650.3684251757277,1364
2652.1594286458712,1391
2653.9500599274484,1357
2655.740319316525,1372
2657.5302071092437,1302
2659.3197236018286,1289
2661.10886909058,1319
2662.8976438718782,1314
2664.686048242183,1328
2666.4740824980327,1288
2668.2617469360443,1320
2670.0490418529134,1329
2671.8359675454153,1311
2673.622524310403,1288
2675.408712444811,1295
2677.1945322456495,1282
2678.979984010009,1277
2680.76506803506,1302
2682.5497846180497,1280
2684.334134056306,1297
2686.1181166472343,1238
2687.9017326883213,1255
2689.6849824771293,1227
2691.4678663113013,1270
2693.2503844885596,1264
2695.032537306705,1192
2696.8143250636167,1235
2698.5957480572542,1230
2700.3768065856534,1248
2702.1575009469316,1240
2703.937831439283,1219
2705.717798360982,1261
2707.4974020103837,1272
2709.276642685917,1222
2711.055520686095,1244
2712.834036309506,1240
2714.612189854819,1177
2716.389981620782,1211
2718.1674119062204,1174
2719.944481010041,1244
2721.721189231226,1253
2723.4975368688415,1251
2725.273524222027,1213
2727.0491515900053,1246
2728.824419272075,1203
2730.5993275676146,1163
2732.3738767760838,1211
2734.148067197016,1218
2735.921899130031,1214
2737.6953728748194,1144
2739.468488731156,1198
2741.2412469988926,1200
2743.0136479779617,1227
2744.785691968372,1263
2746.5573792702116,1217
2748.3287101836504,1238
2750.099685008934,1186
2751.870304046388,1189
2753.640567596418,1236
2755.4104759595057,1250
2757.1800294362156,1211
2758.949228327187,1213
2760.7180729331412,1209
2762.486563554877,1176
2764.254700493272,1166
2766.022484049284,1257
2767.789914523947,1256
2769.5569922183786,1143
2771.3237174337705,1219
2773.090090471394,1158
2774.8561116326036,1184
2776.6217812188274,1210
2778.3870995315756,1189
2780.1520668724356,1192
2781.9166835430747,1231
2783.6809498452394,1178
2785.444866080754,1196
2787.2084325515225,1176
2788.971649559527,1156
2790.73451740683,1207
2792.4970363955713,1210
2794.2592068279705,1191
2796.0210290063264,1210
2797.7825032330147,1170
2799.543629810493,1182
2801.304409041296,1189
2803.0648412280366,1172
2804.8249266734088,1199
2806.5846656801846,1174
2808.344058551212,1190
2810.1031055894246,1221
2811.8618070978273,1222
2813.6201633795085,1212
2815.378174737636,1233
2817.1358414754536,1182
2818.893163896285,1213
2820.6501423035334,1156
2822.4067770006814,1183
2824.1630682912883,1151
2825.9190164789957,1250
2827.6746218675207,1230
2829.429884760661,1182
2831.184805462294,1205
2832.9393842763743,1167
2834.693621506936,1156
2836.4475174580916,1165
2838.201072434034,1191
2839.954286739034,1200
2841.707160677441,1241
2843.459694553685,1196
2845.2118886722724,1224
2846.96374333779,1192
2848.7152588549034,1230
2850.4664355283567,1219
2852.217273662973,1191
2853.9677735636546,1224
2855.7179355353833,1222
2857.4677598832186,1210
2859.217246912299,1208
2860.9663969278427,1206
2862.715210235146,1191
2864.4636871395846,1217
2866.211827946614,1176
2867.9596329617652,1152
2869.7071024906536,1171
2871.4542368389684,1179
2873.20103631248,1223
2874.947501217038,1222
2876.6936318585695,1203
2878.4394285430812,1197
2880.1848915766604,1200
2881.9300212654707,1224
2883.6748179157553,1214
2885.4192818338374,1163
2887.1634133261173,1194
2888.907212699077,1163
2890.6506802592744,1214
2892.393816313348,1207
2894.1366211680142,1207
2895.8790951300693,1207
2897.621238506388,1163
2899.363051603925,1186
2901.1045347297118,1198
2902.8456881908596,1198
2904.58651229456,1190
2906.327007348081,1163
2908.067173658772,1267
2909.8070115340597,1190
2911.5465212814497,1184
2913.285703208527,1231
2915.0245576229563,1205
2916.7630848324807,1214
2918.5012851449196,1194
2920.2391588681758,1237
2921.976706310227,1193
2923.7139277791334,1213
2925.4508235830313,1176
2927.187394030137,1176
2928.923639428745,1233
2930.6595600872306,1186
2932.395156314046,1235
2934.1304284177218,1247
2935.8653767068713,1251
2937.6000014901815,1203
2939.3343030764227,1192
2941.068281774442,1139
2942.8019378931644,1188
2944.5352717415976,1227
2946.2682836288236,1186
2948.0009738640065,1167
2949.7333427563885,1182
2951.465390615289,1184
2953.1971177501086,1231
2954.9285244703265,1197
2956.6596110855,1172
2958.3903779052657,1170
2960.1208252393385,1179
2961.8509533975125,1208
2963.5807626896617,1214
2965.3102534257378,1158
2967.0394259157715,1183
2968.768280469873,1170
2970.496817398232,1173
2972.2250370111146,1219
2973.952939618869,1181
2975.6805255319196,1213
2977.4077950607707,1185
2979.134748516006,1202
2980.861386208289,1189
2982.587708448359,1185
2984.313715547037,1160
2986.039407815222,1196
2987.764785563891,1180
2989.489849104102,1175
2991.2145987469908,1171
2992.9390348037705,1219
2994.6631575857346,1202
2996.3869674042576,1134
2998.1104645707887,1171
2999.83364939686,1179
3001.5565221940783,1189
3003.2790832741334,1170
3005.0013329487924,1197
3006.7232715298996,1196
3008.4448993293804,1215
3010.166216659239,1160
3011.887223831558,1231
3013.607921158498,1170
3015.3283089522993,1188
3017.0483875252826,1189
3018.7681571898443,1144
3020.4876182584626,1189
3022.2067710436927,1149
3023.9256158581707,1236
3025.644153014609,1204
3027.362382825801,1182
3029.0803056046193,1210
3030.797921664012,1208
3032.5152313170106,1170
3034.2322348767225,1201
3035.9489326563353,1170
3037.665324969115,1174
3039.3814121284063,1201
3041.097194447633,1192
3042.812672240299,1129
3044.5278458199855,1179
3046.2427155003525,1225
3047.9572815951406,1194
3049.671544418167,1158
3051.38550428333,1149
3053.0991615046073,1158
3054.812516396051,1201
3056.5255692717974,1174
3058.2383204460575,1173
3059.9507702331257,1193
3061.662918947372,1186
3063.3747669032446,1171
3065.0863144152736,1186
3066.7975617980674,1128
3068.508509366309,1138
3070.219157434767,1198
3071.9295063182844,1177
3073.639556331785,1168
3075.3493077902704,1151
3077.058761008821,1228
3078.7679163025964,1154
3080.476773986837,1145
3082.1853343768594,1183
3083.89359778806,1184
3085.6015645359153,1194
3087.3092349359786,1205
3089.016609303884,1176
3090.7236879553434,1220
3092.4304712061476,1190
3094.136959372166,1184
3095.843152769349,1210
3097.5490517137237,1209
3099.2546565213966,1200
3100.959967508554,1158
3102.66498499146,1150
3104.3697092864577,1174
3106.0741407099695,1150
3107.778279578498,1161
3109.482126208622,1194
3111.1856809170004,1187
3112.8889440203716,1182
3114.5919158355528,1155
3116.294596679439,1215
3117.996986869006,1207
3119.6990867213062,1206
3121.4008965534726,1176
3123.102416682717,1207
3124.803647426329,1196
3126.5045891016784,1203
3128.205242026213,1167
3129.90560651746,1194
3131.605682893025,1214
3133.3054714705922,1211
3135.0049725679282,1178
3136.7041865028714,1200
3138.4031135933465,1190
3140.101754157353,1238
3141.800108512971,1194
3143.498176978357,1202
3145.1959598717494,1164
3146.8934575114636,1197
3148.5906702158954,1129
3150.2875983035183,1157
3151.9842420928853,1170
3153.680601902627,1172
3155.376678051456,1110
3157.07247085816,1133
3158.767980641609,1148
3160.463207720748,1157
3162.158152414606,1111
3163.8528150422862,1180
3165.5471959229726,1149
3167.2412953759303,1265
3168.9351137204976,1201
3170.628651276098,1218
3172.3219083622307,1170
3174.014885298474,1193
3175.707582404485,1151
3177.4000000000005,1198
3179.092138404835,1188
3180.7839979388846,1158
3182.47557892212,1188
3184.166881674594,1133
3185.8579065164386,1146
3187.5486537678626,1161
3189.2391237491547,1191
3190.9293167806827,1182
3192.6192331828934,1098
3194.3088732763117,1167
3195.998237381542,1145
3197.687325819268,1213
3199.376138910251,1205
3201.064676975334,1170
3202.7529403354347,1184
3204.4409293115523,1208
3206.1286442247647,1183
3207.816085396229,1196
3209.5032531471825,1132
3211.190147798936,1183
3212.8767696728846,1117
3214.5631190905015,1233
3216.2491963733373,1125
3217.9350018430214,1159
3219.6205358212637,1114
3221.305798629851,1160
3222.990790590651,1175
3224.6755120256103,1140
3226.359963256751,1144
3228.0441446061795,1170
3229.7280563960758,1154
3231.411698948703,1136
3233.0950725863995,1138
3234.778177631587,1161
3236.461014406761,1153
3238.1435832345005,1143
3239.8258844374595,1175
3241.507918338374,1086
3243.1896852600576,1168
3244.8711855254023,1141
3246.552419457381,1168
3248.233387379042,1148
3249.914089613516,1146
3251.59452648401,1199
3253.274698313813,1155
3254.95460542629,1141
3256.6342481448855,1169
3258.313626793125,1234
3259.9927416946084,1138
3261.6715931730196,1074
3263.3501815521176,1173
3265.0285071557437,1136
3266.706570307815,1129
3268.3843713323286,1194
3270.0619105533615,1175
3271.739188295068,1120
3273.4162048816834,1211
3275.0929606375184,1182
3276.769455886966,1123
3278.445690954498,1180
3280.1216661646613,1174
3281.797381842087,1184
3283.4728383114807,1165
3285.1480358976296,1204
3286.8229749253996,1146
3288.4976557197333,1141
3290.172078605655,1155
3291.846243908266,1160
3293.5201519527463,1120
3295.193803064357,1158
3296.8671975684374,1143
3298.5403357904024,1147
3300.21321805575,1157
3301.8858446900567,1165
3303.558216018975,1169
3305.23033236824,1160
3306.9021940636603,1190
3308.57380143113,1165
3310.2451547966184,1201
3311.916254486174,1185
3313.5871008259246,1200
3315.2576941420766,1165
3316.9280347609147,1159
3318.5981230088046,1184
3320.2679592121895,1165
3321.9375436975924,1158
3323.606876791612,1154
3325.27595882093,1159
3326.944790112305,1179
3328.6133709925753,1156
3330.2817017886573,1111
3331.949782827547,1162
3333.617614436319,1178
3335.2851969421245,1156
3336.952530672199,1170
3338.619615953853,1098
3340.286453114475,1165
3341.9530424815357,1123
3343.619384382583,1151
3345.2854791452437,1172
3346.951327097224,1139
3348.6169285663073,1181
3350.2822838803577,1156
3351.947393367319,1175
3353.61225735521,1158
3355.2768761721345,1190
3356.9412501462693,1118
3358.605379605873,1104
3360.2692648792827,1187
3361.9329062949146,1158
3363.596304181263,1172
