CollectionTime,7/9/2024 4:42:19 PM
ExposureUsed,3
CalibratedSpectrum
-962.7078968117929,516
-959.9714848408522,506
-957.2358232597828,521
-954.5009119013725,543
-951.7667505983302,528
-949.0333391832855,528
-946.3006774887896,542
-943.5687653473143,527
-940.837602591253,513
-938.1071890529199,529
-935.3775245645503,556
-932.6486089583007,558
-929.9204420662485,538
-927.1930237203925,522
-924.4663537526524,538
-921.7404319948689,531
-919.0152582788041,529
-916.2908324361409,594
-913.5671542984834,556
-910.8442236973568,539
-908.1220404642074,554
-905.4006044304027,564
-902.679915427231,545
-899.959973285902,537
-897.2407778375464,529
-894.5223289132158,529
-891.8046263438832,531
-889.0876699604426,547
-886.3714595937089,554
-883.6559950744183,539
-880.9412762332282,547
-878.2273029007168,531
-875.5140749073835,525
-872.8015920836489,531
-870.0898542598545,551
-867.3788612662631,530
-864.6686129330585,534
-861.9591090903457,572
-859.2503495681506,544
-856.5423341964203,527
-853.8350628050229,527
-851.1285352237478,524
-848.4227512823054,534
-845.7177108103272,530
-843.0134136373656,539
-840.3098595928943,533
-837.6070485063082,545
-834.9049802069229,551
-832.2036545239757,564
-829.5030712866244,554
-826.8032303239481,575
-824.1041314649472,557
-821.4057745385428,540
-818.7081593735775,541
-816.0112857988148,557
-813.3151536429393,555
-810.6197627345566,533
-807.9251129021936,520
-805.2312039742981,524
-802.5380357792392,557
-799.8456081453069,556
-797.1539209007124,548
-794.462973873588,575
-791.772766891987,589
-789.083299783884,583
-786.3945723771743,557
-783.7065844996748,575
-781.0193359791231,527
-778.3328266431781,551
-775.6470563194197,558
-772.9620248353489,557
-770.2777320183878,576
-767.5941776958798,558
-764.9113616950891,566
-762.2292838432011,548
-759.5479439673222,553
-756.8673418944801,570
-754.1874774516235,575
-751.5083504656222,565
-748.8299607632671,544
-746.15230817127,559
-743.475392516264,560
-740.7992136248035,598
-738.1237713233636,602
-735.4490654383407,558
-732.7750957960521,553
-730.1018622227365,585
-727.4293645445534,591
-724.7576025875837,553
-722.0865761778291,559
-719.4162851412126,597
-716.7467293035781,595
-714.0779084906909,586
-711.409822528237,611
-708.7424712418238,598
-706.0758544569796,573
-703.4099719991541,595
-700.7448236937178,637
-698.0804093659622,614
-695.4167288411002,612
-692.7537819442656,604
-690.0915685005134,612
-687.4300883348199,607
-684.7693412720819,581
-682.1093271371178,616
-679.4500457546669,612
-676.7914969493897,596
-674.1336805458676,605
-671.4765963686034,614
-668.8202442420206,610
-666.1646239904642,632
-663.5097354382001,640
-660.8555784094151,602
-658.2021527282176,614
-655.5494582186366,645
-652.8974947046223,615
-650.2462620100463,612
-647.5957599587009,619
-644.9459883742998,627
-642.2969470804776,638
-639.6486359007902,630
-637.0010546587141,668
-634.3542031776476,657
-631.7080812809096,645
-629.0626887917401,623
-626.4180255333008,625
-623.7740913286734,662
-621.1308860008619,628
-618.4884093727904,642
-615.8466612673046,630
-613.2056415071715,650
-610.5653499150785,668
-607.9257863136347,644
-605.28695052537,637
-602.6488423727357,689
-600.0114616781036,605
-597.3748082637674,679
-594.7388819519412,642
-592.1036825647604,654
-589.4692099242818,677
-586.8354638524829,708
-584.2024441712624,680
-581.5701507024403,675
-578.9385832677575,678
-576.3077416888759,670
-573.6776257873787,678
-571.0482353847704,689
-568.4195703024757,662
-565.7916303618415,670
-563.164415384135,667
-560.5379251905453,658
-557.9121596021815,661
-555.2871184400748,667
-552.6628015251767,685
-550.0392086783606,693
-547.4163397204204,662
-544.794194472071,692
-542.1727727539491,693
-539.5520743866118,684
-536.9320991905377,731
-534.3128469861261,729
-531.6943175936979,753
-529.0765108334947,760
-526.4594265256793,821
-523.8430644903358,895
-521.2274245474689,1000
-518.612506517005,1073
-515.9983102187913,1001
-513.3848354725959,1019
-510.77208209810846,1046
-508.16004991493924,1186
-505.5487387426199,1273
-502.9381484006032,1429
-500.3282787082628,1426
-497.71912948489364,1382
-495.1107005497117,1231
-492.5029917218539,1098
-489.8960028203786,1039
-487.28973366426493,982
-484.68418407241325,911
-482.07935386364494,885
-479.47524285670266,881
-476.87185087025,851
-474.2691777228715,904
-471.66722323307334,881
-469.0659872192821,894
-466.4654694998459,827
-463.86566989303384,851
-461.26658821703614,838
-458.66822428996414,856
-456.07057792985,852
-453.4736489546475,866
-450.877437182231,840
-448.28194243039627,836
-445.68716451686,842
-443.09310325926003,893
-440.49975847515555,815
-437.9071299820263,824
-435.31521759727354,826
-432.72402113821954,869
-430.13354042210767,868
-427.5437752661022,869
-424.95472548728867,841
-422.36639090267386,865
-419.7787713291855,860
-417.1918665836721,908
-414.60567648290385,939
-412.0202008435715,917
-409.4354394822874,911
-406.8513922155845,887
-404.26805885991723,948
-401.685439231661,921
-399.103533147112,938
-396.522340422488,896
-393.9418608739278,913
-391.3620943174908,920
-388.7830405691583,888
-386.2046994448317,836
-383.6270707603344,810
-381.05015433141045,793
-378.473949973725,793
-375.8984575028645,702
-373.32367673433623,652
-370.74960748356875,596
-368.1762495659117,596
-365.60360279663576,554
-363.03166699093265,527
-360.4604419639154,488
-357.8899275306178,483
-355.32012350599507,469
-352.7510297049233,478
-350.1826459421999,447
-347.61497203254316,448
-345.04800779059235,459
-342.4817530309082,473
-339.91620756797226,491
-337.35137121618743,456
-334.7872437898774,459
-332.22382510328725,444
-329.66111497058273,443
-327.09911320585127,471
-324.53781962310075,470
-321.9772340362607,501
-319.4173562591816,483
-316.8581861056348,451
-314.2997233893127,438
-311.7419679238294,456
-309.1849195227194,430
-306.62857799943856,471
-304.0729431673641,478
-301.51801483979375,511
-298.963792829947,483
-296.41027695096386,510
-293.85746701590574,506
-291.3053628377552,512
-288.7539642294155,561
-286.2032710037115,513
-283.65328297338897,494
-281.1039999511146,526
-278.5554217494762,569
-276.007548180983,560
-273.4603790580651,552
-270.9139141930734,526
-268.3681533982807,522
-265.8230964858798,549
-263.27874326798565,521
-260.7350935566336,555
-258.1921471637804,556
-255.6499039013039,501
-253.10836358100266,510
-250.56752601459698,516
-248.02739101372765,542
-245.48795838995704,577
-242.94922795476816,542
-240.41119951956557,550
-237.8738728956746,573
-235.33724789434166,621
-232.80132432673452,564
-230.2661020039418,575
-227.73158073697357,551
-225.19776033676033,652
-222.66464061415422,661
-220.1322213799284,576
-217.60050244477725,567
-215.06948361931552,597
-212.53916471408013,609
-210.00954553952818,625
-207.48062590603843,591
-204.9524056239104,611
-202.4248845033651,652
-199.8980623545441,633
-197.37193898751036,667
-194.84651421224817,679
-192.32178783866232,681
-189.79775967657952,734
-187.27442953574644,738
-184.7517972258321,722
-182.2298625564256,690
-179.7086253370378,686
-177.18808537710026,676
-174.66824248596583,726
-172.14909647290835,758
-169.6306471471229,813
-167.11289431772548,779
-164.59583779375328,778
-162.07947738416453,766
-159.5638128978386,791
-157.04884414357605,896
-154.53457093009854,957
-152.02099306604828,954
-149.50811035998936,760
-146.99592262040665,731
-144.48442965570587,810
-141.97363127421409,874
-139.46352728417958,922
-136.95411749377126,1035
-134.44540171107985,987
-131.93737974411636,804
-129.43005140081357,734
-126.92341648902493,985
-124.41747481652521,1172
-121.91222619101006,1478
-119.40767042009657,1771
-116.90380731132257,2189
-114.40063667214702,2117
-111.8981583099503,1825
-109.3963720320337,1439
-106.89527764561933,1381
-104.39487495785067,1401
-101.89516377579241,1838
-99.39614390642998,2059
-96.89781515667039,2295
-94.40017733334128,2378
-91.90323024319173,2819
-89.40697369289148,3954
-86.91140748903172,5062
-84.41653143812482,5620
-81.92234534660395,4410
-79.42884902082358,3181
-76.93604226705907,4387
-74.4439248915071,8709
-71.95249670028534,12587
-69.46175749943245,14415
-66.97170709490854,13627
-64.48234529259423,11763
-61.99367189829195,9569
-59.50568671772464,7373
-57.01838955653636,6394
-54.53178022029283,6240
-52.045858514480074,5368
-49.560624244506016,6412
-47.07607721569923,8528
-44.59221723330904,9261
-42.10904410250669,9115
-39.62655762838392,9807
-37.14475761595372,9537
-34.66364387015028,8914
-32.18321619582866,8398
-29.70347439776515,8080
-27.224418280657005,7816
-24.74604764912317,8195
-22.26836230770266,11675
-19.7913620608565,20807
-17.315046712966478,36868
-14.83941606833514,51668
-12.36446993118659,65038
-9.89020810566592,65038
-7.416630395839093,65038
-4.94373660569363,65038
-2.471526539137585,65038
-6.821210263296962E-13,65038
2.47084320796705,65038
4.941003281093458,65038
7.410480415786196,65038
9.879274808531363,65038
12.347386655893956,65038
14.814816154518212,65038
17.28156350112681,65038
19.74762889252179,65038
22.21301252558385,65038
24.67771459727237,20331
27.141735304626195,3548
29.605074844762612,2142
32.06773341487792,1750
34.52971121224755,1693
36.99100843422559,1878
39.45162527824516,1588
41.91156194181792,1387
44.370818622535126,1302
46.82939551806646,1171
49.287292826160524,1193
51.74451074464503,1258
54.201049471426245,1143
56.65690920448981,1160
59.112090141899785,1138
61.56659248179983,1012
64.02041642241159,992
66.4735621620365,902
68.92602989905402,867
71.37781983192338,910
73.82893215918205,932
76.27936707944684,1056
78.72912479141326,1081
81.17820549385567,1121
83.62660938562783,1089
86.07433666566146,1001
88.5213875329681,859
90.96776218663751,888
93.41346082583925,848
95.85848364982041,879
98.30283085790859,992
100.7465026495089,995
103.18949922410604,909
105.63182078126385,902
108.07346752062438,933
110.51443964190923,839
112.95473734491827,772
115.39436082953114,865
117.83331029570547,861
120.27158594347827,823
122.7091879729652,889
125.1461165843615,861
127.58237197794062,863
130.01795435405518,807
132.4528639131364,778
134.88710085569494,783
137.32066538231982,780
139.75355769367923,740
142.1857779905207,749
144.61732647366978,760
147.04820334403132,861
149.47840880258934,882
151.90794305040674,803
154.33680628862487,908
156.76499871846443,1098
159.19252054122433,1228
161.61937195828352,1290
164.04555317109896,1395
166.47106438120693,1489
168.89590579022217,1711
171.320077599839,1860
173.7435800118302,1841
176.16641322804742,1866
178.58857745042144,2042
181.01007288096173,2157
183.43089972175687,2139
185.85105817497413,2056
188.27054844285988,2129
190.6893707277394,2065
193.10752523201643,2080
195.5250121581745,2153
197.9418317087751,2274
200.3579840864594,2290
202.7734694939469,2246
205.18828813403627,2320
207.6024402096051,2407
210.01592592360964,2497
212.42874547908548,2485
214.84089907914665,2387
217.2523869269868,2412
219.66320922587727,2260
222.0733661791695,2319
224.48285799029293,2315
226.8916848627572,2311
229.29984700014882,2326
231.7073446061355,2437
234.11417788446204,2433
236.520347038953,2483
238.92585227351185,2389
241.33069379212054,2523
243.73487179884035,2388
246.1383864978112,2427
248.541238093252,2502
250.9434267894609,2541
253.34495279081432,2540
255.74581630176783,2529
258.1460175268563,2475
260.54555667069314,2613
262.9444339379703,2640
265.3426495334594,2533
267.7402036620107,2482
270.1370965285529,2450
272.53332833809407,2429
274.9288992957214,2449
277.32380960660055,2346
279.718059475976,2337
282.1116491091717,2430
284.5045787115897,2375
286.89684848871195,2383
289.2884586460981,2430
291.67940938938807,2349
294.0697009242996,2354
296.4593334566299,2373
298.84830719225477,2343
301.23662233712923,2317
303.6242790972866,2366
306.01127767884,2345
308.39761828798066,2297
310.78330113097934,2261
313.16832641418534,2200
315.5526943440269,2195
317.9364051270112,2194
320.3194589697242,2210
322.70185607883093,2086
325.0835966610754,2169
327.4646809232805,2062
329.8451090723478,2058
332.2248813152577,2114
334.6039978590701,2072
336.9824589109231,2097
339.36026467803447,2092
341.7374153677,2020
344.113911187295,2093
346.48975234427337,2091
348.8649390461686,2093
351.2394715005918,2047
353.61334991523415,2051
355.9865744978655,1941
358.35914545633375,1993
360.73106299856715,2002
363.10232733257146,2013
365.47293866643247,2013
367.84289720831396,2019
370.2122031664593,2049
372.5808567491905,1985
374.9488581649083,1906
377.31620762209275,1906
379.6829053293021,1905
382.0489514951745,1901
384.4143463284262,1918
386.7790900378528,1893
389.14318283232853,1872
391.50662492080653,1950
393.86941651231916,1982
396.23155781597745,2008
398.5930490409713,1965
400.9538903965696,1928
403.3140820921202,1909
405.6736243370498,1894
408.03251734086336,1898
410.3907613131465,1871
412.74835646356166,1875
415.10530300185144,1869
417.4616011378372,1897
419.81725108141893,1885
422.1722530425758,1866
424.5266072313656,1910
426.880313857925,1798
429.2333731324701,1891
431.58578526529516,1882
433.9375504667738,1857
436.2886689473588,1823
438.63914091758113,1888
440.9889665880513,1816
443.33814616945835,1817
445.68667987257015,1833
448.03456790823395,1836
450.3818104873759,1836
452.72840782100013,1844
455.07436012019105,1785
457.41966759611057,1889
459.7643304600007,1810
462.10834892318155,1822
464.4517231970525,1814
466.79445349309174,1787
469.1365400228566,1846
471.4779829979826,1854
473.81878263018564,1840
476.15893913125876,1830
478.4984527130747,1911
480.8373235875855,1908
483.17555196682144,1925
485.5131380628919,1975
487.8500820879857,2068
490.1863842543697,2218
492.52204477439034,2306
494.8570638604725,2412
497.1914417251204,2754
499.52517858091653,2890
501.85827464052306,3172
504.19073011668036,3393
506.5225452222086,3337
508.85372017000566,3402
511.18425517304956,3217
513.514150444396,3328
515.8434061971808,4010
518.1720226446176,4753
520.4999999999999,5189
522.8273384766991,4841
525.1540382881666,4304
527.480099647932,3808
529.8055227696037,3163
532.1303078668694,2512
534.454455153496,2237
536.777964843328,2042
539.1008371502907,2003
541.4230722883866,2023
543.744670471698,1996
546.0656319143858,2010
548.3859568306899,1898
550.7056454349294,1947
553.0246979415016,1904
555.3431145648834,1773
557.6608955196306,1847
559.978041020377,1817
562.2945512818363,1842
564.6104265188006,1906
566.9256669461412,1934
569.2402727788082,1916
571.5542442318302,1874
573.8675815203156,1925
576.1802848594508,1941
578.4923544645015,1974
580.8037905508126,1862
583.114593333807,1914
585.4247630289875,1841
587.7342998519354,1913
590.0432040183106,1848
592.3514757438526,1899
594.6591152443794,1890
596.9661227357875,1935
599.2724984340531,1922
601.578242555231,1882
603.8833553154542,1918
606.1878369309362,1891
608.4916876179676,1843
610.7949075929192,1856
613.0974970722403,1880
615.3994562724587,1933
617.7007854101818,1949
620.0014847020951,1827
622.3015543649641,1868
624.6009946156324,1932
626.8998056710224,1902
629.1979877481361,1925
631.4955410640538,1887
633.7924658359349,1855
636.0887622810175,1851
638.3844306166192,1955
640.6794710601358,1868
642.9738838290426,1934
645.2676691408932,1949
647.5608272133207,1942
649.853358264037,1939
652.1452625108324,2019
654.4365401715764,1934
656.7271914642178,1878
659.0172166067838,1968
661.3066158173809,1898
663.5953893141935,1834
665.8835373154867,1959
668.1710600396028,1919
670.4579577049639,1898
672.7442305300709,1937
675.0298787335033,1853
677.3149025339197,1902
679.599302150058,1852
681.8830778007342,1864
684.1662297048437,1889
686.4487580813608,1929
688.7306631493387,1959
691.0119451279091,1919
693.2926042362834,1916
695.5726406937516,1920
697.8520547196814,1984
700.1308465335215,1953
702.4090163547982,1882
704.6865644031171,1875
706.9634908981619,1899
709.2397960596965,1857
711.5154801075631,1894
713.7905432616823,1839
716.0649857420548,1820
718.3388077687592,1899
720.612009561953,1967
722.8845913418733,1917
725.1565533288352,1913
727.427895743234,1943
729.6986188055427,1916
731.9687227363137,1940
734.238207756178,1905
736.5070740858458,1936
738.7753219461066,1884
741.0429515578281,1977
743.3099631419569,1918
745.5763569195191,1864
747.8421331116193,1970
750.1072919394409,1947
752.3718336242467,1938
754.6357583873777,1927
756.8990664502545,1916
759.1617580343765,1980
761.423833361321,1911
763.6852926527457,1888
765.9461361303862,1974
768.206364016058,1982
770.4659765316536,1967
772.7249738991469,1934
774.9833563405886,1958
777.2411240781092,1907
779.4982773339183,1940
781.7548163303044,2022
784.010741289634,1928
786.2660524343538,2003
788.5207499869881,1987
790.7748341701416,1977
793.0283052064964,1946
795.2811633188143,1942
797.5334087299362,1976
799.7850416627813,1973
802.0360623403484,1948
804.2864709857143,1866
806.5362678220353,1975
808.7854530725468,1922
811.0340269605625,1938
813.2819897094754,2019
815.5293415427581,1939
817.77608268396,1954
820.0222133567116,1897
822.2677337847211,1958
824.5126441917765,1883
826.7569448017433,1928
829.0006358385675,1929
831.2437175262731,1969
833.4861900889629,1913
835.7280537508192,1934
837.9693087361026,1918
840.2099552691533,1981
842.4499935743896,1916
844.689423876309,1960
846.9282463994886,1977
849.1664613685833,1983
851.4040690083276,1984
853.6410695435349,1911
855.877463199097,1932
858.1132501999847,1946
860.3484307712487,1909
862.5830051380175,1923
864.8169735254988,1929
867.0503361589791,1995
869.2830932638243,1967
871.5152450654786,1962
873.7467917894654,1970
875.9777336613873,1994
878.2080709069252,1995
880.4378037518389,1983
882.666932421968,1990
884.8954571432301,2007
887.1233781416219,1990
889.3506956432192,2051
891.5774098741766,2020
893.803521060728,2028
896.0290294291852,1931
898.2539352059397,1991
900.4782386174619,2016
902.7019398903011,1988
904.925039251085,2009
907.147536926521,1929
909.3694331433943,1991
911.59072812857,1986
913.8114221089921,1980
916.0315153116827,1981
918.2510079637437,1987
920.4699002923547,1946
922.6881925247761,1947
924.905884888345,2008
927.1229776104793,1972
929.3394709186747,1973
931.555365040506,1900
933.7706602036275,1874
935.9853566357709,1930
938.1994545647489,1993
940.4129542184515,1995
942.6258558248488,1950
944.8381596119883,1916
947.0498658079974,1948
949.2609746410825,1917
951.4714863395287,1992
953.6814011316998,1910
955.8907192460387,1918
958.0994409110671,1953
960.3075663553858,1954
962.5150958076741,2004
964.7220294966913,1855
966.928367651274,1820
969.1341105003388,1911
971.3392582728806,1842
973.5438111979742,1854
975.747769504772,1890
977.9511334225061,1841
980.153903180487,1933
982.3560790081052,1863
984.5576611348289,1851
986.7586497902058,1808
988.9590452038618,1773
991.158847605503,1796
993.3580572249133,1819
995.5566742919558,1796
997.7546990365728,1775
999.952131688785,1747
1002.1489724786926,1729
1004.3452216364743,1703
1006.5408793923874,1719
1008.7359459767691,1726
1010.9304216200343,1668
1013.1243065526781,1693
1015.3176010052733,1661
1017.510305208472,1663
1019.7024193930064,1641
1021.8939437896848,1586
1024.0848786293977,1602
1026.2752241431122,1589
1028.4649805618747,1609
1030.6541481168115,1580
1032.842727039127,1605
1035.0307175601051,1617
1037.2181199111074,1598
1039.4049343235752,1588
1041.591161029029,1612
1043.7768002590683,1609
1045.9618522453698,1573
1048.1463172196918,1577
1050.3301954138697,1550
1052.513487059818,1572
1054.69619238953,1515
1056.8783116350783,1627
1059.0598450286152,1530
1061.2407928023704,1569
1063.4211551886528,1550
1065.6009324198508,1520
1067.780124728432,1556
1069.9587323469414,1579
1072.1367555080046,1610
1074.314194444325,1540
1076.4910493886855,1613
1078.667320573947,1606
1080.843008233051,1540
1083.0181125990161,1496
1085.1926339049414,1489
1087.3665723840027,1534
1089.5399282694575,1542
1091.7127017946405,1531
1093.8848931929647,1509
1096.0565026979243,1521
1098.2275305430899,1533
1100.3979769621128,1524
1102.567842188722,1475
1104.737126456726,1485
1106.9058300000124,1538
1109.0739530525475,1506
1111.2414958483764,1526
1113.4084586216231,1491
1115.5748416064907,1521
1117.7406450372605,1501
1119.9058691482942,1442
1122.0705141740304,1503
1124.2345803489884,1509
1126.3980679077658,1505
1128.5609770850388,1513
1130.7233081155623,1462
1132.8850612341707,1512
1135.0462366757774,1421
1137.2068346753745,1479
1139.3668554680326,1462
1141.526299288901,1402
1143.68516637321,1502
1145.8434569562655,1479
1148.001171273455,1454
1150.158309560244,1483
1152.3148720521767,1457
1154.470858984876,1444
1156.626270594044,1480
1158.7811071154629,1432
1160.9353687849912,1488
1163.089055838569,1435
1165.242168512213,1464
1167.3947070420209,1451
1169.5466716641677,1506
1171.6980626149075,1425
1173.8488801305748,1450
1175.9991244475814,1466
1178.1487958024186,1417
1180.2978944316555,1450
1182.4464205719428,1384
1184.5943744600072,1428
1186.7417563326567,1458
1188.8885664267755,1469
1191.0348049793297,1440
1193.1804722273619,1444
1195.325568407995,1400
1197.4700937584303,1455
1199.614048515948,1458
1201.7574329179074,1422
1203.900247201746,1460
1206.042491604982,1453
1208.1841663652099,1498
1210.3252717201053,1542
1212.465807907422,1450
1214.6057751649923,1442
1216.7451737307279,1466
1218.8840038426192,1428
1221.0222657387353,1420
1223.1599596572241,1424
1225.2970858363137,1461
1227.4336445143094,1484
1229.5696359295966,1493
1231.705060320639,1514
1233.8399179259786,1486
1235.9742089842384,1480
1238.107933734118,1430
1240.2410924143974,1539
1242.373685263935,1501
1244.5057125216676,1472
1246.6371744266116,1484
1248.7680712178621,1485
1250.898403134593,1521
1253.028170416058,1538
1255.1573733015875,1501
1257.2860120305932,1462
1259.4140868425648,1490
1261.54159797707,1496
1263.6685456737569,1480
1265.7949301723515,1564
1267.9207517126597,1489
1270.046010534565,1530
1272.1707068780306,1492
1274.2948409830983,1556
1276.4184130898889,1554
1278.541423438603,1556
1280.6638722695184,1559
1282.785759822993,1554
1284.9070863394636,1576
1287.0278520594447,1553
1289.1480572235314,1582
1291.2677020723963,1592
1293.3867868467923,1587
1295.5053117875495,1578
1297.623277135579,1559
1299.740683131868,1559
1301.8575300174857,1589
1303.973818033578,1518
1306.0895474213703,1661
1308.2047184221678,1572
1310.3193312773528,1569
1312.4333862283888,1603
1314.5468835168163,1693
1316.659823384255,1637
1318.7722060724045,1642
1320.8840318230418,1648
1322.9953008780249,1634
1325.1060134792888,1593
1327.2161698688478,1624
1329.3257702887959,1647
1331.4348149813054,1682
1333.5433041886276,1635
1335.6512381530933,1645
1337.7586171171101,1650
1339.8654413231675,1609
1341.9717110138317,1607
1344.0774264317488,1604
1346.1825878196432,1586
1348.2871954203192,1555
1350.3912494766587,1538
1352.4947502316231,1585
1354.5976979282532,1602
1356.7000928096686,1570
1358.8019351190665,1617
1360.9032250997243,1549
1363.0039629949988,1566
1365.1041490483235,1594
1367.2037835032133,1574
1369.3028666032606,1608
1371.401398592137,1620
1373.4993797135926,1595
1375.5968102114575,1624
1377.6936903296396,1574
1379.7900203121262,1665
1381.8858004029835,1585
1383.9810308463561,1603
1386.075711886469,1602
1388.1698437676241,1552
1390.2634267342032,1646
1392.356461030667,1551
1394.4489469015557,1666
1396.5408845914872,1621
1398.6322743451592,1619
1400.7231164073469,1606
1402.813411022907,1653
1404.903158436773,1625
1406.9923588939578,1617
1409.0810126395531,1670
1411.1691199187303,1604
1413.2566809767386,1644
1415.343696058907,1633
1417.4301654106425,1657
1419.5160892774315,1669
1421.6014679048399,1664
1423.6863015385125,1643
1425.7705904241707,1634
1427.8543348076178,1701
1429.9375349347342,1631
1432.0201910514802,1676
1434.102303403894,1702
1436.1838722380944,1653
1438.2648978002767,1660
1440.3453803367174,1665
1442.4253200937692,1653
1444.5047173178677,1738
1446.5835722555234,1709
1448.6618851533285,1755
1450.739656257952,1738
1452.8168858161434,1766
1454.8935740747306,1817
1456.96972128062,1732
1459.045327680797,1787
1461.120393522327,1809
1463.1949190523528,1857
1465.2689045180973,1888
1467.3423501668608,1820
1469.415256246024,1836
1471.4876230030463,1868
1473.559450685465,1968
1475.6307395408976,1986
1477.7014898170391,1896
1479.771701761665,1901
1481.8413756226287,1858
1483.9105116478618,1965
1485.9791100853772,1979
1488.0471711832643,2036
1490.1146951896926,1989
1492.1816823529098,1958
1494.2481329212433,2056
1496.3140471430984,1996
1498.3794252669609,2067
1500.4442675413939,2091
1502.5085742150404,2081
1504.572345536622,2071
1506.6355817549388,2060
1508.6982831188702,2093
1510.7604498773744,2102
1512.8220822794883,2110
1514.8831805743293,2056
1516.9437450110909,2092
1519.003775839048,2138
1521.0632733075522,2092
1523.1222376660367,2119
1525.1806691640113,2224
1527.2385680510652,2167
1529.2959345768668,2188
1531.3527689911643,2175
1533.4090715437833,2199
1535.4648424846291,2269
1537.5200820636855,2309
1539.5747905310159,2395
1541.6289681367616,2319
1543.6826151311434,2258
1545.7357317644614,2346
1547.7883182870937,2335
1549.8403749494987,2401
1551.8919020022113,2432
1553.9428996958477,2466
1555.9933682811015,2552
1558.0433080087469,2462
1560.0927191296346,2509
1562.1416018946961,2522
1564.1899565549415,2575
1566.2377833614592,2559
1568.2850825654164,2592
1570.3318544180606,2480
1572.3780991707158,2445
1574.423817074788,2356
1576.4690083817595,2423
1578.5136733431923,2354
1580.5578122107272,2245
1582.601425236085,2203
1584.6445126710646,2179
1586.6870747675434,2058
1588.7291117774776,2014
1590.7706239529034,2071
1592.8116115459347,1998
1594.8520748087658,1941
1596.8920139936686,1869
1598.9314293529933,1904
1600.9703211391711,1891
1603.008689604711,1929
1605.0465350022005,1792
1607.0838575843068,1748
1609.1206576037753,1698
1611.1569353134305,1701
1613.1926909661765,1636
1615.2279248149953,1762
1617.2626371129481,1735
1619.2968281131757,1670
1621.3304980688963,1624
1623.3636472334088,1620
1625.39627586009,1592
1627.428384202396,1597
1629.459972513861,1542
1631.4910410480993,1588
1633.5215900588028,1570
1635.551619799744,1608
1637.5811305247717,1554
1639.6101224878166,1548
1641.6385959428862,1546
1643.6665511440683,1546
1645.693988345528,1573
1647.7209078015112,1564
1649.7473097663405,1452
1651.7731944944203,1504
1653.7985622402307,1529
1655.823413258333,1538
1657.847747803366,1493
1659.8715661300494,1524
1661.8948684931793,1474
1663.9176551476316,1509
1665.9399263483624,1494
1667.9616823504057,1461
1669.982923408873,1482
1672.0036497789574,1430
1674.0238617159293,1526
1676.043559475138,1469
1678.0627433120121,1514
1680.081413482059,1506
1682.0995702408654,1490
1684.117213844096,1474
1686.134344547495,1518
1688.1509626068864,1492
1690.1670682781705,1476
1692.182661817329,1513
1694.1977434804217,1476
1696.2123135235875,1460
1698.226372203043,1548
1700.2399197750851,1498
1702.2529564960905,1477
1704.2654826225112,1476
1706.277498410882,1453
1708.2890041178139,1506
1710.2999999999988,1458
1712.3104863142066,1506
1714.3204633172854,1478
1716.329931266163,1446
1718.3388904178469,1513
1720.3473410294214,1435
1722.3552833580516,1472
1724.3627176609807,1435
1726.3696441955308,1434
1728.3760632191033,1493
1730.3819749891782,1441
1732.3873797633146,1475
1734.3922777991502,1439
1736.3966693544012,1460
1738.4005546868639,1408
1740.4039340544127,1430
1742.406807715001,1465
1744.4091759266616,1447
1746.4110389475054,1449
1748.4123970357223,1451
1750.413250449582,1447
1752.4135994474318,1481
1754.4134442876993,1441
1756.4127852288902,1397
1758.4116225295893,1385
1760.4099564484595,1390
1762.407787244244,1393
1764.405115175764,1489
1766.4019405019203,1404
1768.3982634816916,1465
1770.3940843741357,1477
1772.3894034383907,1440
1774.3842209336717,1417
1776.378537119274,1404
1778.372352254571,1399
1780.3656665990156,1413
1782.3584804121397,1465
1784.3507939535534,1419
1786.3426074829463,1447
1788.3339212600863,1428
1790.3247355448211,1487
1792.3150505970766,1417
1794.3048666768573,1449
1796.2941840442477,1440
1798.2830029594106,1470
1800.2713236825884,1462
1802.2591464741004,1457
1804.2464715943465,1452
1806.2332993038058,1469
1808.2196298630352,1453
1810.2054635326708,1461
1812.190800573428,1476
1814.175641246101,1436
1816.1599858115628,1432
1818.1438345307652,1442
1820.127187664738,1474
1822.1100454745924,1407
1824.092408221516,1468
1826.0742761667766,1443
1828.055649571721,1409
1830.0365286977735,1419
1832.0169138064398,1450
1833.9968051593014,1440
1835.9762030180214,1453
1837.9551076443408,1494
1839.9335193000788,1406
1841.9114382471344,1441
1843.888864747485,1423
1845.8657990631878,1456
1847.842241456378,1433
1849.8181921892697,1423
1851.7936515241558,1380
1853.7686197234098,1406
1855.7430970494815,1386
1857.7170837649014,1442
1859.6905801322787,1459
1861.6635864143004,1410
1863.6361028737338,1414
1865.608129773424,1441
1867.5796673762961,1451
1869.5507159453537,1411
1871.521275743678,1490
1873.4913470344313,1512
1875.4609300808534,1435
1877.4300251462632,1449
1879.3986324940588,1403
1881.366752387717,1462
1883.3343850907936,1474
1885.3015308669228,1469
1887.268189979819,1479
1889.2343626932739,1444
1891.2000492711595,1437
1893.1652499774254,1410
1895.1299650761011,1461
1897.0941948312952,1466
1899.0579395071945,1460
1901.0211993680641,1436
1902.98397467825,1448
1904.9462657021745,1396
1906.9080727043415,1498
1908.869395949332,1402
1910.8302357018065,1435
1912.790592226504,1392
1914.7504657882428,1392
1916.7098566519212,1457
1918.6687650825133,1408
1920.6271913450764,1437
1922.5851357047422,1365
1924.5425984267245,1377
1926.499579776314,1386
1928.4560800188833,1416
1930.4120994198802,1385
1932.367638244833,1399
1934.32269675935,1428
1936.2772752291175,1372
1938.231373919899,1418
1940.1849930975404,1477
1942.1381330279637,1458
1944.0907939771696,1460
1946.0429762112412,1382
1947.9946799963363,1469
1949.9459055986945,1404
1951.896653284633,1418
1953.8469233205478,1448
1955.7967159729142,1383
1957.7460315082863,1377
1959.6948701932974,1396
1961.6432322946594,1420
1963.5911180791632,1351
1965.5385278136787,1432
1967.4854617651545,1429
1969.4319202006182,1449
1971.377903387176,1447
1973.3234115920136,1445
1975.268445082395,1390
1977.2130041256642,1414
1979.1570889892423,1418
1981.1006999406304,1427
1983.04383724741,1448
1984.986501177238,1470
1986.928691997853,1445
1988.8704099770712,1335
1990.811655382789,1381
1992.7524284829801,1384
1994.692729545698,1390
1996.6325588390755,1404
1998.5719166313224,1380
2000.5108031907307,1397
2002.4492187856677,1330
2004.387163684583,1389
2006.3246381560011,1399
2008.2616424685298,1352
2010.1981768908527,1347
2012.1342416917332,1360
2014.069837140014,1330
2016.0049635046162,1397
2017.9396210545406,1371
2019.8738100588666,1457
2021.8075307867502,1383
2023.740783507431,1415
2025.6735684902228,1443
2027.6058860045214,1369
2029.5377363198004,1378
2031.4691197056118,1397
2033.4000364315875,1380
2035.3304867674374,1375
2037.260470982952,1376
2039.189989347998,1443
2041.1190421325232,1404
2043.047629606554,1402
2044.9757520401945,1377
2046.9034097036288,1361
2048.8306028671195,1428
2050.7573318010086,1415
2052.683596775716,1377
2054.609398061742,1373
2056.5347359296647,1405
2058.4596106501403,1359
2060.384022493906,1334
2062.3079717317764,1367
2064.231458634646,1430
2066.1544834734873,1360
2068.077046519352,1423
2069.99914804337,1347
2071.9207883167524,1409
2073.8419676107865,1355
2075.7626861968406,1386
2077.6829443463607,1390
2079.6027423308715,1401
2081.522080421977,1360
2083.440958891362,1338
2085.359378010786,1442
2087.2773380520907,1420
2089.194839287196,1415
2091.111881988101,1376
2093.0284664268825,1365
2094.9445928756973,1370
2096.86026160678,1409
2098.775472892446,1400
2100.690227005088,1386
2102.604524217178,1414
2104.5183648012676,1457
2106.431749029985,1376
2108.34467717604,1381
2110.2571495122206,1396
2112.169166311393,1377
2114.080727846503,1376
2115.9918343905747,1393
2117.902486216711,1404
2119.8126835980956,1423
2121.722426807987,1408
2123.6317161197285,1389
2125.5405518067364,1402
2127.448934142509,1352
2129.356863400624,1373
2131.264339854737,1408
2133.1713637785815,1447
2135.077935445972,1412
2136.9840551308002,1420
2138.889723107037,1443
2140.7949396487334,1398
2142.699705030018,1429
2144.6040195250994,1426
2146.507883408264,1419
2148.4112969538774,1394
2150.3142604363848,1402
2152.2167741303097,1405
2154.1188383102535,1437
2156.0204532508997,1407
2157.9216192270064,1473
2159.822336513414,1434
2161.7226053850413,1442
2163.622426116884,1471
2165.5217989840185,1481
2167.4207242616,1422
2169.319202224862,1480
2171.2172331491165,1370
2173.1148173097563,1415
2175.0119549822507,1503
2176.90864644215,1478
2178.8048919650823,1453
2180.7006918267534,1539
2182.596046302952,1419
2184.4909556695407,1517
2186.3854202024645,1465
2188.279440177746,1452
2190.173015871487,1489
2192.066147559868,1459
2193.958835519149,1483
2195.851080025667,1451
2197.7428813558417,1491
2199.6342397861667,1430
2201.5251555932186,1420
2203.415629053651,1452
2205.3056604441986,1437
2207.19525004167,1493
2209.084398122958,1509
2210.9731049650327,1485
2212.861370844941,1504
2214.749196039812,1544
2216.636580826851,1496
2218.523525483344,1511
2220.410030286655,1523
2222.296095514226,1478
2224.1817214435805,1501
2226.066908352319,1484
2227.951656518121,1512
2229.835966218746,1513
2231.71983773203,1507
2233.6032713358913,1512
2235.486267308324,1515
2237.3688259274036,1476
2239.2509474712824,1588
2241.132632218193,1514
2243.013880446447,1494
2244.8946924344323,1503
2246.7750684606203,1482
2248.6550088035574,1520
2250.534513741871,1523
2252.413583554265,1535
2254.292218519526,1505
2256.170418916517,1465
2258.0481850241786,1476
2259.925517121534,1487
2261.8024154876825,1463
2263.678880401803,1544
2265.5549121431536,1531
2267.430510991071,1502
2269.305677224971,1481
2271.180411124348,1535
2273.0547129687766,1517
2274.9285830379076,1505
2276.8020216114737,1429
2278.6750289692845,1474
2280.5476053912294,1462
2282.4197511572766,1533
2284.2914665474727,1591
2286.162751841943,1619
2288.0336073208937,1596
2289.904033264608,1579
2291.774029953448,1511
2293.6435976678554,1546
2295.5127366883517,1509
2297.381447295534,1480
2299.2497297700825,1426
2301.1175843927526,1456
2302.9850114443825,1369
2304.852011205885,1351
2306.7185839582553,1396
2308.5847299825664,1378
2310.4504495599676,1324
2312.3157429716925,1305
2314.1806104990483,1290
2316.0450524234247,1228
2317.9090690262888,1300
2319.772660589186,1293
2321.635827393742,1324
2323.498569721661,1298
2325.3608878547248,1270
2327.2227820747967,1241
2329.0842526638157,1280
2330.945299903803,1270
2332.805924076857,1333
2334.6661254651535,1302
2336.525904350951,1278
2338.3852610165827,1305
2340.244195744464,1272
2342.102708817088,1296
2343.9608005170253,1321
2345.8184711269287,1249
2347.675720929526,1281
2349.532550207628,1248
2351.38895924412,1266
2353.24494832197,1298
2355.100517724223,1324
2356.955667734004,1298
2358.810398634514,1271
2360.664710709037,1275
2362.5186042409337,1260
2364.3720795136437,1296
2366.225136810686,1301
2368.0777764156583,1289
2369.929998612237,1307
2371.7818036841777,1390
2373.633191915315,1333
2375.484163589562,1311
2377.3347189909114,1293
2379.184858403434,1334
2381.03458211128,1307
2382.8838903986775,1249
2384.732783549936,1275
2386.5812618494406,1291
2388.4293255816588,1273
2390.2769750311327,1324
2392.1242104824883,1298
2393.971032220427,1278
2395.8174405297295,1339
2397.6634356952563,1328
2399.509018001947,1354
2401.3541877348193,1281
2403.1989451789705,1286
2405.043290619576,1298
2406.8872243418905,1311
2408.730746631247,1289
2410.5738577730594,1280
2412.4165580528183,1358
2414.258847756095,1346
2416.100727168537,1307
2417.9421965758734,1325
2419.783256263912,1306
2421.623906518538,1296
2423.4641476257157,1335
2425.303979871491,1305
2427.143403541984,1364
2428.9824189233977,1344
2430.821026302012,1344
2432.6592259641866,1274
2434.497018196361,1288
2436.33440328505,1316
2438.171381516851,1366
2440.00795317844,1351
2441.844118556569,1331
2443.6798779380724,1347
2445.5152316098606,1297
2447.3501798589255,1339
2449.1847229723357,1331
2451.0188612372403,1346
2452.8525949408663,1327
2454.6859243705203,1361
2456.518849813587,1317
2458.3513715575314,1320
2460.183489889895,1344
2462.015205098301,1305
2463.8465174704493,1289
2465.67742729412,1305
2467.5079348571717,1345
2469.338040447542,1334
2471.1677443532476,1324
2472.9970468623833,1382
2474.825948263123,1318
2476.6544488437207,1305
2478.482548892508,1353
2480.310248697896,1282
2482.137548548374,1368
2483.9644487325118,1330
2485.790949538956,1362
2487.617051256433,1250
2489.44275417375,1357
2491.26805857979,1286
2493.0929647635157,1314
2494.917473013971,1359
2496.741583620276,1354
2498.5652968716304,1341
2500.3886130573137,1259
2502.2115324666834,1370
2504.0340553891765,1405
2505.856182114308,1340
2507.6779129316733,1336
2509.499248130945,1362
2511.3201880018764,1325
2513.140732834298,1323
2514.9608829181198,1309
2516.780638543331,1342
2518.6,1366
2520.418967578273,1295
2522.237541568376,1339
2524.0557222606144,1270
2525.8735099453706,1388
2527.6909049131086,1338
2529.507907454368,1404
2531.32451785977,1335
2533.140736420014,1390
2534.9565634258774,1318
2536.771999168218,1379
2538.5870439379714,1391
2540.4016980261526,1380
2542.2159617238544,1367
2544.02983532225,1432
2545.8433191125914,1400
2547.656413386209,1337
2549.4691184345115,1383
2551.2814345489874,1419
2553.093362021204,1426
2554.904901142808,1402
2556.716052205523,1386
2558.526815501153,1424
2560.3371913215824,1449
2562.147179958771,1406
2563.956781704761,1410
2565.7659968516705,1391
2567.5748256916986,1444
2569.3832685171224,1485
2571.1913256202984,1439
2572.9989972936614,1424
2574.806283829725,1429
2576.613185521084,1399
2578.4197026604074,1370
2580.2258355404483,1403
2582.031584454035,1454
2583.836949694077,1436
2585.6419315535613,1437
2587.4465303255533,1435
2589.2507463032002,1489
2591.0545797797245,1497
2592.8580310484303,1456
2594.6611004026995,1491
2596.463788135992,1495
2598.266094541849,1514
2600.0680199138874,1452
2601.869564545807,1412
2603.670728731383,1511
2605.4715127644704,1483
2607.2719169390048,1501
2609.071941548998,1476
2610.8715868885433,1476
2612.670853251811,1483
2614.469740933052,1466
2616.268250226594,1457
2618.0663814268455,1448
2619.864134828292,1479
2621.6615107255006,1426
2623.458509413115,1409
2625.2551311858597,1436
2627.0513763385347,1482
2628.8472451660223,1497
2630.6427379632833,1470
2632.4378550253564,1455
2634.232596647359,1407
2636.026963124488,1433
2637.8209547520187,1441
2639.6145718253065,1464
2641.407814639785,1469
2643.200683490966,1476
2644.9931786744414,1416
2646.7853004858807,1410
2648.577049221034,1436
2650.3684251757277,1438
2652.1594286458712,1379
2653.9500599274484,1431
2655.740319316525,1442
2657.5302071092437,1383
2659.3197236018286,1322
2661.10886909058,1354
2662.8976438718782,1413
2664.686048242183,1444
2666.4740824980327,1357
2668.2617469360443,1434
2670.0490418529134,1399
2671.8359675454153,1378
2673.622524310403,1388
2675.408712444811,1345
2677.1945322456495,1401
2678.979984010009,1356
2680.76506803506,1349
2682.5497846180497,1297
2684.334134056306,1364
2686.1181166472343,1353
2687.9017326883213,1327
2689.6849824771293,1293
2691.4678663113013,1346
2693.2503844885596,1385
2695.032537306705,1347
2696.8143250636167,1358
2698.5957480572542,1357
2700.3768065856534,1337
2702.1575009469316,1283
2703.937831439283,1367
2705.717798360982,1341
2707.4974020103837,1343
2709.276642685917,1379
2711.055520686095,1306
2712.834036309506,1294
2714.612189854819,1249
2716.389981620782,1343
2718.1674119062204,1330
2719.944481010041,1316
2721.721189231226,1323
2723.4975368688415,1324
2725.273524222027,1317
2727.0491515900053,1309
2728.824419272075,1297
2730.5993275676146,1250
2732.3738767760838,1239
2734.148067197016,1270
2735.921899130031,1292
2737.6953728748194,1324
2739.468488731156,1325
2741.2412469988926,1270
2743.0136479779617,1287
2744.785691968372,1282
2746.5573792702116,1320
2748.3287101836504,1323
2750.099685008934,1306
2751.870304046388,1202
2753.640567596418,1313
2755.4104759595057,1295
2757.1800294362156,1311
2758.949228327187,1324
2760.7180729331412,1314
2762.486563554877,1322
2764.254700493272,1233
2766.022484049284,1280
2767.789914523947,1348
2769.5569922183786,1325
2771.3237174337705,1290
2773.090090471394,1247
2774.8561116326036,1274
2776.6217812188274,1261
2778.3870995315756,1292
2780.1520668724356,1261
2781.9166835430747,1243
2783.6809498452394,1236
2785.444866080754,1285
2787.2084325515225,1306
2788.971649559527,1277
2790.73451740683,1224
2792.4970363955713,1305
2794.2592068279705,1288
2796.0210290063264,1327
2797.7825032330147,1273
2799.543629810493,1251
2801.304409041296,1277
2803.0648412280366,1297
2804.8249266734088,1280
2806.5846656801846,1284
2808.344058551212,1323
2810.1031055894246,1258
2811.8618070978273,1296
2813.6201633795085,1273
2815.378174737636,1230
2817.1358414754536,1303
2818.893163896285,1309
2820.6501423035334,1267
2822.4067770006814,1261
2824.1630682912883,1283
2825.9190164789957,1292
2827.6746218675207,1261
2829.429884760661,1300
2831.184805462294,1307
2832.9393842763743,1293
2834.693621506936,1355
2836.4475174580916,1279
2838.201072434034,1285
2839.954286739034,1231
2841.707160677441,1245
2843.459694553685,1205
2845.2118886722724,1282
2846.96374333779,1268
2848.7152588549034,1323
2850.4664355283567,1292
2852.217273662973,1262
2853.9677735636546,1302
2855.7179355353833,1345
2857.4677598832186,1267
2859.217246912299,1286
2860.9663969278427,1243
2862.715210235146,1257
2864.4636871395846,1281
2866.211827946614,1271
2867.9596329617652,1310
2869.7071024906536,1289
2871.4542368389684,1242
2873.20103631248,1243
2874.947501217038,1258
2876.6936318585695,1274
2878.4394285430812,1334
2880.1848915766604,1230
2881.9300212654707,1334
2883.6748179157553,1304
2885.4192818338374,1303
2887.1634133261173,1280
2888.907212699077,1275
2890.6506802592744,1292
2892.393816313348,1276
2894.1366211680142,1338
2895.8790951300693,1295
2897.621238506388,1266
2899.363051603925,1270
2901.1045347297118,1267
2902.8456881908596,1293
2904.58651229456,1249
2906.327007348081,1305
2908.067173658772,1278
2909.8070115340597,1282
2911.5465212814497,1314
2913.285703208527,1333
2915.0245576229563,1243
2916.7630848324807,1305
2918.5012851449196,1268
2920.2391588681758,1305
2921.976706310227,1268
2923.7139277791334,1283
2925.4508235830313,1272
2927.187394030137,1268
2928.923639428745,1265
2930.6595600872306,1304
2932.395156314046,1306
2934.1304284177218,1333
2935.8653767068713,1314
2937.6000014901815,1327
2939.3343030764227,1283
2941.068281774442,1266
2942.8019378931644,1293
2944.5352717415976,1322
2946.2682836288236,1277
2948.0009738640065,1289
2949.7333427563885,1274
2951.465390615289,1270
2953.1971177501086,1343
2954.9285244703265,1261
2956.6596110855,1254
2958.3903779052657,1283
2960.1208252393385,1305
2961.8509533975125,1233
2963.5807626896617,1301
2965.3102534257378,1286
2967.0394259157715,1275
2968.768280469873,1191
2970.496817398232,1309
2972.2250370111146,1274
2973.952939618869,1348
2975.6805255319196,1334
2977.4077950607707,1315
2979.134748516006,1298
2980.861386208289,1311
2982.587708448359,1318
2984.313715547037,1280
2986.039407815222,1288
2987.764785563891,1258
2989.489849104102,1290
2991.2145987469908,1331
2992.9390348037705,1321
2994.6631575857346,1238
2996.3869674042576,1213
2998.1104645707887,1228
2999.83364939686,1265
3001.5565221940783,1252
3003.2790832741334,1289
3005.0013329487924,1280
3006.7232715298996,1251
3008.4448993293804,1258
3010.166216659239,1262
3011.887223831558,1225
3013.607921158498,1253
3015.3283089522993,1246
3017.0483875252826,1275
3018.7681571898443,1279
3020.4876182584626,1247
3022.2067710436927,1261
3023.9256158581707,1221
3025.644153014609,1218
3027.362382825801,1316
3029.0803056046193,1246
3030.797921664012,1222
3032.5152313170106,1238
3034.2322348767225,1245
3035.9489326563353,1309
3037.665324969115,1279
3039.3814121284063,1227
3041.097194447633,1264
3042.812672240299,1306
3044.5278458199855,1307
3046.2427155003525,1237
3047.9572815951406,1301
3049.671544418167,1259
3051.38550428333,1233
3053.0991615046073,1271
3054.812516396051,1215
3056.5255692717974,1247
3058.2383204460575,1230
3059.9507702331257,1228
3061.662918947372,1212
3063.3747669032446,1282
3065.0863144152736,1287
3066.7975617980674,1312
3068.508509366309,1252
3070.219157434767,1272
3071.9295063182844,1282
3073.639556331785,1246
3075.3493077902704,1246
3077.058761008821,1236
3078.7679163025964,1225
3080.476773986837,1270
3082.1853343768594,1268
3083.89359778806,1256
3085.6015645359153,1314
3087.3092349359786,1305
3089.016609303884,1294
3090.7236879553434,1254
3092.4304712061476,1252
3094.136959372166,1270
3095.843152769349,1229
3097.5490517137237,1277
3099.2546565213966,1306
3100.959967508554,1285
3102.66498499146,1261
3104.3697092864577,1276
3106.0741407099695,1283
3107.778279578498,1274
3109.482126208622,1278
3111.1856809170004,1227
3112.8889440203716,1273
3114.5919158355528,1256
3116.294596679439,1277
3117.996986869006,1275
3119.6990867213062,1257
3121.4008965534726,1314
3123.102416682717,1269
3124.803647426329,1309
3126.5045891016784,1286
3128.205242026213,1269
3129.90560651746,1273
3131.605682893025,1260
3133.3054714705922,1324
3135.0049725679282,1286
3136.7041865028714,1254
3138.4031135933465,1271
3140.101754157353,1238
3141.800108512971,1238
3143.498176978357,1307
3145.1959598717494,1274
3146.8934575114636,1288
3148.5906702158954,1294
3150.2875983035183,1252
3151.9842420928853,1265
3153.680601902627,1298
3155.376678051456,1257
3157.07247085816,1242
3158.767980641609,1257
3160.463207720748,1250
3162.158152414606,1276
3163.8528150422862,1224
3165.5471959229726,1247
3167.2412953759303,1263
3168.9351137204976,1270
3170.628651276098,1266
3172.3219083622307,1185
3174.014885298474,1244
3175.707582404485,1254
3177.4000000000005,1323
3179.092138404835,1253
3180.7839979388846,1228
3182.47557892212,1247
3184.166881674594,1327
3185.8579065164386,1300
3187.5486537678626,1292
3189.2391237491547,1259
3190.9293167806827,1230
3192.6192331828934,1236
3194.3088732763117,1252
3195.998237381542,1280
3197.687325819268,1244
3199.376138910251,1276
3201.064676975334,1234
3202.7529403354347,1316
3204.4409293115523,1252
3206.1286442247647,1240
3207.816085396229,1233
3209.5032531471825,1267
3211.190147798936,1237
3212.8767696728846,1228
3214.5631190905015,1241
3216.2491963733373,1158
3217.9350018430214,1206
3219.6205358212637,1263
3221.305798629851,1244
3222.990790590651,1217
3224.6755120256103,1242
3226.359963256751,1176
3228.0441446061795,1207
3229.7280563960758,1149
3231.411698948703,1240
3233.0950725863995,1246
3234.778177631587,1238
3236.461014406761,1260
3238.1435832345005,1211
3239.8258844374595,1241
3241.507918338374,1232
3243.1896852600576,1228
3244.8711855254023,1196
3246.552419457381,1300
3248.233387379042,1252
3249.914089613516,1222
3251.59452648401,1265
3253.274698313813,1251
3254.95460542629,1251
3256.6342481448855,1226
3258.313626793125,1228
3259.9927416946084,1211
3261.6715931730196,1226
3263.3501815521176,1277
3265.0285071557437,1198
3266.706570307815,1211
3268.3843713323286,1222
3270.0619105533615,1249
3271.739188295068,1236
3273.4162048816834,1253
3275.0929606375184,1246
3276.769455886966,1264
3278.445690954498,1221
3280.1216661646613,1272
3281.797381842087,1339
3283.4728383114807,1285
3285.1480358976296,1259
3286.8229749253996,1236
3288.4976557197333,1205
3290.172078605655,1319
3291.846243908266,1254
3293.5201519527463,1258
3295.193803064357,1200
3296.8671975684374,1237
3298.5403357904024,1279
3300.21321805575,1239
3301.8858446900567,1223
3303.558216018975,1204
3305.23033236824,1220
3306.9021940636603,1254
3308.57380143113,1245
3310.2451547966184,1159
3311.916254486174,1282
3313.5871008259246,1261
3315.2576941420766,1323
3316.9280347609147,1279
3318.5981230088046,1281
3320.2679592121895,1234
3321.9375436975924,1216
3323.606876791612,1240
3325.27595882093,1232
3326.944790112305,1196
3328.6133709925753,1243
3330.2817017886573,1253
3331.949782827547,1215
3333.617614436319,1279
3335.2851969421245,1267
3336.952530672199,1286
3338.619615953853,1224
3340.286453114475,1289
3341.9530424815357,1235
3343.619384382583,1254
3345.2854791452437,1187
3346.951327097224,1212
3348.6169285663073,1266
3350.2822838803577,1249
3351.947393367319,1274
3353.61225735521,1245
3355.2768761721345,1257
3356.9412501462693,1295
3358.605379605873,1193
3360.2692648792827,1283
3361.9329062949146,1313
3363.596304181263,1228
