CollectionTime,7/9/2024 4:44:21 PM
ExposureUsed,3
CalibratedSpectrum
-962.7078968117929,639
-959.9714848408522,622
-957.2358232597828,672
-954.5009119013725,680
-951.7667505983302,681
-949.0333391832855,688
-946.3006774887896,660
-943.5687653473143,673
-940.837602591253,686
-938.1071890529199,702
-935.3775245645503,673
-932.6486089583007,688
-929.9204420662485,707
-927.1930237203925,674
-924.4663537526524,718
-921.7404319948689,702
-919.0152582788041,698
-916.2908324361409,767
-913.5671542984834,715
-910.8442236973568,670
-908.1220404642074,727
-905.4006044304027,692
-902.679915427231,705
-899.959973285902,708
-897.2407778375464,680
-894.5223289132158,694
-891.8046263438832,724
-889.0876699604426,704
-886.3714595937089,706
-883.6559950744183,699
-880.9412762332282,678
-878.2273029007168,659
-875.5140749073835,683
-872.8015920836489,687
-870.0898542598545,710
-867.3788612662631,637
-864.6686129330585,706
-861.9591090903457,690
-859.2503495681506,684
-856.5423341964203,718
-853.8350628050229,704
-851.1285352237478,701
-848.4227512823054,702
-845.7177108103272,694
-843.0134136373656,708
-840.3098595928943,686
-837.6070485063082,701
-834.9049802069229,745
-832.2036545239757,712
-829.5030712866244,698
-826.8032303239481,714
-824.1041314649472,728
-821.4057745385428,703
-818.7081593735775,747
-816.0112857988148,740
-813.3151536429393,731
-810.6197627345566,705
-807.9251129021936,728
-805.2312039742981,684
-802.5380357792392,766
-799.8456081453069,707
-797.1539209007124,720
-794.462973873588,739
-791.772766891987,753
-789.083299783884,726
-786.3945723771743,776
-783.7065844996748,749
-781.0193359791231,737
-778.3328266431781,752
-775.6470563194197,768
-772.9620248353489,729
-770.2777320183878,721
-767.5941776958798,754
-764.9113616950891,739
-762.2292838432011,777
-759.5479439673222,761
-756.8673418944801,746
-754.1874774516235,727
-751.5083504656222,758
-748.8299607632671,777
-746.15230817127,740
-743.475392516264,761
-740.7992136248035,756
-738.1237713233636,753
-735.4490654383407,720
-732.7750957960521,756
-730.1018622227365,788
-727.4293645445534,767
-724.7576025875837,745
-722.0865761778291,786
-719.4162851412126,763
-716.7467293035781,770
-714.0779084906909,777
-711.409822528237,771
-708.7424712418238,767
-706.0758544569796,786
-703.4099719991541,801
-700.7448236937178,805
-698.0804093659622,820
-695.4167288411002,801
-692.7537819442656,776
-690.0915685005134,778
-687.4300883348199,774
-684.7693412720819,766
-682.1093271371178,789
-679.4500457546669,831
-676.7914969493897,798
-674.1336805458676,813
-671.4765963686034,810
-668.8202442420206,836
-666.1646239904642,852
-663.5097354382001,783
-660.8555784094151,821
-658.2021527282176,841
-655.5494582186366,824
-652.8974947046223,825
-650.2462620100463,842
-647.5957599587009,871
-644.9459883742998,874
-642.2969470804776,846
-639.6486359007902,864
-637.0010546587141,879
-634.3542031776476,860
-631.7080812809096,827
-629.0626887917401,842
-626.4180255333008,881
-623.7740913286734,868
-621.1308860008619,851
-618.4884093727904,901
-615.8466612673046,884
-613.2056415071715,845
-610.5653499150785,871
-607.9257863136347,855
-605.28695052537,880
-602.6488423727357,881
-600.0114616781036,897
-597.3748082637674,884
-594.7388819519412,930
-592.1036825647604,929
-589.4692099242818,930
-586.8354638524829,927
-584.2024441712624,891
-581.5701507024403,918
-578.9385832677575,917
-576.3077416888759,914
-573.6776257873787,899
-571.0482353847704,880
-568.4195703024757,937
-565.7916303618415,974
-563.164415384135,896
-560.5379251905453,911
-557.9121596021815,870
-555.2871184400748,881
-552.6628015251767,912
-550.0392086783606,957
-547.4163397204204,900
-544.794194472071,936
-542.1727727539491,914
-539.5520743866118,892
-536.9320991905377,916
-534.3128469861261,992
-531.6943175936979,1007
-529.0765108334947,971
-526.4594265256793,1021
-523.8430644903358,1102
-521.2274245474689,1234
-518.612506517005,1305
-515.9983102187913,1280
-513.3848354725959,1269
-510.77208209810846,1303
-508.16004991493924,1439
-505.5487387426199,1480
-502.9381484006032,1595
-500.3282787082628,1570
-497.71912948489364,1505
-495.1107005497117,1446
-492.5029917218539,1355
-489.8960028203786,1202
-487.28973366426493,1193
-484.68418407241325,1122
-482.07935386364494,1076
-479.47524285670266,1074
-476.87185087025,1115
-474.2691777228715,1099
-471.66722323307334,1070
-469.0659872192821,1055
-466.4654694998459,1094
-463.86566989303384,1108
-461.26658821703614,1079
-458.66822428996414,1099
-456.07057792985,1099
-453.4736489546475,1074
-450.877437182231,1045
-448.28194243039627,1053
-445.68716451686,1072
-443.09310325926003,1061
-440.49975847515555,1024
-437.9071299820263,1072
-435.31521759727354,1047
-432.72402113821954,1083
-430.13354042210767,1093
-427.5437752661022,1085
-424.95472548728867,1050
-422.36639090267386,1088
-419.7787713291855,1155
-417.1918665836721,1119
-414.60567648290385,1159
-412.0202008435715,1122
-409.4354394822874,1143
-406.8513922155845,1146
-404.26805885991723,1147
-401.685439231661,1114
-399.103533147112,1131
-396.522340422488,1134
-393.9418608739278,1126
-391.3620943174908,1084
-388.7830405691583,1110
-386.2046994448317,1063
-383.6270707603344,1037
-381.05015433141045,950
-378.473949973725,942
-375.8984575028645,844
-373.32367673433623,763
-370.74960748356875,748
-368.1762495659117,655
-365.60360279663576,617
-363.03166699093265,565
-360.4604419639154,528
-357.8899275306178,491
-355.32012350599507,470
-352.7510297049233,465
-350.1826459421999,451
-347.61497203254316,454
-345.04800779059235,437
-342.4817530309082,432
-339.91620756797226,426
-337.35137121618743,455
-334.7872437898774,462
-332.22382510328725,470
-329.66111497058273,448
-327.09911320585127,433
-324.53781962310075,455
-321.9772340362607,469
-319.4173562591816,444
-316.8581861056348,451
-314.2997233893127,447
-311.7419679238294,455
-309.1849195227194,436
-306.62857799943856,466
-304.0729431673641,469
-301.51801483979375,483
-298.963792829947,479
-296.41027695096386,504
-293.85746701590574,475
-291.3053628377552,476
-288.7539642294155,492
-286.2032710037115,497
-283.65328297338897,482
-281.1039999511146,518
-278.5554217494762,527
-276.007548180983,490
-273.4603790580651,514
-270.9139141930734,528
-268.3681533982807,485
-265.8230964858798,507
-263.27874326798565,524
-260.7350935566336,518
-258.1921471637804,554
-255.6499039013039,530
-253.10836358100266,517
-250.56752601459698,505
-248.02739101372765,567
-245.48795838995704,553
-242.94922795476816,547
-240.41119951956557,556
-237.8738728956746,582
-235.33724789434166,607
-232.80132432673452,587
-230.2661020039418,552
-227.73158073697357,584
-225.19776033676033,620
-222.66464061415422,664
-220.1322213799284,633
-217.60050244477725,607
-215.06948361931552,543
-212.53916471408013,613
-210.00954553952818,599
-207.48062590603843,604
-204.9524056239104,601
-202.4248845033651,699
-199.8980623545441,675
-197.37193898751036,647
-194.84651421224817,677
-192.32178783866232,683
-189.79775967657952,638
-187.27442953574644,648
-184.7517972258321,710
-182.2298625564256,629
-179.7086253370378,688
-177.18808537710026,676
-174.66824248596583,676
-172.14909647290835,717
-169.6306471471229,773
-167.11289431772548,695
-164.59583779375328,652
-162.07947738416453,692
-159.5638128978386,690
-157.04884414357605,796
-154.53457093009854,989
-152.02099306604828,985
-149.50811035998936,804
-146.99592262040665,694
-144.48442965570587,726
-141.97363127421409,796
-139.46352728417958,975
-136.95411749377126,1213
-134.44540171107985,1183
-131.93737974411636,920
-129.43005140081357,862
-126.92341648902493,959
-124.41747481652521,1000
-121.91222619101006,1112
-119.40767042009657,1593
-116.90380731132257,1989
-114.40063667214702,1818
-111.8981583099503,1783
-109.3963720320337,2472
-106.89527764561933,3064
-104.39487495785067,2768
-101.89516377579241,2429
-99.39614390642998,2997
-96.89781515667039,4373
-94.40017733334128,4853
-91.90323024319173,3859
-89.40697369289148,2062
-86.91140748903172,2118
-84.41653143812482,3483
-81.92234534660395,4488
-79.42884902082358,4554
-76.93604226705907,5660
-74.4439248915071,8959
-71.95249670028534,12200
-69.46175749943245,13789
-66.97170709490854,13187
-64.48234529259423,12105
-61.99367189829195,10010
-59.50568671772464,7503
-57.01838955653636,6588
-54.53178022029283,7171
-52.045858514480074,7816
-49.560624244506016,8354
-47.07607721569923,9090
-44.59221723330904,9656
-42.10904410250669,8758
-39.62655762838392,7411
-37.14475761595372,6372
-34.66364387015028,6441
-32.18321619582866,6536
-29.70347439776515,6657
-27.224418280657005,6741
-24.74604764912317,7518
-22.26836230770266,11068
-19.7913620608565,20812
-17.315046712966478,37966
-14.83941606833514,55572
-12.36446993118659,65039
-9.89020810566592,65039
-7.416630395839093,65039
-4.94373660569363,65039
-2.471526539137585,65039
-6.821210263296962E-13,65039
2.47084320796705,65039
4.941003281093458,65039
7.410480415786196,65039
9.879274808531363,65039
12.347386655893956,65039
14.814816154518212,65039
17.28156350112681,65039
19.74762889252179,65039
22.21301252558385,65039
24.67771459727237,18451
27.141735304626195,3267
29.605074844762612,1858
32.06773341487792,1718
34.52971121224755,1651
36.99100843422559,1562
39.45162527824516,1309
41.91156194181792,1198
44.370818622535126,1172
46.82939551806646,1085
49.287292826160524,1091
51.74451074464503,1096
54.201049471426245,991
56.65690920448981,1028
59.112090141899785,926
61.56659248179983,867
64.02041642241159,947
66.4735621620365,953
68.92602989905402,942
71.37781983192338,929
73.82893215918205,910
76.27936707944684,930
78.72912479141326,985
81.17820549385567,956
83.62660938562783,903
86.07433666566146,938
88.5213875329681,782
90.96776218663751,793
93.41346082583925,782
95.85848364982041,858
98.30283085790859,786
100.7465026495089,824
103.18949922410604,906
105.63182078126385,878
108.07346752062438,1035
110.51443964190923,863
112.95473734491827,748
115.39436082953114,749
117.83331029570547,749
120.27158594347827,778
122.7091879729652,823
125.1461165843615,728
127.58237197794062,694
130.01795435405518,693
132.4528639131364,787
134.88710085569494,836
137.32066538231982,761
139.75355769367923,755
142.1857779905207,761
144.61732647366978,733
147.04820334403132,737
149.47840880258934,753
151.90794305040674,849
154.33680628862487,904
156.76499871846443,1040
159.19252054122433,1171
161.61937195828352,1354
164.04555317109896,1419
166.47106438120693,1619
168.89590579022217,1778
171.320077599839,1846
173.7435800118302,1946
176.16641322804742,1978
178.58857745042144,2117
181.01007288096173,2327
183.43089972175687,2320
185.85105817497413,2365
188.27054844285988,2315
190.6893707277394,2339
193.10752523201643,2390
195.5250121581745,2507
197.9418317087751,2616
200.3579840864594,2572
202.7734694939469,2571
205.18828813403627,2646
207.6024402096051,2698
210.01592592360964,2661
212.42874547908548,2774
214.84089907914665,2741
217.2523869269868,2688
219.66320922587727,2815
222.0733661791695,2680
224.48285799029293,2707
226.8916848627572,2718
229.29984700014882,2804
231.7073446061355,2865
234.11417788446204,2750
236.520347038953,2836
238.92585227351185,2770
241.33069379212054,2874
243.73487179884035,2931
246.1383864978112,2826
248.541238093252,2826
250.9434267894609,2887
253.34495279081432,2912
255.74581630176783,3039
258.1460175268563,2913
260.54555667069314,2934
262.9444339379703,2916
265.3426495334594,2891
267.7402036620107,2841
270.1370965285529,2847
272.53332833809407,2824
274.9288992957214,2782
277.32380960660055,2697
279.718059475976,2805
282.1116491091717,2779
284.5045787115897,2713
286.89684848871195,2755
289.2884586460981,2670
291.67940938938807,2789
294.0697009242996,2772
296.4593334566299,2687
298.84830719225477,2676
301.23662233712923,2649
303.6242790972866,2745
306.01127767884,2737
308.39761828798066,2639
310.78330113097934,2677
313.16832641418534,2645
315.5526943440269,2516
317.9364051270112,2565
320.3194589697242,2519
322.70185607883093,2556
325.0835966610754,2490
327.4646809232805,2584
329.8451090723478,2513
332.2248813152577,2534
334.6039978590701,2489
336.9824589109231,2521
339.36026467803447,2476
341.7374153677,2491
344.113911187295,2407
346.48975234427337,2513
348.8649390461686,2434
351.2394715005918,2480
353.61334991523415,2426
355.9865744978655,2539
358.35914545633375,2464
360.73106299856715,2454
363.10232733257146,2454
365.47293866643247,2476
367.84289720831396,2387
370.2122031664593,2370
372.5808567491905,2433
374.9488581649083,2411
377.31620762209275,2322
379.6829053293021,2356
382.0489514951745,2351
384.4143463284262,2368
386.7790900378528,2349
389.14318283232853,2324
391.50662492080653,2377
393.86941651231916,2296
396.23155781597745,2403
398.5930490409713,2311
400.9538903965696,2409
403.3140820921202,2261
405.6736243370498,2300
408.03251734086336,2393
410.3907613131465,2290
412.74835646356166,2310
415.10530300185144,2283
417.4616011378372,2344
419.81725108141893,2375
422.1722530425758,2315
424.5266072313656,2386
426.880313857925,2330
429.2333731324701,2311
431.58578526529516,2290
433.9375504667738,2313
436.2886689473588,2310
438.63914091758113,2395
440.9889665880513,2242
443.33814616945835,2340
445.68667987257015,2163
448.03456790823395,2304
450.3818104873759,2241
452.72840782100013,2241
455.07436012019105,2309
457.41966759611057,2312
459.7643304600007,2292
462.10834892318155,2331
464.4517231970525,2296
466.79445349309174,2268
469.1365400228566,2293
471.4779829979826,2264
473.81878263018564,2309
476.15893913125876,2250
478.4984527130747,2333
480.8373235875855,2366
483.17555196682144,2332
485.5131380628919,2384
487.8500820879857,2531
490.1863842543697,2580
492.52204477439034,2733
494.8570638604725,2831
497.1914417251204,2991
499.52517858091653,3290
501.85827464052306,3562
504.19073011668036,3701
506.5225452222086,3613
508.85372017000566,3569
511.18425517304956,3646
513.514150444396,3722
515.8434061971808,4363
518.1720226446176,5241
520.4999999999999,5447
522.8273384766991,5156
525.1540382881666,4690
527.480099647932,4154
529.8055227696037,3519
532.1303078668694,2989
534.454455153496,2691
536.777964843328,2474
539.1008371502907,2498
541.4230722883866,2440
543.744670471698,2418
546.0656319143858,2296
548.3859568306899,2412
550.7056454349294,2383
553.0246979415016,2380
555.3431145648834,2265
557.6608955196306,2343
559.978041020377,2193
562.2945512818363,2323
564.6104265188006,2389
566.9256669461412,2330
569.2402727788082,2321
571.5542442318302,2360
573.8675815203156,2337
576.1802848594508,2328
578.4923544645015,2368
580.8037905508126,2303
583.114593333807,2346
585.4247630289875,2372
587.7342998519354,2325
590.0432040183106,2390
592.3514757438526,2362
594.6591152443794,2409
596.9661227357875,2308
599.2724984340531,2405
601.578242555231,2401
603.8833553154542,2452
606.1878369309362,2364
608.4916876179676,2372
610.7949075929192,2358
613.0974970722403,2414
615.3994562724587,2332
617.7007854101818,2365
620.0014847020951,2370
622.3015543649641,2363
624.6009946156324,2339
626.8998056710224,2424
629.1979877481361,2408
631.4955410640538,2412
633.7924658359349,2350
636.0887622810175,2418
638.3844306166192,2412
640.6794710601358,2343
642.9738838290426,2497
645.2676691408932,2370
647.5608272133207,2442
649.853358264037,2491
652.1452625108324,2421
654.4365401715764,2486
656.7271914642178,2356
659.0172166067838,2424
661.3066158173809,2476
663.5953893141935,2423
665.8835373154867,2455
668.1710600396028,2440
670.4579577049639,2459
672.7442305300709,2416
675.0298787335033,2466
677.3149025339197,2459
679.599302150058,2426
681.8830778007342,2443
684.1662297048437,2370
686.4487580813608,2456
688.7306631493387,2410
691.0119451279091,2423
693.2926042362834,2451
695.5726406937516,2443
697.8520547196814,2432
700.1308465335215,2438
702.4090163547982,2442
704.6865644031171,2366
706.9634908981619,2426
709.2397960596965,2462
711.5154801075631,2404
713.7905432616823,2439
716.0649857420548,2389
718.3388077687592,2460
720.612009561953,2405
722.8845913418733,2371
725.1565533288352,2447
727.427895743234,2496
729.6986188055427,2504
731.9687227363137,2472
734.238207756178,2372
736.5070740858458,2413
738.7753219461066,2476
741.0429515578281,2451
743.3099631419569,2469
745.5763569195191,2507
747.8421331116193,2494
750.1072919394409,2534
752.3718336242467,2464
754.6357583873777,2529
756.8990664502545,2475
759.1617580343765,2537
761.423833361321,2445
763.6852926527457,2443
765.9461361303862,2478
768.206364016058,2466
770.4659765316536,2466
772.7249738991469,2496
774.9833563405886,2469
777.2411240781092,2468
779.4982773339183,2483
781.7548163303044,2475
784.010741289634,2457
786.2660524343538,2580
788.5207499869881,2609
790.7748341701416,2531
793.0283052064964,2583
795.2811633188143,2579
797.5334087299362,2543
799.7850416627813,2503
802.0360623403484,2506
804.2864709857143,2449
806.5362678220353,2510
808.7854530725468,2563
811.0340269605625,2555
813.2819897094754,2554
815.5293415427581,2555
817.77608268396,2554
820.0222133567116,2454
822.2677337847211,2560
824.5126441917765,2500
826.7569448017433,2552
829.0006358385675,2506
831.2437175262731,2559
833.4861900889629,2588
835.7280537508192,2456
837.9693087361026,2533
840.2099552691533,2515
842.4499935743896,2533
844.689423876309,2444
846.9282463994886,2466
849.1664613685833,2524
851.4040690083276,2529
853.6410695435349,2549
855.877463199097,2607
858.1132501999847,2505
860.3484307712487,2521
862.5830051380175,2524
864.8169735254988,2574
867.0503361589791,2642
869.2830932638243,2536
871.5152450654786,2591
873.7467917894654,2495
875.9777336613873,2594
878.2080709069252,2583
880.4378037518389,2608
882.666932421968,2616
884.8954571432301,2600
887.1233781416219,2730
889.3506956432192,2619
891.5774098741766,2550
893.803521060728,2706
896.0290294291852,2611
898.2539352059397,2590
900.4782386174619,2597
902.7019398903011,2571
904.925039251085,2629
907.147536926521,2590
909.3694331433943,2545
911.59072812857,2612
913.8114221089921,2547
916.0315153116827,2555
918.2510079637437,2512
920.4699002923547,2550
922.6881925247761,2503
924.905884888345,2548
927.1229776104793,2443
929.3394709186747,2547
931.555365040506,2432
933.7706602036275,2532
935.9853566357709,2564
938.1994545647489,2587
940.4129542184515,2611
942.6258558248488,2558
944.8381596119883,2523
947.0498658079974,2520
949.2609746410825,2571
951.4714863395287,2582
953.6814011316998,2527
955.8907192460387,2604
958.0994409110671,2589
960.3075663553858,2552
962.5150958076741,2498
964.7220294966913,2537
966.928367651274,2573
969.1341105003388,2508
971.3392582728806,2518
973.5438111979742,2498
975.747769504772,2488
977.9511334225061,2500
980.153903180487,2538
982.3560790081052,2537
984.5576611348289,2558
986.7586497902058,2451
988.9590452038618,2483
991.158847605503,2506
993.3580572249133,2477
995.5566742919558,2451
997.7546990365728,2408
999.952131688785,2467
1002.1489724786926,2427
1004.3452216364743,2397
1006.5408793923874,2366
1008.7359459767691,2320
1010.9304216200343,2401
1013.1243065526781,2306
1015.3176010052733,2367
1017.510305208472,2319
1019.7024193930064,2244
1021.8939437896848,2279
1024.0848786293977,2323
1026.2752241431122,2321
1028.4649805618747,2308
1030.6541481168115,2285
1032.842727039127,2238
1035.0307175601051,2237
1037.2181199111074,2246
1039.4049343235752,2265
1041.591161029029,2187
1043.7768002590683,2327
1045.9618522453698,2235
1048.1463172196918,2302
1050.3301954138697,2266
1052.513487059818,2276
1054.69619238953,2311
1056.8783116350783,2306
1059.0598450286152,2295
1061.2407928023704,2281
1063.4211551886528,2240
1065.6009324198508,2325
1067.780124728432,2295
1069.9587323469414,2212
1072.1367555080046,2337
1074.314194444325,2343
1076.4910493886855,2278
1078.667320573947,2221
1080.843008233051,2251
1083.0181125990161,2146
1085.1926339049414,2265
1087.3665723840027,2246
1089.5399282694575,2249
1091.7127017946405,2266
1093.8848931929647,2211
1096.0565026979243,2152
1098.2275305430899,2129
1100.3979769621128,2260
1102.567842188722,2221
1104.737126456726,2233
1106.9058300000124,2244
1109.0739530525475,2127
1111.2414958483764,2238
1113.4084586216231,2117
1115.5748416064907,2228
1117.7406450372605,2240
1119.9058691482942,2231
1122.0705141740304,2236
1124.2345803489884,2237
1126.3980679077658,2264
1128.5609770850388,2134
1130.7233081155623,2191
1132.8850612341707,2225
1135.0462366757774,2163
1137.2068346753745,2120
1139.3668554680326,2141
1141.526299288901,2250
1143.68516637321,2229
1145.8434569562655,2292
1148.001171273455,2213
1150.158309560244,2149
1152.3148720521767,2254
1154.470858984876,2165
1156.626270594044,2161
1158.7811071154629,2179
1160.9353687849912,2140
1163.089055838569,2195
1165.242168512213,2197
1167.3947070420209,2133
1169.5466716641677,2128
1171.6980626149075,2174
1173.8488801305748,2164
1175.9991244475814,2149
1178.1487958024186,2121
1180.2978944316555,2095
1182.4464205719428,2177
1184.5943744600072,2041
1186.7417563326567,2130
1188.8885664267755,2105
1191.0348049793297,2204
1193.1804722273619,2137
1195.325568407995,2179
1197.4700937584303,2131
1199.614048515948,2220
1201.7574329179074,2215
1203.900247201746,2169
1206.042491604982,2134
1208.1841663652099,2151
1210.3252717201053,2145
1212.465807907422,2224
1214.6057751649923,2226
1216.7451737307279,2214
1218.8840038426192,2187
1221.0222657387353,2208
1223.1599596572241,2180
1225.2970858363137,2242
1227.4336445143094,2138
1229.5696359295966,2263
1231.705060320639,2222
1233.8399179259786,2204
1235.9742089842384,2295
1238.107933734118,2247
1240.2410924143974,2246
1242.373685263935,2215
1244.5057125216676,2251
1246.6371744266116,2311
1248.7680712178621,2269
1250.898403134593,2244
1253.028170416058,2234
1255.1573733015875,2235
1257.2860120305932,2261
1259.4140868425648,2228
1261.54159797707,2262
1263.6685456737569,2227
1265.7949301723515,2271
1267.9207517126597,2288
1270.046010534565,2315
1272.1707068780306,2324
1274.2948409830983,2271
1276.4184130898889,2266
1278.541423438603,2320
1280.6638722695184,2239
1282.785759822993,2270
1284.9070863394636,2303
1287.0278520594447,2298
1289.1480572235314,2327
1291.2677020723963,2329
1293.3867868467923,2340
1295.5053117875495,2409
1297.623277135579,2335
1299.740683131868,2364
1301.8575300174857,2383
1303.973818033578,2369
1306.0895474213703,2360
1308.2047184221678,2430
1310.3193312773528,2336
1312.4333862283888,2409
1314.5468835168163,2400
1316.659823384255,2426
1318.7722060724045,2427
1320.8840318230418,2384
1322.9953008780249,2341
1325.1060134792888,2368
1327.2161698688478,2345
1329.3257702887959,2442
1331.4348149813054,2411
1333.5433041886276,2268
1335.6512381530933,2395
1337.7586171171101,2292
1339.8654413231675,2390
1341.9717110138317,2312
1344.0774264317488,2446
1346.1825878196432,2410
1348.2871954203192,2339
1350.3912494766587,2397
1352.4947502316231,2371
1354.5976979282532,2430
1356.7000928096686,2394
1358.8019351190665,2267
1360.9032250997243,2387
1363.0039629949988,2394
1365.1041490483235,2316
1367.2037835032133,2431
1369.3028666032606,2402
1371.401398592137,2315
1373.4993797135926,2366
1375.5968102114575,2443
1377.6936903296396,2383
1379.7900203121262,2356
1381.8858004029835,2480
1383.9810308463561,2391
1386.075711886469,2379
1388.1698437676241,2412
1390.2634267342032,2290
1392.356461030667,2394
1394.4489469015557,2476
1396.5408845914872,2423
1398.6322743451592,2422
1400.7231164073469,2444
1402.813411022907,2384
1404.903158436773,2390
1406.9923588939578,2376
1409.0810126395531,2309
1411.1691199187303,2343
1413.2566809767386,2380
1415.343696058907,2431
1417.4301654106425,2443
1419.5160892774315,2426
1421.6014679048399,2371
1423.6863015385125,2374
1425.7705904241707,2559
1427.8543348076178,2400
1429.9375349347342,2429
1432.0201910514802,2431
1434.102303403894,2466
1436.1838722380944,2439
1438.2648978002767,2558
1440.3453803367174,2515
1442.4253200937692,2449
1444.5047173178677,2466
1446.5835722555234,2579
1448.6618851533285,2498
1450.739656257952,2529
1452.8168858161434,2452
1454.8935740747306,2603
1456.96972128062,2646
1459.045327680797,2608
1461.120393522327,2611
1463.1949190523528,2648
1465.2689045180973,2581
1467.3423501668608,2632
1469.415256246024,2601
1471.4876230030463,2597
1473.559450685465,2732
1475.6307395408976,2661
1477.7014898170391,2782
1479.771701761665,2683
1481.8413756226287,2731
1483.9105116478618,2800
1485.9791100853772,2800
1488.0471711832643,2694
1490.1146951896926,2836
1492.1816823529098,2856
1494.2481329212433,2943
1496.3140471430984,2856
1498.3794252669609,2821
1500.4442675413939,2888
1502.5085742150404,2909
1504.572345536622,2881
1506.6355817549388,2846
1508.6982831188702,2958
1510.7604498773744,2936
1512.8220822794883,2975
1514.8831805743293,2910
1516.9437450110909,2910
1519.003775839048,2937
1521.0632733075522,2900
1523.1222376660367,3037
1525.1806691640113,2980
1527.2385680510652,2989
1529.2959345768668,3051
1531.3527689911643,3120
1533.4090715437833,3069
1535.4648424846291,3092
1537.5200820636855,3094
1539.5747905310159,3156
1541.6289681367616,3093
1543.6826151311434,3229
1545.7357317644614,3193
1547.7883182870937,3227
1549.8403749494987,3232
1551.8919020022113,3268
1553.9428996958477,3299
1555.9933682811015,3322
1558.0433080087469,3396
1560.0927191296346,3479
1562.1416018946961,3477
1564.1899565549415,3505
1566.2377833614592,3455
1568.2850825654164,3385
1570.3318544180606,3410
1572.3780991707158,3398
1574.423817074788,3280
1576.4690083817595,3329
1578.5136733431923,3171
1580.5578122107272,3188
1582.601425236085,3064
1584.6445126710646,2975
1586.6870747675434,2936
1588.7291117774776,2867
1590.7706239529034,2859
1592.8116115459347,2777
1594.8520748087658,2755
1596.8920139936686,2669
1598.9314293529933,2775
1600.9703211391711,2684
1603.008689604711,2641
1605.0465350022005,2646
1607.0838575843068,2538
1609.1206576037753,2531
1611.1569353134305,2519
1613.1926909661765,2560
1615.2279248149953,2583
1617.2626371129481,2438
1619.2968281131757,2480
1621.3304980688963,2404
1623.3636472334088,2496
1625.39627586009,2453
1627.428384202396,2413
1629.459972513861,2356
1631.4910410480993,2354
1633.5215900588028,2394
1635.551619799744,2397
1637.5811305247717,2325
1639.6101224878166,2410
1641.6385959428862,2351
1643.6665511440683,2322
1645.693988345528,2351
1647.7209078015112,2263
1649.7473097663405,2245
1651.7731944944203,2340
1653.7985622402307,2244
1655.823413258333,2358
1657.847747803366,2339
1659.8715661300494,2324
1661.8948684931793,2347
1663.9176551476316,2219
1665.9399263483624,2381
1667.9616823504057,2305
1669.982923408873,2291
1672.0036497789574,2239
1674.0238617159293,2293
1676.043559475138,2313
1678.0627433120121,2309
1680.081413482059,2264
1682.0995702408654,2240
1684.117213844096,2165
1686.134344547495,2290
1688.1509626068864,2324
1690.1670682781705,2327
1692.182661817329,2330
1694.1977434804217,2281
1696.2123135235875,2302
1698.226372203043,2256
1700.2399197750851,2257
1702.2529564960905,2277
1704.2654826225112,2297
1706.277498410882,2238
1708.2890041178139,2283
1710.2999999999988,2253
1712.3104863142066,2305
1714.3204633172854,2275
1716.329931266163,2282
1718.3388904178469,2303
1720.3473410294214,2283
1722.3552833580516,2285
1724.3627176609807,2267
1726.3696441955308,2303
1728.3760632191033,2310
1730.3819749891782,2267
1732.3873797633146,2247
1734.3922777991502,2311
1736.3966693544012,2304
1738.4005546868639,2322
1740.4039340544127,2209
1742.406807715001,2202
1744.4091759266616,2254
1746.4110389475054,2299
1748.4123970357223,2196
1750.413250449582,2160
1752.4135994474318,2243
1754.4134442876993,2245
1756.4127852288902,2218
1758.4116225295893,2261
1760.4099564484595,2235
1762.407787244244,2225
1764.405115175764,2279
1766.4019405019203,2191
1768.3982634816916,2316
1770.3940843741357,2248
1772.3894034383907,2248
1774.3842209336717,2271
1776.378537119274,2190
1778.372352254571,2223
1780.3656665990156,2223
1782.3584804121397,2306
1784.3507939535534,2234
1786.3426074829463,2204
1788.3339212600863,2212
1790.3247355448211,2215
1792.3150505970766,2266
1794.3048666768573,2143
1796.2941840442477,2202
1798.2830029594106,2239
1800.2713236825884,2156
1802.2591464741004,2250
1804.2464715943465,2223
1806.2332993038058,2169
1808.2196298630352,2241
1810.2054635326708,2211
1812.190800573428,2261
1814.175641246101,2205
1816.1599858115628,2212
1818.1438345307652,2267
1820.127187664738,2263
1822.1100454745924,2236
1824.092408221516,2236
1826.0742761667766,2237
1828.055649571721,2302
1830.0365286977735,2238
1832.0169138064398,2265
1833.9968051593014,2258
1835.9762030180214,2301
1837.9551076443408,2295
1839.9335193000788,2237
1841.9114382471344,2259
1843.888864747485,2233
1845.8657990631878,2267
1847.842241456378,2219
1849.8181921892697,2217
1851.7936515241558,2247
1853.7686197234098,2241
1855.7430970494815,2246
1857.7170837649014,2245
1859.6905801322787,2177
1861.6635864143004,2286
1863.6361028737338,2240
1865.608129773424,2253
1867.5796673762961,2211
1869.5507159453537,2238
1871.521275743678,2206
1873.4913470344313,2218
1875.4609300808534,2238
1877.4300251462632,2218
1879.3986324940588,2294
1881.366752387717,2302
1883.3343850907936,2253
1885.3015308669228,2294
1887.268189979819,2321
1889.2343626932739,2330
1891.2000492711595,2282
1893.1652499774254,2288
1895.1299650761011,2211
1897.0941948312952,2272
1899.0579395071945,2331
1901.0211993680641,2301
1902.98397467825,2295
1904.9462657021745,2300
1906.9080727043415,2291
1908.869395949332,2244
1910.8302357018065,2276
1912.790592226504,2331
1914.7504657882428,2245
1916.7098566519212,2226
1918.6687650825133,2243
1920.6271913450764,2226
1922.5851357047422,2324
1924.5425984267245,2225
1926.499579776314,2300
1928.4560800188833,2191
1930.4120994198802,2264
1932.367638244833,2279
1934.32269675935,2213
1936.2772752291175,2203
1938.231373919899,2329
1940.1849930975404,2198
1942.1381330279637,2271
1944.0907939771696,2317
1946.0429762112412,2294
1947.9946799963363,2304
1949.9459055986945,2315
1951.896653284633,2260
1953.8469233205478,2325
1955.7967159729142,2320
1957.7460315082863,2283
1959.6948701932974,2289
1961.6432322946594,2218
1963.5911180791632,2280
1965.5385278136787,2253
1967.4854617651545,2226
1969.4319202006182,2282
1971.377903387176,2269
1973.3234115920136,2323
1975.268445082395,2333
1977.2130041256642,2278
1979.1570889892423,2266
1981.1006999406304,2336
1983.04383724741,2353
1984.986501177238,2250
1986.928691997853,2272
1988.8704099770712,2335
1990.811655382789,2240
1992.7524284829801,2263
1994.692729545698,2309
1996.6325588390755,2249
1998.5719166313224,2177
2000.5108031907307,2349
2002.4492187856677,2220
2004.387163684583,2251
2006.3246381560011,2168
2008.2616424685298,2224
2010.1981768908527,2182
2012.1342416917332,2201
2014.069837140014,2213
2016.0049635046162,2210
2017.9396210545406,2240
2019.8738100588666,2236
2021.8075307867502,2262
2023.740783507431,2254
2025.6735684902228,2240
2027.6058860045214,2236
2029.5377363198004,2276
2031.4691197056118,2271
2033.4000364315875,2265
2035.3304867674374,2250
2037.260470982952,2300
2039.189989347998,2210
2041.1190421325232,2310
2043.047629606554,2289
2044.9757520401945,2224
2046.9034097036288,2254
2048.8306028671195,2307
2050.7573318010086,2300
2052.683596775716,2276
2054.609398061742,2268
2056.5347359296647,2236
2058.4596106501403,2280
2060.384022493906,2262
2062.3079717317764,2244
2064.231458634646,2305
2066.1544834734873,2308
2068.077046519352,2227
2069.99914804337,2309
2071.9207883167524,2294
2073.8419676107865,2272
2075.7626861968406,2273
2077.6829443463607,2266
2079.6027423308715,2308
2081.522080421977,2269
2083.440958891362,2318
2085.359378010786,2365
2087.2773380520907,2331
2089.194839287196,2264
2091.111881988101,2243
2093.0284664268825,2305
2094.9445928756973,2361
2096.86026160678,2264
2098.775472892446,2251
2100.690227005088,2309
2102.604524217178,2273
2104.5183648012676,2308
2106.431749029985,2265
2108.34467717604,2377
2110.2571495122206,2213
2112.169166311393,2311
2114.080727846503,2378
2115.9918343905747,2289
2117.902486216711,2275
2119.8126835980956,2263
2121.722426807987,2312
2123.6317161197285,2378
2125.5405518067364,2287
2127.448934142509,2320
2129.356863400624,2256
2131.264339854737,2410
2133.1713637785815,2337
2135.077935445972,2315
2136.9840551308002,2283
2138.889723107037,2365
2140.7949396487334,2264
2142.699705030018,2409
2144.6040195250994,2362
2146.507883408264,2328
2148.4112969538774,2389
2150.3142604363848,2426
2152.2167741303097,2335
2154.1188383102535,2416
2156.0204532508997,2335
2157.9216192270064,2314
2159.822336513414,2354
2161.7226053850413,2422
2163.622426116884,2329
2165.5217989840185,2365
2167.4207242616,2398
2169.319202224862,2356
2171.2172331491165,2397
2173.1148173097563,2411
2175.0119549822507,2421
2176.90864644215,2341
2178.8048919650823,2403
2180.7006918267534,2347
2182.596046302952,2375
2184.4909556695407,2418
2186.3854202024645,2415
2188.279440177746,2518
2190.173015871487,2495
2192.066147559868,2454
2193.958835519149,2377
2195.851080025667,2354
2197.7428813558417,2387
2199.6342397861667,2421
2201.5251555932186,2354
2203.415629053651,2414
2205.3056604441986,2451
2207.19525004167,2434
2209.084398122958,2464
2210.9731049650327,2361
2212.861370844941,2401
2214.749196039812,2383
2216.636580826851,2417
2218.523525483344,2355
2220.410030286655,2435
2222.296095514226,2453
2224.1817214435805,2418
2226.066908352319,2551
2227.951656518121,2473
2229.835966218746,2406
2231.71983773203,2387
2233.6032713358913,2400
2235.486267308324,2423
2237.3688259274036,2461
2239.2509474712824,2407
2241.132632218193,2473
2243.013880446447,2518
2244.8946924344323,2460
2246.7750684606203,2396
2248.6550088035574,2397
2250.534513741871,2472
2252.413583554265,2453
2254.292218519526,2429
2256.170418916517,2407
2258.0481850241786,2428
2259.925517121534,2407
2261.8024154876825,2412
2263.678880401803,2402
2265.5549121431536,2425
2267.430510991071,2423
2269.305677224971,2368
2271.180411124348,2387
2273.0547129687766,2452
2274.9285830379076,2407
2276.8020216114737,2403
2278.6750289692845,2455
2280.5476053912294,2393
2282.4197511572766,2435
2284.2914665474727,2455
2286.162751841943,2395
2288.0336073208937,2438
2289.904033264608,2492
2291.774029953448,2443
2293.6435976678554,2416
2295.5127366883517,2437
2297.381447295534,2523
2299.2497297700825,2362
2301.1175843927526,2359
2302.9850114443825,2350
2304.852011205885,2311
2306.7185839582553,2322
2308.5847299825664,2329
2310.4504495599676,2277
2312.3157429716925,2251
2314.1806104990483,2229
2316.0450524234247,2329
2317.9090690262888,2314
2319.772660589186,2321
2321.635827393742,2335
2323.498569721661,2269
2325.3608878547248,2345
2327.2227820747967,2238
2329.0842526638157,2275
2330.945299903803,2248
2332.805924076857,2292
2334.6661254651535,2258
2336.525904350951,2247
2338.3852610165827,2220
2340.244195744464,2245
2342.102708817088,2235
2343.9608005170253,2249
2345.8184711269287,2323
2347.675720929526,2207
2349.532550207628,2215
2351.38895924412,2256
2353.24494832197,2220
2355.100517724223,2370
2356.955667734004,2304
2358.810398634514,2357
2360.664710709037,2344
2362.5186042409337,2218
2364.3720795136437,2256
2366.225136810686,2247
2368.0777764156583,2376
2369.929998612237,2262
2371.7818036841777,2312
2373.633191915315,2273
2375.484163589562,2323
2377.3347189909114,2291
2379.184858403434,2307
2381.03458211128,2330
2382.8838903986775,2266
2384.732783549936,2301
2386.5812618494406,2220
2388.4293255816588,2306
2390.2769750311327,2337
2392.1242104824883,2274
2393.971032220427,2290
2395.8174405297295,2210
2397.6634356952563,2272
2399.509018001947,2263
2401.3541877348193,2322
2403.1989451789705,2322
2405.043290619576,2237
2406.8872243418905,2260
2408.730746631247,2312
2410.5738577730594,2249
2412.4165580528183,2373
2414.258847756095,2267
2416.100727168537,2299
2417.9421965758734,2331
2419.783256263912,2316
2421.623906518538,2361
2423.4641476257157,2298
2425.303979871491,2281
2427.143403541984,2274
2428.9824189233977,2287
2430.821026302012,2368
2432.6592259641866,2317
2434.497018196361,2340
2436.33440328505,2313
2438.171381516851,2353
2440.00795317844,2273
2441.844118556569,2323
2443.6798779380724,2355
2445.5152316098606,2260
2447.3501798589255,2359
2449.1847229723357,2406
2451.0188612372403,2336
2452.8525949408663,2329
2454.6859243705203,2316
2456.518849813587,2301
2458.3513715575314,2400
2460.183489889895,2321
2462.015205098301,2340
2463.8465174704493,2342
2465.67742729412,2253
2467.5079348571717,2279
2469.338040447542,2296
2471.1677443532476,2316
2472.9970468623833,2365
2474.825948263123,2397
2476.6544488437207,2392
2478.482548892508,2315
2480.310248697896,2282
2482.137548548374,2283
2483.9644487325118,2318
2485.790949538956,2352
2487.617051256433,2395
2489.44275417375,2298
2491.26805857979,2362
2493.0929647635157,2359
2494.917473013971,2339
2496.741583620276,2348
2498.5652968716304,2367
2500.3886130573137,2351
2502.2115324666834,2417
2504.0340553891765,2338
2505.856182114308,2420
2507.6779129316733,2397
2509.499248130945,2336
2511.3201880018764,2312
2513.140732834298,2380
2514.9608829181198,2379
2516.780638543331,2394
2518.6,2424
2520.418967578273,2382
2522.237541568376,2423
2524.0557222606144,2325
2525.8735099453706,2424
2527.6909049131086,2478
2529.507907454368,2350
2531.32451785977,2375
2533.140736420014,2441
2534.9565634258774,2359
2536.771999168218,2437
2538.5870439379714,2397
2540.4016980261526,2351
2542.2159617238544,2501
2544.02983532225,2487
2545.8433191125914,2405
2547.656413386209,2460
2549.4691184345115,2488
2551.2814345489874,2453
2553.093362021204,2425
2554.904901142808,2498
2556.716052205523,2395
2558.526815501153,2432
2560.3371913215824,2482
2562.147179958771,2468
2563.956781704761,2498
2565.7659968516705,2444
2567.5748256916986,2438
2569.3832685171224,2535
2571.1913256202984,2491
2572.9989972936614,2490
2574.806283829725,2527
2576.613185521084,2430
2578.4197026604074,2426
2580.2258355404483,2470
2582.031584454035,2501
2583.836949694077,2436
2585.6419315535613,2447
2587.4465303255533,2456
2589.2507463032002,2402
2591.0545797797245,2611
2592.8580310484303,2551
2594.6611004026995,2575
2596.463788135992,2521
2598.266094541849,2509
2600.0680199138874,2442
2601.869564545807,2476
2603.670728731383,2527
2605.4715127644704,2614
2607.2719169390048,2497
2609.071941548998,2487
2610.8715868885433,2561
2612.670853251811,2528
2614.469740933052,2564
2616.268250226594,2498
2618.0663814268455,2501
2619.864134828292,2620
2621.6615107255006,2448
2623.458509413115,2548
2625.2551311858597,2576
2627.0513763385347,2521
2628.8472451660223,2487
2630.6427379632833,2542
2632.4378550253564,2528
2634.232596647359,2449
2636.026963124488,2371
2637.8209547520187,2455
2639.6145718253065,2442
2641.407814639785,2392
2643.200683490966,2451
2644.9931786744414,2445
2646.7853004858807,2452
2648.577049221034,2453
2650.3684251757277,2519
2652.1594286458712,2457
2653.9500599274484,2432
2655.740319316525,2400
2657.5302071092437,2455
2659.3197236018286,2381
2661.10886909058,2467
2662.8976438718782,2509
2664.686048242183,2428
2666.4740824980327,2364
2668.2617469360443,2458
2670.0490418529134,2485
2671.8359675454153,2424
2673.622524310403,2486
2675.408712444811,2470
2677.1945322456495,2383
2678.979984010009,2367
2680.76506803506,2486
2682.5497846180497,2474
2684.334134056306,2458
2686.1181166472343,2309
2687.9017326883213,2333
2689.6849824771293,2452
2691.4678663113013,2330
2693.2503844885596,2321
2695.032537306705,2377
2696.8143250636167,2454
2698.5957480572542,2428
2700.3768065856534,2348
2702.1575009469316,2333
2703.937831439283,2334
2705.717798360982,2343
2707.4974020103837,2348
2709.276642685917,2336
2711.055520686095,2360
2712.834036309506,2346
2714.612189854819,2238
2716.389981620782,2319
2718.1674119062204,2463
2719.944481010041,2334
2721.721189231226,2289
2723.4975368688415,2336
2725.273524222027,2273
2727.0491515900053,2345
2728.824419272075,2263
2730.5993275676146,2319
2732.3738767760838,2373
2734.148067197016,2335
2735.921899130031,2334
2737.6953728748194,2314
2739.468488731156,2314
2741.2412469988926,2318
2743.0136479779617,2315
2744.785691968372,2348
2746.5573792702116,2360
2748.3287101836504,2298
2750.099685008934,2319
2751.870304046388,2332
2753.640567596418,2355
2755.4104759595057,2330
2757.1800294362156,2252
2758.949228327187,2349
2760.7180729331412,2370
2762.486563554877,2380
2764.254700493272,2332
2766.022484049284,2350
2767.789914523947,2294
2769.5569922183786,2399
2771.3237174337705,2349
2773.090090471394,2426
2774.8561116326036,2373
2776.6217812188274,2316
2778.3870995315756,2319
2780.1520668724356,2386
2781.9166835430747,2368
2783.6809498452394,2375
2785.444866080754,2411
2787.2084325515225,2337
2788.971649559527,2434
2790.73451740683,2396
2792.4970363955713,2367
2794.2592068279705,2373
2796.0210290063264,2344
2797.7825032330147,2414
2799.543629810493,2336
2801.304409041296,2364
2803.0648412280366,2405
2804.8249266734088,2371
2806.5846656801846,2365
2808.344058551212,2320
2810.1031055894246,2422
2811.8618070978273,2304
2813.6201633795085,2366
2815.378174737636,2365
2817.1358414754536,2262
2818.893163896285,2276
2820.6501423035334,2466
2822.4067770006814,2321
2824.1630682912883,2361
2825.9190164789957,2398
2827.6746218675207,2355
2829.429884760661,2332
2831.184805462294,2365
2832.9393842763743,2340
2834.693621506936,2384
2836.4475174580916,2403
2838.201072434034,2419
2839.954286739034,2383
2841.707160677441,2392
2843.459694553685,2353
2845.2118886722724,2342
2846.96374333779,2424
2848.7152588549034,2426
2850.4664355283567,2387
2852.217273662973,2340
2853.9677735636546,2358
2855.7179355353833,2451
2857.4677598832186,2377
2859.217246912299,2376
2860.9663969278427,2410
2862.715210235146,2349
2864.4636871395846,2337
2866.211827946614,2398
2867.9596329617652,2310
2869.7071024906536,2246
2871.4542368389684,2359
2873.20103631248,2343
2874.947501217038,2292
2876.6936318585695,2363
2878.4394285430812,2420
2880.1848915766604,2342
2881.9300212654707,2391
2883.6748179157553,2251
2885.4192818338374,2443
2887.1634133261173,2368
2888.907212699077,2225
2890.6506802592744,2427
2892.393816313348,2395
2894.1366211680142,2420
2895.8790951300693,2359
2897.621238506388,2428
2899.363051603925,2361
2901.1045347297118,2333
2902.8456881908596,2370
2904.58651229456,2346
2906.327007348081,2392
2908.067173658772,2317
2909.8070115340597,2354
2911.5465212814497,2389
2913.285703208527,2371
2915.0245576229563,2308
2916.7630848324807,2315
2918.5012851449196,2286
2920.2391588681758,2336
2921.976706310227,2382
2923.7139277791334,2291
2925.4508235830313,2412
2927.187394030137,2368
2928.923639428745,2401
2930.6595600872306,2383
2932.395156314046,2385
2934.1304284177218,2344
2935.8653767068713,2339
2937.6000014901815,2381
2939.3343030764227,2424
2941.068281774442,2355
2942.8019378931644,2405
2944.5352717415976,2401
2946.2682836288236,2431
2948.0009738640065,2398
2949.7333427563885,2503
2951.465390615289,2446
2953.1971177501086,2413
2954.9285244703265,2413
2956.6596110855,2423
2958.3903779052657,2432
2960.1208252393385,2414
2961.8509533975125,2368
2963.5807626896617,2424
2965.3102534257378,2395
2967.0394259157715,2379
2968.768280469873,2393
2970.496817398232,2415
2972.2250370111146,2401
2973.952939618869,2348
2975.6805255319196,2414
2977.4077950607707,2433
2979.134748516006,2398
2980.861386208289,2463
2982.587708448359,2458
2984.313715547037,2404
2986.039407815222,2413
2987.764785563891,2436
2989.489849104102,2449
2991.2145987469908,2403
2992.9390348037705,2435
2994.6631575857346,2393
2996.3869674042576,2339
2998.1104645707887,2352
2999.83364939686,2403
3001.5565221940783,2380
3003.2790832741334,2456
3005.0013329487924,2406
3006.7232715298996,2404
3008.4448993293804,2323
3010.166216659239,2377
3011.887223831558,2354
3013.607921158498,2409
3015.3283089522993,2435
3017.0483875252826,2469
3018.7681571898443,2358
3020.4876182584626,2351
3022.2067710436927,2346
3023.9256158581707,2383
3025.644153014609,2396
3027.362382825801,2408
3029.0803056046193,2436
3030.797921664012,2366
3032.5152313170106,2435
3034.2322348767225,2395
3035.9489326563353,2400
3037.665324969115,2355
3039.3814121284063,2364
3041.097194447633,2399
3042.812672240299,2392
3044.5278458199855,2500
3046.2427155003525,2481
3047.9572815951406,2463
3049.671544418167,2423
3051.38550428333,2423
3053.0991615046073,2391
3054.812516396051,2378
3056.5255692717974,2353
3058.2383204460575,2359
3059.9507702331257,2385
3061.662918947372,2347
3063.3747669032446,2423
3065.0863144152736,2451
3066.7975617980674,2371
3068.508509366309,2419
3070.219157434767,2364
3071.9295063182844,2415
3073.639556331785,2426
3075.3493077902704,2395
3077.058761008821,2409
3078.7679163025964,2371
3080.476773986837,2481
3082.1853343768594,2443
3083.89359778806,2426
3085.6015645359153,2435
3087.3092349359786,2350
3089.016609303884,2411
3090.7236879553434,2435
3092.4304712061476,2452
3094.136959372166,2448
3095.843152769349,2376
3097.5490517137237,2404
3099.2546565213966,2423
3100.959967508554,2414
3102.66498499146,2432
3104.3697092864577,2465
3106.0741407099695,2431
3107.778279578498,2423
3109.482126208622,2376
3111.1856809170004,2364
3112.8889440203716,2441
3114.5919158355528,2479
3116.294596679439,2405
3117.996986869006,2460
3119.6990867213062,2366
3121.4008965534726,2424
3123.102416682717,2411
3124.803647426329,2437
3126.5045891016784,2437
3128.205242026213,2414
3129.90560651746,2470
3131.605682893025,2437
3133.3054714705922,2419
3135.0049725679282,2445
3136.7041865028714,2372
3138.4031135933465,2410
3140.101754157353,2440
3141.800108512971,2451
3143.498176978357,2459
3145.1959598717494,2420
3146.8934575114636,2530
3148.5906702158954,2395
3150.2875983035183,2472
3151.9842420928853,2498
3153.680601902627,2450
3155.376678051456,2414
3157.07247085816,2444
3158.767980641609,2403
3160.463207720748,2421
3162.158152414606,2469
3163.8528150422862,2478
3165.5471959229726,2493
3167.2412953759303,2476
3168.9351137204976,2538
3170.628651276098,2437
3172.3219083622307,2506
3174.014885298474,2497
3175.707582404485,2571
3177.4000000000005,2488
3179.092138404835,2480
3180.7839979388846,2521
3182.47557892212,2433
3184.166881674594,2421
3185.8579065164386,2496
3187.5486537678626,2458
3189.2391237491547,2463
3190.9293167806827,2504
3192.6192331828934,2525
3194.3088732763117,2481
3195.998237381542,2500
3197.687325819268,2401
3199.376138910251,2502
3201.064676975334,2465
3202.7529403354347,2499
3204.4409293115523,2453
3206.1286442247647,2430
3207.816085396229,2401
3209.5032531471825,2416
3211.190147798936,2445
3212.8767696728846,2393
3214.5631190905015,2367
3216.2491963733373,2426
3217.9350018430214,2386
3219.6205358212637,2421
3221.305798629851,2343
3222.990790590651,2363
3224.6755120256103,2371
3226.359963256751,2350
3228.0441446061795,2382
3229.7280563960758,2372
3231.411698948703,2463
3233.0950725863995,2454
3234.778177631587,2477
3236.461014406761,2427
3238.1435832345005,2453
3239.8258844374595,2463
3241.507918338374,2513
3243.1896852600576,2486
3244.8711855254023,2483
3246.552419457381,2427
3248.233387379042,2435
3249.914089613516,2432
3251.59452648401,2481
3253.274698313813,2467
3254.95460542629,2473
3256.6342481448855,2428
3258.313626793125,2501
3259.9927416946084,2383
3261.6715931730196,2359
3263.3501815521176,2444
3265.0285071557437,2390
3266.706570307815,2439
3268.3843713323286,2398
3270.0619105533615,2431
3271.739188295068,2407
3273.4162048816834,2428
3275.0929606375184,2439
3276.769455886966,2441
3278.445690954498,2487
3280.1216661646613,2428
3281.797381842087,2532
3283.4728383114807,2482
3285.1480358976296,2471
3286.8229749253996,2386
3288.4976557197333,2474
3290.172078605655,2376
3291.846243908266,2401
3293.5201519527463,2475
3295.193803064357,2532
3296.8671975684374,2425
3298.5403357904024,2392
3300.21321805575,2434
3301.8858446900567,2426
3303.558216018975,2415
3305.23033236824,2452
3306.9021940636603,2433
3308.57380143113,2459
3310.2451547966184,2416
3311.916254486174,2422
3313.5871008259246,2454
3315.2576941420766,2512
3316.9280347609147,2424
3318.5981230088046,2373
3320.2679592121895,2423
3321.9375436975924,2428
3323.606876791612,2438
3325.27595882093,2376
3326.944790112305,2374
3328.6133709925753,2424
3330.2817017886573,2423
3331.949782827547,2437
3333.617614436319,2390
3335.2851969421245,2434
3336.952530672199,2446
3338.619615953853,2451
3340.286453114475,2482
3341.9530424815357,2559
3343.619384382583,2619
3345.2854791452437,2512
3346.951327097224,2507
3348.6169285663073,2462
3350.2822838803577,2453
3351.947393367319,2468
3353.61225735521,2485
3355.2768761721345,2458
3356.9412501462693,2437
3358.605379605873,2535
3360.2692648792827,2507
3361.9329062949146,2545
3363.596304181263,2423
