CollectionTime,7/9/2024 4:44:28 PM
ExposureUsed,3
CalibratedSpectrum
-962.7078968117929,671
-959.9714848408522,715
-957.2358232597828,731
-954.5009119013725,732
-951.7667505983302,750
-949.0333391832855,758
-946.3006774887896,776
-943.5687653473143,781
-940.837602591253,724
-938.1071890529199,756
-935.3775245645503,780
-932.6486089583007,776
-929.9204420662485,789
-927.1930237203925,782
-924.4663537526524,755
-921.7404319948689,796
-919.0152582788041,785
-916.2908324361409,813
-913.5671542984834,755
-910.8442236973568,759
-908.1220404642074,746
-905.4006044304027,763
-902.679915427231,795
-899.959973285902,714
-897.2407778375464,774
-894.5223289132158,762
-891.8046263438832,779
-889.0876699604426,767
-886.3714595937089,784
-883.6559950744183,770
-880.9412762332282,781
-878.2273029007168,745
-875.5140749073835,734
-872.8015920836489,749
-870.0898542598545,799
-867.3788612662631,796
-864.6686129330585,751
-861.9591090903457,780
-859.2503495681506,753
-856.5423341964203,767
-853.8350628050229,773
-851.1285352237478,763
-848.4227512823054,742
-845.7177108103272,749
-843.0134136373656,785
-840.3098595928943,799
-837.6070485063082,796
-834.9049802069229,783
-832.2036545239757,789
-829.5030712866244,793
-826.8032303239481,815
-824.1041314649472,806
-821.4057745385428,792
-818.7081593735775,795
-816.0112857988148,772
-813.3151536429393,798
-810.6197627345566,760
-807.9251129021936,772
-805.2312039742981,813
-802.5380357792392,783
-799.8456081453069,825
-797.1539209007124,798
-794.462973873588,770
-791.772766891987,838
-789.083299783884,819
-786.3945723771743,828
-783.7065844996748,814
-781.0193359791231,826
-778.3328266431781,819
-775.6470563194197,781
-772.9620248353489,848
-770.2777320183878,793
-767.5941776958798,812
-764.9113616950891,816
-762.2292838432011,834
-759.5479439673222,823
-756.8673418944801,850
-754.1874774516235,818
-751.5083504656222,829
-748.8299607632671,859
-746.15230817127,839
-743.475392516264,853
-740.7992136248035,864
-738.1237713233636,858
-735.4490654383407,879
-732.7750957960521,824
-730.1018622227365,880
-727.4293645445534,853
-724.7576025875837,832
-722.0865761778291,836
-719.4162851412126,866
-716.7467293035781,863
-714.0779084906909,863
-711.409822528237,862
-708.7424712418238,874
-706.0758544569796,898
-703.4099719991541,924
-700.7448236937178,928
-698.0804093659622,894
-695.4167288411002,879
-692.7537819442656,908
-690.0915685005134,908
-687.4300883348199,908
-684.7693412720819,972
-682.1093271371178,904
-679.4500457546669,904
-676.7914969493897,923
-674.1336805458676,870
-671.4765963686034,915
-668.8202442420206,886
-666.1646239904642,929
-663.5097354382001,883
-660.8555784094151,904
-658.2021527282176,874
-655.5494582186366,919
-652.8974947046223,917
-650.2462620100463,919
-647.5957599587009,915
-644.9459883742998,958
-642.2969470804776,983
-639.6486359007902,940
-637.0010546587141,979
-634.3542031776476,936
-631.7080812809096,893
-629.0626887917401,942
-626.4180255333008,921
-623.7740913286734,943
-621.1308860008619,932
-618.4884093727904,908
-615.8466612673046,920
-613.2056415071715,1009
-610.5653499150785,1002
-607.9257863136347,953
-605.28695052537,1012
-602.6488423727357,990
-600.0114616781036,946
-597.3748082637674,987
-594.7388819519412,1008
-592.1036825647604,956
-589.4692099242818,948
-586.8354638524829,958
-584.2024441712624,957
-581.5701507024403,970
-578.9385832677575,989
-576.3077416888759,987
-573.6776257873787,1021
-571.0482353847704,976
-568.4195703024757,1007
-565.7916303618415,1027
-563.164415384135,1019
-560.5379251905453,991
-557.9121596021815,986
-555.2871184400748,1012
-552.6628015251767,1052
-550.0392086783606,1054
-547.4163397204204,1046
-544.794194472071,1013
-542.1727727539491,1023
-539.5520743866118,988
-536.9320991905377,1020
-534.3128469861261,1117
-531.6943175936979,1051
-529.0765108334947,1073
-526.4594265256793,1144
-523.8430644903358,1285
-521.2274245474689,1354
-518.612506517005,1369
-515.9983102187913,1417
-513.3848354725959,1371
-510.77208209810846,1444
-508.16004991493924,1470
-505.5487387426199,1551
-502.9381484006032,1637
-500.3282787082628,1641
-497.71912948489364,1628
-495.1107005497117,1425
-492.5029917218539,1419
-489.8960028203786,1353
-487.28973366426493,1262
-484.68418407241325,1217
-482.07935386364494,1255
-479.47524285670266,1239
-476.87185087025,1197
-474.2691777228715,1201
-471.66722323307334,1205
-469.0659872192821,1196
-466.4654694998459,1185
-463.86566989303384,1192
-461.26658821703614,1179
-458.66822428996414,1235
-456.07057792985,1191
-453.4736489546475,1184
-450.877437182231,1201
-448.28194243039627,1143
-445.68716451686,1173
-443.09310325926003,1106
-440.49975847515555,1145
-437.9071299820263,1151
-435.31521759727354,1167
-432.72402113821954,1210
-430.13354042210767,1221
-427.5437752661022,1178
-424.95472548728867,1201
-422.36639090267386,1165
-419.7787713291855,1238
-417.1918665836721,1288
-414.60567648290385,1248
-412.0202008435715,1210
-409.4354394822874,1206
-406.8513922155845,1271
-404.26805885991723,1296
-401.685439231661,1318
-399.103533147112,1288
-396.522340422488,1224
-393.9418608739278,1216
-391.3620943174908,1221
-388.7830405691583,1162
-386.2046994448317,1095
-383.6270707603344,1083
-381.05015433141045,1045
-378.473949973725,983
-375.8984575028645,930
-373.32367673433623,831
-370.74960748356875,736
-368.1762495659117,706
-365.60360279663576,598
-363.03166699093265,570
-360.4604419639154,536
-357.8899275306178,503
-355.32012350599507,475
-352.7510297049233,443
-350.1826459421999,468
-347.61497203254316,444
-345.04800779059235,420
-342.4817530309082,450
-339.91620756797226,428
-337.35137121618743,435
-334.7872437898774,449
-332.22382510328725,445
-329.66111497058273,429
-327.09911320585127,436
-324.53781962310075,469
-321.9772340362607,477
-319.4173562591816,461
-316.8581861056348,446
-314.2997233893127,440
-311.7419679238294,438
-309.1849195227194,431
-306.62857799943856,433
-304.0729431673641,460
-301.51801483979375,493
-298.963792829947,485
-296.41027695096386,487
-293.85746701590574,505
-291.3053628377552,480
-288.7539642294155,483
-286.2032710037115,509
-283.65328297338897,504
-281.1039999511146,523
-278.5554217494762,509
-276.007548180983,461
-273.4603790580651,529
-270.9139141930734,509
-268.3681533982807,507
-265.8230964858798,498
-263.27874326798565,521
-260.7350935566336,503
-258.1921471637804,565
-255.6499039013039,531
-253.10836358100266,513
-250.56752601459698,522
-248.02739101372765,526
-245.48795838995704,577
-242.94922795476816,584
-240.41119951956557,549
-237.8738728956746,562
-235.33724789434166,606
-232.80132432673452,571
-230.2661020039418,532
-227.73158073697357,572
-225.19776033676033,631
-222.66464061415422,639
-220.1322213799284,642
-217.60050244477725,621
-215.06948361931552,592
-212.53916471408013,630
-210.00954553952818,647
-207.48062590603843,631
-204.9524056239104,614
-202.4248845033651,675
-199.8980623545441,713
-197.37193898751036,713
-194.84651421224817,721
-192.32178783866232,716
-189.79775967657952,646
-187.27442953574644,717
-184.7517972258321,752
-182.2298625564256,664
-179.7086253370378,686
-177.18808537710026,693
-174.66824248596583,695
-172.14909647290835,745
-169.6306471471229,748
-167.11289431772548,698
-164.59583779375328,668
-162.07947738416453,706
-159.5638128978386,803
-157.04884414357605,899
-154.53457093009854,1029
-152.02099306604828,1021
-149.50811035998936,788
-146.99592262040665,734
-144.48442965570587,730
-141.97363127421409,868
-139.46352728417958,1122
-136.95411749377126,1331
-134.44540171107985,1262
-131.93737974411636,938
-129.43005140081357,821
-126.92341648902493,941
-124.41747481652521,982
-121.91222619101006,1118
-119.40767042009657,1707
-116.90380731132257,2201
-114.40063667214702,2056
-111.8981583099503,2112
-109.3963720320337,2981
-106.89527764561933,3693
-104.39487495785067,3095
-101.89516377579241,2664
-99.39614390642998,3363
-96.89781515667039,5020
-94.40017733334128,5847
-91.90323024319173,4627
-89.40697369289148,2321
-86.91140748903172,2107
-84.41653143812482,3430
-81.92234534660395,4415
-79.42884902082358,4445
-76.93604226705907,5749
-74.4439248915071,9138
-71.95249670028534,12351
-69.46175749943245,13271
-66.97170709490854,12389
-64.48234529259423,10961
-61.99367189829195,9571
-59.50568671772464,7102
-57.01838955653636,6461
-54.53178022029283,7087
-52.045858514480074,7725
-49.560624244506016,7960
-47.07607721569923,8785
-44.59221723330904,8745
-42.10904410250669,7901
-39.62655762838392,6715
-37.14475761595372,5916
-34.66364387015028,6549
-32.18321619582866,6633
-29.70347439776515,6695
-27.224418280657005,7077
-24.74604764912317,7698
-22.26836230770266,11559
-19.7913620608565,22586
-17.315046712966478,41541
-14.83941606833514,60650
-12.36446993118659,65038
-9.89020810566592,65038
-7.416630395839093,65038
-4.94373660569363,65038
-2.471526539137585,65038
-6.821210263296962E-13,65038
2.47084320796705,65038
4.941003281093458,65038
7.410480415786196,65038
9.879274808531363,65038
12.347386655893956,65038
14.814816154518212,65038
17.28156350112681,65038
19.74762889252179,65038
22.21301252558385,65038
24.67771459727237,19016
27.141735304626195,3321
29.605074844762612,1975
32.06773341487792,1746
34.52971121224755,1604
36.99100843422559,1540
39.45162527824516,1306
41.91156194181792,1202
44.370818622535126,1113
46.82939551806646,1051
49.287292826160524,1062
51.74451074464503,1127
54.201049471426245,1022
56.65690920448981,982
59.112090141899785,926
61.56659248179983,865
64.02041642241159,905
66.4735621620365,997
68.92602989905402,956
71.37781983192338,902
73.82893215918205,869
76.27936707944684,907
78.72912479141326,956
81.17820549385567,925
83.62660938562783,903
86.07433666566146,911
88.5213875329681,826
90.96776218663751,810
93.41346082583925,805
95.85848364982041,872
98.30283085790859,853
100.7465026495089,786
103.18949922410604,933
105.63182078126385,869
108.07346752062438,1032
110.51443964190923,878
112.95473734491827,794
115.39436082953114,754
117.83331029570547,742
120.27158594347827,752
122.7091879729652,811
125.1461165843615,783
127.58237197794062,700
130.01795435405518,695
132.4528639131364,798
134.88710085569494,760
137.32066538231982,729
139.75355769367923,752
142.1857779905207,725
144.61732647366978,705
147.04820334403132,744
149.47840880258934,736
151.90794305040674,808
154.33680628862487,871
156.76499871846443,1063
159.19252054122433,1173
161.61937195828352,1326
164.04555317109896,1473
166.47106438120693,1606
168.89590579022217,1804
171.320077599839,1977
173.7435800118302,2041
176.16641322804742,2167
178.58857745042144,2268
181.01007288096173,2495
183.43089972175687,2490
185.85105817497413,2521
188.27054844285988,2448
190.6893707277394,2575
193.10752523201643,2571
195.5250121581745,2606
197.9418317087751,2742
200.3579840864594,2683
202.7734694939469,2747
205.18828813403627,2787
207.6024402096051,2884
210.01592592360964,2865
212.42874547908548,2918
214.84089907914665,2873
217.2523869269868,2873
219.66320922587727,2915
222.0733661791695,2858
224.48285799029293,2986
226.8916848627572,2974
229.29984700014882,2934
231.7073446061355,3013
234.11417788446204,2930
236.520347038953,2933
238.92585227351185,2982
241.33069379212054,2981
243.73487179884035,3016
246.1383864978112,3106
248.541238093252,2984
250.9434267894609,3115
253.34495279081432,3038
255.74581630176783,3095
258.1460175268563,3141
260.54555667069314,3004
262.9444339379703,3049
265.3426495334594,2992
267.7402036620107,3013
270.1370965285529,2969
272.53332833809407,3007
274.9288992957214,2934
277.32380960660055,2880
279.718059475976,2906
282.1116491091717,2848
284.5045787115897,2843
286.89684848871195,2827
289.2884586460981,2906
291.67940938938807,2961
294.0697009242996,2904
296.4593334566299,3005
298.84830719225477,2951
301.23662233712923,2903
303.6242790972866,2960
306.01127767884,2930
308.39761828798066,2833
310.78330113097934,2849
313.16832641418534,2775
315.5526943440269,2685
317.9364051270112,2783
320.3194589697242,2763
322.70185607883093,2749
325.0835966610754,2741
327.4646809232805,2675
329.8451090723478,2707
332.2248813152577,2690
334.6039978590701,2763
336.9824589109231,2685
339.36026467803447,2659
341.7374153677,2706
344.113911187295,2653
346.48975234427337,2669
348.8649390461686,2628
351.2394715005918,2634
353.61334991523415,2634
355.9865744978655,2703
358.35914545633375,2707
360.73106299856715,2633
363.10232733257146,2598
365.47293866643247,2584
367.84289720831396,2595
370.2122031664593,2590
372.5808567491905,2605
374.9488581649083,2539
377.31620762209275,2411
379.6829053293021,2521
382.0489514951745,2584
384.4143463284262,2636
386.7790900378528,2615
389.14318283232853,2564
391.50662492080653,2459
393.86941651231916,2536
396.23155781597745,2480
398.5930490409713,2556
400.9538903965696,2547
403.3140820921202,2554
405.6736243370498,2562
408.03251734086336,2500
410.3907613131465,2555
412.74835646356166,2499
415.10530300185144,2491
417.4616011378372,2490
419.81725108141893,2517
422.1722530425758,2504
424.5266072313656,2550
426.880313857925,2523
429.2333731324701,2512
431.58578526529516,2526
433.9375504667738,2552
436.2886689473588,2556
438.63914091758113,2459
440.9889665880513,2488
443.33814616945835,2462
445.68667987257015,2432
448.03456790823395,2444
450.3818104873759,2482
452.72840782100013,2519
455.07436012019105,2425
457.41966759611057,2519
459.7643304600007,2553
462.10834892318155,2521
464.4517231970525,2482
466.79445349309174,2477
469.1365400228566,2451
471.4779829979826,2513
473.81878263018564,2521
476.15893913125876,2493
478.4984527130747,2506
480.8373235875855,2583
483.17555196682144,2619
485.5131380628919,2625
487.8500820879857,2717
490.1863842543697,2724
492.52204477439034,3001
494.8570638604725,3127
497.1914417251204,3322
499.52517858091653,3518
501.85827464052306,3703
504.19073011668036,3980
506.5225452222086,3895
508.85372017000566,3860
511.18425517304956,3855
513.514150444396,3912
515.8434061971808,4646
518.1720226446176,5373
520.4999999999999,5573
522.8273384766991,5353
525.1540382881666,4837
527.480099647932,4225
529.8055227696037,3699
532.1303078668694,3218
534.454455153496,2911
536.777964843328,2699
539.1008371502907,2736
541.4230722883866,2663
543.744670471698,2731
546.0656319143858,2542
548.3859568306899,2632
550.7056454349294,2612
553.0246979415016,2573
555.3431145648834,2517
557.6608955196306,2529
559.978041020377,2550
562.2945512818363,2578
564.6104265188006,2634
566.9256669461412,2610
569.2402727788082,2574
571.5542442318302,2542
573.8675815203156,2562
576.1802848594508,2520
578.4923544645015,2627
580.8037905508126,2607
583.114593333807,2607
585.4247630289875,2618
587.7342998519354,2628
590.0432040183106,2615
592.3514757438526,2616
594.6591152443794,2611
596.9661227357875,2604
599.2724984340531,2533
601.578242555231,2615
603.8833553154542,2641
606.1878369309362,2646
608.4916876179676,2616
610.7949075929192,2644
613.0974970722403,2545
615.3994562724587,2581
617.7007854101818,2652
620.0014847020951,2623
622.3015543649641,2585
624.6009946156324,2639
626.8998056710224,2556
629.1979877481361,2642
631.4955410640538,2711
633.7924658359349,2603
636.0887622810175,2586
638.3844306166192,2641
640.6794710601358,2630
642.9738838290426,2580
645.2676691408932,2627
647.5608272133207,2678
649.853358264037,2706
652.1452625108324,2703
654.4365401715764,2697
656.7271914642178,2631
659.0172166067838,2778
661.3066158173809,2754
663.5953893141935,2706
665.8835373154867,2653
668.1710600396028,2661
670.4579577049639,2568
672.7442305300709,2688
675.0298787335033,2729
677.3149025339197,2649
679.599302150058,2686
681.8830778007342,2638
684.1662297048437,2713
686.4487580813608,2686
688.7306631493387,2741
691.0119451279091,2739
693.2926042362834,2695
695.5726406937516,2719
697.8520547196814,2702
700.1308465335215,2692
702.4090163547982,2694
704.6865644031171,2670
706.9634908981619,2678
709.2397960596965,2727
711.5154801075631,2673
713.7905432616823,2655
716.0649857420548,2737
718.3388077687592,2594
720.612009561953,2561
722.8845913418733,2701
725.1565533288352,2754
727.427895743234,2753
729.6986188055427,2663
731.9687227363137,2692
734.238207756178,2749
736.5070740858458,2730
738.7753219461066,2799
741.0429515578281,2735
743.3099631419569,2680
745.5763569195191,2717
747.8421331116193,2727
750.1072919394409,2653
752.3718336242467,2613
754.6357583873777,2704
756.8990664502545,2628
759.1617580343765,2765
761.423833361321,2784
763.6852926527457,2739
765.9461361303862,2815
768.206364016058,2750
770.4659765316536,2783
772.7249738991469,2793
774.9833563405886,2814
777.2411240781092,2826
779.4982773339183,2815
781.7548163303044,2738
784.010741289634,2742
786.2660524343538,2853
788.5207499869881,2791
790.7748341701416,2759
793.0283052064964,2784
795.2811633188143,2731
797.5334087299362,2685
799.7850416627813,2823
802.0360623403484,2818
804.2864709857143,2844
806.5362678220353,2730
808.7854530725468,2646
811.0340269605625,2841
813.2819897094754,2724
815.5293415427581,2816
817.77608268396,2846
820.0222133567116,2868
822.2677337847211,2869
824.5126441917765,2807
826.7569448017433,2815
829.0006358385675,2792
831.2437175262731,2736
833.4861900889629,2766
835.7280537508192,2789
837.9693087361026,2774
840.2099552691533,2846
842.4499935743896,2710
844.689423876309,2774
846.9282463994886,2867
849.1664613685833,2898
851.4040690083276,2849
853.6410695435349,2773
855.877463199097,2769
858.1132501999847,2816
860.3484307712487,2808
862.5830051380175,2884
864.8169735254988,2857
867.0503361589791,2872
869.2830932638243,2795
871.5152450654786,2789
873.7467917894654,2868
875.9777336613873,2860
878.2080709069252,2938
880.4378037518389,2854
882.666932421968,2947
884.8954571432301,2898
887.1233781416219,2854
889.3506956432192,2895
891.5774098741766,2845
893.803521060728,2898
896.0290294291852,2909
898.2539352059397,2873
900.4782386174619,2903
902.7019398903011,2811
904.925039251085,2921
907.147536926521,2808
909.3694331433943,2838
911.59072812857,2918
913.8114221089921,2787
916.0315153116827,2874
918.2510079637437,2829
920.4699002923547,2773
922.6881925247761,2708
924.905884888345,2771
927.1229776104793,2766
929.3394709186747,2833
931.555365040506,2876
933.7706602036275,2908
935.9853566357709,2880
938.1994545647489,2842
940.4129542184515,2802
942.6258558248488,2828
944.8381596119883,2791
947.0498658079974,2858
949.2609746410825,2814
951.4714863395287,2924
953.6814011316998,2878
955.8907192460387,2814
958.0994409110671,2781
960.3075663553858,2812
962.5150958076741,2805
964.7220294966913,2761
966.928367651274,2775
969.1341105003388,2797
971.3392582728806,2763
973.5438111979742,2804
975.747769504772,2746
977.9511334225061,2845
980.153903180487,2835
982.3560790081052,2879
984.5576611348289,2745
986.7586497902058,2764
988.9590452038618,2831
991.158847605503,2727
993.3580572249133,2685
995.5566742919558,2714
997.7546990365728,2760
999.952131688785,2659
1002.1489724786926,2674
1004.3452216364743,2586
1006.5408793923874,2624
1008.7359459767691,2682
1010.9304216200343,2577
1013.1243065526781,2617
1015.3176010052733,2608
1017.510305208472,2535
1019.7024193930064,2580
1021.8939437896848,2518
1024.0848786293977,2647
1026.2752241431122,2567
1028.4649805618747,2515
1030.6541481168115,2599
1032.842727039127,2579
1035.0307175601051,2467
1037.2181199111074,2533
1039.4049343235752,2634
1041.591161029029,2571
1043.7768002590683,2487
1045.9618522453698,2502
1048.1463172196918,2531
1050.3301954138697,2585
1052.513487059818,2559
1054.69619238953,2540
1056.8783116350783,2490
1059.0598450286152,2571
1061.2407928023704,2495
1063.4211551886528,2577
1065.6009324198508,2498
1067.780124728432,2551
1069.9587323469414,2506
1072.1367555080046,2534
1074.314194444325,2436
1076.4910493886855,2493
1078.667320573947,2507
1080.843008233051,2525
1083.0181125990161,2520
1085.1926339049414,2500
1087.3665723840027,2554
1089.5399282694575,2438
1091.7127017946405,2454
1093.8848931929647,2486
1096.0565026979243,2465
1098.2275305430899,2501
1100.3979769621128,2483
1102.567842188722,2482
1104.737126456726,2415
1106.9058300000124,2520
1109.0739530525475,2518
1111.2414958483764,2384
1113.4084586216231,2461
1115.5748416064907,2454
1117.7406450372605,2491
1119.9058691482942,2534
1122.0705141740304,2624
1124.2345803489884,2499
1126.3980679077658,2450
1128.5609770850388,2439
1130.7233081155623,2537
1132.8850612341707,2476
1135.0462366757774,2522
1137.2068346753745,2521
1139.3668554680326,2533
1141.526299288901,2484
1143.68516637321,2585
1145.8434569562655,2517
1148.001171273455,2597
1150.158309560244,2540
1152.3148720521767,2487
1154.470858984876,2430
1156.626270594044,2416
1158.7811071154629,2560
1160.9353687849912,2452
1163.089055838569,2453
1165.242168512213,2445
1167.3947070420209,2456
1169.5466716641677,2418
1171.6980626149075,2472
1173.8488801305748,2438
1175.9991244475814,2462
1178.1487958024186,2470
1180.2978944316555,2463
1182.4464205719428,2426
1184.5943744600072,2467
1186.7417563326567,2490
1188.8885664267755,2377
1191.0348049793297,2456
1193.1804722273619,2428
1195.325568407995,2463
1197.4700937584303,2426
1199.614048515948,2494
1201.7574329179074,2579
1203.900247201746,2487
1206.042491604982,2495
1208.1841663652099,2474
1210.3252717201053,2496
1212.465807907422,2466
1214.6057751649923,2616
1216.7451737307279,2490
1218.8840038426192,2505
1221.0222657387353,2526
1223.1599596572241,2479
1225.2970858363137,2593
1227.4336445143094,2526
1229.5696359295966,2554
1231.705060320639,2486
1233.8399179259786,2571
1235.9742089842384,2594
1238.107933734118,2480
1240.2410924143974,2499
1242.373685263935,2527
1244.5057125216676,2570
1246.6371744266116,2614
1248.7680712178621,2558
1250.898403134593,2442
1253.028170416058,2552
1255.1573733015875,2524
1257.2860120305932,2549
1259.4140868425648,2573
1261.54159797707,2533
1263.6685456737569,2661
1265.7949301723515,2487
1267.9207517126597,2599
1270.046010534565,2551
1272.1707068780306,2559
1274.2948409830983,2565
1276.4184130898889,2562
1278.541423438603,2569
1280.6638722695184,2610
1282.785759822993,2550
1284.9070863394636,2663
1287.0278520594447,2587
1289.1480572235314,2574
1291.2677020723963,2729
1293.3867868467923,2617
1295.5053117875495,2574
1297.623277135579,2681
1299.740683131868,2608
1301.8575300174857,2678
1303.973818033578,2714
1306.0895474213703,2714
1308.2047184221678,2694
1310.3193312773528,2762
1312.4333862283888,2681
1314.5468835168163,2728
1316.659823384255,2717
1318.7722060724045,2742
1320.8840318230418,2783
1322.9953008780249,2745
1325.1060134792888,2755
1327.2161698688478,2694
1329.3257702887959,2674
1331.4348149813054,2755
1333.5433041886276,2717
1335.6512381530933,2757
1337.7586171171101,2760
1339.8654413231675,2680
1341.9717110138317,2656
1344.0774264317488,2728
1346.1825878196432,2743
1348.2871954203192,2651
1350.3912494766587,2714
1352.4947502316231,2768
1354.5976979282532,2693
1356.7000928096686,2687
1358.8019351190665,2754
1360.9032250997243,2714
1363.0039629949988,2612
1365.1041490483235,2649
1367.2037835032133,2650
1369.3028666032606,2662
1371.401398592137,2734
1373.4993797135926,2683
1375.5968102114575,2775
1377.6936903296396,2774
1379.7900203121262,2762
1381.8858004029835,2715
1383.9810308463561,2752
1386.075711886469,2756
1388.1698437676241,2733
1390.2634267342032,2742
1392.356461030667,2704
1394.4489469015557,2819
1396.5408845914872,2698
1398.6322743451592,2694
1400.7231164073469,2765
1402.813411022907,2760
1404.903158436773,2790
1406.9923588939578,2675
1409.0810126395531,2744
1411.1691199187303,2782
1413.2566809767386,2791
1415.343696058907,2674
1417.4301654106425,2727
1419.5160892774315,2650
1421.6014679048399,2710
1423.6863015385125,2750
1425.7705904241707,2717
1427.8543348076178,2778
1429.9375349347342,2803
1432.0201910514802,2705
1434.102303403894,2794
1436.1838722380944,2838
1438.2648978002767,2757
1440.3453803367174,2829
1442.4253200937692,2774
1444.5047173178677,2796
1446.5835722555234,2827
1448.6618851533285,2913
1450.739656257952,2915
1452.8168858161434,2874
1454.8935740747306,2930
1456.96972128062,2979
1459.045327680797,2982
1461.120393522327,3060
1463.1949190523528,2946
1465.2689045180973,3095
1467.3423501668608,3016
1469.415256246024,2981
1471.4876230030463,3017
1473.559450685465,2967
1475.6307395408976,3071
1477.7014898170391,3056
1479.771701761665,3076
1481.8413756226287,3047
1483.9105116478618,3102
1485.9791100853772,3077
1488.0471711832643,3115
1490.1146951896926,3226
1492.1816823529098,3166
1494.2481329212433,3280
1496.3140471430984,3199
1498.3794252669609,3221
1500.4442675413939,3188
1502.5085742150404,3209
1504.572345536622,3280
1506.6355817549388,3247
1508.6982831188702,3348
1510.7604498773744,3264
1512.8220822794883,3230
1514.8831805743293,3358
1516.9437450110909,3309
1519.003775839048,3237
1521.0632733075522,3280
1523.1222376660367,3392
1525.1806691640113,3300
1527.2385680510652,3334
1529.2959345768668,3259
1531.3527689911643,3322
1533.4090715437833,3420
1535.4648424846291,3449
1537.5200820636855,3442
1539.5747905310159,3438
1541.6289681367616,3489
1543.6826151311434,3584
1545.7357317644614,3619
1547.7883182870937,3562
1549.8403749494987,3631
1551.8919020022113,3681
1553.9428996958477,3689
1555.9933682811015,3693
1558.0433080087469,3692
1560.0927191296346,3827
1562.1416018946961,3833
1564.1899565549415,3823
1566.2377833614592,3764
1568.2850825654164,3803
1570.3318544180606,3691
1572.3780991707158,3742
1574.423817074788,3661
1576.4690083817595,3603
1578.5136733431923,3619
1580.5578122107272,3453
1582.601425236085,3391
1584.6445126710646,3361
1586.6870747675434,3296
1588.7291117774776,3248
1590.7706239529034,3197
1592.8116115459347,3171
1594.8520748087658,3105
1596.8920139936686,3043
1598.9314293529933,3068
1600.9703211391711,2949
1603.008689604711,3094
1605.0465350022005,3000
1607.0838575843068,2904
1609.1206576037753,2872
1611.1569353134305,2815
1613.1926909661765,2842
1615.2279248149953,2866
1617.2626371129481,2816
1619.2968281131757,2721
1621.3304980688963,2836
1623.3636472334088,2802
1625.39627586009,2719
1627.428384202396,2747
1629.459972513861,2776
1631.4910410480993,2663
1633.5215900588028,2734
1635.551619799744,2783
1637.5811305247717,2691
1639.6101224878166,2629
1641.6385959428862,2718
1643.6665511440683,2730
1645.693988345528,2645
1647.7209078015112,2636
1649.7473097663405,2720
1651.7731944944203,2619
1653.7985622402307,2699
1655.823413258333,2651
1657.847747803366,2573
1659.8715661300494,2604
1661.8948684931793,2652
1663.9176551476316,2604
1665.9399263483624,2553
1667.9616823504057,2712
1669.982923408873,2686
1672.0036497789574,2678
1674.0238617159293,2644
1676.043559475138,2665
1678.0627433120121,2567
1680.081413482059,2609
1682.0995702408654,2658
1684.117213844096,2616
1686.134344547495,2655
1688.1509626068864,2664
1690.1670682781705,2581
1692.182661817329,2586
1694.1977434804217,2608
1696.2123135235875,2633
1698.226372203043,2600
1700.2399197750851,2665
1702.2529564960905,2597
1704.2654826225112,2639
1706.277498410882,2610
1708.2890041178139,2692
1710.2999999999988,2648
1712.3104863142066,2625
1714.3204633172854,2565
1716.329931266163,2592
1718.3388904178469,2730
1720.3473410294214,2618
1722.3552833580516,2605
1724.3627176609807,2614
1726.3696441955308,2699
1728.3760632191033,2688
1730.3819749891782,2622
1732.3873797633146,2628
1734.3922777991502,2578
1736.3966693544012,2567
1738.4005546868639,2568
1740.4039340544127,2591
1742.406807715001,2571
1744.4091759266616,2662
1746.4110389475054,2594
1748.4123970357223,2507
1750.413250449582,2609
1752.4135994474318,2564
1754.4134442876993,2688
1756.4127852288902,2661
1758.4116225295893,2609
1760.4099564484595,2587
1762.407787244244,2590
1764.405115175764,2590
1766.4019405019203,2536
1768.3982634816916,2607
1770.3940843741357,2548
1772.3894034383907,2610
1774.3842209336717,2553
1776.378537119274,2644
1778.372352254571,2609
1780.3656665990156,2470
1782.3584804121397,2588
1784.3507939535534,2578
1786.3426074829463,2594
1788.3339212600863,2553
1790.3247355448211,2584
1792.3150505970766,2622
1794.3048666768573,2540
1796.2941840442477,2525
1798.2830029594106,2503
1800.2713236825884,2553
1802.2591464741004,2567
1804.2464715943465,2635
1806.2332993038058,2591
1808.2196298630352,2626
1810.2054635326708,2631
1812.190800573428,2598
1814.175641246101,2644
1816.1599858115628,2670
1818.1438345307652,2610
1820.127187664738,2499
1822.1100454745924,2534
1824.092408221516,2513
1826.0742761667766,2607
1828.055649571721,2650
1830.0365286977735,2624
1832.0169138064398,2577
1833.9968051593014,2631
1835.9762030180214,2616
1837.9551076443408,2576
1839.9335193000788,2610
1841.9114382471344,2610
1843.888864747485,2560
1845.8657990631878,2594
1847.842241456378,2539
1849.8181921892697,2605
1851.7936515241558,2633
1853.7686197234098,2605
1855.7430970494815,2546
1857.7170837649014,2561
1859.6905801322787,2601
1861.6635864143004,2566
1863.6361028737338,2557
1865.608129773424,2606
1867.5796673762961,2502
1869.5507159453537,2569
1871.521275743678,2669
1873.4913470344313,2541
1875.4609300808534,2620
1877.4300251462632,2642
1879.3986324940588,2605
1881.366752387717,2600
1883.3343850907936,2560
1885.3015308669228,2545
1887.268189979819,2668
1889.2343626932739,2649
1891.2000492711595,2605
1893.1652499774254,2651
1895.1299650761011,2645
1897.0941948312952,2617
1899.0579395071945,2668
1901.0211993680641,2659
1902.98397467825,2592
1904.9462657021745,2594
1906.9080727043415,2679
1908.869395949332,2597
1910.8302357018065,2673
1912.790592226504,2597
1914.7504657882428,2631
1916.7098566519212,2558
1918.6687650825133,2566
1920.6271913450764,2607
1922.5851357047422,2629
1924.5425984267245,2637
1926.499579776314,2587
1928.4560800188833,2556
1930.4120994198802,2555
1932.367638244833,2603
1934.32269675935,2570
1936.2772752291175,2512
1938.231373919899,2668
1940.1849930975404,2550
1942.1381330279637,2505
1944.0907939771696,2563
1946.0429762112412,2660
1947.9946799963363,2573
1949.9459055986945,2600
1951.896653284633,2581
1953.8469233205478,2618
1955.7967159729142,2682
1957.7460315082863,2561
1959.6948701932974,2618
1961.6432322946594,2585
1963.5911180791632,2561
1965.5385278136787,2598
1967.4854617651545,2741
1969.4319202006182,2618
1971.377903387176,2657
1973.3234115920136,2624
1975.268445082395,2504
1977.2130041256642,2752
1979.1570889892423,2678
1981.1006999406304,2648
1983.04383724741,2628
1984.986501177238,2569
1986.928691997853,2653
1988.8704099770712,2595
1990.811655382789,2652
1992.7524284829801,2714
1994.692729545698,2647
1996.6325588390755,2580
1998.5719166313224,2632
2000.5108031907307,2629
2002.4492187856677,2561
2004.387163684583,2657
2006.3246381560011,2639
2008.2616424685298,2633
2010.1981768908527,2577
2012.1342416917332,2633
2014.069837140014,2612
2016.0049635046162,2612
2017.9396210545406,2637
2019.8738100588666,2609
2021.8075307867502,2528
2023.740783507431,2578
2025.6735684902228,2590
2027.6058860045214,2519
2029.5377363198004,2630
2031.4691197056118,2622
2033.4000364315875,2618
2035.3304867674374,2524
2037.260470982952,2622
2039.189989347998,2649
2041.1190421325232,2603
2043.047629606554,2629
2044.9757520401945,2604
2046.9034097036288,2695
2048.8306028671195,2660
2050.7573318010086,2623
2052.683596775716,2637
2054.609398061742,2604
2056.5347359296647,2630
2058.4596106501403,2648
2060.384022493906,2599
2062.3079717317764,2610
2064.231458634646,2651
2066.1544834734873,2611
2068.077046519352,2653
2069.99914804337,2614
2071.9207883167524,2654
2073.8419676107865,2645
2075.7626861968406,2604
2077.6829443463607,2570
2079.6027423308715,2655
2081.522080421977,2664
2083.440958891362,2640
2085.359378010786,2673
2087.2773380520907,2651
2089.194839287196,2675
2091.111881988101,2602
2093.0284664268825,2633
2094.9445928756973,2686
2096.86026160678,2786
2098.775472892446,2613
2100.690227005088,2684
2102.604524217178,2656
2104.5183648012676,2662
2106.431749029985,2631
2108.34467717604,2668
2110.2571495122206,2683
2112.169166311393,2674
2114.080727846503,2677
2115.9918343905747,2697
2117.902486216711,2658
2119.8126835980956,2717
2121.722426807987,2626
2123.6317161197285,2699
2125.5405518067364,2718
2127.448934142509,2671
2129.356863400624,2643
2131.264339854737,2652
2133.1713637785815,2747
2135.077935445972,2758
2136.9840551308002,2701
2138.889723107037,2728
2140.7949396487334,2757
2142.699705030018,2742
2144.6040195250994,2774
2146.507883408264,2647
2148.4112969538774,2690
2150.3142604363848,2775
2152.2167741303097,2737
2154.1188383102535,2696
2156.0204532508997,2769
2157.9216192270064,2797
2159.822336513414,2807
2161.7226053850413,2763
2163.622426116884,2705
2165.5217989840185,2810
2167.4207242616,2787
2169.319202224862,2714
2171.2172331491165,2754
2173.1148173097563,2725
2175.0119549822507,2775
2176.90864644215,2749
2178.8048919650823,2738
2180.7006918267534,2841
2182.596046302952,2747
2184.4909556695407,2827
2186.3854202024645,2754
2188.279440177746,2875
2190.173015871487,2853
2192.066147559868,2801
2193.958835519149,2783
2195.851080025667,2778
2197.7428813558417,2828
2199.6342397861667,2848
2201.5251555932186,2870
2203.415629053651,2740
2205.3056604441986,2837
2207.19525004167,2842
2209.084398122958,2820
2210.9731049650327,2750
2212.861370844941,2854
2214.749196039812,2852
2216.636580826851,2879
2218.523525483344,2882
2220.410030286655,2756
2222.296095514226,2938
2224.1817214435805,2859
2226.066908352319,2727
2227.951656518121,2916
2229.835966218746,2941
2231.71983773203,2788
2233.6032713358913,2897
2235.486267308324,2792
2237.3688259274036,2829
2239.2509474712824,2834
2241.132632218193,2853
2243.013880446447,2853
2244.8946924344323,2815
2246.7750684606203,2822
2248.6550088035574,2793
2250.534513741871,2849
2252.413583554265,2910
2254.292218519526,2815
2256.170418916517,2838
2258.0481850241786,2806
2259.925517121534,2815
2261.8024154876825,2800
2263.678880401803,2786
2265.5549121431536,2801
2267.430510991071,2787
2269.305677224971,2851
2271.180411124348,2771
2273.0547129687766,2816
2274.9285830379076,2734
2276.8020216114737,2740
2278.6750289692845,2817
2280.5476053912294,2804
2282.4197511572766,2792
2284.2914665474727,2782
2286.162751841943,2793
2288.0336073208937,2823
2289.904033264608,2852
2291.774029953448,2757
2293.6435976678554,2865
2295.5127366883517,2948
2297.381447295534,2720
2299.2497297700825,2833
2301.1175843927526,2685
2302.9850114443825,2756
2304.852011205885,2710
2306.7185839582553,2686
2308.5847299825664,2661
2310.4504495599676,2640
2312.3157429716925,2692
2314.1806104990483,2649
2316.0450524234247,2725
2317.9090690262888,2724
2319.772660589186,2681
2321.635827393742,2683
2323.498569721661,2609
2325.3608878547248,2602
2327.2227820747967,2690
2329.0842526638157,2592
2330.945299903803,2683
2332.805924076857,2694
2334.6661254651535,2572
2336.525904350951,2589
2338.3852610165827,2675
2340.244195744464,2635
2342.102708817088,2654
2343.9608005170253,2712
2345.8184711269287,2712
2347.675720929526,2679
2349.532550207628,2692
2351.38895924412,2629
2353.24494832197,2746
2355.100517724223,2604
2356.955667734004,2698
2358.810398634514,2629
2360.664710709037,2787
2362.5186042409337,2726
2364.3720795136437,2636
2366.225136810686,2675
2368.0777764156583,2696
2369.929998612237,2698
2371.7818036841777,2717
2373.633191915315,2770
2375.484163589562,2791
2377.3347189909114,2725
2379.184858403434,2685
2381.03458211128,2745
2382.8838903986775,2735
2384.732783549936,2749
2386.5812618494406,2754
2388.4293255816588,2615
2390.2769750311327,2698
2392.1242104824883,2719
2393.971032220427,2705
2395.8174405297295,2705
2397.6634356952563,2696
2399.509018001947,2762
2401.3541877348193,2634
2403.1989451789705,2716
2405.043290619576,2709
2406.8872243418905,2623
2408.730746631247,2676
2410.5738577730594,2714
2412.4165580528183,2679
2414.258847756095,2668
2416.100727168537,2619
2417.9421965758734,2704
2419.783256263912,2646
2421.623906518538,2790
2423.4641476257157,2793
2425.303979871491,2778
2427.143403541984,2822
2428.9824189233977,2661
2430.821026302012,2687
2432.6592259641866,2678
2434.497018196361,2698
2436.33440328505,2759
2438.171381516851,2789
2440.00795317844,2747
2441.844118556569,2823
2443.6798779380724,2681
2445.5152316098606,2729
2447.3501798589255,2670
2449.1847229723357,2706
2451.0188612372403,2759
2452.8525949408663,2790
2454.6859243705203,2721
2456.518849813587,2683
2458.3513715575314,2710
2460.183489889895,2790
2462.015205098301,2705
2463.8465174704493,2715
2465.67742729412,2768
2467.5079348571717,2688
2469.338040447542,2692
2471.1677443532476,2737
2472.9970468623833,2771
2474.825948263123,2689
2476.6544488437207,2747
2478.482548892508,2798
2480.310248697896,2653
2482.137548548374,2708
2483.9644487325118,2721
2485.790949538956,2806
2487.617051256433,2771
2489.44275417375,2706
2491.26805857979,2674
2493.0929647635157,2750
2494.917473013971,2839
2496.741583620276,2791
2498.5652968716304,2920
2500.3886130573137,2793
2502.2115324666834,2770
2504.0340553891765,2857
2505.856182114308,2746
2507.6779129316733,2765
2509.499248130945,2741
2511.3201880018764,2717
2513.140732834298,2851
2514.9608829181198,2743
2516.780638543331,2782
2518.6,2783
2520.418967578273,2794
2522.237541568376,2738
2524.0557222606144,2764
2525.8735099453706,2715
2527.6909049131086,2759
2529.507907454368,2769
2531.32451785977,2808
2533.140736420014,2787
2534.9565634258774,2740
2536.771999168218,2838
2538.5870439379714,2808
2540.4016980261526,2769
2542.2159617238544,2782
2544.02983532225,2791
2545.8433191125914,2876
2547.656413386209,2822
2549.4691184345115,2867
2551.2814345489874,2809
2553.093362021204,2835
2554.904901142808,2843
2556.716052205523,2821
2558.526815501153,2815
2560.3371913215824,2875
2562.147179958771,2855
2563.956781704761,2861
2565.7659968516705,2899
2567.5748256916986,2868
2569.3832685171224,2934
2571.1913256202984,2852
2572.9989972936614,2874
2574.806283829725,2821
2576.613185521084,2805
2578.4197026604074,2977
2580.2258355404483,2850
2582.031584454035,2952
2583.836949694077,2918
2585.6419315535613,2953
2587.4465303255533,2897
2589.2507463032002,2919
2591.0545797797245,2946
2592.8580310484303,3001
2594.6611004026995,2910
2596.463788135992,3026
2598.266094541849,2972
2600.0680199138874,2898
2601.869564545807,2936
2603.670728731383,2925
2605.4715127644704,2898
2607.2719169390048,2962
2609.071941548998,2980
2610.8715868885433,2910
2612.670853251811,2940
2614.469740933052,2987
2616.268250226594,2860
2618.0663814268455,2913
2619.864134828292,2908
2621.6615107255006,2913
2623.458509413115,2909
2625.2551311858597,2889
2627.0513763385347,2870
2628.8472451660223,2967
2630.6427379632833,2981
2632.4378550253564,2913
2634.232596647359,2941
2636.026963124488,2884
2637.8209547520187,2906
2639.6145718253065,2846
2641.407814639785,2886
2643.200683490966,2876
2644.9931786744414,2897
2646.7853004858807,2879
2648.577049221034,2830
2650.3684251757277,2922
2652.1594286458712,2916
2653.9500599274484,2883
2655.740319316525,2854
2657.5302071092437,2794
2659.3197236018286,2790
2661.10886909058,2824
2662.8976438718782,2909
2664.686048242183,2890
2666.4740824980327,2919
2668.2617469360443,2910
2670.0490418529134,2830
2671.8359675454153,2744
2673.622524310403,2780
2675.408712444811,2828
2677.1945322456495,2898
2678.979984010009,2715
2680.76506803506,2700
2682.5497846180497,2844
2684.334134056306,2756
2686.1181166472343,2763
2687.9017326883213,2810
2689.6849824771293,2785
2691.4678663113013,2778
2693.2503844885596,2899
2695.032537306705,2805
2696.8143250636167,2767
2698.5957480572542,2785
2700.3768065856534,2787
2702.1575009469316,2948
2703.937831439283,2829
2705.717798360982,2754
2707.4974020103837,2772
2709.276642685917,2746
2711.055520686095,2823
2712.834036309506,2816
2714.612189854819,2827
2716.389981620782,2839
2718.1674119062204,2769
2719.944481010041,2659
2721.721189231226,2735
2723.4975368688415,2688
2725.273524222027,2805
2727.0491515900053,2732
2728.824419272075,2710
2730.5993275676146,2658
2732.3738767760838,2863
2734.148067197016,2682
2735.921899130031,2763
2737.6953728748194,2772
2739.468488731156,2694
2741.2412469988926,2769
2743.0136479779617,2765
2744.785691968372,2774
2746.5573792702116,2722
2748.3287101836504,2714
2750.099685008934,2770
2751.870304046388,2721
2753.640567596418,2739
2755.4104759595057,2842
2757.1800294362156,2751
2758.949228327187,2739
2760.7180729331412,2730
2762.486563554877,2766
2764.254700493272,2743
2766.022484049284,2779
2767.789914523947,2721
2769.5569922183786,2815
2771.3237174337705,2810
2773.090090471394,2728
2774.8561116326036,2850
2776.6217812188274,2708
2778.3870995315756,2688
2780.1520668724356,2733
2781.9166835430747,2751
2783.6809498452394,2715
2785.444866080754,2776
2787.2084325515225,2848
2788.971649559527,2763
2790.73451740683,2666
2792.4970363955713,2690
2794.2592068279705,2740
2796.0210290063264,2743
2797.7825032330147,2727
2799.543629810493,2785
2801.304409041296,2709
2803.0648412280366,2874
2804.8249266734088,2831
2806.5846656801846,2775
2808.344058551212,2773
2810.1031055894246,2847
2811.8618070978273,2852
2813.6201633795085,2740
2815.378174737636,2742
2817.1358414754536,2768
2818.893163896285,2740
2820.6501423035334,2712
2822.4067770006814,2840
2824.1630682912883,2811
2825.9190164789957,2785
2827.6746218675207,2769
2829.429884760661,2766
2831.184805462294,2837
2832.9393842763743,2762
2834.693621506936,2764
2836.4475174580916,2780
2838.201072434034,2844
2839.954286739034,2717
2841.707160677441,2757
2843.459694553685,2725
2845.2118886722724,2751
2846.96374333779,2774
2848.7152588549034,2851
2850.4664355283567,2823
2852.217273662973,2807
2853.9677735636546,2779
2855.7179355353833,2742
2857.4677598832186,2764
2859.217246912299,2877
2860.9663969278427,2788
2862.715210235146,2801
2864.4636871395846,2802
2866.211827946614,2785
2867.9596329617652,2836
2869.7071024906536,2847
2871.4542368389684,2751
2873.20103631248,2793
2874.947501217038,2840
2876.6936318585695,2778
2878.4394285430812,2707
2880.1848915766604,2742
2881.9300212654707,2775
2883.6748179157553,2797
2885.4192818338374,2816
2887.1634133261173,2821
2888.907212699077,2789
2890.6506802592744,2801
2892.393816313348,2790
2894.1366211680142,2802
2895.8790951300693,2894
2897.621238506388,2759
2899.363051603925,2860
2901.1045347297118,2769
2902.8456881908596,2854
2904.58651229456,2833
2906.327007348081,2761
2908.067173658772,2764
2909.8070115340597,2752
2911.5465212814497,2750
2913.285703208527,2799
2915.0245576229563,2725
2916.7630848324807,2730
2918.5012851449196,2770
2920.2391588681758,2822
2921.976706310227,2763
2923.7139277791334,2824
2925.4508235830313,2760
2927.187394030137,2840
2928.923639428745,2848
2930.6595600872306,2727
2932.395156314046,2855
2934.1304284177218,2850
2935.8653767068713,2835
2937.6000014901815,2776
2939.3343030764227,2800
2941.068281774442,2892
2942.8019378931644,2898
2944.5352717415976,2782
2946.2682836288236,2877
2948.0009738640065,2840
2949.7333427563885,2794
2951.465390615289,2915
2953.1971177501086,2783
2954.9285244703265,2805
2956.6596110855,2863
2958.3903779052657,2810
2960.1208252393385,2824
2961.8509533975125,2880
2963.5807626896617,2882
2965.3102534257378,2832
2967.0394259157715,2788
2968.768280469873,2826
2970.496817398232,2816
2972.2250370111146,2852
2973.952939618869,2779
2975.6805255319196,2833
2977.4077950607707,2809
2979.134748516006,2908
2980.861386208289,2940
2982.587708448359,2810
2984.313715547037,2842
2986.039407815222,2816
2987.764785563891,2875
2989.489849104102,2863
2991.2145987469908,2794
2992.9390348037705,2866
2994.6631575857346,2836
2996.3869674042576,2736
2998.1104645707887,2792
2999.83364939686,2815
3001.5565221940783,2779
3003.2790832741334,2828
3005.0013329487924,2889
3006.7232715298996,2787
3008.4448993293804,2815
3010.166216659239,2701
3011.887223831558,2824
3013.607921158498,2802
3015.3283089522993,2819
3017.0483875252826,2825
3018.7681571898443,2754
3020.4876182584626,2920
3022.2067710436927,2850
3023.9256158581707,2840
3025.644153014609,2808
3027.362382825801,2790
3029.0803056046193,2891
3030.797921664012,2859
3032.5152313170106,2889
3034.2322348767225,2922
3035.9489326563353,2826
3037.665324969115,2808
3039.3814121284063,2856
3041.097194447633,2830
3042.812672240299,2791
3044.5278458199855,2747
3046.2427155003525,2775
3047.9572815951406,2817
3049.671544418167,2839
3051.38550428333,2765
3053.0991615046073,2821
3054.812516396051,2846
3056.5255692717974,2850
3058.2383204460575,2823
3059.9507702331257,2821
3061.662918947372,2852
3063.3747669032446,2893
3065.0863144152736,2815
3066.7975617980674,2891
3068.508509366309,2874
3070.219157434767,2863
3071.9295063182844,2896
3073.639556331785,2841
3075.3493077902704,2845
3077.058761008821,2847
3078.7679163025964,2851
3080.476773986837,2894
3082.1853343768594,2869
3083.89359778806,2973
3085.6015645359153,2843
3087.3092349359786,2830
3089.016609303884,2753
3090.7236879553434,2853
3092.4304712061476,2955
3094.136959372166,2914
3095.843152769349,2831
3097.5490517137237,2871
3099.2546565213966,2913
3100.959967508554,2862
3102.66498499146,2826
3104.3697092864577,2854
3106.0741407099695,2842
3107.778279578498,2877
3109.482126208622,2898
3111.1856809170004,2899
3112.8889440203716,2892
3114.5919158355528,2915
3116.294596679439,2913
3117.996986869006,2890
3119.6990867213062,2874
3121.4008965534726,2906
3123.102416682717,2942
3124.803647426329,2817
3126.5045891016784,2988
3128.205242026213,2944
3129.90560651746,2886
3131.605682893025,3034
3133.3054714705922,2935
3135.0049725679282,2952
3136.7041865028714,2998
3138.4031135933465,2939
3140.101754157353,2879
3141.800108512971,2964
3143.498176978357,2904
3145.1959598717494,2960
3146.8934575114636,2907
3148.5906702158954,2955
3150.2875983035183,2939
3151.9842420928853,2938
3153.680601902627,2953
3155.376678051456,2986
3157.07247085816,2781
3158.767980641609,2815
3160.463207720748,2977
3162.158152414606,2936
3163.8528150422862,2953
3165.5471959229726,2924
3167.2412953759303,2963
3168.9351137204976,3022
3170.628651276098,2904
3172.3219083622307,3021
3174.014885298474,2918
3175.707582404485,2991
3177.4000000000005,2945
3179.092138404835,2920
3180.7839979388846,3037
3182.47557892212,2889
3184.166881674594,2924
3185.8579065164386,2913
3187.5486537678626,2905
3189.2391237491547,2967
3190.9293167806827,3007
3192.6192331828934,2925
3194.3088732763117,2971
3195.998237381542,3104
3197.687325819268,2882
3199.376138910251,2999
3201.064676975334,2958
3202.7529403354347,3009
3204.4409293115523,3010
3206.1286442247647,2892
3207.816085396229,2888
3209.5032531471825,2765
3211.190147798936,2763
3212.8767696728846,2829
3214.5631190905015,2827
3216.2491963733373,2884
3217.9350018430214,2798
3219.6205358212637,2786
3221.305798629851,2796
3222.990790590651,2923
3224.6755120256103,2778
3226.359963256751,2822
3228.0441446061795,2857
3229.7280563960758,2885
3231.411698948703,2886
3233.0950725863995,2928
3234.778177631587,2932
3236.461014406761,2939
3238.1435832345005,2900
3239.8258844374595,2964
3241.507918338374,2945
3243.1896852600576,2938
3244.8711855254023,3023
3246.552419457381,3041
3248.233387379042,2860
3249.914089613516,2849
3251.59452648401,2912
3253.274698313813,2874
3254.95460542629,2891
3256.6342481448855,2919
3258.313626793125,2867
3259.9927416946084,2805
3261.6715931730196,2897
3263.3501815521176,2893
3265.0285071557437,2854
3266.706570307815,2901
3268.3843713323286,2791
3270.0619105533615,2780
3271.739188295068,2924
3273.4162048816834,2887
3275.0929606375184,2874
3276.769455886966,2903
3278.445690954498,2907
3280.1216661646613,2907
3281.797381842087,2943
3283.4728383114807,2922
3285.1480358976296,2888
3286.8229749253996,2928
3288.4976557197333,2825
3290.172078605655,2832
3291.846243908266,2843
3293.5201519527463,2890
3295.193803064357,2756
3296.8671975684374,2801
3298.5403357904024,2909
3300.21321805575,2885
3301.8858446900567,2983
3303.558216018975,2911
3305.23033236824,2868
3306.9021940636603,2827
3308.57380143113,2969
3310.2451547966184,3064
3311.916254486174,2965
3313.5871008259246,2931
3315.2576941420766,2951
3316.9280347609147,2986
3318.5981230088046,2871
3320.2679592121895,2891
3321.9375436975924,2928
3323.606876791612,2876
3325.27595882093,2846
3326.944790112305,2814
3328.6133709925753,2829
3330.2817017886573,2829
3331.949782827547,2868
3333.617614436319,2991
3335.2851969421245,2965
3336.952530672199,3021
3338.619615953853,2899
3340.286453114475,2990
3341.9530424815357,2960
3343.619384382583,2945
3345.2854791452437,2970
3346.951327097224,2968
3348.6169285663073,2984
3350.2822838803577,2936
3351.947393367319,2958
3353.61225735521,3003
3355.2768761721345,2926
3356.9412501462693,2869
3358.605379605873,2927
3360.2692648792827,2891
3361.9329062949146,3004
3363.596304181263,2962
