CollectionTime,7/9/2024 4:42:09 PM
ExposureUsed,3
CalibratedSpectrum
-962.7078968117929,466
-959.9714848408522,478
-957.2358232597828,500
-954.5009119013725,491
-951.7667505983302,475
-949.0333391832855,476
-946.3006774887896,507
-943.5687653473143,487
-940.837602591253,494
-938.1071890529199,522
-935.3775245645503,508
-932.6486089583007,482
-929.9204420662485,515
-927.1930237203925,482
-924.4663537526524,505
-921.7404319948689,490
-919.0152582788041,508
-916.2908324361409,543
-913.5671542984834,533
-910.8442236973568,490
-908.1220404642074,511
-905.4006044304027,525
-902.679915427231,528
-899.959973285902,523
-897.2407778375464,494
-894.5223289132158,488
-891.8046263438832,529
-889.0876699604426,500
-886.3714595937089,491
-883.6559950744183,484
-880.9412762332282,501
-878.2273029007168,507
-875.5140749073835,478
-872.8015920836489,492
-870.0898542598545,509
-867.3788612662631,478
-864.6686129330585,485
-861.9591090903457,521
-859.2503495681506,501
-856.5423341964203,506
-853.8350628050229,474
-851.1285352237478,467
-848.4227512823054,458
-845.7177108103272,501
-843.0134136373656,509
-840.3098595928943,493
-837.6070485063082,525
-834.9049802069229,532
-832.2036545239757,516
-829.5030712866244,493
-826.8032303239481,528
-824.1041314649472,501
-821.4057745385428,489
-818.7081593735775,516
-816.0112857988148,523
-813.3151536429393,491
-810.6197627345566,490
-807.9251129021936,513
-805.2312039742981,507
-802.5380357792392,506
-799.8456081453069,509
-797.1539209007124,505
-794.462973873588,497
-791.772766891987,489
-789.083299783884,502
-786.3945723771743,547
-783.7065844996748,497
-781.0193359791231,495
-778.3328266431781,491
-775.6470563194197,527
-772.9620248353489,516
-770.2777320183878,534
-767.5941776958798,516
-764.9113616950891,548
-762.2292838432011,533
-759.5479439673222,506
-756.8673418944801,509
-754.1874774516235,538
-751.5083504656222,521
-748.8299607632671,529
-746.15230817127,515
-743.475392516264,544
-740.7992136248035,540
-738.1237713233636,538
-735.4490654383407,503
-732.7750957960521,536
-730.1018622227365,556
-727.4293645445534,530
-724.7576025875837,514
-722.0865761778291,543
-719.4162851412126,564
-716.7467293035781,548
-714.0779084906909,538
-711.409822528237,552
-708.7424712418238,545
-706.0758544569796,538
-703.4099719991541,583
-700.7448236937178,552
-698.0804093659622,560
-695.4167288411002,564
-692.7537819442656,546
-690.0915685005134,538
-687.4300883348199,558
-684.7693412720819,552
-682.1093271371178,563
-679.4500457546669,551
-676.7914969493897,573
-674.1336805458676,571
-671.4765963686034,551
-668.8202442420206,598
-666.1646239904642,572
-663.5097354382001,584
-660.8555784094151,556
-658.2021527282176,579
-655.5494582186366,593
-652.8974947046223,561
-650.2462620100463,573
-647.5957599587009,588
-644.9459883742998,606
-642.2969470804776,589
-639.6486359007902,581
-637.0010546587141,611
-634.3542031776476,569
-631.7080812809096,601
-629.0626887917401,599
-626.4180255333008,583
-623.7740913286734,571
-621.1308860008619,624
-618.4884093727904,616
-615.8466612673046,571
-613.2056415071715,584
-610.5653499150785,608
-607.9257863136347,615
-605.28695052537,569
-602.6488423727357,618
-600.0114616781036,570
-597.3748082637674,614
-594.7388819519412,601
-592.1036825647604,618
-589.4692099242818,626
-586.8354638524829,616
-584.2024441712624,635
-581.5701507024403,658
-578.9385832677575,619
-576.3077416888759,609
-573.6776257873787,621
-571.0482353847704,625
-568.4195703024757,628
-565.7916303618415,619
-563.164415384135,633
-560.5379251905453,662
-557.9121596021815,604
-555.2871184400748,625
-552.6628015251767,628
-550.0392086783606,612
-547.4163397204204,614
-544.794194472071,670
-542.1727727539491,663
-539.5520743866118,649
-536.9320991905377,700
-534.3128469861261,702
-531.6943175936979,691
-529.0765108334947,751
-526.4594265256793,760
-523.8430644903358,858
-521.2274245474689,959
-518.612506517005,1035
-515.9983102187913,1038
-513.3848354725959,1056
-510.77208209810846,1049
-508.16004991493924,1153
-505.5487387426199,1241
-502.9381484006032,1397
-500.3282787082628,1385
-497.71912948489364,1367
-495.1107005497117,1279
-492.5029917218539,1116
-489.8960028203786,965
-487.28973366426493,949
-484.68418407241325,828
-482.07935386364494,812
-479.47524285670266,819
-476.87185087025,807
-474.2691777228715,793
-471.66722323307334,805
-469.0659872192821,836
-466.4654694998459,808
-463.86566989303384,774
-461.26658821703614,761
-458.66822428996414,801
-456.07057792985,860
-453.4736489546475,775
-450.877437182231,787
-448.28194243039627,769
-445.68716451686,767
-443.09310325926003,763
-440.49975847515555,784
-437.9071299820263,787
-435.31521759727354,776
-432.72402113821954,784
-430.13354042210767,830
-427.5437752661022,825
-424.95472548728867,842
-422.36639090267386,771
-419.7787713291855,818
-417.1918665836721,901
-414.60567648290385,842
-412.0202008435715,830
-409.4354394822874,848
-406.8513922155845,816
-404.26805885991723,896
-401.685439231661,870
-399.103533147112,867
-396.522340422488,867
-393.9418608739278,823
-391.3620943174908,825
-388.7830405691583,836
-386.2046994448317,790
-383.6270707603344,770
-381.05015433141045,739
-378.473949973725,694
-375.8984575028645,680
-373.32367673433623,628
-370.74960748356875,634
-368.1762495659117,586
-365.60360279663576,568
-363.03166699093265,533
-360.4604419639154,526
-357.8899275306178,474
-355.32012350599507,481
-352.7510297049233,469
-350.1826459421999,474
-347.61497203254316,427
-345.04800779059235,440
-342.4817530309082,459
-339.91620756797226,444
-337.35137121618743,448
-334.7872437898774,475
-332.22382510328725,468
-329.66111497058273,451
-327.09911320585127,485
-324.53781962310075,492
-321.9772340362607,491
-319.4173562591816,456
-316.8581861056348,448
-314.2997233893127,437
-311.7419679238294,436
-309.1849195227194,452
-306.62857799943856,485
-304.0729431673641,482
-301.51801483979375,506
-298.963792829947,465
-296.41027695096386,464
-293.85746701590574,484
-291.3053628377552,512
-288.7539642294155,544
-286.2032710037115,517
-283.65328297338897,501
-281.1039999511146,532
-278.5554217494762,521
-276.007548180983,529
-273.4603790580651,538
-270.9139141930734,493
-268.3681533982807,497
-265.8230964858798,544
-263.27874326798565,561
-260.7350935566336,506
-258.1921471637804,508
-255.6499039013039,469
-253.10836358100266,509
-250.56752601459698,532
-248.02739101372765,563
-245.48795838995704,597
-242.94922795476816,545
-240.41119951956557,533
-237.8738728956746,582
-235.33724789434166,618
-232.80132432673452,554
-230.2661020039418,557
-227.73158073697357,562
-225.19776033676033,622
-222.66464061415422,686
-220.1322213799284,628
-217.60050244477725,607
-215.06948361931552,597
-212.53916471408013,622
-210.00954553952818,623
-207.48062590603843,639
-204.9524056239104,599
-202.4248845033651,669
-199.8980623545441,654
-197.37193898751036,661
-194.84651421224817,664
-192.32178783866232,703
-189.79775967657952,747
-187.27442953574644,728
-184.7517972258321,719
-182.2298625564256,693
-179.7086253370378,685
-177.18808537710026,706
-174.66824248596583,677
-172.14909647290835,708
-169.6306471471229,760
-167.11289431772548,766
-164.59583779375328,690
-162.07947738416453,704
-159.5638128978386,787
-157.04884414357605,895
-154.53457093009854,1027
-152.02099306604828,950
-149.50811035998936,758
-146.99592262040665,707
-144.48442965570587,743
-141.97363127421409,825
-139.46352728417958,916
-136.95411749377126,1036
-134.44540171107985,957
-131.93737974411636,783
-129.43005140081357,762
-126.92341648902493,987
-124.41747481652521,1207
-121.91222619101006,1441
-119.40767042009657,1705
-116.90380731132257,2173
-114.40063667214702,2230
-111.8981583099503,1767
-109.3963720320337,1364
-106.89527764561933,1340
-104.39487495785067,1405
-101.89516377579241,1914
-99.39614390642998,2200
-96.89781515667039,2473
-94.40017733334128,2585
-91.90323024319173,2791
-89.40697369289148,3689
-86.91140748903172,5058
-84.41653143812482,5940
-81.92234534660395,4702
-79.42884902082358,3204
-76.93604226705907,4244
-74.4439248915071,8025
-71.95249670028534,12135
-69.46175749943245,13587
-66.97170709490854,13564
-64.48234529259423,11708
-61.99367189829195,9392
-59.50568671772464,7184
-57.01838955653636,6694
-54.53178022029283,6597
-52.045858514480074,5919
-49.560624244506016,6264
-47.07607721569923,6899
-44.59221723330904,7106
-42.10904410250669,6723
-39.62655762838392,6618
-37.14475761595372,6948
-34.66364387015028,7551
-32.18321619582866,7785
-29.70347439776515,8075
-27.224418280657005,8185
-24.74604764912317,8505
-22.26836230770266,11479
-19.7913620608565,19040
-17.315046712966478,33526
-14.83941606833514,47119
-12.36446993118659,65037
-9.89020810566592,65037
-7.416630395839093,65037
-4.94373660569363,65037
-2.471526539137585,65037
-6.821210263296962E-13,65037
2.47084320796705,65037
4.941003281093458,65037
7.410480415786196,65037
9.879274808531363,65037
12.347386655893956,65037
14.814816154518212,65037
17.28156350112681,65037
19.74762889252179,65037
22.21301252558385,65037
24.67771459727237,20404
27.141735304626195,3650
29.605074844762612,2250
32.06773341487792,1779
34.52971121224755,1595
36.99100843422559,1677
39.45162527824516,1562
41.91156194181792,1292
44.370818622535126,1205
46.82939551806646,1089
49.287292826160524,1249
51.74451074464503,1319
54.201049471426245,1213
56.65690920448981,1116
59.112090141899785,1094
61.56659248179983,995
64.02041642241159,925
66.4735621620365,920
68.92602989905402,862
71.37781983192338,911
73.82893215918205,927
76.27936707944684,919
78.72912479141326,967
81.17820549385567,1051
83.62660938562783,1061
86.07433666566146,1139
88.5213875329681,862
90.96776218663751,862
93.41346082583925,889
95.85848364982041,890
98.30283085790859,873
100.7465026495089,893
103.18949922410604,915
105.63182078126385,881
108.07346752062438,959
110.51443964190923,843
112.95473734491827,733
115.39436082953114,741
117.83331029570547,745
120.27158594347827,744
122.7091879729652,860
125.1461165843615,820
127.58237197794062,768
130.01795435405518,770
132.4528639131364,757
134.88710085569494,742
137.32066538231982,714
139.75355769367923,749
142.1857779905207,779
144.61732647366978,770
147.04820334403132,803
149.47840880258934,826
151.90794305040674,819
154.33680628862487,881
156.76499871846443,1041
159.19252054122433,1123
161.61937195828352,1247
164.04555317109896,1359
166.47106438120693,1501
168.89590579022217,1601
171.320077599839,1763
173.7435800118302,1780
176.16641322804742,1753
178.58857745042144,1927
181.01007288096173,1937
183.43089972175687,2027
185.85105817497413,2039
188.27054844285988,2090
190.6893707277394,2060
193.10752523201643,2041
195.5250121581745,2069
197.9418317087751,2162
200.3579840864594,2157
202.7734694939469,2142
205.18828813403627,2216
207.6024402096051,2341
210.01592592360964,2337
212.42874547908548,2336
214.84089907914665,2305
217.2523869269868,2239
219.66320922587727,2227
222.0733661791695,2247
224.48285799029293,2251
226.8916848627572,2362
229.29984700014882,2287
231.7073446061355,2273
234.11417788446204,2274
236.520347038953,2332
238.92585227351185,2293
241.33069379212054,2378
243.73487179884035,2396
246.1383864978112,2367
248.541238093252,2414
250.9434267894609,2437
253.34495279081432,2470
255.74581630176783,2440
258.1460175268563,2479
260.54555667069314,2490
262.9444339379703,2474
265.3426495334594,2375
267.7402036620107,2436
270.1370965285529,2393
272.53332833809407,2384
274.9288992957214,2380
277.32380960660055,2187
279.718059475976,2303
282.1116491091717,2269
284.5045787115897,2307
286.89684848871195,2228
289.2884586460981,2292
291.67940938938807,2286
294.0697009242996,2316
296.4593334566299,2279
298.84830719225477,2214
301.23662233712923,2223
303.6242790972866,2289
306.01127767884,2251
308.39761828798066,2113
310.78330113097934,2205
313.16832641418534,2201
315.5526943440269,2139
317.9364051270112,2097
320.3194589697242,2151
322.70185607883093,2113
325.0835966610754,2089
327.4646809232805,2076
329.8451090723478,2006
332.2248813152577,2043
334.6039978590701,1975
336.9824589109231,1985
339.36026467803447,2014
341.7374153677,1960
344.113911187295,2040
346.48975234427337,1980
348.8649390461686,1950
351.2394715005918,1975
353.61334991523415,2033
355.9865744978655,1913
358.35914545633375,1985
360.73106299856715,1914
363.10232733257146,1972
365.47293866643247,1945
367.84289720831396,1965
370.2122031664593,1927
372.5808567491905,1943
374.9488581649083,1855
377.31620762209275,1884
379.6829053293021,1848
382.0489514951745,1853
384.4143463284262,1820
386.7790900378528,1801
389.14318283232853,1856
391.50662492080653,1884
393.86941651231916,1821
396.23155781597745,1913
398.5930490409713,1888
400.9538903965696,1895
403.3140820921202,1828
405.6736243370498,1818
408.03251734086336,1834
410.3907613131465,1764
412.74835646356166,1787
415.10530300185144,1742
417.4616011378372,1809
419.81725108141893,1807
422.1722530425758,1782
424.5266072313656,1831
426.880313857925,1863
429.2333731324701,1777
431.58578526529516,1787
433.9375504667738,1764
436.2886689473588,1863
438.63914091758113,1799
440.9889665880513,1768
443.33814616945835,1800
445.68667987257015,1756
448.03456790823395,1798
450.3818104873759,1744
452.72840782100013,1700
455.07436012019105,1734
457.41966759611057,1781
459.7643304600007,1715
462.10834892318155,1715
464.4517231970525,1750
466.79445349309174,1800
469.1365400228566,1756
471.4779829979826,1797
473.81878263018564,1786
476.15893913125876,1725
478.4984527130747,1776
480.8373235875855,1838
483.17555196682144,1844
485.5131380628919,1924
487.8500820879857,1994
490.1863842543697,2058
492.52204477439034,2140
494.8570638604725,2383
497.1914417251204,2625
499.52517858091653,2862
501.85827464052306,3178
504.19073011668036,3342
506.5225452222086,3253
508.85372017000566,3205
511.18425517304956,3263
513.514150444396,3364
515.8434061971808,3931
518.1720226446176,4818
520.4999999999999,5038
522.8273384766991,4676
525.1540382881666,4205
527.480099647932,3623
529.8055227696037,2983
532.1303078668694,2455
534.454455153496,2154
536.777964843328,2050
539.1008371502907,1973
541.4230722883866,1953
543.744670471698,1907
546.0656319143858,1914
548.3859568306899,1874
550.7056454349294,1902
553.0246979415016,1861
555.3431145648834,1796
557.6608955196306,1731
559.978041020377,1759
562.2945512818363,1777
564.6104265188006,1902
566.9256669461412,1891
569.2402727788082,1851
571.5542442318302,1872
573.8675815203156,1802
576.1802848594508,1782
578.4923544645015,1816
580.8037905508126,1836
583.114593333807,1786
585.4247630289875,1876
587.7342998519354,1844
590.0432040183106,1872
592.3514757438526,1840
594.6591152443794,1846
596.9661227357875,1909
599.2724984340531,1857
601.578242555231,1851
603.8833553154542,1820
606.1878369309362,1860
608.4916876179676,1889
610.7949075929192,1790
613.0974970722403,1809
615.3994562724587,1816
617.7007854101818,1820
620.0014847020951,1852
622.3015543649641,1829
624.6009946156324,1806
626.8998056710224,1839
629.1979877481361,1858
631.4955410640538,1847
633.7924658359349,1816
636.0887622810175,1829
638.3844306166192,1826
640.6794710601358,1801
642.9738838290426,1893
645.2676691408932,1849
647.5608272133207,1769
649.853358264037,1961
652.1452625108324,1827
654.4365401715764,1900
656.7271914642178,1832
659.0172166067838,1875
661.3066158173809,1893
663.5953893141935,1873
665.8835373154867,1829
668.1710600396028,1781
670.4579577049639,1782
672.7442305300709,1862
675.0298787335033,1903
677.3149025339197,1844
679.599302150058,1876
681.8830778007342,1841
684.1662297048437,1813
686.4487580813608,1913
688.7306631493387,1909
691.0119451279091,1820
693.2926042362834,1823
695.5726406937516,1847
697.8520547196814,1804
700.1308465335215,1854
702.4090163547982,1858
704.6865644031171,1858
706.9634908981619,1891
709.2397960596965,1844
711.5154801075631,1823
713.7905432616823,1834
716.0649857420548,1837
718.3388077687592,1837
720.612009561953,1776
722.8845913418733,1843
725.1565533288352,1861
727.427895743234,1781
729.6986188055427,1809
731.9687227363137,1834
734.238207756178,1860
736.5070740858458,1821
738.7753219461066,1836
741.0429515578281,1758
743.3099631419569,1866
745.5763569195191,1836
747.8421331116193,1816
750.1072919394409,1892
752.3718336242467,1774
754.6357583873777,1845
756.8990664502545,1873
759.1617580343765,1781
761.423833361321,1790
763.6852926527457,1789
765.9461361303862,1854
768.206364016058,1951
770.4659765316536,1861
772.7249738991469,1798
774.9833563405886,1817
777.2411240781092,1933
779.4982773339183,1877
781.7548163303044,1877
784.010741289634,1838
786.2660524343538,1952
788.5207499869881,1908
790.7748341701416,1920
793.0283052064964,1856
795.2811633188143,1872
797.5334087299362,1918
799.7850416627813,1950
802.0360623403484,1897
804.2864709857143,1834
806.5362678220353,1918
808.7854530725468,1897
811.0340269605625,1867
813.2819897094754,1878
815.5293415427581,1860
817.77608268396,1940
820.0222133567116,1898
822.2677337847211,1898
824.5126441917765,1814
826.7569448017433,1909
829.0006358385675,1897
831.2437175262731,1836
833.4861900889629,1853
835.7280537508192,1794
837.9693087361026,1848
840.2099552691533,1853
842.4499935743896,1891
844.689423876309,1860
846.9282463994886,1819
849.1664613685833,1865
851.4040690083276,1874
853.6410695435349,1855
855.877463199097,1932
858.1132501999847,1863
860.3484307712487,1892
862.5830051380175,1840
864.8169735254988,1948
867.0503361589791,1935
869.2830932638243,1886
871.5152450654786,1913
873.7467917894654,1876
875.9777336613873,1838
878.2080709069252,1918
880.4378037518389,1884
882.666932421968,1937
884.8954571432301,1902
887.1233781416219,1942
889.3506956432192,1886
891.5774098741766,1940
893.803521060728,1973
896.0290294291852,1834
898.2539352059397,1884
900.4782386174619,1953
902.7019398903011,1878
904.925039251085,1949
907.147536926521,1917
909.3694331433943,1918
911.59072812857,1926
913.8114221089921,1852
916.0315153116827,1864
918.2510079637437,1847
920.4699002923547,1889
922.6881925247761,1892
924.905884888345,1859
927.1229776104793,1849
929.3394709186747,1889
931.555365040506,1854
933.7706602036275,1849
935.9853566357709,1890
938.1994545647489,1863
940.4129542184515,1935
942.6258558248488,1884
944.8381596119883,1849
947.0498658079974,1899
949.2609746410825,1854
951.4714863395287,1811
953.6814011316998,1832
955.8907192460387,1836
958.0994409110671,1794
960.3075663553858,1894
962.5150958076741,1807
964.7220294966913,1765
966.928367651274,1850
969.1341105003388,1818
971.3392582728806,1840
973.5438111979742,1795
975.747769504772,1801
977.9511334225061,1802
980.153903180487,1727
982.3560790081052,1785
984.5576611348289,1731
986.7586497902058,1788
988.9590452038618,1694
991.158847605503,1715
993.3580572249133,1755
995.5566742919558,1698
997.7546990365728,1714
999.952131688785,1668
1002.1489724786926,1643
1004.3452216364743,1586
1006.5408793923874,1596
1008.7359459767691,1573
1010.9304216200343,1596
1013.1243065526781,1550
1015.3176010052733,1513
1017.510305208472,1539
1019.7024193930064,1495
1021.8939437896848,1524
1024.0848786293977,1537
1026.2752241431122,1526
1028.4649805618747,1523
1030.6541481168115,1464
1032.842727039127,1507
1035.0307175601051,1588
1037.2181199111074,1538
1039.4049343235752,1466
1041.591161029029,1487
1043.7768002590683,1541
1045.9618522453698,1544
1048.1463172196918,1481
1050.3301954138697,1484
1052.513487059818,1445
1054.69619238953,1531
1056.8783116350783,1475
1059.0598450286152,1425
1061.2407928023704,1490
1063.4211551886528,1497
1065.6009324198508,1500
1067.780124728432,1482
1069.9587323469414,1514
1072.1367555080046,1503
1074.314194444325,1487
1076.4910493886855,1457
1078.667320573947,1459
1080.843008233051,1464
1083.0181125990161,1437
1085.1926339049414,1374
1087.3665723840027,1499
1089.5399282694575,1455
1091.7127017946405,1477
1093.8848931929647,1395
1096.0565026979243,1446
1098.2275305430899,1424
1100.3979769621128,1442
1102.567842188722,1409
1104.737126456726,1445
1106.9058300000124,1457
1109.0739530525475,1363
1111.2414958483764,1420
1113.4084586216231,1420
1115.5748416064907,1375
1117.7406450372605,1410
1119.9058691482942,1328
1122.0705141740304,1390
1124.2345803489884,1416
1126.3980679077658,1379
1128.5609770850388,1403
1130.7233081155623,1390
1132.8850612341707,1405
1135.0462366757774,1385
1137.2068346753745,1404
1139.3668554680326,1423
1141.526299288901,1382
1143.68516637321,1414
1145.8434569562655,1411
1148.001171273455,1401
1150.158309560244,1427
1152.3148720521767,1373
1154.470858984876,1360
1156.626270594044,1342
1158.7811071154629,1330
1160.9353687849912,1421
1163.089055838569,1359
1165.242168512213,1360
1167.3947070420209,1382
1169.5466716641677,1383
1171.6980626149075,1368
1173.8488801305748,1321
1175.9991244475814,1361
1178.1487958024186,1354
1180.2978944316555,1332
1182.4464205719428,1345
1184.5943744600072,1374
1186.7417563326567,1342
1188.8885664267755,1407
1191.0348049793297,1393
1193.1804722273619,1332
1195.325568407995,1402
1197.4700937584303,1354
1199.614048515948,1374
1201.7574329179074,1382
1203.900247201746,1365
1206.042491604982,1390
1208.1841663652099,1347
1210.3252717201053,1388
1212.465807907422,1322
1214.6057751649923,1368
1216.7451737307279,1331
1218.8840038426192,1341
1221.0222657387353,1371
1223.1599596572241,1351
1225.2970858363137,1376
1227.4336445143094,1388
1229.5696359295966,1348
1231.705060320639,1427
1233.8399179259786,1402
1235.9742089842384,1401
1238.107933734118,1371
1240.2410924143974,1437
1242.373685263935,1421
1244.5057125216676,1379
1246.6371744266116,1386
1248.7680712178621,1392
1250.898403134593,1407
1253.028170416058,1414
1255.1573733015875,1399
1257.2860120305932,1414
1259.4140868425648,1379
1261.54159797707,1469
1263.6685456737569,1478
1265.7949301723515,1425
1267.9207517126597,1450
1270.046010534565,1410
1272.1707068780306,1369
1274.2948409830983,1444
1276.4184130898889,1453
1278.541423438603,1437
1280.6638722695184,1487
1282.785759822993,1444
1284.9070863394636,1458
1287.0278520594447,1475
1289.1480572235314,1404
1291.2677020723963,1494
1293.3867868467923,1399
1295.5053117875495,1512
1297.623277135579,1496
1299.740683131868,1469
1301.8575300174857,1472
1303.973818033578,1475
1306.0895474213703,1502
1308.2047184221678,1538
1310.3193312773528,1489
1312.4333862283888,1547
1314.5468835168163,1520
1316.659823384255,1492
1318.7722060724045,1554
1320.8840318230418,1501
1322.9953008780249,1507
1325.1060134792888,1503
1327.2161698688478,1493
1329.3257702887959,1549
1331.4348149813054,1581
1333.5433041886276,1539
1335.6512381530933,1531
1337.7586171171101,1497
1339.8654413231675,1527
1341.9717110138317,1510
1344.0774264317488,1523
1346.1825878196432,1512
1348.2871954203192,1491
1350.3912494766587,1501
1352.4947502316231,1459
1354.5976979282532,1516
1356.7000928096686,1495
1358.8019351190665,1518
1360.9032250997243,1535
1363.0039629949988,1517
1365.1041490483235,1451
1367.2037835032133,1469
1369.3028666032606,1517
1371.401398592137,1523
1373.4993797135926,1507
1375.5968102114575,1496
1377.6936903296396,1514
1379.7900203121262,1592
1381.8858004029835,1468
1383.9810308463561,1501
1386.075711886469,1516
1388.1698437676241,1536
1390.2634267342032,1475
1392.356461030667,1529
1394.4489469015557,1473
1396.5408845914872,1521
1398.6322743451592,1489
1400.7231164073469,1440
1402.813411022907,1497
1404.903158436773,1525
1406.9923588939578,1571
1409.0810126395531,1572
1411.1691199187303,1488
1413.2566809767386,1505
1415.343696058907,1542
1417.4301654106425,1552
1419.5160892774315,1542
1421.6014679048399,1477
1423.6863015385125,1561
1425.7705904241707,1540
1427.8543348076178,1577
1429.9375349347342,1584
1432.0201910514802,1596
1434.102303403894,1560
1436.1838722380944,1562
1438.2648978002767,1577
1440.3453803367174,1596
1442.4253200937692,1560
1444.5047173178677,1619
1446.5835722555234,1665
1448.6618851533285,1590
1450.739656257952,1579
1452.8168858161434,1645
1454.8935740747306,1642
1456.96972128062,1652
1459.045327680797,1646
1461.120393522327,1702
1463.1949190523528,1722
1465.2689045180973,1660
1467.3423501668608,1674
1469.415256246024,1763
1471.4876230030463,1759
1473.559450685465,1773
1475.6307395408976,1798
1477.7014898170391,1738
1479.771701761665,1842
1481.8413756226287,1822
1483.9105116478618,1868
1485.9791100853772,1856
1488.0471711832643,1832
1490.1146951896926,1887
1492.1816823529098,1909
1494.2481329212433,1971
1496.3140471430984,1968
1498.3794252669609,1981
1500.4442675413939,1981
1502.5085742150404,1999
1504.572345536622,1959
1506.6355817549388,2027
1508.6982831188702,1978
1510.7604498773744,1988
1512.8220822794883,1976
1514.8831805743293,1986
1516.9437450110909,1981
1519.003775839048,2024
1521.0632733075522,2090
1523.1222376660367,1997
1525.1806691640113,1999
1527.2385680510652,2076
1529.2959345768668,2036
1531.3527689911643,2120
1533.4090715437833,2178
1535.4648424846291,2143
1537.5200820636855,2096
1539.5747905310159,2208
1541.6289681367616,2194
1543.6826151311434,2225
1545.7357317644614,2256
1547.7883182870937,2211
1549.8403749494987,2224
1551.8919020022113,2228
1553.9428996958477,2292
1555.9933682811015,2363
1558.0433080087469,2427
1560.0927191296346,2472
1562.1416018946961,2480
1564.1899565549415,2455
1566.2377833614592,2472
1568.2850825654164,2522
1570.3318544180606,2423
1572.3780991707158,2340
1574.423817074788,2264
1576.4690083817595,2227
1578.5136733431923,2193
1580.5578122107272,2173
1582.601425236085,2106
1584.6445126710646,2017
1586.6870747675434,1948
1588.7291117774776,1918
1590.7706239529034,1884
1592.8116115459347,1894
1594.8520748087658,1790
1596.8920139936686,1725
1598.9314293529933,1742
1600.9703211391711,1733
1603.008689604711,1709
1605.0465350022005,1689
1607.0838575843068,1658
1609.1206576037753,1519
1611.1569353134305,1580
1613.1926909661765,1576
1615.2279248149953,1571
1617.2626371129481,1570
1619.2968281131757,1503
1621.3304980688963,1493
1623.3636472334088,1487
1625.39627586009,1509
1627.428384202396,1525
1629.459972513861,1486
1631.4910410480993,1435
1633.5215900588028,1392
1635.551619799744,1435
1637.5811305247717,1431
1639.6101224878166,1468
1641.6385959428862,1428
1643.6665511440683,1440
1645.693988345528,1466
1647.7209078015112,1421
1649.7473097663405,1453
1651.7731944944203,1456
1653.7985622402307,1398
1655.823413258333,1431
1657.847747803366,1422
1659.8715661300494,1434
1661.8948684931793,1417
1663.9176551476316,1398
1665.9399263483624,1390
1667.9616823504057,1403
1669.982923408873,1379
1672.0036497789574,1438
1674.0238617159293,1370
1676.043559475138,1435
1678.0627433120121,1427
1680.081413482059,1445
1682.0995702408654,1372
1684.117213844096,1378
1686.134344547495,1385
1688.1509626068864,1389
1690.1670682781705,1355
1692.182661817329,1356
1694.1977434804217,1433
1696.2123135235875,1428
1698.226372203043,1359
1700.2399197750851,1331
1702.2529564960905,1377
1704.2654826225112,1380
1706.277498410882,1336
1708.2890041178139,1375
1710.2999999999988,1332
1712.3104863142066,1352
1714.3204633172854,1407
1716.329931266163,1336
1718.3388904178469,1366
1720.3473410294214,1325
1722.3552833580516,1398
1724.3627176609807,1389
1726.3696441955308,1386
1728.3760632191033,1399
1730.3819749891782,1374
1732.3873797633146,1404
1734.3922777991502,1405
1736.3966693544012,1390
1738.4005546868639,1345
1740.4039340544127,1378
1742.406807715001,1370
1744.4091759266616,1358
1746.4110389475054,1338
1748.4123970357223,1378
1750.413250449582,1378
1752.4135994474318,1344
1754.4134442876993,1359
1756.4127852288902,1339
1758.4116225295893,1344
1760.4099564484595,1317
1762.407787244244,1344
1764.405115175764,1283
1766.4019405019203,1320
1768.3982634816916,1263
1770.3940843741357,1311
1772.3894034383907,1315
1774.3842209336717,1319
1776.378537119274,1362
1778.372352254571,1315
1780.3656665990156,1340
1782.3584804121397,1262
1784.3507939535534,1319
1786.3426074829463,1312
1788.3339212600863,1345
1790.3247355448211,1374
1792.3150505970766,1365
1794.3048666768573,1324
1796.2941840442477,1409
1798.2830029594106,1374
1800.2713236825884,1301
1802.2591464741004,1376
1804.2464715943465,1406
1806.2332993038058,1328
1808.2196298630352,1355
1810.2054635326708,1313
1812.190800573428,1354
1814.175641246101,1290
1816.1599858115628,1296
1818.1438345307652,1319
1820.127187664738,1321
1822.1100454745924,1314
1824.092408221516,1283
1826.0742761667766,1335
1828.055649571721,1320
1830.0365286977735,1330
1832.0169138064398,1391
1833.9968051593014,1348
1835.9762030180214,1321
1837.9551076443408,1377
1839.9335193000788,1316
1841.9114382471344,1374
1843.888864747485,1297
1845.8657990631878,1336
1847.842241456378,1308
1849.8181921892697,1297
1851.7936515241558,1323
1853.7686197234098,1314
1855.7430970494815,1273
1857.7170837649014,1256
1859.6905801322787,1318
1861.6635864143004,1368
1863.6361028737338,1357
1865.608129773424,1331
1867.5796673762961,1278
1869.5507159453537,1343
1871.521275743678,1324
1873.4913470344313,1365
1875.4609300808534,1377
1877.4300251462632,1321
1879.3986324940588,1328
1881.366752387717,1330
1883.3343850907936,1340
1885.3015308669228,1395
1887.268189979819,1319
1889.2343626932739,1344
1891.2000492711595,1321
1893.1652499774254,1343
1895.1299650761011,1366
1897.0941948312952,1335
1899.0579395071945,1305
1901.0211993680641,1377
1902.98397467825,1336
1904.9462657021745,1335
1906.9080727043415,1338
1908.869395949332,1337
1910.8302357018065,1306
1912.790592226504,1364
1914.7504657882428,1312
1916.7098566519212,1309
1918.6687650825133,1358
1920.6271913450764,1332
1922.5851357047422,1402
1924.5425984267245,1333
1926.499579776314,1343
1928.4560800188833,1403
1930.4120994198802,1318
1932.367638244833,1332
1934.32269675935,1381
1936.2772752291175,1371
1938.231373919899,1335
1940.1849930975404,1356
1942.1381330279637,1373
1944.0907939771696,1277
1946.0429762112412,1393
1947.9946799963363,1331
1949.9459055986945,1339
1951.896653284633,1363
1953.8469233205478,1308
1955.7967159729142,1350
1957.7460315082863,1281
1959.6948701932974,1298
1961.6432322946594,1323
1963.5911180791632,1337
1965.5385278136787,1325
1967.4854617651545,1332
1969.4319202006182,1350
1971.377903387176,1321
1973.3234115920136,1348
1975.268445082395,1355
1977.2130041256642,1347
1979.1570889892423,1284
1981.1006999406304,1314
1983.04383724741,1345
1984.986501177238,1332
1986.928691997853,1384
1988.8704099770712,1373
1990.811655382789,1332
1992.7524284829801,1339
1994.692729545698,1288
1996.6325588390755,1295
1998.5719166313224,1323
2000.5108031907307,1367
2002.4492187856677,1351
2004.387163684583,1333
2006.3246381560011,1341
2008.2616424685298,1301
2010.1981768908527,1337
2012.1342416917332,1315
2014.069837140014,1268
2016.0049635046162,1317
2017.9396210545406,1312
2019.8738100588666,1284
2021.8075307867502,1366
2023.740783507431,1253
2025.6735684902228,1346
2027.6058860045214,1290
2029.5377363198004,1288
2031.4691197056118,1257
2033.4000364315875,1308
2035.3304867674374,1302
2037.260470982952,1345
2039.189989347998,1336
2041.1190421325232,1301
2043.047629606554,1300
2044.9757520401945,1276
2046.9034097036288,1384
2048.8306028671195,1361
2050.7573318010086,1296
2052.683596775716,1307
2054.609398061742,1333
2056.5347359296647,1338
2058.4596106501403,1275
2060.384022493906,1288
2062.3079717317764,1328
2064.231458634646,1310
2066.1544834734873,1299
2068.077046519352,1263
2069.99914804337,1299
2071.9207883167524,1246
2073.8419676107865,1324
2075.7626861968406,1274
2077.6829443463607,1277
2079.6027423308715,1285
2081.522080421977,1287
2083.440958891362,1339
2085.359378010786,1345
2087.2773380520907,1326
2089.194839287196,1352
2091.111881988101,1274
2093.0284664268825,1334
2094.9445928756973,1309
2096.86026160678,1318
2098.775472892446,1349
2100.690227005088,1278
2102.604524217178,1291
2104.5183648012676,1326
2106.431749029985,1312
2108.34467717604,1328
2110.2571495122206,1301
2112.169166311393,1312
2114.080727846503,1310
2115.9918343905747,1276
2117.902486216711,1262
2119.8126835980956,1300
2121.722426807987,1376
2123.6317161197285,1326
2125.5405518067364,1356
2127.448934142509,1362
2129.356863400624,1298
2131.264339854737,1421
2133.1713637785815,1333
2135.077935445972,1365
2136.9840551308002,1314
2138.889723107037,1333
2140.7949396487334,1290
2142.699705030018,1347
2144.6040195250994,1309
2146.507883408264,1402
2148.4112969538774,1319
2150.3142604363848,1351
2152.2167741303097,1359
2154.1188383102535,1319
2156.0204532508997,1348
2157.9216192270064,1334
2159.822336513414,1292
2161.7226053850413,1372
2163.622426116884,1353
2165.5217989840185,1405
2167.4207242616,1369
2169.319202224862,1434
2171.2172331491165,1378
2173.1148173097563,1316
2175.0119549822507,1407
2176.90864644215,1387
2178.8048919650823,1341
2180.7006918267534,1369
2182.596046302952,1396
2184.4909556695407,1348
2186.3854202024645,1452
2188.279440177746,1369
2190.173015871487,1372
2192.066147559868,1397
2193.958835519149,1377
2195.851080025667,1382
2197.7428813558417,1407
2199.6342397861667,1401
2201.5251555932186,1383
2203.415629053651,1417
2205.3056604441986,1423
2207.19525004167,1369
2209.084398122958,1444
2210.9731049650327,1404
2212.861370844941,1440
2214.749196039812,1405
2216.636580826851,1418
2218.523525483344,1404
2220.410030286655,1452
2222.296095514226,1426
2224.1817214435805,1468
2226.066908352319,1451
2227.951656518121,1489
2229.835966218746,1405
2231.71983773203,1470
2233.6032713358913,1376
2235.486267308324,1470
2237.3688259274036,1413
2239.2509474712824,1419
2241.132632218193,1426
2243.013880446447,1430
2244.8946924344323,1456
2246.7750684606203,1458
2248.6550088035574,1450
2250.534513741871,1423
2252.413583554265,1466
2254.292218519526,1391
2256.170418916517,1439
2258.0481850241786,1412
2259.925517121534,1396
2261.8024154876825,1433
2263.678880401803,1388
2265.5549121431536,1429
2267.430510991071,1410
2269.305677224971,1460
2271.180411124348,1423
2273.0547129687766,1448
2274.9285830379076,1426
2276.8020216114737,1417
2278.6750289692845,1436
2280.5476053912294,1421
2282.4197511572766,1391
2284.2914665474727,1421
2286.162751841943,1438
2288.0336073208937,1506
2289.904033264608,1489
2291.774029953448,1451
2293.6435976678554,1533
2295.5127366883517,1431
2297.381447295534,1420
2299.2497297700825,1354
2301.1175843927526,1356
2302.9850114443825,1311
2304.852011205885,1269
2306.7185839582553,1279
2308.5847299825664,1261
2310.4504495599676,1288
2312.3157429716925,1246
2314.1806104990483,1235
2316.0450524234247,1230
2317.9090690262888,1210
2319.772660589186,1221
2321.635827393742,1185
2323.498569721661,1218
2325.3608878547248,1180
2327.2227820747967,1187
2329.0842526638157,1167
2330.945299903803,1250
2332.805924076857,1212
2334.6661254651535,1206
2336.525904350951,1184
2338.3852610165827,1133
2340.244195744464,1198
2342.102708817088,1196
2343.9608005170253,1211
2345.8184711269287,1191
2347.675720929526,1173
2349.532550207628,1316
2351.38895924412,1214
2353.24494832197,1234
2355.100517724223,1266
2356.955667734004,1255
2358.810398634514,1201
2360.664710709037,1195
2362.5186042409337,1220
2364.3720795136437,1233
2366.225136810686,1269
2368.0777764156583,1233
2369.929998612237,1257
2371.7818036841777,1263
2373.633191915315,1267
2375.484163589562,1218
2377.3347189909114,1209
2379.184858403434,1227
2381.03458211128,1191
2382.8838903986775,1239
2384.732783549936,1224
2386.5812618494406,1201
2388.4293255816588,1203
2390.2769750311327,1186
2392.1242104824883,1287
2393.971032220427,1247
2395.8174405297295,1235
2397.6634356952563,1205
2399.509018001947,1250
2401.3541877348193,1201
2403.1989451789705,1254
2405.043290619576,1228
2406.8872243418905,1213
2408.730746631247,1249
2410.5738577730594,1276
2412.4165580528183,1233
2414.258847756095,1228
2416.100727168537,1226
2417.9421965758734,1202
2419.783256263912,1214
2421.623906518538,1210
2423.4641476257157,1252
2425.303979871491,1237
2427.143403541984,1216
2428.9824189233977,1248
2430.821026302012,1223
2432.6592259641866,1270
2434.497018196361,1232
2436.33440328505,1282
2438.171381516851,1291
2440.00795317844,1220
2441.844118556569,1269
2443.6798779380724,1251
2445.5152316098606,1212
2447.3501798589255,1287
2449.1847229723357,1293
2451.0188612372403,1249
2452.8525949408663,1269
2454.6859243705203,1248
2456.518849813587,1243
2458.3513715575314,1226
2460.183489889895,1232
2462.015205098301,1268
2463.8465174704493,1241
2465.67742729412,1250
2467.5079348571717,1254
2469.338040447542,1225
2471.1677443532476,1312
2472.9970468623833,1282
2474.825948263123,1206
2476.6544488437207,1231
2478.482548892508,1259
2480.310248697896,1255
2482.137548548374,1201
2483.9644487325118,1256
2485.790949538956,1270
2487.617051256433,1281
2489.44275417375,1230
2491.26805857979,1281
2493.0929647635157,1209
2494.917473013971,1209
2496.741583620276,1252
2498.5652968716304,1203
2500.3886130573137,1210
2502.2115324666834,1206
2504.0340553891765,1238
2505.856182114308,1231
2507.6779129316733,1256
2509.499248130945,1264
2511.3201880018764,1285
2513.140732834298,1238
2514.9608829181198,1255
2516.780638543331,1297
2518.6,1269
2520.418967578273,1301
2522.237541568376,1296
2524.0557222606144,1269
2525.8735099453706,1297
2527.6909049131086,1275
2529.507907454368,1302
2531.32451785977,1208
2533.140736420014,1236
2534.9565634258774,1333
2536.771999168218,1297
2538.5870439379714,1317
2540.4016980261526,1307
2542.2159617238544,1340
2544.02983532225,1287
2545.8433191125914,1356
2547.656413386209,1332
2549.4691184345115,1364
2551.2814345489874,1297
2553.093362021204,1365
2554.904901142808,1389
2556.716052205523,1356
2558.526815501153,1337
2560.3371913215824,1311
2562.147179958771,1363
2563.956781704761,1380
2565.7659968516705,1331
2567.5748256916986,1462
2569.3832685171224,1361
2571.1913256202984,1358
2572.9989972936614,1387
2574.806283829725,1375
2576.613185521084,1390
2578.4197026604074,1349
2580.2258355404483,1369
2582.031584454035,1353
2583.836949694077,1354
2585.6419315535613,1394
2587.4465303255533,1415
2589.2507463032002,1404
2591.0545797797245,1399
2592.8580310484303,1435
2594.6611004026995,1418
2596.463788135992,1407
2598.266094541849,1347
2600.0680199138874,1484
2601.869564545807,1392
2603.670728731383,1361
2605.4715127644704,1426
2607.2719169390048,1413
2609.071941548998,1447
2610.8715868885433,1424
2612.670853251811,1360
2614.469740933052,1439
2616.268250226594,1381
2618.0663814268455,1363
2619.864134828292,1360
2621.6615107255006,1422
2623.458509413115,1318
2625.2551311858597,1444
2627.0513763385347,1427
2628.8472451660223,1353
2630.6427379632833,1416
2632.4378550253564,1312
2634.232596647359,1409
2636.026963124488,1377
2637.8209547520187,1382
2639.6145718253065,1328
2641.407814639785,1378
2643.200683490966,1326
2644.9931786744414,1299
2646.7853004858807,1384
2648.577049221034,1391
2650.3684251757277,1383
2652.1594286458712,1404
2653.9500599274484,1344
2655.740319316525,1314
2657.5302071092437,1337
2659.3197236018286,1341
2661.10886909058,1363
2662.8976438718782,1340
2664.686048242183,1309
2666.4740824980327,1267
2668.2617469360443,1322
2670.0490418529134,1308
2671.8359675454153,1338
2673.622524310403,1302
2675.408712444811,1308
2677.1945322456495,1308
2678.979984010009,1340
2680.76506803506,1282
2682.5497846180497,1321
2684.334134056306,1267
2686.1181166472343,1243
2687.9017326883213,1242
2689.6849824771293,1228
2691.4678663113013,1237
2693.2503844885596,1233
2695.032537306705,1253
2696.8143250636167,1241
2698.5957480572542,1291
2700.3768065856534,1247
2702.1575009469316,1246
2703.937831439283,1237
2705.717798360982,1255
2707.4974020103837,1285
2709.276642685917,1279
2711.055520686095,1245
2712.834036309506,1215
2714.612189854819,1255
2716.389981620782,1236
2718.1674119062204,1225
2719.944481010041,1225
2721.721189231226,1177
2723.4975368688415,1204
2725.273524222027,1225
2727.0491515900053,1196
2728.824419272075,1245
2730.5993275676146,1254
2732.3738767760838,1223
2734.148067197016,1165
2735.921899130031,1266
2737.6953728748194,1198
2739.468488731156,1210
2741.2412469988926,1198
2743.0136479779617,1185
2744.785691968372,1235
2746.5573792702116,1211
2748.3287101836504,1227
2750.099685008934,1243
2751.870304046388,1180
2753.640567596418,1199
2755.4104759595057,1191
2757.1800294362156,1198
2758.949228327187,1175
2760.7180729331412,1151
2762.486563554877,1216
2764.254700493272,1218
2766.022484049284,1203
2767.789914523947,1180
2769.5569922183786,1207
2771.3237174337705,1216
2773.090090471394,1203
2774.8561116326036,1208
2776.6217812188274,1216
2778.3870995315756,1151
2780.1520668724356,1170
2781.9166835430747,1190
2783.6809498452394,1199
2785.444866080754,1211
2787.2084325515225,1241
2788.971649559527,1214
2790.73451740683,1206
2792.4970363955713,1217
2794.2592068279705,1211
2796.0210290063264,1192
2797.7825032330147,1223
2799.543629810493,1200
2801.304409041296,1217
2803.0648412280366,1150
2804.8249266734088,1233
2806.5846656801846,1209
2808.344058551212,1190
2810.1031055894246,1201
2811.8618070978273,1234
2813.6201633795085,1207
2815.378174737636,1269
2817.1358414754536,1243
2818.893163896285,1196
2820.6501423035334,1180
2822.4067770006814,1249
2824.1630682912883,1210
2825.9190164789957,1173
2827.6746218675207,1215
2829.429884760661,1209
2831.184805462294,1194
2832.9393842763743,1177
2834.693621506936,1195
2836.4475174580916,1194
2838.201072434034,1225
2839.954286739034,1219
2841.707160677441,1240
2843.459694553685,1220
2845.2118886722724,1185
2846.96374333779,1193
2848.7152588549034,1241
2850.4664355283567,1125
2852.217273662973,1257
2853.9677735636546,1219
2855.7179355353833,1231
2857.4677598832186,1185
2859.217246912299,1269
2860.9663969278427,1212
2862.715210235146,1203
2864.4636871395846,1182
2866.211827946614,1208
2867.9596329617652,1230
2869.7071024906536,1153
2871.4542368389684,1210
2873.20103631248,1216
2874.947501217038,1202
2876.6936318585695,1202
2878.4394285430812,1202
2880.1848915766604,1160
2881.9300212654707,1134
2883.6748179157553,1201
2885.4192818338374,1168
2887.1634133261173,1191
2888.907212699077,1259
2890.6506802592744,1225
2892.393816313348,1229
2894.1366211680142,1212
2895.8790951300693,1209
2897.621238506388,1206
2899.363051603925,1229
2901.1045347297118,1223
2902.8456881908596,1254
2904.58651229456,1263
2906.327007348081,1173
2908.067173658772,1225
2909.8070115340597,1197
2911.5465212814497,1213
2913.285703208527,1204
2915.0245576229563,1205
2916.7630848324807,1241
2918.5012851449196,1209
2920.2391588681758,1227
2921.976706310227,1227
2923.7139277791334,1209
2925.4508235830313,1190
2927.187394030137,1212
2928.923639428745,1230
2930.6595600872306,1264
2932.395156314046,1211
2934.1304284177218,1267
2935.8653767068713,1214
2937.6000014901815,1193
2939.3343030764227,1199
2941.068281774442,1243
2942.8019378931644,1234
2944.5352717415976,1202
2946.2682836288236,1251
2948.0009738640065,1247
2949.7333427563885,1243
2951.465390615289,1203
2953.1971177501086,1180
2954.9285244703265,1234
2956.6596110855,1169
2958.3903779052657,1188
2960.1208252393385,1225
2961.8509533975125,1203
2963.5807626896617,1212
2965.3102534257378,1231
2967.0394259157715,1175
2968.768280469873,1166
2970.496817398232,1228
2972.2250370111146,1151
2973.952939618869,1221
2975.6805255319196,1222
2977.4077950607707,1229
2979.134748516006,1231
2980.861386208289,1170
2982.587708448359,1199
2984.313715547037,1229
2986.039407815222,1210
2987.764785563891,1258
2989.489849104102,1185
2991.2145987469908,1154
2992.9390348037705,1202
2994.6631575857346,1206
2996.3869674042576,1217
2998.1104645707887,1204
2999.83364939686,1239
3001.5565221940783,1190
3003.2790832741334,1166
3005.0013329487924,1165
3006.7232715298996,1169
3008.4448993293804,1159
3010.166216659239,1201
3011.887223831558,1176
3013.607921158498,1214
3015.3283089522993,1189
3017.0483875252826,1172
3018.7681571898443,1209
3020.4876182584626,1234
3022.2067710436927,1190
3023.9256158581707,1192
3025.644153014609,1202
3027.362382825801,1178
3029.0803056046193,1152
3030.797921664012,1220
3032.5152313170106,1191
3034.2322348767225,1212
3035.9489326563353,1154
3037.665324969115,1172
3039.3814121284063,1187
3041.097194447633,1171
3042.812672240299,1184
3044.5278458199855,1205
3046.2427155003525,1203
3047.9572815951406,1218
3049.671544418167,1205
3051.38550428333,1145
3053.0991615046073,1169
3054.812516396051,1200
3056.5255692717974,1151
3058.2383204460575,1135
3059.9507702331257,1206
3061.662918947372,1177
3063.3747669032446,1215
3065.0863144152736,1233
3066.7975617980674,1194
3068.508509366309,1224
3070.219157434767,1192
3071.9295063182844,1198
3073.639556331785,1154
3075.3493077902704,1163
3077.058761008821,1210
3078.7679163025964,1204
3080.476773986837,1159
3082.1853343768594,1194
3083.89359778806,1214
3085.6015645359153,1195
3087.3092349359786,1151
3089.016609303884,1191
3090.7236879553434,1183
3092.4304712061476,1179
3094.136959372166,1189
3095.843152769349,1185
3097.5490517137237,1228
3099.2546565213966,1179
3100.959967508554,1199
3102.66498499146,1216
3104.3697092864577,1189
3106.0741407099695,1220
3107.778279578498,1221
3109.482126208622,1216
3111.1856809170004,1247
3112.8889440203716,1201
3114.5919158355528,1196
3116.294596679439,1228
3117.996986869006,1227
3119.6990867213062,1155
3121.4008965534726,1207
3123.102416682717,1225
3124.803647426329,1172
3126.5045891016784,1194
3128.205242026213,1233
3129.90560651746,1149
3131.605682893025,1230
3133.3054714705922,1217
3135.0049725679282,1189
3136.7041865028714,1218
3138.4031135933465,1250
3140.101754157353,1185
3141.800108512971,1187
3143.498176978357,1233
3145.1959598717494,1208
3146.8934575114636,1215
3148.5906702158954,1170
3150.2875983035183,1215
3151.9842420928853,1171
3153.680601902627,1153
3155.376678051456,1202
3157.07247085816,1217
3158.767980641609,1174
3160.463207720748,1182
3162.158152414606,1175
3163.8528150422862,1208
3165.5471959229726,1258
3167.2412953759303,1258
3168.9351137204976,1165
3170.628651276098,1232
3172.3219083622307,1190
3174.014885298474,1223
3175.707582404485,1226
3177.4000000000005,1167
3179.092138404835,1225
3180.7839979388846,1259
3182.47557892212,1173
3184.166881674594,1230
3185.8579065164386,1182
3187.5486537678626,1218
3189.2391237491547,1231
3190.9293167806827,1191
3192.6192331828934,1209
3194.3088732763117,1151
3195.998237381542,1208
3197.687325819268,1167
3199.376138910251,1207
3201.064676975334,1190
3202.7529403354347,1181
3204.4409293115523,1195
3206.1286442247647,1186
3207.816085396229,1170
3209.5032531471825,1186
3211.190147798936,1200
3212.8767696728846,1187
3214.5631190905015,1251
3216.2491963733373,1208
3217.9350018430214,1181
3219.6205358212637,1142
3221.305798629851,1189
3222.990790590651,1165
3224.6755120256103,1208
3226.359963256751,1148
3228.0441446061795,1228
3229.7280563960758,1155
3231.411698948703,1190
3233.0950725863995,1173
3234.778177631587,1188
3236.461014406761,1196
3238.1435832345005,1161
3239.8258844374595,1217
3241.507918338374,1168
3243.1896852600576,1200
3244.8711855254023,1202
3246.552419457381,1167
3248.233387379042,1184
3249.914089613516,1139
3251.59452648401,1209
3253.274698313813,1203
3254.95460542629,1244
3256.6342481448855,1162
3258.313626793125,1209
3259.9927416946084,1207
3261.6715931730196,1140
3263.3501815521176,1165
3265.0285071557437,1128
3266.706570307815,1183
3268.3843713323286,1106
3270.0619105533615,1159
3271.739188295068,1153
3273.4162048816834,1176
3275.0929606375184,1163
3276.769455886966,1178
3278.445690954498,1182
3280.1216661646613,1226
3281.797381842087,1245
3283.4728383114807,1218
3285.1480358976296,1217
3286.8229749253996,1123
3288.4976557197333,1159
3290.172078605655,1147
3291.846243908266,1138
3293.5201519527463,1132
3295.193803064357,1183
3296.8671975684374,1186
3298.5403357904024,1131
3300.21321805575,1167
3301.8858446900567,1196
3303.558216018975,1185
3305.23033236824,1198
3306.9021940636603,1170
3308.57380143113,1141
3310.2451547966184,1171
3311.916254486174,1240
3313.5871008259246,1139
3315.2576941420766,1167
3316.9280347609147,1198
3318.5981230088046,1193
3320.2679592121895,1146
3321.9375436975924,1128
3323.606876791612,1171
3325.27595882093,1161
3326.944790112305,1126
3328.6133709925753,1199
3330.2817017886573,1174
3331.949782827547,1161
3333.617614436319,1150
3335.2851969421245,1213
3336.952530672199,1167
3338.619615953853,1242
3340.286453114475,1132
3341.9530424815357,1140
3343.619384382583,1185
3345.2854791452437,1139
3346.951327097224,1136
3348.6169285663073,1207
3350.2822838803577,1216
3351.947393367319,1195
3353.61225735521,1238
3355.2768761721345,1146
3356.9412501462693,1188
3358.605379605873,1201
3360.2692648792827,1184
3361.9329062949146,1153
3363.596304181263,1187
