CollectionTime,7/9/2024 4:44:34 PM
ExposureUsed,3
CalibratedSpectrum
-962.7078968117929,672
-959.9714848408522,709
-957.2358232597828,695
-954.5009119013725,717
-951.7667505983302,730
-949.0333391832855,733
-946.3006774887896,738
-943.5687653473143,726
-940.837602591253,733
-938.1071890529199,713
-935.3775245645503,709
-932.6486089583007,729
-929.9204420662485,722
-927.1930237203925,728
-924.4663537526524,725
-921.7404319948689,777
-919.0152582788041,759
-916.2908324361409,776
-913.5671542984834,727
-910.8442236973568,732
-908.1220404642074,743
-905.4006044304027,725
-902.679915427231,736
-899.959973285902,748
-897.2407778375464,719
-894.5223289132158,742
-891.8046263438832,733
-889.0876699604426,732
-886.3714595937089,754
-883.6559950744183,753
-880.9412762332282,728
-878.2273029007168,730
-875.5140749073835,712
-872.8015920836489,737
-870.0898542598545,770
-867.3788612662631,781
-864.6686129330585,770
-861.9591090903457,738
-859.2503495681506,752
-856.5423341964203,738
-853.8350628050229,728
-851.1285352237478,730
-848.4227512823054,744
-845.7177108103272,737
-843.0134136373656,741
-840.3098595928943,721
-837.6070485063082,792
-834.9049802069229,771
-832.2036545239757,755
-829.5030712866244,788
-826.8032303239481,778
-824.1041314649472,815
-821.4057745385428,795
-818.7081593735775,782
-816.0112857988148,789
-813.3151536429393,797
-810.6197627345566,795
-807.9251129021936,799
-805.2312039742981,771
-802.5380357792392,777
-799.8456081453069,830
-797.1539209007124,797
-794.462973873588,786
-791.772766891987,797
-789.083299783884,803
-786.3945723771743,813
-783.7065844996748,786
-781.0193359791231,826
-778.3328266431781,810
-775.6470563194197,801
-772.9620248353489,779
-770.2777320183878,836
-767.5941776958798,781
-764.9113616950891,812
-762.2292838432011,833
-759.5479439673222,819
-756.8673418944801,828
-754.1874774516235,826
-751.5083504656222,773
-748.8299607632671,818
-746.15230817127,833
-743.475392516264,844
-740.7992136248035,817
-738.1237713233636,826
-735.4490654383407,857
-732.7750957960521,844
-730.1018622227365,890
-727.4293645445534,864
-724.7576025875837,828
-722.0865761778291,878
-719.4162851412126,845
-716.7467293035781,842
-714.0779084906909,833
-711.409822528237,885
-708.7424712418238,836
-706.0758544569796,821
-703.4099719991541,888
-700.7448236937178,877
-698.0804093659622,849
-695.4167288411002,843
-692.7537819442656,830
-690.0915685005134,905
-687.4300883348199,827
-684.7693412720819,876
-682.1093271371178,870
-679.4500457546669,873
-676.7914969493897,853
-674.1336805458676,893
-671.4765963686034,844
-668.8202442420206,862
-666.1646239904642,891
-663.5097354382001,902
-660.8555784094151,899
-658.2021527282176,850
-655.5494582186366,891
-652.8974947046223,944
-650.2462620100463,913
-647.5957599587009,867
-644.9459883742998,935
-642.2969470804776,910
-639.6486359007902,930
-637.0010546587141,978
-634.3542031776476,908
-631.7080812809096,938
-629.0626887917401,892
-626.4180255333008,943
-623.7740913286734,930
-621.1308860008619,926
-618.4884093727904,926
-615.8466612673046,950
-613.2056415071715,927
-610.5653499150785,924
-607.9257863136347,951
-605.28695052537,976
-602.6488423727357,945
-600.0114616781036,966
-597.3748082637674,947
-594.7388819519412,986
-592.1036825647604,990
-589.4692099242818,993
-586.8354638524829,944
-584.2024441712624,998
-581.5701507024403,1015
-578.9385832677575,982
-576.3077416888759,965
-573.6776257873787,961
-571.0482353847704,913
-568.4195703024757,960
-565.7916303618415,992
-563.164415384135,1001
-560.5379251905453,968
-557.9121596021815,966
-555.2871184400748,990
-552.6628015251767,1018
-550.0392086783606,976
-547.4163397204204,983
-544.794194472071,977
-542.1727727539491,1038
-539.5520743866118,1034
-536.9320991905377,1040
-534.3128469861261,1086
-531.6943175936979,1047
-529.0765108334947,1093
-526.4594265256793,1147
-523.8430644903358,1191
-521.2274245474689,1306
-518.612506517005,1366
-515.9983102187913,1377
-513.3848354725959,1374
-510.77208209810846,1406
-508.16004991493924,1453
-505.5487387426199,1582
-502.9381484006032,1655
-500.3282787082628,1672
-497.71912948489364,1567
-495.1107005497117,1423
-492.5029917218539,1322
-489.8960028203786,1260
-487.28973366426493,1202
-484.68418407241325,1208
-482.07935386364494,1185
-479.47524285670266,1120
-476.87185087025,1133
-474.2691777228715,1155
-471.66722323307334,1094
-469.0659872192821,1097
-466.4654694998459,1192
-463.86566989303384,1204
-461.26658821703614,1168
-458.66822428996414,1157
-456.07057792985,1123
-453.4736489546475,1141
-450.877437182231,1141
-448.28194243039627,1143
-445.68716451686,1153
-443.09310325926003,1153
-440.49975847515555,1172
-437.9071299820263,1176
-435.31521759727354,1149
-432.72402113821954,1156
-430.13354042210767,1147
-427.5437752661022,1163
-424.95472548728867,1186
-422.36639090267386,1205
-419.7787713291855,1147
-417.1918665836721,1234
-414.60567648290385,1208
-412.0202008435715,1187
-409.4354394822874,1216
-406.8513922155845,1219
-404.26805885991723,1240
-401.685439231661,1244
-399.103533147112,1221
-396.522340422488,1245
-393.9418608739278,1204
-391.3620943174908,1217
-388.7830405691583,1163
-386.2046994448317,1145
-383.6270707603344,1098
-381.05015433141045,1025
-378.473949973725,935
-375.8984575028645,855
-373.32367673433623,778
-370.74960748356875,730
-368.1762495659117,697
-365.60360279663576,610
-363.03166699093265,541
-360.4604419639154,539
-357.8899275306178,492
-355.32012350599507,497
-352.7510297049233,464
-350.1826459421999,475
-347.61497203254316,449
-345.04800779059235,425
-342.4817530309082,443
-339.91620756797226,449
-337.35137121618743,450
-334.7872437898774,457
-332.22382510328725,449
-329.66111497058273,430
-327.09911320585127,445
-324.53781962310075,474
-321.9772340362607,471
-319.4173562591816,471
-316.8581861056348,453
-314.2997233893127,446
-311.7419679238294,451
-309.1849195227194,440
-306.62857799943856,477
-304.0729431673641,483
-301.51801483979375,487
-298.963792829947,491
-296.41027695096386,510
-293.85746701590574,486
-291.3053628377552,486
-288.7539642294155,473
-286.2032710037115,499
-283.65328297338897,499
-281.1039999511146,497
-278.5554217494762,522
-276.007548180983,480
-273.4603790580651,518
-270.9139141930734,513
-268.3681533982807,498
-265.8230964858798,511
-263.27874326798565,522
-260.7350935566336,500
-258.1921471637804,549
-255.6499039013039,501
-253.10836358100266,516
-250.56752601459698,493
-248.02739101372765,542
-245.48795838995704,591
-242.94922795476816,557
-240.41119951956557,573
-237.8738728956746,560
-235.33724789434166,628
-232.80132432673452,580
-230.2661020039418,538
-227.73158073697357,595
-225.19776033676033,587
-222.66464061415422,640
-220.1322213799284,634
-217.60050244477725,604
-215.06948361931552,594
-212.53916471408013,587
-210.00954553952818,622
-207.48062590603843,604
-204.9524056239104,625
-202.4248845033651,667
-199.8980623545441,675
-197.37193898751036,727
-194.84651421224817,711
-192.32178783866232,697
-189.79775967657952,647
-187.27442953574644,739
-184.7517972258321,750
-182.2298625564256,672
-179.7086253370378,642
-177.18808537710026,661
-174.66824248596583,681
-172.14909647290835,738
-169.6306471471229,773
-167.11289431772548,723
-164.59583779375328,692
-162.07947738416453,741
-159.5638128978386,791
-157.04884414357605,933
-154.53457093009854,1041
-152.02099306604828,997
-149.50811035998936,793
-146.99592262040665,706
-144.48442965570587,785
-141.97363127421409,849
-139.46352728417958,1142
-136.95411749377126,1428
-134.44540171107985,1328
-131.93737974411636,980
-129.43005140081357,840
-126.92341648902493,953
-124.41747481652521,938
-121.91222619101006,1142
-119.40767042009657,1824
-116.90380731132257,2254
-114.40063667214702,2200
-111.8981583099503,2215
-109.3963720320337,3301
-106.89527764561933,4175
-104.39487495785067,3595
-101.89516377579241,3007
-99.39614390642998,3729
-96.89781515667039,5908
-94.40017733334128,6992
-91.90323024319173,5630
-89.40697369289148,2799
-86.91140748903172,2013
-84.41653143812482,3551
-81.92234534660395,4899
-79.42884902082358,5344
-76.93604226705907,6506
-74.4439248915071,9629
-71.95249670028534,12806
-69.46175749943245,13849
-66.97170709490854,13241
-64.48234529259423,11538
-61.99367189829195,9484
-59.50568671772464,7053
-57.01838955653636,6420
-54.53178022029283,6947
-52.045858514480074,7664
-49.560624244506016,7827
-47.07607721569923,8386
-44.59221723330904,8350
-42.10904410250669,7550
-39.62655762838392,6273
-37.14475761595372,5842
-34.66364387015028,6190
-32.18321619582866,6461
-29.70347439776515,6619
-27.224418280657005,6780
-24.74604764912317,7678
-22.26836230770266,11206
-19.7913620608565,21125
-17.315046712966478,40200
-14.83941606833514,58857
-12.36446993118659,65039
-9.89020810566592,65039
-7.416630395839093,65039
-4.94373660569363,65039
-2.471526539137585,65039
-6.821210263296962E-13,65039
2.47084320796705,65039
4.941003281093458,65039
7.410480415786196,65039
9.879274808531363,65039
12.347386655893956,65039
14.814816154518212,65039
17.28156350112681,65039
19.74762889252179,65039
22.21301252558385,65039
24.67771459727237,18829
27.141735304626195,3230
29.605074844762612,2107
32.06773341487792,1802
34.52971121224755,1539
36.99100843422559,1510
39.45162527824516,1371
41.91156194181792,1219
44.370818622535126,1208
46.82939551806646,1102
49.287292826160524,1122
51.74451074464503,1187
54.201049471426245,1045
56.65690920448981,958
59.112090141899785,963
61.56659248179983,937
64.02041642241159,934
66.4735621620365,998
68.92602989905402,971
71.37781983192338,991
73.82893215918205,916
76.27936707944684,915
78.72912479141326,1024
81.17820549385567,967
83.62660938562783,949
86.07433666566146,960
88.5213875329681,847
90.96776218663751,792
93.41346082583925,847
95.85848364982041,920
98.30283085790859,864
100.7465026495089,839
103.18949922410604,982
105.63182078126385,894
108.07346752062438,971
110.51443964190923,884
112.95473734491827,756
115.39436082953114,723
117.83331029570547,768
120.27158594347827,792
122.7091879729652,849
125.1461165843615,778
127.58237197794062,684
130.01795435405518,752
132.4528639131364,822
134.88710085569494,816
137.32066538231982,788
139.75355769367923,775
142.1857779905207,759
144.61732647366978,741
147.04820334403132,752
149.47840880258934,752
151.90794305040674,821
154.33680628862487,894
156.76499871846443,1107
159.19252054122433,1172
161.61937195828352,1290
164.04555317109896,1480
166.47106438120693,1628
168.89590579022217,1821
171.320077599839,1922
173.7435800118302,2006
176.16641322804742,2183
178.58857745042144,2227
181.01007288096173,2410
183.43089972175687,2443
185.85105817497413,2419
188.27054844285988,2516
190.6893707277394,2505
193.10752523201643,2485
195.5250121581745,2556
197.9418317087751,2643
200.3579840864594,2682
202.7734694939469,2710
205.18828813403627,2717
207.6024402096051,2884
210.01592592360964,2794
212.42874547908548,2916
214.84089907914665,2870
217.2523869269868,2918
219.66320922587727,2823
222.0733661791695,2810
224.48285799029293,2865
226.8916848627572,2825
229.29984700014882,2926
231.7073446061355,2987
234.11417788446204,2864
236.520347038953,2848
238.92585227351185,2918
241.33069379212054,3003
243.73487179884035,3008
246.1383864978112,2954
248.541238093252,2989
250.9434267894609,2966
253.34495279081432,2975
255.74581630176783,3052
258.1460175268563,2970
260.54555667069314,2921
262.9444339379703,3045
265.3426495334594,3022
267.7402036620107,3020
270.1370965285529,2928
272.53332833809407,3081
274.9288992957214,2901
277.32380960660055,2793
279.718059475976,2827
282.1116491091717,2828
284.5045787115897,2840
286.89684848871195,2763
289.2884586460981,2852
291.67940938938807,2911
294.0697009242996,2860
296.4593334566299,2748
298.84830719225477,2809
301.23662233712923,2861
303.6242790972866,2849
306.01127767884,2813
308.39761828798066,2830
310.78330113097934,2806
313.16832641418534,2798
315.5526943440269,2756
317.9364051270112,2673
320.3194589697242,2797
322.70185607883093,2729
325.0835966610754,2713
327.4646809232805,2657
329.8451090723478,2645
332.2248813152577,2619
334.6039978590701,2606
336.9824589109231,2598
339.36026467803447,2673
341.7374153677,2591
344.113911187295,2515
346.48975234427337,2566
348.8649390461686,2672
351.2394715005918,2589
353.61334991523415,2597
355.9865744978655,2611
358.35914545633375,2651
360.73106299856715,2568
363.10232733257146,2563
365.47293866643247,2515
367.84289720831396,2541
370.2122031664593,2575
372.5808567491905,2530
374.9488581649083,2573
377.31620762209275,2580
379.6829053293021,2527
382.0489514951745,2472
384.4143463284262,2511
386.7790900378528,2427
389.14318283232853,2407
391.50662492080653,2451
393.86941651231916,2489
396.23155781597745,2503
398.5930490409713,2527
400.9538903965696,2463
403.3140820921202,2509
405.6736243370498,2434
408.03251734086336,2541
410.3907613131465,2572
412.74835646356166,2470
415.10530300185144,2466
417.4616011378372,2443
419.81725108141893,2510
422.1722530425758,2504
424.5266072313656,2428
426.880313857925,2481
429.2333731324701,2499
431.58578526529516,2514
433.9375504667738,2519
436.2886689473588,2465
438.63914091758113,2468
440.9889665880513,2450
443.33814616945835,2427
445.68667987257015,2357
448.03456790823395,2411
450.3818104873759,2427
452.72840782100013,2500
455.07436012019105,2440
457.41966759611057,2458
459.7643304600007,2427
462.10834892318155,2467
464.4517231970525,2434
466.79445349309174,2428
469.1365400228566,2431
471.4779829979826,2408
473.81878263018564,2435
476.15893913125876,2391
478.4984527130747,2547
480.8373235875855,2522
483.17555196682144,2648
485.5131380628919,2669
487.8500820879857,2604
490.1863842543697,2707
492.52204477439034,2786
494.8570638604725,2916
497.1914417251204,3158
499.52517858091653,3537
501.85827464052306,3731
504.19073011668036,3796
506.5225452222086,3824
508.85372017000566,3853
511.18425517304956,3754
513.514150444396,3867
515.8434061971808,4509
518.1720226446176,5312
520.4999999999999,5485
522.8273384766991,5298
525.1540382881666,4831
527.480099647932,4238
529.8055227696037,3699
532.1303078668694,3142
534.454455153496,2868
536.777964843328,2679
539.1008371502907,2592
541.4230722883866,2626
543.744670471698,2558
546.0656319143858,2523
548.3859568306899,2519
550.7056454349294,2559
553.0246979415016,2512
555.3431145648834,2518
557.6608955196306,2473
559.978041020377,2450
562.2945512818363,2508
564.6104265188006,2602
566.9256669461412,2525
569.2402727788082,2496
571.5542442318302,2443
573.8675815203156,2517
576.1802848594508,2498
578.4923544645015,2499
580.8037905508126,2524
583.114593333807,2516
585.4247630289875,2560
587.7342998519354,2480
590.0432040183106,2532
592.3514757438526,2601
594.6591152443794,2544
596.9661227357875,2555
599.2724984340531,2549
601.578242555231,2574
603.8833553154542,2616
606.1878369309362,2566
608.4916876179676,2496
610.7949075929192,2523
613.0974970722403,2509
615.3994562724587,2623
617.7007854101818,2508
620.0014847020951,2510
622.3015543649641,2522
624.6009946156324,2550
626.8998056710224,2557
629.1979877481361,2574
631.4955410640538,2513
633.7924658359349,2470
636.0887622810175,2542
638.3844306166192,2524
640.6794710601358,2537
642.9738838290426,2531
645.2676691408932,2688
647.5608272133207,2602
649.853358264037,2551
652.1452625108324,2656
654.4365401715764,2603
656.7271914642178,2579
659.0172166067838,2608
661.3066158173809,2614
663.5953893141935,2593
665.8835373154867,2528
668.1710600396028,2544
670.4579577049639,2631
672.7442305300709,2630
675.0298787335033,2694
677.3149025339197,2572
679.599302150058,2630
681.8830778007342,2559
684.1662297048437,2597
686.4487580813608,2655
688.7306631493387,2628
691.0119451279091,2633
693.2926042362834,2650
695.5726406937516,2675
697.8520547196814,2694
700.1308465335215,2622
702.4090163547982,2694
704.6865644031171,2612
706.9634908981619,2592
709.2397960596965,2686
711.5154801075631,2604
713.7905432616823,2646
716.0649857420548,2650
718.3388077687592,2646
720.612009561953,2681
722.8845913418733,2597
725.1565533288352,2615
727.427895743234,2598
729.6986188055427,2619
731.9687227363137,2652
734.238207756178,2682
736.5070740858458,2653
738.7753219461066,2645
741.0429515578281,2678
743.3099631419569,2730
745.5763569195191,2543
747.8421331116193,2665
750.1072919394409,2651
752.3718336242467,2689
754.6357583873777,2727
756.8990664502545,2755
759.1617580343765,2614
761.423833361321,2621
763.6852926527457,2626
765.9461361303862,2649
768.206364016058,2644
770.4659765316536,2710
772.7249738991469,2656
774.9833563405886,2762
777.2411240781092,2615
779.4982773339183,2703
781.7548163303044,2702
784.010741289634,2798
786.2660524343538,2826
788.5207499869881,2737
790.7748341701416,2752
793.0283052064964,2664
795.2811633188143,2746
797.5334087299362,2701
799.7850416627813,2764
802.0360623403484,2635
804.2864709857143,2752
806.5362678220353,2725
808.7854530725468,2766
811.0340269605625,2745
813.2819897094754,2792
815.5293415427581,2654
817.77608268396,2704
820.0222133567116,2740
822.2677337847211,2791
824.5126441917765,2671
826.7569448017433,2747
829.0006358385675,2716
831.2437175262731,2687
833.4861900889629,2642
835.7280537508192,2667
837.9693087361026,2724
840.2099552691533,2676
842.4499935743896,2738
844.689423876309,2716
846.9282463994886,2738
849.1664613685833,2681
851.4040690083276,2803
853.6410695435349,2685
855.877463199097,2757
858.1132501999847,2730
860.3484307712487,2663
862.5830051380175,2725
864.8169735254988,2765
867.0503361589791,2795
869.2830932638243,2804
871.5152450654786,2835
873.7467917894654,2879
875.9777336613873,2760
878.2080709069252,2742
880.4378037518389,2840
882.666932421968,2773
884.8954571432301,2788
887.1233781416219,2750
889.3506956432192,2710
891.5774098741766,2823
893.803521060728,2858
896.0290294291852,2770
898.2539352059397,2796
900.4782386174619,2751
902.7019398903011,2803
904.925039251085,2868
907.147536926521,2780
909.3694331433943,2882
911.59072812857,2829
913.8114221089921,2765
916.0315153116827,2740
918.2510079637437,2791
920.4699002923547,2770
922.6881925247761,2784
924.905884888345,2742
927.1229776104793,2799
929.3394709186747,2736
931.555365040506,2725
933.7706602036275,2830
935.9853566357709,2771
938.1994545647489,2706
940.4129542184515,2763
942.6258558248488,2880
944.8381596119883,2782
947.0498658079974,2831
949.2609746410825,2749
951.4714863395287,2784
953.6814011316998,2774
955.8907192460387,2786
958.0994409110671,2818
960.3075663553858,2756
962.5150958076741,2723
964.7220294966913,2755
966.928367651274,2850
969.1341105003388,2763
971.3392582728806,2695
973.5438111979742,2638
975.747769504772,2703
977.9511334225061,2761
980.153903180487,2701
982.3560790081052,2800
984.5576611348289,2752
986.7586497902058,2656
988.9590452038618,2607
991.158847605503,2752
993.3580572249133,2643
995.5566742919558,2614
997.7546990365728,2651
999.952131688785,2622
1002.1489724786926,2576
1004.3452216364743,2571
1006.5408793923874,2552
1008.7359459767691,2580
1010.9304216200343,2567
1013.1243065526781,2507
1015.3176010052733,2524
1017.510305208472,2455
1019.7024193930064,2519
1021.8939437896848,2572
1024.0848786293977,2486
1026.2752241431122,2434
1028.4649805618747,2483
1030.6541481168115,2492
1032.842727039127,2563
1035.0307175601051,2480
1037.2181199111074,2503
1039.4049343235752,2534
1041.591161029029,2482
1043.7768002590683,2457
1045.9618522453698,2523
1048.1463172196918,2514
1050.3301954138697,2443
1052.513487059818,2443
1054.69619238953,2476
1056.8783116350783,2503
1059.0598450286152,2535
1061.2407928023704,2538
1063.4211551886528,2505
1065.6009324198508,2450
1067.780124728432,2526
1069.9587323469414,2585
1072.1367555080046,2494
1074.314194444325,2432
1076.4910493886855,2429
1078.667320573947,2508
1080.843008233051,2514
1083.0181125990161,2464
1085.1926339049414,2501
1087.3665723840027,2389
1089.5399282694575,2452
1091.7127017946405,2428
1093.8848931929647,2458
1096.0565026979243,2414
1098.2275305430899,2407
1100.3979769621128,2398
1102.567842188722,2395
1104.737126456726,2411
1106.9058300000124,2446
1109.0739530525475,2364
1111.2414958483764,2410
1113.4084586216231,2427
1115.5748416064907,2421
1117.7406450372605,2389
1119.9058691482942,2477
1122.0705141740304,2359
1124.2345803489884,2424
1126.3980679077658,2475
1128.5609770850388,2455
1130.7233081155623,2474
1132.8850612341707,2493
1135.0462366757774,2380
1137.2068346753745,2456
1139.3668554680326,2446
1141.526299288901,2325
1143.68516637321,2385
1145.8434569562655,2308
1148.001171273455,2394
1150.158309560244,2431
1152.3148720521767,2402
1154.470858984876,2454
1156.626270594044,2405
1158.7811071154629,2360
1160.9353687849912,2422
1163.089055838569,2373
1165.242168512213,2432
1167.3947070420209,2468
1169.5466716641677,2482
1171.6980626149075,2395
1173.8488801305748,2418
1175.9991244475814,2402
1178.1487958024186,2355
1180.2978944316555,2379
1182.4464205719428,2374
1184.5943744600072,2301
1186.7417563326567,2383
1188.8885664267755,2405
1191.0348049793297,2352
1193.1804722273619,2377
1195.325568407995,2432
1197.4700937584303,2343
1199.614048515948,2419
1201.7574329179074,2383
1203.900247201746,2436
1206.042491604982,2391
1208.1841663652099,2482
1210.3252717201053,2464
1212.465807907422,2474
1214.6057751649923,2452
1216.7451737307279,2384
1218.8840038426192,2478
1221.0222657387353,2455
1223.1599596572241,2439
1225.2970858363137,2443
1227.4336445143094,2422
1229.5696359295966,2511
1231.705060320639,2474
1233.8399179259786,2472
1235.9742089842384,2462
1238.107933734118,2465
1240.2410924143974,2413
1242.373685263935,2490
1244.5057125216676,2532
1246.6371744266116,2509
1248.7680712178621,2430
1250.898403134593,2456
1253.028170416058,2496
1255.1573733015875,2521
1257.2860120305932,2440
1259.4140868425648,2499
1261.54159797707,2523
1263.6685456737569,2546
1265.7949301723515,2476
1267.9207517126597,2524
1270.046010534565,2491
1272.1707068780306,2529
1274.2948409830983,2515
1276.4184130898889,2569
1278.541423438603,2503
1280.6638722695184,2564
1282.785759822993,2592
1284.9070863394636,2552
1287.0278520594447,2600
1289.1480572235314,2573
1291.2677020723963,2615
1293.3867868467923,2618
1295.5053117875495,2575
1297.623277135579,2579
1299.740683131868,2640
1301.8575300174857,2634
1303.973818033578,2547
1306.0895474213703,2575
1308.2047184221678,2542
1310.3193312773528,2667
1312.4333862283888,2629
1314.5468835168163,2658
1316.659823384255,2618
1318.7722060724045,2654
1320.8840318230418,2689
1322.9953008780249,2624
1325.1060134792888,2698
1327.2161698688478,2611
1329.3257702887959,2668
1331.4348149813054,2658
1333.5433041886276,2588
1335.6512381530933,2631
1337.7586171171101,2647
1339.8654413231675,2705
1341.9717110138317,2641
1344.0774264317488,2626
1346.1825878196432,2590
1348.2871954203192,2699
1350.3912494766587,2679
1352.4947502316231,2661
1354.5976979282532,2607
1356.7000928096686,2620
1358.8019351190665,2659
1360.9032250997243,2624
1363.0039629949988,2675
1365.1041490483235,2599
1367.2037835032133,2708
1369.3028666032606,2650
1371.401398592137,2586
1373.4993797135926,2610
1375.5968102114575,2580
1377.6936903296396,2690
1379.7900203121262,2684
1381.8858004029835,2631
1383.9810308463561,2599
1386.075711886469,2601
1388.1698437676241,2681
1390.2634267342032,2660
1392.356461030667,2694
1394.4489469015557,2612
1396.5408845914872,2620
1398.6322743451592,2627
1400.7231164073469,2639
1402.813411022907,2699
1404.903158436773,2693
1406.9923588939578,2575
1409.0810126395531,2617
1411.1691199187303,2669
1413.2566809767386,2584
1415.343696058907,2616
1417.4301654106425,2666
1419.5160892774315,2655
1421.6014679048399,2734
1423.6863015385125,2695
1425.7705904241707,2647
1427.8543348076178,2736
1429.9375349347342,2730
1432.0201910514802,2724
1434.102303403894,2630
1436.1838722380944,2700
1438.2648978002767,2704
1440.3453803367174,2705
1442.4253200937692,2719
1444.5047173178677,2773
1446.5835722555234,2769
1448.6618851533285,2762
1450.739656257952,2814
1452.8168858161434,2830
1454.8935740747306,2876
1456.96972128062,2835
1459.045327680797,2840
1461.120393522327,2881
1463.1949190523528,2846
1465.2689045180973,2888
1467.3423501668608,2843
1469.415256246024,2867
1471.4876230030463,2906
1473.559450685465,2875
1475.6307395408976,2935
1477.7014898170391,3028
1479.771701761665,2913
1481.8413756226287,3046
1483.9105116478618,3053
1485.9791100853772,3025
1488.0471711832643,3036
1490.1146951896926,3123
1492.1816823529098,2996
1494.2481329212433,3162
1496.3140471430984,3210
1498.3794252669609,3173
1500.4442675413939,3154
1502.5085742150404,3131
1504.572345536622,3210
1506.6355817549388,3186
1508.6982831188702,3265
1510.7604498773744,3137
1512.8220822794883,3180
1514.8831805743293,3148
1516.9437450110909,3211
1519.003775839048,3278
1521.0632733075522,3255
1523.1222376660367,3225
1525.1806691640113,3249
1527.2385680510652,3314
1529.2959345768668,3246
1531.3527689911643,3351
1533.4090715437833,3281
1535.4648424846291,3293
1537.5200820636855,3374
1539.5747905310159,3435
1541.6289681367616,3454
1543.6826151311434,3449
1545.7357317644614,3456
1547.7883182870937,3501
1549.8403749494987,3586
1551.8919020022113,3619
1553.9428996958477,3587
1555.9933682811015,3629
1558.0433080087469,3642
1560.0927191296346,3631
1562.1416018946961,3622
1564.1899565549415,3779
1566.2377833614592,3720
1568.2850825654164,3792
1570.3318544180606,3751
1572.3780991707158,3572
1574.423817074788,3714
1576.4690083817595,3563
1578.5136733431923,3426
1580.5578122107272,3311
1582.601425236085,3285
1584.6445126710646,3357
1586.6870747675434,3264
1588.7291117774776,3166
1590.7706239529034,3066
1592.8116115459347,3080
1594.8520748087658,3021
1596.8920139936686,3036
1598.9314293529933,2956
1600.9703211391711,2907
1603.008689604711,2857
1605.0465350022005,2861
1607.0838575843068,2825
1609.1206576037753,2843
1611.1569353134305,2831
1613.1926909661765,2798
1615.2279248149953,2785
1617.2626371129481,2750
1619.2968281131757,2744
1621.3304980688963,2695
1623.3636472334088,2752
1625.39627586009,2708
1627.428384202396,2716
1629.459972513861,2740
1631.4910410480993,2712
1633.5215900588028,2666
1635.551619799744,2676
1637.5811305247717,2611
1639.6101224878166,2745
1641.6385959428862,2685
1643.6665511440683,2644
1645.693988345528,2607
1647.7209078015112,2727
1649.7473097663405,2644
1651.7731944944203,2616
1653.7985622402307,2615
1655.823413258333,2588
1657.847747803366,2619
1659.8715661300494,2627
1661.8948684931793,2611
1663.9176551476316,2575
1665.9399263483624,2539
1667.9616823504057,2587
1669.982923408873,2544
1672.0036497789574,2549
1674.0238617159293,2628
1676.043559475138,2587
1678.0627433120121,2542
1680.081413482059,2584
1682.0995702408654,2656
1684.117213844096,2521
1686.134344547495,2579
1688.1509626068864,2555
1690.1670682781705,2643
1692.182661817329,2580
1694.1977434804217,2546
1696.2123135235875,2531
1698.226372203043,2626
1700.2399197750851,2565
1702.2529564960905,2589
1704.2654826225112,2532
1706.277498410882,2601
1708.2890041178139,2552
1710.2999999999988,2571
1712.3104863142066,2540
1714.3204633172854,2501
1716.329931266163,2495
1718.3388904178469,2580
1720.3473410294214,2529
1722.3552833580516,2595
1724.3627176609807,2617
1726.3696441955308,2563
1728.3760632191033,2560
1730.3819749891782,2536
1732.3873797633146,2562
1734.3922777991502,2564
1736.3966693544012,2610
1738.4005546868639,2551
1740.4039340544127,2591
1742.406807715001,2535
1744.4091759266616,2558
1746.4110389475054,2600
1748.4123970357223,2553
1750.413250449582,2530
1752.4135994474318,2522
1754.4134442876993,2435
1756.4127852288902,2499
1758.4116225295893,2527
1760.4099564484595,2553
1762.407787244244,2486
1764.405115175764,2546
1766.4019405019203,2577
1768.3982634816916,2590
1770.3940843741357,2555
1772.3894034383907,2477
1774.3842209336717,2476
1776.378537119274,2505
1778.372352254571,2516
1780.3656665990156,2484
1782.3584804121397,2434
1784.3507939535534,2603
1786.3426074829463,2580
1788.3339212600863,2531
1790.3247355448211,2536
1792.3150505970766,2560
1794.3048666768573,2532
1796.2941840442477,2457
1798.2830029594106,2405
1800.2713236825884,2447
1802.2591464741004,2481
1804.2464715943465,2557
1806.2332993038058,2593
1808.2196298630352,2527
1810.2054635326708,2484
1812.190800573428,2573
1814.175641246101,2531
1816.1599858115628,2522
1818.1438345307652,2566
1820.127187664738,2579
1822.1100454745924,2487
1824.092408221516,2513
1826.0742761667766,2515
1828.055649571721,2424
1830.0365286977735,2594
1832.0169138064398,2594
1833.9968051593014,2546
1835.9762030180214,2491
1837.9551076443408,2537
1839.9335193000788,2513
1841.9114382471344,2484
1843.888864747485,2493
1845.8657990631878,2527
1847.842241456378,2491
1849.8181921892697,2463
1851.7936515241558,2483
1853.7686197234098,2527
1855.7430970494815,2498
1857.7170837649014,2514
1859.6905801322787,2506
1861.6635864143004,2490
1863.6361028737338,2568
1865.608129773424,2543
1867.5796673762961,2602
1869.5507159453537,2604
1871.521275743678,2506
1873.4913470344313,2618
1875.4609300808534,2558
1877.4300251462632,2454
1879.3986324940588,2554
1881.366752387717,2634
1883.3343850907936,2501
1885.3015308669228,2547
1887.268189979819,2555
1889.2343626932739,2551
1891.2000492711595,2629
1893.1652499774254,2603
1895.1299650761011,2551
1897.0941948312952,2591
1899.0579395071945,2546
1901.0211993680641,2580
1902.98397467825,2505
1904.9462657021745,2606
1906.9080727043415,2540
1908.869395949332,2483
1910.8302357018065,2605
1912.790592226504,2526
1914.7504657882428,2557
1916.7098566519212,2578
1918.6687650825133,2576
1920.6271913450764,2660
1922.5851357047422,2506
1924.5425984267245,2541
1926.499579776314,2515
1928.4560800188833,2611
1930.4120994198802,2552
1932.367638244833,2548
1934.32269675935,2616
1936.2772752291175,2593
1938.231373919899,2611
1940.1849930975404,2665
1942.1381330279637,2643
1944.0907939771696,2584
1946.0429762112412,2588
1947.9946799963363,2487
1949.9459055986945,2473
1951.896653284633,2660
1953.8469233205478,2558
1955.7967159729142,2559
1957.7460315082863,2556
1959.6948701932974,2507
1961.6432322946594,2570
1963.5911180791632,2517
1965.5385278136787,2535
1967.4854617651545,2553
1969.4319202006182,2574
1971.377903387176,2580
1973.3234115920136,2681
1975.268445082395,2512
1977.2130041256642,2637
1979.1570889892423,2587
1981.1006999406304,2555
1983.04383724741,2529
1984.986501177238,2517
1986.928691997853,2605
1988.8704099770712,2572
1990.811655382789,2581
1992.7524284829801,2624
1994.692729545698,2551
1996.6325588390755,2560
1998.5719166313224,2484
2000.5108031907307,2503
2002.4492187856677,2481
2004.387163684583,2628
2006.3246381560011,2602
2008.2616424685298,2517
2010.1981768908527,2526
2012.1342416917332,2635
2014.069837140014,2555
2016.0049635046162,2569
2017.9396210545406,2636
2019.8738100588666,2578
2021.8075307867502,2574
2023.740783507431,2451
2025.6735684902228,2531
2027.6058860045214,2422
2029.5377363198004,2543
2031.4691197056118,2551
2033.4000364315875,2679
2035.3304867674374,2591
2037.260470982952,2584
2039.189989347998,2464
2041.1190421325232,2514
2043.047629606554,2530
2044.9757520401945,2602
2046.9034097036288,2565
2048.8306028671195,2597
2050.7573318010086,2576
2052.683596775716,2594
2054.609398061742,2672
2056.5347359296647,2474
2058.4596106501403,2586
2060.384022493906,2547
2062.3079717317764,2611
2064.231458634646,2575
2066.1544834734873,2618
2068.077046519352,2517
2069.99914804337,2544
2071.9207883167524,2557
2073.8419676107865,2592
2075.7626861968406,2568
2077.6829443463607,2569
2079.6027423308715,2634
2081.522080421977,2501
2083.440958891362,2607
2085.359378010786,2612
2087.2773380520907,2606
2089.194839287196,2645
2091.111881988101,2592
2093.0284664268825,2636
2094.9445928756973,2619
2096.86026160678,2635
2098.775472892446,2548
2100.690227005088,2544
2102.604524217178,2647
2104.5183648012676,2671
2106.431749029985,2618
2108.34467717604,2660
2110.2571495122206,2596
2112.169166311393,2640
2114.080727846503,2659
2115.9918343905747,2636
2117.902486216711,2662
2119.8126835980956,2659
2121.722426807987,2692
2123.6317161197285,2579
2125.5405518067364,2598
2127.448934142509,2677
2129.356863400624,2642
2131.264339854737,2615
2133.1713637785815,2675
2135.077935445972,2587
2136.9840551308002,2715
2138.889723107037,2694
2140.7949396487334,2643
2142.699705030018,2745
2144.6040195250994,2721
2146.507883408264,2658
2148.4112969538774,2704
2150.3142604363848,2648
2152.2167741303097,2619
2154.1188383102535,2678
2156.0204532508997,2642
2157.9216192270064,2756
2159.822336513414,2575
2161.7226053850413,2644
2163.622426116884,2664
2165.5217989840185,2750
2167.4207242616,2704
2169.319202224862,2604
2171.2172331491165,2749
2173.1148173097563,2721
2175.0119549822507,2737
2176.90864644215,2772
2178.8048919650823,2686
2180.7006918267534,2741
2182.596046302952,2784
2184.4909556695407,2765
2186.3854202024645,2753
2188.279440177746,2706
2190.173015871487,2687
2192.066147559868,2676
2193.958835519149,2671
2195.851080025667,2715
2197.7428813558417,2752
2199.6342397861667,2700
2201.5251555932186,2659
2203.415629053651,2758
2205.3056604441986,2763
2207.19525004167,2736
2209.084398122958,2830
2210.9731049650327,2681
2212.861370844941,2782
2214.749196039812,2710
2216.636580826851,2703
2218.523525483344,2720
2220.410030286655,2731
2222.296095514226,2843
2224.1817214435805,2748
2226.066908352319,2805
2227.951656518121,2715
2229.835966218746,2845
2231.71983773203,2815
2233.6032713358913,2796
2235.486267308324,2713
2237.3688259274036,2747
2239.2509474712824,2822
2241.132632218193,2729
2243.013880446447,2756
2244.8946924344323,2678
2246.7750684606203,2866
2248.6550088035574,2812
2250.534513741871,2783
2252.413583554265,2747
2254.292218519526,2767
2256.170418916517,2740
2258.0481850241786,2760
2259.925517121534,2811
2261.8024154876825,2838
2263.678880401803,2674
2265.5549121431536,2783
2267.430510991071,2719
2269.305677224971,2695
2271.180411124348,2806
2273.0547129687766,2775
2274.9285830379076,2751
2276.8020216114737,2751
2278.6750289692845,2761
2280.5476053912294,2731
2282.4197511572766,2789
2284.2914665474727,2827
2286.162751841943,2839
2288.0336073208937,2791
2289.904033264608,2812
2291.774029953448,2765
2293.6435976678554,2765
2295.5127366883517,2782
2297.381447295534,2767
2299.2497297700825,2728
2301.1175843927526,2681
2302.9850114443825,2548
2304.852011205885,2703
2306.7185839582553,2572
2308.5847299825664,2652
2310.4504495599676,2592
2312.3157429716925,2640
2314.1806104990483,2584
2316.0450524234247,2625
2317.9090690262888,2673
2319.772660589186,2646
2321.635827393742,2595
2323.498569721661,2651
2325.3608878547248,2578
2327.2227820747967,2625
2329.0842526638157,2601
2330.945299903803,2586
2332.805924076857,2564
2334.6661254651535,2570
2336.525904350951,2603
2338.3852610165827,2715
2340.244195744464,2638
2342.102708817088,2600
2343.9608005170253,2676
2345.8184711269287,2594
2347.675720929526,2568
2349.532550207628,2573
2351.38895924412,2582
2353.24494832197,2707
2355.100517724223,2596
2356.955667734004,2636
2358.810398634514,2611
2360.664710709037,2665
2362.5186042409337,2612
2364.3720795136437,2568
2366.225136810686,2649
2368.0777764156583,2493
2369.929998612237,2613
2371.7818036841777,2529
2373.633191915315,2622
2375.484163589562,2673
2377.3347189909114,2663
2379.184858403434,2607
2381.03458211128,2605
2382.8838903986775,2623
2384.732783549936,2700
2386.5812618494406,2571
2388.4293255816588,2653
2390.2769750311327,2573
2392.1242104824883,2698
2393.971032220427,2608
2395.8174405297295,2634
2397.6634356952563,2652
2399.509018001947,2676
2401.3541877348193,2605
2403.1989451789705,2653
2405.043290619576,2578
2406.8872243418905,2645
2408.730746631247,2643
2410.5738577730594,2615
2412.4165580528183,2657
2414.258847756095,2618
2416.100727168537,2655
2417.9421965758734,2598
2419.783256263912,2684
2421.623906518538,2656
2423.4641476257157,2708
2425.303979871491,2699
2427.143403541984,2628
2428.9824189233977,2628
2430.821026302012,2663
2432.6592259641866,2639
2434.497018196361,2607
2436.33440328505,2661
2438.171381516851,2668
2440.00795317844,2652
2441.844118556569,2576
2443.6798779380724,2618
2445.5152316098606,2766
2447.3501798589255,2657
2449.1847229723357,2648
2451.0188612372403,2730
2452.8525949408663,2632
2454.6859243705203,2598
2456.518849813587,2739
2458.3513715575314,2654
2460.183489889895,2740
2462.015205098301,2696
2463.8465174704493,2692
2465.67742729412,2628
2467.5079348571717,2626
2469.338040447542,2596
2471.1677443532476,2737
2472.9970468623833,2684
2474.825948263123,2737
2476.6544488437207,2747
2478.482548892508,2686
2480.310248697896,2703
2482.137548548374,2661
2483.9644487325118,2715
2485.790949538956,2698
2487.617051256433,2737
2489.44275417375,2714
2491.26805857979,2647
2493.0929647635157,2748
2494.917473013971,2680
2496.741583620276,2720
2498.5652968716304,2747
2500.3886130573137,2687
2502.2115324666834,2734
2504.0340553891765,2688
2505.856182114308,2756
2507.6779129316733,2695
2509.499248130945,2776
2511.3201880018764,2803
2513.140732834298,2776
2514.9608829181198,2752
2516.780638543331,2711
2518.6,2719
2520.418967578273,2674
2522.237541568376,2725
2524.0557222606144,2694
2525.8735099453706,2709
2527.6909049131086,2698
2529.507907454368,2793
2531.32451785977,2636
2533.140736420014,2721
2534.9565634258774,2740
2536.771999168218,2727
2538.5870439379714,2784
2540.4016980261526,2731
2542.2159617238544,2775
2544.02983532225,2818
2545.8433191125914,2729
2547.656413386209,2823
2549.4691184345115,2719
2551.2814345489874,2824
2553.093362021204,2726
2554.904901142808,2766
2556.716052205523,2839
2558.526815501153,2765
2560.3371913215824,2797
2562.147179958771,2811
2563.956781704761,2765
2565.7659968516705,2781
2567.5748256916986,2770
2569.3832685171224,2928
2571.1913256202984,2859
2572.9989972936614,2790
2574.806283829725,2887
2576.613185521084,2836
2578.4197026604074,2838
2580.2258355404483,2870
2582.031584454035,2852
2583.836949694077,2856
2585.6419315535613,2842
2587.4465303255533,2894
2589.2507463032002,2898
2591.0545797797245,2947
2592.8580310484303,2829
2594.6611004026995,2785
2596.463788135992,2827
2598.266094541849,2790
2600.0680199138874,2911
2601.869564545807,2828
2603.670728731383,2933
2605.4715127644704,2877
2607.2719169390048,2921
2609.071941548998,2900
2610.8715868885433,2874
2612.670853251811,2907
2614.469740933052,2908
2616.268250226594,2888
2618.0663814268455,2913
2619.864134828292,2862
2621.6615107255006,2884
2623.458509413115,2873
2625.2551311858597,2881
2627.0513763385347,2843
2628.8472451660223,2813
2630.6427379632833,2786
2632.4378550253564,2830
2634.232596647359,2816
2636.026963124488,2837
2637.8209547520187,2800
2639.6145718253065,2885
2641.407814639785,2808
2643.200683490966,2784
2644.9931786744414,2880
2646.7853004858807,2731
2648.577049221034,2880
2650.3684251757277,2789
2652.1594286458712,2848
2653.9500599274484,2812
2655.740319316525,2809
2657.5302071092437,2854
2659.3197236018286,2766
2661.10886909058,2769
2662.8976438718782,2805
2664.686048242183,2773
2666.4740824980327,2825
2668.2617469360443,2768
2670.0490418529134,2840
2671.8359675454153,2778
2673.622524310403,2748
2675.408712444811,2693
2677.1945322456495,2757
2678.979984010009,2739
2680.76506803506,2785
2682.5497846180497,2754
2684.334134056306,2838
2686.1181166472343,2743
2687.9017326883213,2780
2689.6849824771293,2671
2691.4678663113013,2759
2693.2503844885596,2768
2695.032537306705,2739
2696.8143250636167,2840
2698.5957480572542,2767
2700.3768065856534,2768
2702.1575009469316,2789
2703.937831439283,2711
2705.717798360982,2744
2707.4974020103837,2612
2709.276642685917,2700
2711.055520686095,2675
2712.834036309506,2715
2714.612189854819,2691
2716.389981620782,2674
2718.1674119062204,2719
2719.944481010041,2722
2721.721189231226,2660
2723.4975368688415,2651
2725.273524222027,2754
2727.0491515900053,2743
2728.824419272075,2710
2730.5993275676146,2708
2732.3738767760838,2754
2734.148067197016,2660
2735.921899130031,2785
2737.6953728748194,2780
2739.468488731156,2714
2741.2412469988926,2713
2743.0136479779617,2687
2744.785691968372,2710
2746.5573792702116,2597
2748.3287101836504,2726
2750.099685008934,2808
2751.870304046388,2705
2753.640567596418,2640
2755.4104759595057,2680
2757.1800294362156,2690
2758.949228327187,2711
2760.7180729331412,2628
2762.486563554877,2711
2764.254700493272,2665
2766.022484049284,2841
2767.789914523947,2693
2769.5569922183786,2702
2771.3237174337705,2714
2773.090090471394,2751
2774.8561116326036,2774
2776.6217812188274,2600
2778.3870995315756,2746
2780.1520668724356,2717
2781.9166835430747,2638
2783.6809498452394,2721
2785.444866080754,2695
2787.2084325515225,2712
2788.971649559527,2692
2790.73451740683,2730
2792.4970363955713,2696
2794.2592068279705,2704
2796.0210290063264,2752
2797.7825032330147,2704
2799.543629810493,2703
2801.304409041296,2770
2803.0648412280366,2792
2804.8249266734088,2771
2806.5846656801846,2778
2808.344058551212,2777
2810.1031055894246,2723
2811.8618070978273,2748
2813.6201633795085,2754
2815.378174737636,2768
2817.1358414754536,2645
2818.893163896285,2731
2820.6501423035334,2777
2822.4067770006814,2703
2824.1630682912883,2728
2825.9190164789957,2682
2827.6746218675207,2748
2829.429884760661,2718
2831.184805462294,2743
2832.9393842763743,2783
2834.693621506936,2737
2836.4475174580916,2726
2838.201072434034,2770
2839.954286739034,2789
2841.707160677441,2739
2843.459694553685,2660
2845.2118886722724,2774
2846.96374333779,2732
2848.7152588549034,2701
2850.4664355283567,2749
2852.217273662973,2845
2853.9677735636546,2795
2855.7179355353833,2783
2857.4677598832186,2754
2859.217246912299,2737
2860.9663969278427,2803
2862.715210235146,2800
2864.4636871395846,2723
2866.211827946614,2772
2867.9596329617652,2732
2869.7071024906536,2806
2871.4542368389684,2699
2873.20103631248,2773
2874.947501217038,2742
2876.6936318585695,2745
2878.4394285430812,2741
2880.1848915766604,2788
2881.9300212654707,2752
2883.6748179157553,2687
2885.4192818338374,2691
2887.1634133261173,2687
2888.907212699077,2892
2890.6506802592744,2766
2892.393816313348,2766
2894.1366211680142,2750
2895.8790951300693,2713
2897.621238506388,2817
2899.363051603925,2701
2901.1045347297118,2831
2902.8456881908596,2702
2904.58651229456,2799
2906.327007348081,2772
2908.067173658772,2718
2909.8070115340597,2698
2911.5465212814497,2823
2913.285703208527,2760
2915.0245576229563,2720
2916.7630848324807,2701
2918.5012851449196,2747
2920.2391588681758,2783
2921.976706310227,2670
2923.7139277791334,2762
2925.4508235830313,2783
2927.187394030137,2761
2928.923639428745,2742
2930.6595600872306,2815
2932.395156314046,2735
2934.1304284177218,2813
2935.8653767068713,2807
2937.6000014901815,2814
2939.3343030764227,2791
2941.068281774442,2768
2942.8019378931644,2843
2944.5352717415976,2792
2946.2682836288236,2737
2948.0009738640065,2770
2949.7333427563885,2784
2951.465390615289,2849
2953.1971177501086,2730
2954.9285244703265,2773
2956.6596110855,2802
2958.3903779052657,2819
2960.1208252393385,2812
2961.8509533975125,2671
2963.5807626896617,2783
2965.3102534257378,2824
2967.0394259157715,2803
2968.768280469873,2742
2970.496817398232,2891
2972.2250370111146,2833
2973.952939618869,2840
2975.6805255319196,2702
2977.4077950607707,2768
2979.134748516006,2797
2980.861386208289,2791
2982.587708448359,2832
2984.313715547037,2811
2986.039407815222,2828
2987.764785563891,2832
2989.489849104102,2821
2991.2145987469908,2833
2992.9390348037705,2849
2994.6631575857346,2804
2996.3869674042576,2737
2998.1104645707887,2827
2999.83364939686,2780
3001.5565221940783,2807
3003.2790832741334,2782
3005.0013329487924,2748
3006.7232715298996,2683
3008.4448993293804,2710
3010.166216659239,2725
3011.887223831558,2759
3013.607921158498,2710
3015.3283089522993,2805
3017.0483875252826,2791
3018.7681571898443,2786
3020.4876182584626,2794
3022.2067710436927,2771
3023.9256158581707,2690
3025.644153014609,2753
3027.362382825801,2793
3029.0803056046193,2845
3030.797921664012,2820
3032.5152313170106,2683
3034.2322348767225,2741
3035.9489326563353,2787
3037.665324969115,2812
3039.3814121284063,2776
3041.097194447633,2836
3042.812672240299,2783
3044.5278458199855,2779
3046.2427155003525,2784
3047.9572815951406,2761
3049.671544418167,2780
3051.38550428333,2745
3053.0991615046073,2845
3054.812516396051,2699
3056.5255692717974,2781
3058.2383204460575,2702
3059.9507702331257,2745
3061.662918947372,2743
3063.3747669032446,2798
3065.0863144152736,2759
3066.7975617980674,2765
3068.508509366309,2813
3070.219157434767,2860
3071.9295063182844,2865
3073.639556331785,2874
3075.3493077902704,2803
3077.058761008821,2820
3078.7679163025964,2907
3080.476773986837,2858
3082.1853343768594,2845
3083.89359778806,2819
3085.6015645359153,2834
3087.3092349359786,2671
3089.016609303884,2796
3090.7236879553434,2846
3092.4304712061476,2792
3094.136959372166,2867
3095.843152769349,2727
3097.5490517137237,2907
3099.2546565213966,2840
3100.959967508554,2834
3102.66498499146,2811
3104.3697092864577,2800
3106.0741407099695,2826
3107.778279578498,2813
3109.482126208622,2876
3111.1856809170004,2844
3112.8889440203716,2909
3114.5919158355528,2834
3116.294596679439,2841
3117.996986869006,2875
3119.6990867213062,2929
3121.4008965534726,2854
3123.102416682717,2838
3124.803647426329,2916
3126.5045891016784,2804
3128.205242026213,2860
3129.90560651746,2863
3131.605682893025,2964
3133.3054714705922,2810
3135.0049725679282,2857
3136.7041865028714,2837
3138.4031135933465,2858
3140.101754157353,2768
3141.800108512971,2852
3143.498176978357,2877
3145.1959598717494,2860
3146.8934575114636,2791
3148.5906702158954,2768
3150.2875983035183,2835
3151.9842420928853,2821
3153.680601902627,2915
3155.376678051456,2808
3157.07247085816,2783
3158.767980641609,2792
3160.463207720748,2918
3162.158152414606,2914
3163.8528150422862,2824
3165.5471959229726,2867
3167.2412953759303,2974
3168.9351137204976,2799
3170.628651276098,2897
3172.3219083622307,2841
3174.014885298474,2861
3175.707582404485,2886
3177.4000000000005,2908
3179.092138404835,2856
3180.7839979388846,2897
3182.47557892212,2927
3184.166881674594,2872
3185.8579065164386,2920
3187.5486537678626,2931
3189.2391237491547,2958
3190.9293167806827,2916
3192.6192331828934,2974
3194.3088732763117,2942
3195.998237381542,3002
3197.687325819268,2873
3199.376138910251,2922
3201.064676975334,2896
3202.7529403354347,2915
3204.4409293115523,2857
3206.1286442247647,2925
3207.816085396229,2811
3209.5032531471825,2835
3211.190147798936,2786
3212.8767696728846,2858
3214.5631190905015,2881
3216.2491963733373,2798
3217.9350018430214,2760
3219.6205358212637,2840
3221.305798629851,2801
3222.990790590651,2890
3224.6755120256103,2799
3226.359963256751,2843
3228.0441446061795,2867
3229.7280563960758,2849
3231.411698948703,2866
3233.0950725863995,2897
3234.778177631587,2868
3236.461014406761,2925
3238.1435832345005,2828
3239.8258844374595,2819
3241.507918338374,2880
3243.1896852600576,2853
3244.8711855254023,2825
3246.552419457381,2916
3248.233387379042,2890
3249.914089613516,2890
3251.59452648401,2855
3253.274698313813,2919
3254.95460542629,2886
3256.6342481448855,2889
3258.313626793125,2761
3259.9927416946084,2876
3261.6715931730196,2807
3263.3501815521176,2861
3265.0285071557437,2889
3266.706570307815,2884
3268.3843713323286,2782
3270.0619105533615,2914
3271.739188295068,2911
3273.4162048816834,2876
3275.0929606375184,2853
3276.769455886966,2807
3278.445690954498,2931
3280.1216661646613,2848
3281.797381842087,2964
3283.4728383114807,2908
3285.1480358976296,2824
3286.8229749253996,2787
3288.4976557197333,2873
3290.172078605655,2886
3291.846243908266,2846
3293.5201519527463,2856
3295.193803064357,2809
3296.8671975684374,2899
3298.5403357904024,2926
3300.21321805575,2735
3301.8858446900567,2868
3303.558216018975,2856
3305.23033236824,2877
3306.9021940636603,2810
3308.57380143113,2892
3310.2451547966184,2915
3311.916254486174,2911
3313.5871008259246,2819
3315.2576941420766,2837
3316.9280347609147,2914
3318.5981230088046,2861
3320.2679592121895,2788
3321.9375436975924,2862
3323.606876791612,2840
3325.27595882093,2913
3326.944790112305,2896
3328.6133709925753,2842
3330.2817017886573,2831
3331.949782827547,2821
3333.617614436319,2906
3335.2851969421245,2988
3336.952530672199,2902
3338.619615953853,2832
3340.286453114475,2938
3341.9530424815357,2847
3343.619384382583,2916
3345.2854791452437,2939
3346.951327097224,2852
3348.6169285663073,2983
3350.2822838803577,2845
3351.947393367319,2978
3353.61225735521,2837
3355.2768761721345,2920
3356.9412501462693,2914
3358.605379605873,2847
3360.2692648792827,2923
3361.9329062949146,2889
3363.596304181263,2870
